Data from MSPlasma+Separation6_Subt14_10-14-31-982.txt Node
Date: Fri Jul 21 10:14:31 EDT 2017
User: Ender
Spectrometer: HR+D1039
Trigger mode: 0
Integration Time (sec): 6.430000E-3
Scans to average: 20
Electric dark correction enabled: true
Nonlinearity correction enabled: false
Boxcar width: 0
XAxis mode: Wavelengths
Number of Pixels in Spectrum: 2048
>>>>>Begin Spectral Data<<<<<
187.836	0.71
188.309	0.71
188.782	0.71
189.255	-0.54
189.728	1.16
190.201	-4.29
190.674	-1.79
191.147	-4.39
191.619	1.81
192.092	-0.64
192.565	-1.39
193.038	2.36
193.511	3.76
193.984	-1.89
194.456	3.26
194.929	1.26
195.402	1.21
195.874	-0.54
196.347	4.86
196.82	1.61
197.292	-4.09
197.765	1.36
198.237	-2.34
198.71	0.36
199.182	-0.09
199.655	4.11
200.127	2.11
200.6	3.26
201.072	1.31
201.544	-4.34
202.017	2.91
202.489	0.11
202.961	2.56
203.433	-2.59
203.906	-2.04
204.378	1.51
204.85	-1.89
205.322	1.76
205.794	3.46
206.266	0.41
206.739	3.96
207.211	1.46
207.683	-1.14
208.155	-3.09
208.627	3.66
209.099	2.71
209.57	5.51
210.042	1.76
210.514	2.31
210.986	-0.04
211.458	-1.89
211.93	5.56
212.402	-0.94
212.873	-2.54
213.345	-2.89
213.817	0.41
214.288	-3.34
214.76	2.76
215.232	2.66
215.703	2.21
216.175	1.21
216.646	3.36
217.118	4.61
217.589	2.16
218.061	3.86
218.532	0.81
219.004	2.11
219.475	4.51
219.946	5.16
220.418	6.76
220.889	1.61
221.36	7.61
221.832	8.61
222.303	7.46
222.774	4.76
223.245	2.96
223.717	0.31
224.188	6.06
224.659	3.01
225.13	0.26
225.601	5.01
226.072	4.41
226.543	8.21
227.014	0.66
227.485	9.31
227.956	7.06
228.427	13.86
228.898	11.61
229.369	7.36
229.839	5.71
230.31	10.76
230.781	8.46
231.252	9.11
231.722	11.11
232.193	9.16
232.664	9.81
233.135	9.76
233.605	11.16
234.076	20.26
234.546	11.86
235.017	15.46
235.487	13.26
235.958	8.61
236.428	15.81
236.899	10.31
237.369	19.71
237.84	17.51
238.31	21.81
238.78	11.61
239.251	12.16
239.721	14.81
240.191	14.96
240.662	19.06
241.132	17.61
241.602	16.01
242.072	19.16
242.542	21.66
243.013	15.91
243.483	22.81
243.953	16.76
244.423	21.96
244.893	19.81
245.363	28.56
245.833	21.51
246.303	22.66
246.773	22.26
247.243	22.91
247.712	24.31
248.182	25.66
248.652	28.71
249.122	29.96
249.592	28.91
250.061	30.16
250.531	27.66
251.001	31.06
251.471	29.01
251.94	30.41
252.41	29.96
252.879	33.26
253.349	36.01
253.818	31.26
254.288	34.96
254.757	29.31
255.227	33.96
255.696	32.21
256.166	39.01
256.635	36.76
257.105	34.31
257.574	44.21
258.043	38.51
258.513	39.11
258.982	30.66
259.451	43.21
259.92	32.56
260.389	35.41
260.859	38.21
261.328	44.61
261.797	38.26
262.266	44.16
262.735	49.51
263.204	41.31
263.673	46.71
264.142	42.21
264.611	44.66
265.08	44.11
265.549	42.06
266.018	42.36
266.487	48.26
266.955	45.06
267.424	48.51
267.893	55.91
268.362	50.26
268.83	48.81
269.299	51.86
269.768	52.06
270.236	52.51
270.705	55.31
271.174	55.21
271.642	54.81
272.111	55.61
272.579	53.86
273.048	57.91
273.516	57.76
273.985	57.96
274.453	56.26
274.922	59.91
275.39	52.16
275.858	62.96
276.327	57.16
276.795	64.66
277.263	63.21
277.731	66.86
278.2	71.01
278.668	68.71
279.136	72.96
279.604	66.06
280.072	67.31
280.54	69.41
281.008	73.21
281.477	68.86
281.945	70.56
282.413	70.61
282.881	72.16
283.348	73.56
283.816	74.36
284.284	76.51
284.752	76.96
285.22	78.76
285.688	73.61
286.156	78.71
286.623	77.76
287.091	80.61
287.559	81.76
288.026	83.16
288.494	88.26
288.962	86.76
289.429	79.06
289.897	83.26
290.364	79.46
290.832	88.41
291.3	89.01
291.767	87.66
292.234	92.01
292.702	89.06
293.169	88.11
293.637	90.46
294.104	90.36
294.571	94.76
295.039	95.76
295.506	90.71
295.973	98.61
296.44	93.51
296.908	100.81
297.375	94.91
297.842	97.96
298.309	97.31
298.776	96.56
299.243	102.61
299.71	100.56
300.177	99.26
300.644	102.21
301.111	105.46
301.578	106.01
302.045	101.36
302.512	104.71
302.979	110.11
303.446	114.41
303.913	115.36
304.379	120.21
304.846	118.01
305.313	126.71
305.78	123.46
306.246	124.86
306.713	127.06
307.18	126.91
307.646	127.11
308.113	125.56
308.579	133.86
309.046	135.81
309.512	133.96
309.979	136.16
310.445	137.71
310.912	142.96
311.378	144.71
311.845	140.31
312.311	141.71
312.777	146.41
313.244	146.16
313.71	148.61
314.176	152.61
314.642	149.31
315.109	154.51
315.575	151.31
316.041	149.71
316.507	148.16
316.973	155.11
317.439	156.76
317.905	164.96
318.371	160.01
318.837	160.86
319.303	162.51
319.769	162.56
320.235	169.51
320.701	166.76
321.167	168.11
321.633	164.01
322.099	164.86
322.564	176.56
323.03	177.31
323.496	176.46
323.962	178.91
324.427	183.91
324.893	171.36
325.359	181.61
325.824	184.21
326.29	187.81
326.755	182.91
327.221	182.91
327.686	194.56
328.152	199.21
328.617	193.91
329.083	200.21
329.548	200.96
330.014	199.16
330.479	211.01
330.944	210.31
331.41	211.11
331.875	202.26
332.34	206.71
332.805	209.76
333.271	210.06
333.736	205.66
334.201	216.91
334.666	231.16
335.131	228.21
335.596	225.56
336.061	216.71
336.526	221.81
336.991	214.41
337.456	216.91
337.921	216.21
338.386	215.66
338.851	218.16
339.316	216.46
339.781	215.76
340.246	223.86
340.711	221.61
341.175	228.51
341.64	240.36
342.105	238.11
342.569	247.41
343.034	240.36
343.499	243.36
343.963	255.81
344.428	249.91
344.893	255.86
345.357	258.06
345.822	255.46
346.286	266.16
346.751	269.41
347.215	270.56
347.679	284.41
348.144	294.76
348.608	295.01
349.073	296.81
349.537	300.66
350.001	300.31
350.465	298.36
350.93	300.36
351.394	308.56
351.858	307.76
352.322	312.86
352.786	312.36
353.25	315.06
353.715	319.21
354.179	334.96
354.643	346.26
355.107	344.71
355.571	339.21
356.035	338.01
356.498	341.41
356.962	337.81
357.426	343.21
357.89	335.21
358.354	325.96
358.818	331.71
359.281	330.16
359.745	328.26
360.209	333.16
360.673	331.26
361.136	333.66
361.6	337.06
362.064	348.11
362.527	354.56
362.991	350.46
363.454	348.56
363.918	361.11
364.381	360.41
364.845	357.86
365.308	357.01
365.772	363.06
366.235	366.71
366.698	364.76
367.162	358.71
367.625	367.21
368.088	379.26
368.552	372.51
369.015	378.11
369.478	376.46
369.941	375.11
370.404	381.91
370.867	381.66
371.331	386.81
371.794	397.66
372.257	395.11
372.72	392.16
373.183	396.51
373.646	392.06
374.109	399.91
374.572	400.91
375.035	403.21
375.497	411.51
375.96	414.56
376.423	423.71
376.886	424.46
377.349	431.91
377.811	435.51
378.274	434.46
378.737	429.66
379.199	432.81
379.662	439.11
380.125	445.91
380.587	450.31
381.05	457.26
381.512	461.16
381.975	468.81
382.437	474.81
382.9	475.76
383.362	482.26
383.825	483.91
384.287	481.66
384.75	482.21
385.212	486.66
385.674	493.06
386.136	493.21
386.599	492.51
387.061	492.61
387.523	495.66
387.985	497.16
388.447	510.06
388.91	500.61
389.372	503.71
389.834	510.61
390.296	503.96
390.758	509.96
391.22	510.96
391.682	509.31
392.144	513.71
392.606	513.91
393.068	522.96
393.529	553.01
393.991	560.86
394.453	538.76
394.915	527.76
395.377	511.76
395.838	522.71
396.3	522.01
396.762	530.06
397.224	531.16
397.685	525.26
398.147	535.76
398.608	538.21
399.07	550.61
399.531	540.46
399.993	556.26
400.454	573.16
400.916	560.76
401.377	575.76
401.839	579.91
402.3	581.06
402.762	613.26
403.223	649.76
403.684	653.71
404.145	618.01
404.607	610.56
405.068	596.71
405.529	614.51
405.99	631.71
406.451	628.86
406.913	618.61
407.374	615.51
407.835	623.16
408.296	636.31
408.757	633.51
409.218	655.71
409.679	665.21
410.14	667.11
410.601	683.81
411.062	687.91
411.522	692.61
411.983	686.11
412.444	702.06
412.905	706.46
413.366	741.01
413.826	771.46
414.287	861.96
414.748	1035.46
415.208	1048.66
415.669	877.81
416.13	797.16
416.59	780.71
417.051	811.76
417.511	848.91
417.972	908.66
418.432	981.26
418.893	1082.06
419.353	1034.01
419.814	801.06
420.274	717.36
420.734	703.16
421.195	731.31
421.655	723.06
422.115	741.61
422.576	734.46
423.036	742.16
423.496	770.56
423.956	798.11
424.416	852.26
424.876	951.96
425.336	958.16
425.797	940.81
426.257	928.36
426.717	870.81
427.177	816.76
427.637	815.21
428.097	859.06
428.556	883.01
429.016	945.81
429.476	951.81
429.936	931.56
430.396	921.76
430.856	955.46
431.315	974.76
431.775	1041.01
432.235	1117.81
432.694	1131.86
433.154	1063.81
433.614	1042.41
434.073	1005.86
434.533	905.71
434.993	885.16
435.452	882.81
435.912	867.76
436.371	865.06
436.83	849.21
437.29	834.16
437.749	816.31
438.209	811.06
438.668	821.46
439.127	833.41
439.587	818.71
440.046	801.26
440.505	818.21
440.964	824.86
441.424	846.71
441.883	862.66
442.342	819.01
442.801	788.91
443.26	790.66
443.719	789.71
444.178	783.76
444.637	793.41
445.096	807.71
445.555	813.01
446.014	814.06
446.473	797.51
446.932	798.06
447.391	814.61
447.849	827.31
448.308	819.36
448.767	821.26
449.226	839.01
449.685	844.36
450.143	889.16
450.602	883.06
451.061	837.11
451.519	835.06
451.978	826.41
452.436	831.36
452.895	829.31
453.353	826.56
453.812	812.11
454.27	825.76
454.729	825.56
455.187	835.66
455.646	833.31
456.104	831.71
456.562	848.81
457.021	860.21
457.479	819.41
457.937	848.36
458.395	877.66
458.854	872.01
459.312	857.96
459.77	868.66
460.228	872.66
460.686	880.26
461.144	878.71
461.602	876.51
462.06	878.56
462.518	900.31
462.976	891.21
463.434	913.61
463.892	915.71
464.35	932.01
464.808	942.16
465.266	955.26
465.724	967.66
466.181	975.96
466.639	966.51
467.097	1009.46
467.555	1041.21
468.012	1033.71
468.47	1042.26
468.928	1084.21
469.385	1101.06
469.843	1118.36
470.3	1112.11
470.758	1151.96
471.215	1157.51
471.673	1188.46
472.13	1216.31
472.588	1243.46
473.045	1244.86
473.503	1263.26
473.96	1320.31
474.417	1329.91
474.875	1384.46
475.332	1436.46
475.789	1460.31
476.246	1499.36
476.704	1559.96
477.161	1616.66
477.618	1648.31
478.075	1735.46
478.532	1864.96
478.989	2006.61
479.446	2196.21
479.903	2304.51
480.36	2491.11
480.817	2632.61
481.274	2808.66
481.731	3064.11
482.188	3279.71
482.645	3498.01
483.102	3681.91
483.558	3940.66
484.015	4125.26
484.472	4088.91
484.929	3983.76
485.385	3813.76
485.842	3737.26
486.299	3587.01
486.755	3302.91
487.212	2998.36
487.668	2703.36
488.125	2513.46
488.582	2355.16
489.038	2256.26
489.494	2204.51
489.951	2138.26
490.407	2085.51
490.864	2056.26
491.32	2022.06
491.776	1992.41
492.233	1990.26
492.689	1972.41
493.145	1929.66
493.602	1910.61
494.058	1925.56
494.514	1942.96
494.97	1937.81
495.426	1963.96
495.882	1960.41
496.338	1948.46
496.794	1967.56
497.251	1966.06
497.707	1992.46
498.163	1995.76
498.618	1991.16
499.074	1984.76
499.53	2010.06
499.986	2026.41
500.442	2009.21
500.898	1973.31
501.354	2007.51
501.809	2004.81
502.265	2004.11
502.721	2005.46
503.177	2014.36
503.632	2021.46
504.088	2030.91
504.543	2064.16
504.999	2075.11
505.455	2074.26
505.91	2059.56
506.366	2055.11
506.821	2050.51
507.277	2054.26
507.732	2050.01
508.187	2058.71
508.643	2076.36
509.098	2073.56
509.553	2107.26
510.009	2133.71
510.464	2160.16
510.919	2173.16
511.375	2196.46
511.83	2230.71
512.285	2269.31
512.74	2297.86
513.195	2336.61
513.65	2379.51
514.105	2416.06
514.56	2405.36
515.015	2449.41
515.47	2470.26
515.925	2440.06
516.38	2450.36
516.835	2467.96
517.29	2442.21
517.745	2442.86
518.2	2402.86
518.655	2350.46
519.109	2323.56
519.564	2292.46
520.019	2282.01
520.474	2264.21
520.928	2252.46
521.383	2219.56
521.838	2211.51
522.292	2198.01
522.747	2190.46
523.201	2183.16
523.656	2157.41
524.11	2151.81
524.565	2131.31
525.019	2142.21
525.474	2144.66
525.928	2125.56
526.382	2132.71
526.837	2129.51
527.291	2139.56
527.745	2126.41
528.2	2121.56
528.654	2107.01
529.108	2108.06
529.562	2104.71
530.016	2097.86
530.47	2112.31
530.925	2093.31
531.379	2098.21
531.833	2122.26
532.287	2120.06
532.741	2107.71
533.195	2118.26
533.649	2129.76
534.103	2130.11
534.556	2112.36
535.01	2107.86
535.464	2115.91
535.918	2114.81
536.372	2134.01
536.826	2128.96
537.279	2097.71
537.733	2107.26
538.187	2114.36
538.64	2116.26
539.094	2118.81
539.548	2160.56
540.001	2153.16
540.455	2164.61
540.908	2174.21
541.362	2190.01
541.815	2201.86
542.269	2254.06
542.722	2242.36
543.175	2278.36
543.629	2274.41
544.082	2300.56
544.536	2323.01
544.989	2325.46
545.442	2355.26
545.895	2335.96
546.349	2333.01
546.802	2352.31
547.255	2351.16
547.708	2364.16
548.161	2383.31
548.614	2382.91
549.067	2401.06
549.52	2383.41
549.973	2360.76
550.426	2350.16
550.879	2348.06
551.332	2346.46
551.785	2361.46
552.238	2383.86
552.691	2380.86
553.144	2420.66
553.596	2458.56
554.049	2483.11
554.502	2545.66
554.955	2584.51
555.407	2599.56
555.86	2579.56
556.313	2555.86
556.765	2540.11
557.218	2511.71
557.67	2494.11
558.123	2463.41
558.576	2452.86
559.028	2444.16
559.48	2476.86
559.933	2450.91
560.385	2377.91
560.838	2308.71
561.29	2240.56
561.742	2230.36
562.195	2183.56
562.647	2155.16
563.099	2151.21
563.551	2141.21
564.004	2162.41
564.456	2134.01
564.908	2089.41
565.36	2056.76
565.812	2009.06
566.264	1991.96
566.716	1959.16
567.168	1930.96
567.62	1946.31
568.072	1926.76
568.524	1911.36
568.976	1894.46
569.428	1884.06
569.88	1875.21
570.332	1895.26
570.784	1894.86
571.235	1896.91
571.687	1911.71
572.139	1921.41
572.59	1935.86
573.042	1946.26
573.494	1932.06
573.945	1902.91
574.397	1859.86
574.849	1857.26
575.3	1873.76
575.752	1842.06
576.203	1832.11
576.655	1831.21
577.106	1806.61
577.557	1796.81
578.009	1794.71
578.46	1794.56
578.912	1773.81
579.363	1795.96
579.814	1786.76
580.265	1788.66
580.717	1786.46
581.168	1789.91
581.619	1790.31
582.07	1806.21
582.521	1796.06
582.972	1796.26
583.423	1791.21
583.875	1800.01
584.326	1830.36
584.777	1860.61
585.227	1893.06
585.678	1919.31
586.129	1944.41
586.58	1970.31
587.031	1995.11
587.482	2050.26
587.933	2096.21
588.384	2060.31
588.834	2044.11
589.285	2010.51
589.736	2025.41
590.186	2015.41
590.637	1999.06
591.088	1945.36
591.538	1920.76
591.989	1891.01
592.439	1870.66
592.89	1844.46
593.34	1838.01
593.791	1832.66
594.241	1816.76
594.692	1805.96
595.142	1815.71
595.593	1798.76
596.043	1819.41
596.493	1838.01
596.943	1822.06
597.394	1894.31
597.844	1896.01
598.294	1938.86
598.744	2004.71
599.195	2108.01
599.645	2226.66
600.095	2342.66
600.545	2460.56
600.995	2561.11
601.445	2645.86
601.895	2776.96
602.345	2865.41
602.795	2825.06
603.245	2707.01
603.695	2545.31
604.145	2419.01
604.594	2300.46
605.044	2189.56
605.494	2040.86
605.944	1938.31
606.393	1901.66
606.843	1852.56
607.293	1846.11
607.743	1841.51
608.192	1848.81
608.642	1854.11
609.091	1855.81
609.541	1845.81
609.99	1841.61
610.44	1805.56
610.889	1787.96
611.339	1753.06
611.788	1737.36
612.238	1749.41
612.687	1754.76
613.136	1759.26
613.586	1783.01
614.035	1769.61
614.484	1780.96
614.933	1778.81
615.383	1747.41
615.832	1706.61
616.281	1691.61
616.73	1663.46
617.179	1621.41
617.628	1587.56
618.077	1571.81
618.526	1542.21
618.975	1525.06
619.424	1504.66
619.873	1509.91
620.322	1494.06
620.771	1482.66
621.22	1468.26
621.669	1438.66
622.118	1429.91
622.567	1411.96
623.015	1382.46
623.464	1381.36
623.913	1364.21
624.361	1365.06
624.81	1353.41
625.259	1364.01
625.707	1354.01
626.156	1372.76
626.604	1386.41
627.053	1387.26
627.501	1382.06
627.95	1400.66
628.398	1408.46
628.847	1392.41
629.295	1393.86
629.744	1385.41
630.192	1351.51
630.64	1347.26
631.089	1322.71
631.537	1293.86
631.985	1272.26
632.433	1265.36
632.881	1260.76
633.33	1278.81
633.778	1271.81
634.226	1272.81
634.674	1291.91
635.122	1291.26
635.57	1312.56
636.018	1331.66
636.466	1338.41
636.914	1335.16
637.362	1355.46
637.81	1378.56
638.258	1421.21
638.705	1439.26
639.153	1485.91
639.601	1490.61
640.049	1520.11
640.497	1556.06
640.944	1605.81
641.392	1541.06
641.84	1457.31
642.287	1384.31
642.735	1354.26
643.182	1341.81
643.63	1336.91
644.078	1347.56
644.525	1364.56
644.973	1391.71
645.42	1425.51
645.867	1460.31
646.315	1487.41
646.762	1539.51
647.21	1583.31
647.657	1662.71
648.104	1715.86
648.551	1768.76
648.999	1916.61
649.446	2084.96
649.893	2317.26
650.34	2690.81
650.787	3311.01
651.234	4257.86
651.682	5830.36
652.129	8221.06
652.576	11646.06
653.023	15125.06
653.47	15537.36
653.917	15537.41
654.363	15537.31
654.81	15534.31
655.257	15534.96
655.704	14762.71
656.151	9022.91
656.598	5954.81
657.044	4269.41
657.491	3376.46
657.938	2753.71
658.385	2344.61
658.831	2064.71
659.278	1856.46
659.724	1712.61
660.171	1600.01
660.618	1487.41
661.064	1399.46
661.511	1360.96
661.957	1320.46
662.404	1294.71
662.85	1280.86
663.296	1258.96
663.743	1233.51
664.189	1236.76
664.635	1217.51
665.082	1189.66
665.528	1172.46
665.974	1135.86
666.42	1126.26
666.867	1114.76
667.313	1067.06
667.759	1047.31
668.205	1033.26
668.651	1048.61
669.097	1047.76
669.543	1047.31
669.989	1063.76
670.435	1061.81
670.881	1073.76
671.327	1120.11
671.773	1186.66
672.219	1283.11
672.665	1362.46
673.11	1413.31
673.556	1425.46
674.002	1454.26
674.448	1478.06
674.893	1253.66
675.339	1091.61
675.785	1009.01
676.23	964.21
676.676	927.61
677.122	898.36
677.567	871.41
678.013	848.76
678.458	843.36
678.904	843.11
679.349	834.21
679.794	831.91
680.24	829.31
680.685	815.76
681.131	812.86
681.576	820.16
682.021	829.66
682.466	831.16
682.912	846.36
683.357	883.01
683.802	961.41
684.247	1051.76
684.692	1121.61
685.137	1162.91
685.583	1184.21
686.028	1251.66
686.473	1192.56
686.918	1025.46
687.363	931.06
687.807	894.11
688.252	855.86
688.697	814.36
689.142	791.91
689.587	799.26
690.032	819.06
690.477	849.01
690.921	888.71
691.366	932.11
691.811	978.61
692.255	1056.01
692.7	1278.61
693.145	1852.11
693.589	2825.26
694.034	3372.56
694.478	3575.36
694.923	3273.51
695.367	4646.91
695.812	2851.56
696.256	1195.96
696.701	879.81
697.145	802.71
697.59	779.46
698.034	763.61
698.478	763.71
698.922	771.76
699.367	787.01
699.811	830.06
700.255	898.01
700.699	976.06
701.143	1062.46
701.588	1121.06
702.032	1174.96
702.476	1204.61
702.92	1284.76
703.364	1686.46
703.808	2591.31
704.252	3221.31
704.696	3408.81
705.14	3198.36
705.584	4397.81
706.027	2454.96
706.471	1230.61
706.915	921.56
707.359	813.61
707.803	761.66
708.246	732.46
708.69	727.51
709.134	719.71
709.577	714.51
710.021	725.16
710.465	716.71
710.908	711.51
711.352	742.41
711.795	824.81
712.239	890.71
712.682	909.46
713.126	890.51
713.569	993.26
714.012	817.31
714.456	712.56
714.899	668.56
715.342	642.96
715.786	615.06
716.229	602.71
716.672	586.61
717.115	588.06
717.558	596.01
718.002	611.96
718.445	638.51
718.888	671.66
719.331	687.36
719.774	697.36
720.217	687.41
720.66	655.56
721.103	613.76
721.546	584.16
721.989	570.21
722.432	558.66
722.874	551.36
723.317	567.96
723.76	611.21
724.203	758.66
724.645	1011.71
725.088	1193.01
725.531	1168.46
725.974	1275.26
726.416	1147.11
726.859	709.21
727.301	583.41
727.744	552.71
728.187	549.91
728.629	565.91
729.071	592.96
729.514	620.56
729.956	645.01
730.399	661.56
730.841	658.46
731.283	644.36
731.726	625.06
732.168	640.21
732.61	668.96
733.053	721.96
733.495	807.31
733.937	900.51
734.379	1044.31
734.821	1346.86
735.263	2131.81
735.705	3840.51
736.148	5633.91
736.59	5632.61
737.032	6082.21
737.474	5017.41
737.916	1938.06
738.357	1012.21
738.799	778.21
739.241	714.86
739.683	717.11
740.125	746.81
740.567	745.86
741.008	791.16
741.45	827.86
741.892	867.86
742.334	870.71
742.775	860.41
743.217	836.41
743.658	707.76
744.1	726.86
744.542	824.21
744.983	864.41
745.425	898.61
745.866	872.96
746.307	743.86
746.749	786.21
747.19	1155.76
747.632	2257.61
748.073	4181.71
748.514	5776.91
748.956	7642.46
749.397	8969.76
749.838	6211.76
750.279	5898.16
750.72	3061.11
751.162	1292.66
751.603	744.01
752.044	589.46
752.485	525.26
752.926	489.71
753.367	477.56
753.808	460.31
754.249	454.06
754.69	450.86
755.131	444.56
755.572	441.16
756.013	446.41
756.453	444.51
756.894	450.41
757.335	459.26
757.776	460.01
758.216	474.96
758.657	500.11
759.098	552.86
759.538	677.51
759.979	976.26
760.42	1983.26
760.86	5072.51
761.301	10442.76
761.741	12275.31
762.182	13977.71
762.622	9151.61
763.063	3268.96
763.503	1337.16
763.943	786.56
764.384	628.51
764.824	532.96
765.264	496.26
765.705	468.81
766.145	441.06
766.585	425.86
767.025	416.81
767.465	416.06
767.906	423.71
768.346	451.06
768.786	524.61
769.226	766.71
769.666	1547.46
770.106	3471.51
770.546	4954.16
770.986	5583.11
771.426	4219.76
771.866	1759.96
772.306	803.81
772.745	492.06
773.185	412.96
773.625	405.21
774.065	424.11
774.505	599.31
774.944	1045.16
775.384	1501.06
775.824	1667.71
776.263	1382.91
776.703	748.96
777.142	439.16
777.582	336.21
778.021	310.66
778.461	296.21
778.9	293.31
779.34	281.61
779.779	278.41
780.219	271.81
780.658	265.71
781.097	270.06
781.537	252.61
781.976	256.31
782.415	253.36
782.855	252.21
783.294	248.61
783.733	250.91
784.172	253.61
784.611	252.66
785.05	260.41
785.489	266.51
785.928	276.51
786.367	280.91
786.806	300.46
787.245	325.31
787.684	336.06
788.123	326.61
788.562	321.71
789.001	306.01
789.44	294.36
789.879	300.06
790.317	301.41
790.756	319.21
791.195	356.41
791.634	493.56
792.072	893.11
792.511	2202.81
792.95	4035.46
793.388	4877.66
793.827	3181.06
794.265	1449.51
794.704	702.56
795.142	428.11
795.581	349.51
796.019	315.16
796.458	320.71
796.896	329.21
797.334	381.56
797.773	509.86
798.211	969.61
798.649	2037.26
799.087	3423.66
799.526	4826.71
799.964	4965.06
800.402	3426.01
800.84	1552.86
801.278	754.66
801.716	457.36
802.154	375.61
802.592	347.06
803.03	351.76
803.468	359.76
803.906	362.01
804.344	354.41
804.782	351.56
805.22	347.96
805.658	362.71
806.096	379.06
806.533	429.46
806.971	555.61
807.409	801.56
807.847	1594.81
808.284	4080.46
808.722	7117.91
809.16	10009.61
809.597	13484.81
810.035	15476.76
810.472	10934.86
810.91	4645.41
811.347	2078.41
811.785	984.91
812.222	617.36
812.66	469.31
813.097	404.11
813.535	358.26
813.972	318.61
814.409	296.81
814.846	283.96
815.284	266.06
815.721	267.01
816.158	293.56
816.595	393.66
817.032	494.11
817.47	453.01
817.907	330.96
818.344	290.16
818.781	284.91
819.218	350.01
819.655	516.96
820.092	670.76
820.529	607.46
820.966	478.31
821.403	340.51
821.839	287.96
822.276	316.61
822.713	377.36
823.15	359.41
823.587	383.76
824.023	665.61
824.46	1654.81
824.897	2894.46
825.333	2258.56
825.77	1043.81
826.206	544.51
826.643	317.76
827.08	241.41
827.516	206.66
827.953	196.26
828.389	183.26
828.825	177.51
829.262	166.71
829.698	165.76
830.135	157.81
830.571	160.01
831.007	158.36
831.443	153.91
831.88	153.76
832.316	165.66
832.752	157.01
833.188	169.01
833.624	167.81
834.06	168.66
834.497	166.81
834.933	170.36
835.369	194.21
835.805	196.36
836.241	208.16
836.677	229.71
837.112	263.16
837.548	331.71
837.984	489.86
838.42	1058.11
838.856	2935.21
839.292	5769.46
839.727	4301.11
840.163	2905.56
840.599	4376.46
841.034	6674.36
841.47	3357.16
841.906	1621.31
842.341	863.06
842.777	625.86
843.212	623.61
843.648	400.51
844.083	273.61
844.519	206.66
844.954	176.76
845.39	158.46
845.825	156.86
846.261	152.51
846.696	141.56
847.131	138.46
847.566	136.81
848.002	145.56
848.437	151.76
848.872	159.81
849.307	201.46
849.742	362.71
850.177	956.31
850.613	2031.01
851.048	1473.41
851.483	677.31
851.918	374.81
852.353	204.71
852.788	145.16
853.223	136.21
853.657	120.36
854.092	117.51
854.527	115.36
854.962	121.21
855.397	135.16
855.832	118.96
856.266	106.31
856.701	106.61
857.136	113.41
857.57	133.71
858.005	154.46
858.44	134.21
858.874	128.81
859.309	133.11
859.743	123.11
860.178	124.41
860.612	137.31
861.047	179.41
861.481	247.91
861.915	166.96
862.35	130.31
862.784	111.46
863.218	100.16
863.653	108.31
864.087	130.91
864.521	162.06
864.955	281.76
865.39	472.01
865.824	362.61
866.258	449.01
866.692	681.76
867.126	488.41
867.56	267.11
867.994	168.41
868.428	146.41
868.862	180.21
869.296	165.51
869.73	198.56
870.164	176.31
870.598	160.71
871.031	114.36
871.465	101.11
871.899	83.51
872.333	70.76
872.766	73.41
873.2	72.21
873.634	72.91
874.067	76.96
874.501	77.91
874.935	77.31
875.368	82.51
875.802	70.31
876.235	67.51
876.669	68.86
877.102	57.21
877.535	61.91
877.969	56.21
878.402	63.01
878.836	64.36
879.269	60.01
879.702	59.11
880.135	63.66
880.569	65.11
881.002	54.36
881.435	57.86
881.868	58.96
882.301	55.16
882.734	52.76
883.167	55.96
883.601	54.56
884.034	54.06
884.467	48.96
884.899	55.41
885.332	43.21
885.765	49.96
886.198	49.01
886.631	48.36
887.064	54.26
887.497	44.86
887.929	49.66
888.362	45.96
888.795	45.16
889.228	55.46
889.66	48.81
890.093	46.56
890.526	45.31
890.958	48.86
891.391	47.31
891.823	45.01
892.256	44.06
892.688	45.11
893.121	42.56
893.553	47.51
893.985	41.31
894.418	43.01
894.85	48.41
895.282	47.41
895.715	38.36
896.147	34.01
896.579	44.56
897.011	47.11
897.444	41.66
897.876	34.96
898.308	37.66
898.74	44.26
899.172	44.46
899.604	45.71
900.036	45.31
900.468	37.61
900.9	47.51
901.332	53.56
901.764	57.36
902.196	52.61
902.628	58.26
903.06	83.66
903.491	86.86
903.923	78.36
904.355	75.96
904.787	75.71
905.218	59.01
905.65	58.81
906.082	52.96
906.513	54.61
906.945	53.16
907.376	47.01
907.808	50.56
908.239	58.71
908.671	58.66
909.102	70.16
909.534	93.96
909.965	182.61
910.397	474.36
910.828	1356.21
911.259	832.46
911.691	443.86
912.122	259.86
912.553	130.56
912.984	75.21
913.415	67.16
913.847	57.76
914.278	50.46
914.709	44.06
915.14	43.16
915.571	48.86
916.002	48.66
916.433	43.51
916.864	45.41
917.295	44.76
917.726	51.71
918.157	65.96
918.587	66.66
919.018	60.96
919.449	57.76
919.88	68.36
920.311	103.61
920.741	286.56
921.172	505.31
921.603	249.76
922.033	157.31
922.464	107.21
922.895	64.66
923.325	46.56
923.756	40.41
924.186	48.46
924.617	74.21
925.047	107.66
925.478	94.91
925.908	70.86
926.338	55.01
926.769	38.91
927.199	43.26
927.629	41.46
928.06	47.61
928.49	43.36
928.92	38.66
929.35	37.61
929.78	27.01
930.21	28.06
930.641	23.41
931.071	26.76
931.501	20.06
931.931	17.81
932.361	22.06
932.791	28.06
933.221	31.91
933.651	41.01
934.08	64.26
934.51	41.51
934.94	33.11
935.37	27.41
935.8	23.46
936.229	23.31
936.659	20.36
937.089	39.46
937.519	59.31
937.948	80.71
938.378	45.91
938.807	28.01
939.237	15.61
939.666	19.56
940.096	10.11
940.525	8.56
940.955	13.96
941.384	12.16
941.814	11.86
942.243	10.01
942.672	10.01
943.102	6.86
943.531	9.76
943.96	7.21
944.39	13.21
944.819	13.91
945.248	11.86
945.677	12.26
946.106	11.66
946.535	13.81
946.964	11.51
947.393	11.66
947.822	8.81
948.251	13.26
948.68	11.51
949.109	8.56
949.538	9.41
949.967	11.66
950.396	9.06
950.825	14.61
951.254	11.21
951.682	8.66
952.111	6.21
952.54	9.01
952.969	8.61
953.397	7.71
953.826	11.21
954.254	11.96
954.683	8.61
955.112	11.96
955.54	8.26
955.969	11.51
956.397	10.56
956.826	6.16
957.254	9.06
957.682	9.46
958.111	7.76
958.539	8.76
958.967	10.11
959.396	11.86
959.824	8.51
960.252	5.06
960.68	9.81
961.109	11.21
961.537	15.51
961.965	6.91
962.393	8.51
962.821	8.56
963.249	12.86
963.677	15.41
964.105	80.21
964.533	143.26
964.961	70.81
965.389	40.11
965.817	25.86
966.245	11.96
966.672	9.46
967.1	10.56
967.528	3.66
967.956	5.26
968.383	9.71
968.811	3.51
969.239	5.56
969.666	8.71
970.094	7.16
970.522	6.16
970.949	7.56
971.377	1.31
971.804	6.51
972.232	4.41
972.659	3.51
973.087	8.21
973.514	2.86
973.941	-0.14
974.369	2.36
974.796	5.31
975.223	5.01
975.651	7.61
976.078	3.66
976.505	11.06
976.932	35.81
977.359	40.41
977.786	26.91
978.214	21.56
978.641	6.66
979.068	7.66
979.495	5.81
979.922	9.86
980.349	7.81
980.776	5.11
981.202	6.81
981.629	5.56
982.056	8.56
982.483	1.86
982.91	6.86
983.337	5.16
983.763	6.66
984.19	8.36
984.617	2.66
985.043	7.16
985.47	9.31
985.897	3.31
986.323	9.11
986.75	4.41
987.176	4.96
987.603	5.51
988.029	2.16
988.456	5.26
988.882	0.06
989.308	0.21
989.735	-0.59
990.161	6.26
990.587	2.31
991.014	4.11
991.44	4.26
991.866	2.96
992.292	1.06
992.719	3.66
993.145	6.61
993.571	6.71
993.997	8.76
994.423	6.76
994.849	0.06
995.275	5.76
995.701	3.46
996.127	1.61
996.553	3.36
996.979	1.71
997.405	5.81
997.83	1.21
998.256	3.71
998.682	2.41
999.108	5.41
999.534	1.66
999.959	1.86
1000.385	6.11
1000.811	1.66
1001.236	2.01
1001.662	4.71
1002.087	11.86
1002.513	5.31
1002.938	-0.04
1003.364	4.66
1003.789	4.96
1004.215	4.26
1004.64	2.76
1005.066	5.46
1005.491	7.66
1005.916	6.26
1006.342	7.51
1006.767	6.01
1007.192	8.51
1007.617	6.46
1008.042	5.91
1008.468	0.11
1008.893	5.31
1009.318	11.56
1009.743	17.81
1010.168	26.41
1010.593	22.36
1011.018	18.06
1011.443	7.21
1011.868	9.76
1012.293	4.56
1012.718	1.51
1013.143	4.16
1013.567	8.36
1013.992	4.11
1014.417	2.01
1014.842	-0.74
1015.267	1.46
1015.691	6.86
1016.116	6.06
1016.541	6.01
1016.965	0.31
1017.39	5.41
1017.814	0.21
1018.239	-1.04
1018.663	-8.19
1019.088	-0.49
1019.512	4.76
1019.937	-1.89
1020.361	3.66
1020.785	-2.59
1021.21	0.46
1021.634	2.16
1022.058	3.86
1022.483	-0.24
1022.907	-1.14
1023.331	-1.04
1023.755	-0.74
1024.179	1.26
1024.604	3.71
1025.028	1.11
1025.452	6.21
1025.876	6.26
1026.3	2.81
1026.724	-0.19
1027.148	4.26
1027.572	1.76
1027.996	1.76
1028.42	-0.74
1028.843	2.11
1029.267	-2.99
1029.691	5.26
1030.115	-1.29
1030.539	-3.19
1030.962	-4.39
1031.386	1.76
1031.81	-0.59
1032.233	0.21
1032.657	-4.99
1033.08	-1.44
1033.504	0.56
1033.927	-1.19
1034.351	-2.44
1034.774	-0.44
1035.198	-1.39
1035.621	-0.74
1036.045	0.41
1036.468	3.21
1036.891	0.26
1037.315	3.51
1037.738	-1.34
1038.161	1.01
1038.584	-1.54
1039.008	-7.09
1039.431	-1.39
1039.854	-5.84
1040.277	3.26
1040.7	-2.79
1041.123	4.71
1041.546	-1.34
1041.969	0.21
1042.392	2.01
1042.815	-6.29
1043.238	-0.94
1043.661	-1.84
1044.084	2.01
1044.507	-1.89
1044.93	3.31
1045.352	-0.44
1045.775	1.46
1046.198	2.91
1046.621	3.86
1047.043	-3.34
1047.466	1.56
1047.889	3.66
1048.311	1.21
1048.734	0.26
1049.156	0.71
1049.579	-0.99
1050.001	-1.19
1050.424	-1.04
1050.846	-3.99
1051.269	-2.19
1051.691	0.01
1052.113	2.26
1052.536	-2.69
1052.958	-3.19
1053.38	-0.19
1053.802	4.81
1054.225	2.86
1054.647	6.86
1055.069	-3.04
1055.491	0.56
1055.913	0.81
1056.335	-7.59
1056.757	-5.94
1057.179	1.36
1057.601	0.66
1058.023	-2.54
1058.445	-4.29
1058.867	-0.99
1059.289	2.61
1059.711	0.51
1060.133	-0.49
1060.555	-7.69
1060.976	1.71
1061.398	0.96
1061.82	1.71
1062.241	-2.99
1062.663	-2.59
1063.085	-0.29
1063.506	-5.14
1063.928	-7.39
1064.35	5.01
1064.771	-1.64
1065.193	-4.89
1065.614	-0.24
1066.035	2.06
1066.457	5.21
1066.878	-1.29
1067.3	1.11
1067.721	1.61
1068.142	4.86
1068.564	1.96
1068.985	0.26
1069.406	-8.64
1069.827	1.91
1070.248	-2.29
1070.67	-2.24
1071.091	-5.49
1071.512	-5.74
1071.933	2.81
1072.354	-7.49
1072.775	-2.79
1073.196	2.56
1073.617	-7.89
1074.038	-3.89
1074.459	-3.29
1074.88	-3.29
1075.3	-2.84
1075.721	2.46
1076.142	0.16
1076.563	-8.39
1076.983	1.91
1077.404	-5.99
1077.825	1.36
1078.246	-3.19
1078.666	-3.69
1079.087	0.36
1079.507	-0.29
1079.928	1.66
1080.348	-3.94
1080.769	-0.44
1081.189	-2.99
1081.61	-3.44
1082.03	-1.29
1082.451	-1.29
1082.871	-4.89
1083.291	-4.19
1083.711	0.91
1084.132	-1.69
1084.552	-2.14
1084.972	-4.39
1085.392	-2.94
1085.813	-0.44
1086.233	-3.04
1086.653	0.91
1087.073	-5.54
1087.493	-0.89
1087.913	-3.69
1088.333	-1.39
1088.753	-0.94
1089.173	3.01
1089.593	-1.34
1090.013	-3.79
1090.433	-6.69
1090.852	-0.39
1091.272	-6.74
1091.692	0.16
1092.112	-4.59
1092.531	-3.99
1092.951	-0.49
1093.371	0.51
1093.79	-2.69
1094.21	-3.29
1094.63	-0.89
1095.049	0.86
1095.469	-7.04
1095.888	0.46
1096.308	-3.44
1096.727	-4.74
1097.146	-7.44
1097.566	-3.94
1097.985	-1.14
1098.405	-0.09
1098.824	1.81
1099.243	-2.89
1099.662	-2.99
1100.082	2.51
1100.501	-1.34
1100.92	4.36
1101.339	1.01
1101.758	3.46
