Data from MSPlasma+Separation6_Subt14_10-14-18-609.txt Node
Date: Fri Jul 21 10:14:18 EDT 2017
User: Ender
Spectrometer: HR+D1039
Trigger mode: 0
Integration Time (sec): 6.430000E-3
Scans to average: 20
Electric dark correction enabled: true
Nonlinearity correction enabled: false
Boxcar width: 0
XAxis mode: Wavelengths
Number of Pixels in Spectrum: 2048
>>>>>Begin Spectral Data<<<<<
187.836	0.69
188.309	0.69
188.782	0.69
189.255	0.24
189.728	0.09
190.201	-3.21
190.674	0.44
191.147	3.09
191.619	-0.76
192.092	0.04
192.565	2.34
193.038	5.19
193.511	2.44
193.984	-3.21
194.456	-3.61
194.929	-0.36
195.402	-1.66
195.874	-1.71
196.347	1.19
196.82	3.74
197.292	-2.21
197.765	-1.26
198.237	-4.41
198.71	-0.76
199.182	0.14
199.655	2.49
200.127	-1.01
200.6	0.99
201.072	2.84
201.544	4.24
202.017	1.84
202.489	-1.31
202.961	0.39
203.433	-4.56
203.906	-4.11
204.378	2.29
204.85	-1.31
205.322	-1.71
205.794	2.29
206.266	1.59
206.739	2.79
207.211	1.69
207.683	0.44
208.155	6.79
208.627	0.09
209.099	3.54
209.57	4.69
210.042	3.39
210.514	2.64
210.986	1.54
211.458	-0.46
211.93	0.54
212.402	2.29
212.873	0.09
213.345	1.59
213.817	1.34
214.288	-0.06
214.76	6.84
215.232	1.29
215.703	4.44
216.175	3.09
216.646	4.64
217.118	0.84
217.589	-2.96
218.061	-0.86
218.532	-2.71
219.004	5.59
219.475	4.69
219.946	2.49
220.418	5.34
220.889	6.09
221.36	5.84
221.832	5.19
222.303	1.84
222.774	4.34
223.245	0.99
223.717	-0.36
224.188	2.99
224.659	3.14
225.13	0.59
225.601	1.94
226.072	3.74
226.543	9.29
227.014	6.34
227.485	7.54
227.956	9.59
228.427	10.74
228.898	11.69
229.369	4.29
229.839	10.14
230.31	10.29
230.781	6.14
231.252	10.84
231.722	6.44
232.193	11.84
232.664	8.89
233.135	10.39
233.605	9.84
234.076	11.79
234.546	11.09
235.017	13.29
235.487	13.19
235.958	14.99
236.428	15.29
236.899	16.09
237.369	19.24
237.84	19.94
238.31	19.84
238.78	11.39
239.251	13.59
239.721	12.29
240.191	11.74
240.662	18.44
241.132	14.49
241.602	19.54
242.072	18.04
242.542	13.59
243.013	15.49
243.483	24.24
243.953	15.99
244.423	19.84
244.893	19.94
245.363	20.69
245.833	21.54
246.303	17.24
246.773	23.19
247.243	18.34
247.712	26.39
248.182	23.69
248.652	27.84
249.122	23.69
249.592	25.34
250.061	24.09
250.531	23.89
251.001	25.64
251.471	30.99
251.94	27.14
252.41	27.49
252.879	26.94
253.349	37.59
253.818	29.14
254.288	32.59
254.757	32.34
255.227	34.99
255.696	35.29
256.166	36.44
256.635	39.84
257.105	37.04
257.574	35.69
258.043	34.39
258.513	37.24
258.982	32.74
259.451	41.74
259.92	36.14
260.389	36.69
260.859	36.99
261.328	42.14
261.797	37.79
262.266	42.74
262.735	43.54
263.204	40.39
263.673	45.64
264.142	38.49
264.611	44.54
265.08	45.59
265.549	39.04
266.018	42.79
266.487	47.19
266.955	44.34
267.424	49.99
267.893	49.99
268.362	49.34
268.83	47.39
269.299	48.09
269.768	46.44
270.236	51.04
270.705	56.09
271.174	53.64
271.642	48.84
272.111	52.89
272.579	57.44
273.048	55.69
273.516	58.99
273.985	52.44
274.453	55.04
274.922	53.79
275.39	58.69
275.858	62.44
276.327	61.14
276.795	62.94
277.263	61.59
277.731	58.89
278.2	68.49
278.668	63.19
279.136	69.09
279.604	65.89
280.072	65.74
280.54	66.14
281.008	73.64
281.477	71.64
281.945	70.54
282.413	69.69
282.881	70.24
283.348	68.99
283.816	74.54
284.284	75.39
284.752	73.14
285.22	77.89
285.688	72.69
286.156	71.84
286.623	76.39
287.091	77.54
287.559	83.69
288.026	82.09
288.494	82.39
288.962	87.14
289.429	78.24
289.897	82.89
290.364	80.24
290.832	86.19
291.3	83.74
291.767	85.54
292.234	86.29
292.702	87.59
293.169	88.24
293.637	96.24
294.104	93.14
294.571	85.49
295.039	92.89
295.506	90.79
295.973	97.39
296.44	95.74
296.908	101.39
297.375	96.84
297.842	99.49
298.309	93.99
298.776	99.69
299.243	102.89
299.71	100.09
300.177	101.39
300.644	101.54
301.111	102.19
301.578	112.39
302.045	101.14
302.512	102.29
302.979	109.59
303.446	111.04
303.913	116.39
304.379	117.44
304.846	116.34
305.313	120.94
305.78	124.29
306.246	124.04
306.713	125.99
307.18	126.84
307.646	128.29
308.113	130.69
308.579	132.29
309.046	133.24
309.512	134.09
309.979	141.49
310.445	132.14
310.912	141.49
311.378	145.34
311.845	144.24
312.311	138.74
312.777	144.94
313.244	143.74
313.71	146.59
314.176	148.39
314.642	153.59
315.109	153.39
315.575	148.44
316.041	152.74
316.507	148.34
316.973	164.79
317.439	154.64
317.905	161.39
318.371	158.09
318.837	157.89
319.303	164.59
319.769	156.89
320.235	165.74
320.701	168.39
321.167	166.84
321.633	165.69
322.099	165.54
322.564	170.64
323.03	166.59
323.496	169.44
323.962	178.74
324.427	180.39
324.893	175.99
325.359	180.29
325.824	184.94
326.29	184.14
326.755	182.59
327.221	185.79
327.686	196.39
328.152	193.69
328.617	201.19
329.083	199.64
329.548	203.54
330.014	201.84
330.479	207.44
330.944	205.64
331.41	215.34
331.875	206.94
332.34	201.59
332.805	210.59
333.271	208.29
333.736	213.79
334.201	212.99
334.666	230.14
335.131	232.84
335.596	231.89
336.061	220.99
336.526	227.54
336.991	222.19
337.456	217.44
337.921	212.74
338.386	216.59
338.851	214.79
339.316	216.99
339.781	215.39
340.246	217.04
340.711	222.04
341.175	231.09
341.64	241.04
342.105	238.44
342.569	244.34
343.034	243.99
343.499	250.09
343.963	254.89
344.428	253.14
344.893	251.04
345.357	261.09
345.822	262.69
346.286	264.24
346.751	268.09
347.215	273.29
347.679	283.04
348.144	297.59
348.608	297.89
349.073	299.64
349.537	306.44
350.001	305.09
350.465	307.29
350.93	310.09
351.394	317.04
351.858	317.29
352.322	315.49
352.786	315.99
353.25	312.29
353.715	322.54
354.179	339.49
354.643	346.79
355.107	351.69
355.571	350.29
356.035	342.39
356.498	341.99
356.962	341.44
357.426	335.94
357.89	333.14
358.354	334.34
358.818	325.89
359.281	335.79
359.745	338.84
360.209	339.14
360.673	336.84
361.136	337.29
361.6	346.49
362.064	346.19
362.527	353.89
362.991	356.89
363.454	350.94
363.918	361.39
364.381	364.94
364.845	359.79
365.308	362.49
365.772	365.44
366.235	368.84
366.698	368.39
367.162	363.99
367.625	372.94
368.088	386.54
368.552	376.94
369.015	371.79
369.478	384.24
369.941	382.69
370.404	387.99
370.867	382.84
371.331	389.39
371.794	399.09
372.257	397.34
372.72	398.49
373.183	401.99
373.646	406.89
374.109	405.79
374.572	403.39
375.035	410.29
375.497	412.79
375.96	418.24
376.423	423.89
376.886	427.69
377.349	438.59
377.811	434.84
378.274	439.54
378.737	434.09
379.199	447.59
379.662	450.09
380.125	453.69
380.587	459.04
381.05	461.94
381.512	464.69
381.975	477.39
382.437	484.24
382.9	487.49
383.362	481.84
383.825	493.64
384.287	493.84
384.75	485.94
385.212	500.99
385.674	497.04
386.136	508.04
386.599	504.34
387.061	494.64
387.523	503.74
387.985	508.34
388.447	509.94
388.91	505.79
389.372	520.64
389.834	511.99
390.296	500.09
390.758	519.14
391.22	510.29
391.682	519.39
392.144	523.74
392.606	524.99
393.068	535.69
393.529	564.94
393.991	574.94
394.453	544.69
394.915	526.49
395.377	526.44
395.838	531.14
396.3	535.69
396.762	541.29
397.224	536.79
397.685	533.84
398.147	541.74
398.608	544.64
399.07	554.49
399.531	556.69
399.993	571.54
400.454	582.64
400.916	569.24
401.377	583.59
401.839	584.94
402.3	592.89
402.762	623.84
403.223	657.14
403.684	659.54
404.145	633.39
404.607	624.99
405.068	609.64
405.529	624.29
405.99	631.44
406.451	637.29
406.913	630.19
407.374	644.19
407.835	632.09
408.296	651.74
408.757	649.24
409.218	672.19
409.679	682.19
410.14	676.99
410.601	690.59
411.062	695.39
411.522	706.54
411.983	707.24
412.444	699.24
412.905	719.79
413.366	746.79
413.826	776.39
414.287	875.24
414.748	1036.74
415.208	1049.14
415.669	886.69
416.13	804.04
416.59	786.09
417.051	814.29
417.511	847.59
417.972	921.34
418.432	982.29
418.893	1085.84
419.353	1041.49
419.814	808.89
420.274	724.94
420.734	717.94
421.195	739.09
421.655	729.34
422.115	744.29
422.576	741.29
423.036	750.59
423.496	778.69
423.956	806.49
424.416	858.79
424.876	956.59
425.336	960.94
425.797	951.29
426.257	933.14
426.717	892.99
427.177	817.24
427.637	829.29
428.097	860.44
428.556	900.64
429.016	963.39
429.476	964.39
429.936	948.39
430.396	953.79
430.856	974.09
431.315	992.14
431.775	1062.89
432.235	1132.09
432.694	1152.94
433.154	1085.74
433.614	1063.14
434.073	1030.14
434.533	927.54
434.993	891.94
435.452	894.39
435.912	881.94
436.371	884.14
436.83	861.79
437.29	841.79
437.749	822.14
438.209	823.54
438.668	828.79
439.127	840.54
439.587	829.19
440.046	805.84
440.505	826.14
440.964	819.14
441.424	856.89
441.883	867.94
442.342	818.04
442.801	781.24
443.26	793.14
443.719	799.49
444.178	792.79
444.637	806.29
445.096	804.49
445.555	808.44
446.014	816.69
446.473	802.79
446.932	810.34
447.391	814.89
447.849	826.14
448.308	816.19
448.767	822.14
449.226	836.59
449.685	853.34
450.143	881.24
450.602	884.24
451.061	828.84
451.519	838.79
451.978	825.49
452.436	818.49
452.895	833.19
453.353	825.84
453.812	816.59
454.27	818.59
454.729	823.94
455.187	836.19
455.646	835.29
456.104	833.54
456.562	847.99
457.021	859.94
457.479	821.09
457.937	853.49
458.395	876.74
458.854	864.74
459.312	850.29
459.77	860.99
460.228	872.34
460.686	877.79
461.144	883.64
461.602	882.24
462.06	876.34
462.518	890.99
462.976	901.29
463.434	907.89
463.892	913.64
464.35	929.69
464.808	940.89
465.266	955.94
465.724	963.24
466.181	973.34
466.639	961.49
467.097	1003.69
467.555	1041.54
468.012	1030.64
468.47	1039.79
468.928	1083.84
469.385	1093.44
469.843	1118.74
470.3	1114.24
470.758	1148.39
471.215	1160.34
471.673	1194.49
472.13	1223.39
472.588	1243.79
473.045	1248.84
473.503	1259.49
473.96	1319.54
474.417	1324.74
474.875	1387.24
475.332	1438.64
475.789	1464.09
476.246	1495.04
476.704	1566.14
477.161	1611.69
477.618	1658.24
478.075	1752.64
478.532	1873.14
478.989	2023.59
479.446	2235.04
479.903	2345.84
480.36	2542.09
480.817	2692.24
481.274	2884.94
481.731	3145.04
482.188	3370.89
482.645	3634.14
483.102	3813.34
483.558	4078.19
484.015	4252.44
484.472	4246.54
484.929	4098.59
485.385	3929.79
485.842	3855.54
486.299	3697.84
486.755	3386.39
487.212	3063.64
487.668	2770.79
488.125	2561.84
488.582	2380.54
489.038	2282.14
489.494	2226.74
489.951	2148.69
490.407	2093.44
490.864	2047.54
491.32	2004.34
491.776	1986.79
492.233	1991.49
492.689	1966.64
493.145	1919.14
493.602	1892.34
494.058	1923.09
494.514	1914.59
494.97	1924.64
495.426	1948.79
495.882	1947.49
496.338	1943.59
496.794	1951.44
497.251	1937.14
497.707	1967.79
498.163	1970.29
498.618	1971.44
499.074	1961.84
499.53	1983.24
499.986	1993.79
500.442	1979.99
500.898	1964.34
501.354	1979.34
501.809	1983.29
502.265	1986.59
502.721	1989.59
503.177	1999.59
503.632	2001.59
504.088	2020.94
504.543	2038.89
504.999	2059.39
505.455	2047.69
505.91	2031.39
506.366	2030.39
506.821	2037.89
507.277	2021.94
507.732	2032.39
508.187	2032.89
508.643	2039.04
509.098	2064.54
509.553	2075.09
510.009	2102.09
510.464	2136.94
510.919	2145.44
511.375	2173.59
511.83	2186.59
512.285	2224.34
512.74	2265.09
513.195	2286.79
513.65	2334.69
514.105	2360.44
514.56	2366.29
515.015	2409.24
515.47	2421.19
515.925	2385.49
516.38	2400.94
516.835	2400.54
517.29	2393.54
517.745	2390.44
518.2	2349.64
518.655	2305.89
519.109	2281.34
519.564	2249.59
520.019	2239.44
520.474	2218.04
520.928	2206.44
521.383	2179.99
521.838	2176.29
522.292	2166.39
522.747	2149.54
523.201	2151.39
523.656	2126.09
524.11	2106.79
524.565	2109.99
525.019	2108.89
525.474	2115.34
525.928	2093.49
526.382	2097.49
526.837	2093.34
527.291	2103.04
527.745	2091.89
528.2	2089.99
528.654	2063.29
529.108	2073.54
529.562	2073.29
530.016	2073.64
530.47	2077.74
530.925	2074.29
531.379	2068.79
531.833	2097.09
532.287	2079.24
532.741	2072.34
533.195	2079.64
533.649	2074.04
534.103	2087.74
534.556	2059.29
535.01	2083.79
535.464	2065.24
535.918	2068.44
536.372	2090.34
536.826	2083.94
537.279	2065.59
537.733	2060.39
538.187	2070.09
538.64	2081.49
539.094	2093.34
539.548	2119.84
540.001	2116.69
540.455	2122.49
540.908	2141.64
541.362	2148.44
541.815	2168.39
542.269	2209.49
542.722	2206.14
543.175	2232.89
543.629	2251.64
544.082	2257.29
544.536	2274.19
544.989	2264.94
545.442	2311.19
545.895	2293.29
546.349	2288.74
546.802	2302.04
547.255	2293.24
547.708	2320.94
548.161	2322.89
548.614	2330.99
549.067	2345.69
549.52	2335.49
549.973	2311.39
550.426	2309.84
550.879	2298.59
551.332	2299.14
551.785	2307.39
552.238	2325.69
552.691	2325.54
553.144	2364.29
553.596	2413.59
554.049	2433.79
554.502	2468.94
554.955	2507.59
555.407	2552.09
555.86	2521.69
556.313	2499.44
556.765	2476.54
557.218	2451.14
557.67	2433.49
558.123	2404.99
558.576	2398.29
559.028	2388.24
559.48	2416.09
559.933	2404.74
560.385	2327.99
560.838	2255.99
561.29	2198.84
561.742	2188.19
562.195	2127.89
562.647	2112.29
563.099	2117.04
563.551	2097.04
564.004	2111.99
564.456	2093.59
564.908	2058.59
565.36	2012.14
565.812	1969.74
566.264	1958.69
566.716	1927.74
567.168	1889.24
567.62	1891.09
568.072	1884.94
568.524	1878.29
568.976	1865.29
569.428	1839.49
569.88	1840.89
570.332	1864.99
570.784	1867.39
571.235	1859.39
571.687	1872.29
572.139	1867.99
572.59	1883.79
573.042	1894.34
573.494	1893.24
573.945	1875.29
574.397	1845.69
574.849	1827.29
575.3	1838.09
575.752	1804.99
576.203	1795.29
576.655	1790.24
577.106	1767.34
577.557	1751.34
578.009	1748.89
578.46	1764.69
578.912	1738.19
579.363	1750.79
579.814	1756.69
580.265	1749.59
580.717	1759.49
581.168	1750.84
581.619	1751.59
582.07	1771.64
582.521	1766.14
582.972	1764.49
583.423	1766.44
583.875	1774.74
584.326	1781.59
584.777	1809.89
585.227	1833.24
585.678	1856.44
586.129	1872.84
586.58	1895.39
587.031	1912.04
587.482	1971.34
587.933	1995.19
588.384	1990.14
588.834	1967.84
589.285	1967.09
589.736	1973.29
590.186	1967.69
590.637	1958.19
591.088	1910.04
591.538	1865.14
591.989	1840.19
592.439	1828.54
592.89	1814.04
593.34	1789.99
593.791	1785.44
594.241	1774.79
594.692	1769.39
595.142	1771.69
595.593	1774.34
596.043	1780.64
596.493	1797.59
596.943	1785.34
597.394	1840.84
597.844	1857.64
598.294	1901.04
598.744	1965.94
599.195	2060.24
599.645	2169.14
600.095	2283.24
600.545	2386.49
600.995	2474.69
601.445	2571.14
601.895	2694.24
602.345	2754.24
602.795	2737.54
603.245	2618.39
603.695	2479.19
604.145	2351.09
604.594	2235.69
605.044	2122.04
605.494	2004.44
605.944	1900.69
606.393	1841.24
606.843	1820.59
607.293	1813.29
607.743	1801.49
608.192	1810.49
608.642	1816.14
609.091	1807.84
609.541	1800.74
609.99	1804.19
610.44	1770.54
610.889	1746.69
611.339	1721.39
611.788	1710.64
612.238	1711.94
612.687	1714.54
613.136	1723.19
613.586	1742.04
614.035	1740.09
614.484	1739.69
614.933	1757.54
615.383	1720.44
615.832	1680.89
616.281	1659.64
616.73	1615.24
617.179	1587.44
617.628	1551.14
618.077	1535.94
618.526	1504.94
618.975	1495.44
619.424	1465.64
619.873	1484.89
620.322	1465.99
620.771	1455.29
621.22	1434.84
621.669	1410.04
622.118	1393.14
622.567	1382.04
623.015	1348.34
623.464	1357.64
623.913	1334.34
624.361	1335.89
624.81	1329.09
625.259	1344.99
625.707	1332.09
626.156	1343.44
626.604	1359.44
627.053	1367.84
627.501	1358.89
627.95	1372.29
628.398	1385.84
628.847	1362.29
629.295	1356.89
629.744	1344.29
630.192	1333.04
630.64	1319.79
631.089	1291.99
631.537	1256.04
631.985	1246.54
632.433	1247.69
632.881	1243.59
633.33	1246.59
633.778	1247.54
634.226	1248.14
634.674	1260.89
635.122	1274.09
635.57	1294.94
636.018	1314.34
636.466	1306.74
636.914	1306.14
637.362	1331.34
637.81	1350.14
638.258	1394.19
638.705	1413.04
639.153	1458.74
639.601	1474.44
640.049	1499.94
640.497	1542.54
640.944	1575.84
641.392	1525.19
641.84	1441.44
642.287	1381.49
642.735	1341.24
643.182	1328.79
643.63	1339.74
644.078	1334.54
644.525	1352.64
644.973	1392.49
645.42	1429.84
645.867	1458.09
646.315	1481.09
646.762	1545.49
647.21	1596.19
647.657	1679.99
648.104	1727.54
648.551	1782.64
648.999	1939.59
649.446	2120.09
649.893	2369.19
650.34	2778.74
650.787	3431.44
651.234	4421.19
651.682	6095.34
652.129	8575.74
652.576	12158.79
653.023	15510.69
653.47	15536.14
653.917	15536.19
654.363	15536.09
654.81	15533.09
655.257	15533.74
655.704	15344.24
656.151	9482.19
656.598	6223.24
657.044	4450.64
657.491	3490.44
657.938	2818.29
658.385	2394.24
658.831	2108.44
659.278	1895.99
659.724	1723.39
660.171	1616.44
660.618	1493.14
661.064	1416.09
661.511	1365.29
661.957	1317.49
662.404	1288.74
662.85	1271.59
663.296	1262.49
663.743	1233.69
664.189	1219.29
664.635	1202.29
665.082	1173.74
665.528	1152.29
665.974	1125.29
666.42	1107.64
666.867	1096.29
667.313	1047.99
667.759	1034.54
668.205	1022.69
668.651	1029.19
669.097	1026.49
669.543	1038.29
669.989	1047.84
670.435	1037.94
670.881	1049.14
671.327	1104.34
671.773	1176.89
672.219	1247.44
672.665	1333.09
673.11	1385.09
673.556	1398.99
674.002	1422.29
674.448	1436.89
674.893	1235.39
675.339	1077.19
675.785	996.99
676.23	943.94
676.676	915.04
677.122	884.54
677.567	863.99
678.013	828.69
678.458	830.64
678.904	825.64
679.349	805.99
679.794	806.54
680.24	805.79
680.685	793.54
681.131	799.44
681.576	803.64
682.021	800.79
682.466	813.09
682.912	815.39
683.357	869.49
683.802	937.99
684.247	1024.59
684.692	1086.69
685.137	1131.44
685.583	1158.99
686.028	1214.84
686.473	1153.59
686.918	1011.99
687.363	915.69
687.807	875.39
688.252	824.14
688.697	801.89
689.142	774.29
689.587	791.99
690.032	806.79
690.477	823.14
690.921	868.19
691.366	907.54
691.811	951.84
692.255	1024.59
692.7	1239.19
693.145	1792.69
693.589	2724.19
694.034	3243.54
694.478	3452.94
694.923	3160.64
695.367	4455.64
695.812	2743.09
696.256	1172.54
696.701	847.99
697.145	795.69
697.59	762.24
698.034	746.19
698.478	742.89
698.922	750.89
699.367	763.29
699.811	807.84
700.255	866.19
700.699	954.24
701.143	1024.09
701.588	1085.19
702.032	1134.84
702.476	1169.64
702.92	1251.84
703.364	1648.99
703.808	2500.14
704.252	3105.49
704.696	3290.79
705.14	3095.94
705.584	4231.64
706.027	2369.34
706.471	1203.14
706.915	896.79
707.359	800.49
707.803	752.19
708.246	712.54
708.69	718.49
709.134	704.24
709.577	697.39
710.021	709.29
710.465	709.44
710.908	699.09
711.352	729.89
711.795	800.59
712.239	858.99
712.682	882.54
713.126	873.64
713.569	961.54
714.012	794.49
714.456	696.49
714.899	657.49
715.342	629.19
715.786	605.99
716.229	587.04
716.672	574.09
717.115	570.44
717.558	581.69
718.002	593.59
718.445	613.19
718.888	654.79
719.331	664.04
719.774	683.44
720.217	665.59
720.66	636.64
721.103	593.39
721.546	563.34
721.989	547.99
722.432	547.34
722.874	543.89
723.317	554.74
723.76	597.09
724.203	727.59
724.645	976.89
725.088	1147.89
725.531	1128.79
725.974	1231.24
726.416	1104.44
726.859	692.74
727.301	569.69
727.744	538.89
728.187	544.09
728.629	552.54
729.071	583.44
729.514	605.99
729.956	623.99
730.399	638.19
730.841	645.79
731.283	630.14
731.726	613.04
732.168	629.24
732.61	656.14
733.053	698.79
733.495	772.84
733.937	860.19
734.379	1016.74
734.821	1295.99
735.263	2051.24
735.705	3684.59
736.148	5387.24
736.59	5419.69
737.032	5858.49
737.474	4853.39
737.916	1877.64
738.357	992.64
738.799	757.54
739.241	702.24
739.683	712.04
740.125	733.59
740.567	733.19
741.008	784.89
741.45	823.24
741.892	867.49
742.334	877.29
742.775	865.04
743.217	837.69
743.658	703.94
744.1	722.49
744.542	847.59
744.983	872.94
745.425	912.54
745.866	886.74
746.307	732.59
746.749	774.79
747.19	1115.29
747.632	2159.64
748.073	4004.74
748.514	5556.94
748.956	7366.89
749.397	8617.39
749.838	5954.19
750.279	5681.44
750.72	2954.49
751.162	1251.44
751.603	726.49
752.044	575.89
752.485	511.89
752.926	485.09
753.367	457.84
753.808	451.14
754.249	442.49
754.69	434.14
755.131	429.49
755.572	426.79
756.013	428.04
756.453	429.84
756.894	439.14
757.335	440.49
757.776	441.54
758.216	463.89
758.657	485.39
759.098	537.84
759.538	651.74
759.979	937.04
760.42	1897.89
760.86	4855.39
761.301	10026.69
761.741	11816.49
762.182	13505.89
762.622	8805.24
763.063	3151.54
763.503	1292.19
763.943	753.74
764.384	603.19
764.824	517.19
765.264	477.59
765.705	451.84
766.145	429.34
766.585	416.74
767.025	396.59
767.465	406.34
767.906	414.69
768.346	430.84
768.786	498.84
769.226	734.59
769.666	1493.04
770.106	3327.94
770.546	4755.89
770.986	5365.14
771.426	4083.89
771.866	1704.09
772.306	774.79
772.745	477.84
773.185	403.99
773.625	393.04
774.065	428.64
774.505	615.44
774.944	1095.59
775.384	1591.54
775.824	1785.49
776.263	1478.09
776.703	784.54
777.142	445.74
777.582	335.79
778.021	303.99
778.461	291.79
778.9	291.34
779.34	275.54
779.779	272.89
780.219	268.64
780.658	260.94
781.097	259.69
781.537	249.59
781.976	252.59
782.415	247.54
782.855	246.14
783.294	247.59
783.733	241.79
784.172	248.94
784.611	249.74
785.05	256.24
785.489	266.19
785.928	274.34
786.367	282.99
786.806	289.24
787.245	310.54
787.684	325.44
788.123	320.69
788.562	313.19
789.001	298.69
789.44	289.19
789.879	292.79
790.317	294.39
790.756	317.39
791.195	354.24
791.634	474.44
792.072	863.79
792.511	2111.69
792.95	3903.54
793.388	4686.89
793.827	3073.34
794.265	1408.24
794.704	675.09
795.142	418.54
795.581	348.74
796.019	313.39
796.458	309.49
796.896	319.39
797.334	370.79
797.773	497.99
798.211	941.79
798.649	1949.79
799.087	3279.89
799.526	4628.54
799.964	4767.89
800.402	3293.74
800.84	1489.74
801.278	730.04
801.716	451.59
802.154	361.99
802.592	341.04
803.03	340.54
803.468	347.84
803.906	349.59
804.344	344.84
804.782	333.74
805.22	337.59
805.658	351.74
806.096	375.94
806.533	419.14
806.971	532.24
807.409	773.19
807.847	1543.29
808.284	3909.79
808.722	6858.14
809.16	9610.09
809.597	12974.04
810.035	15427.14
810.472	10584.74
810.91	4497.29
811.347	2010.94
811.785	955.09
812.222	605.44
812.66	460.84
813.097	394.14
813.535	337.64
813.972	308.34
814.409	284.09
814.846	273.09
815.284	261.09
815.721	265.24
816.158	294.74
816.595	404.89
817.032	512.04
817.47	462.54
817.907	331.89
818.344	289.99
818.781	285.34
819.218	350.59
819.655	542.69
820.092	708.49
820.529	644.44
820.966	497.69
821.403	338.04
821.839	291.04
822.276	322.79
822.713	388.89
823.15	361.24
823.587	369.54
824.023	642.14
824.46	1597.44
824.897	2797.49
825.333	2188.34
825.77	1004.59
826.206	531.89
826.643	306.09
827.08	230.89
827.516	204.99
827.953	189.69
828.389	179.29
828.825	173.69
829.262	164.84
829.698	160.69
830.135	150.14
830.571	149.49
831.007	155.44
831.443	154.09
831.88	153.94
832.316	155.24
832.752	158.09
833.188	159.09
833.624	165.29
834.06	164.59
834.497	165.99
834.933	172.64
835.369	186.19
835.805	197.34
836.241	199.24
836.677	219.59
837.112	261.94
837.548	316.94
837.984	472.74
838.42	1021.79
838.856	2805.99
839.292	5560.14
839.727	4148.44
840.163	2782.89
840.599	4209.19
841.034	6449.44
841.47	3260.14
841.906	1572.04
842.341	838.59
842.777	630.99
843.212	653.74
843.648	404.69
844.083	275.44
844.519	208.04
844.954	175.79
845.39	155.69
845.825	153.24
846.261	144.64
846.696	137.84
847.131	136.99
847.566	131.94
848.002	137.99
848.437	148.84
848.872	149.29
849.307	195.29
849.742	349.04
850.177	912.34
850.613	1941.44
851.048	1414.74
851.483	648.94
851.918	361.34
852.353	197.24
852.788	142.79
853.223	129.04
853.657	117.89
854.092	113.54
854.527	110.39
854.962	121.14
855.397	132.99
855.832	111.59
856.266	104.04
856.701	102.99
857.136	111.04
857.57	135.24
858.005	160.09
858.44	132.94
858.874	126.19
859.309	128.79
859.743	126.74
860.178	121.94
860.612	137.34
861.047	188.79
861.481	259.49
861.915	180.69
862.35	134.19
862.784	105.54
863.218	99.14
863.653	105.59
864.087	136.74
864.521	168.44
864.955	268.09
865.39	458.14
865.824	357.04
866.258	473.39
866.692	730.69
867.126	527.39
867.56	280.44
867.994	178.99
868.428	150.44
868.862	192.59
869.296	177.09
869.73	208.39
870.164	183.44
870.598	157.54
871.031	111.09
871.465	104.14
871.899	83.49
872.333	71.59
872.766	73.64
873.2	78.94
873.634	75.19
874.067	80.24
874.501	76.49
874.935	76.79
875.368	80.44
875.802	69.34
876.235	70.29
876.669	64.49
877.102	53.54
877.535	60.04
877.969	57.34
878.402	60.79
878.836	59.09
879.269	59.94
879.702	56.14
880.135	61.09
880.569	61.99
881.002	55.84
881.435	55.64
881.868	57.84
882.301	53.79
882.734	50.14
883.167	54.44
883.601	55.14
884.034	54.14
884.467	48.64
884.899	51.99
885.332	43.64
885.765	47.54
886.198	45.34
886.631	49.59
887.064	44.79
887.497	44.94
887.929	48.39
888.362	45.19
888.795	48.14
889.228	49.39
889.66	48.19
890.093	44.79
890.526	45.49
890.958	49.99
891.391	47.39
891.823	45.94
892.256	46.24
892.688	43.24
893.121	38.69
893.553	46.24
893.985	37.69
894.418	40.99
894.85	45.89
895.282	40.39
895.715	43.94
896.147	29.84
896.579	41.39
897.011	46.19
897.444	38.39
897.876	37.74
898.308	35.34
898.74	40.04
899.172	42.59
899.604	40.69
900.036	44.94
900.468	38.59
900.9	47.39
901.332	58.29
901.764	61.89
902.196	54.29
902.628	56.04
903.06	85.89
903.491	90.29
903.923	76.64
904.355	73.74
904.787	78.89
905.218	60.44
905.65	59.04
906.082	57.09
906.513	49.29
906.945	51.84
907.376	50.34
907.808	55.54
908.239	52.74
908.671	60.59
909.102	69.79
909.534	95.89
909.965	179.54
910.397	457.34
910.828	1304.39
911.259	798.24
911.691	435.14
912.122	250.94
912.553	129.84
912.984	73.04
913.415	62.54
913.847	56.69
914.278	56.44
914.709	47.54
915.14	45.14
915.571	45.64
916.002	39.79
916.433	40.14
916.864	40.89
917.295	44.04
917.726	52.99
918.157	64.24
918.587	64.79
919.018	56.19
919.449	55.49
919.88	66.14
920.311	102.04
920.741	272.44
921.172	478.89
921.603	247.29
922.033	150.44
922.464	99.64
922.895	62.99
923.325	43.64
923.756	40.79
924.186	53.29
924.617	79.34
925.047	111.89
925.478	95.09
925.908	70.69
926.338	54.19
926.769	44.59
927.199	42.04
927.629	36.59
928.06	38.19
928.49	38.79
928.92	31.04
929.35	31.94
929.78	26.09
930.21	24.74
930.641	21.54
931.071	25.39
931.501	20.34
931.931	17.99
932.361	23.64
932.791	27.54
933.221	29.09
933.651	34.69
934.08	66.44
934.51	39.19
934.94	31.49
935.37	26.69
935.8	20.54
936.229	16.59
936.659	22.64
937.089	37.99
937.519	62.69
937.948	81.84
938.378	49.19
938.807	31.99
939.237	20.89
939.666	16.74
940.096	12.34
940.525	11.34
940.955	20.14
941.384	8.74
941.814	7.49
942.243	13.54
942.672	12.29
943.102	8.84
943.531	10.49
943.96	7.94
944.39	10.74
944.819	14.19
945.248	12.89
945.677	9.49
946.106	10.39
946.535	14.64
946.964	8.64
947.393	11.54
947.822	13.24
948.251	12.74
948.68	12.99
949.109	10.49
949.538	5.44
949.967	7.59
950.396	11.89
950.825	15.29
951.254	8.04
951.682	5.04
952.111	8.79
952.54	7.29
952.969	8.44
953.397	3.14
953.826	3.99
954.254	10.59
954.683	11.09
955.112	12.89
955.54	7.99
955.969	5.49
956.397	7.09
956.826	6.29
957.254	8.29
957.682	5.14
958.111	9.34
958.539	9.84
958.967	6.59
959.396	9.34
959.824	7.44
960.252	10.49
960.68	8.24
961.109	8.09
961.537	12.99
961.965	6.14
962.393	10.64
962.821	8.69
963.249	11.44
963.677	16.99
964.105	77.89
964.533	140.34
964.961	70.99
965.389	37.69
965.817	22.29
966.245	14.59
966.672	9.74
967.1	12.04
967.528	4.59
967.956	7.09
968.383	7.59
968.811	2.09
969.239	6.89
969.666	4.29
970.094	3.69
970.522	3.09
970.949	3.54
971.377	0.19
971.804	6.34
972.232	4.64
972.659	0.79
973.087	8.04
973.514	4.49
973.941	2.89
974.369	4.74
974.796	2.49
975.223	4.39
975.651	6.44
976.078	3.84
976.505	10.74
976.932	35.44
977.359	37.49
977.786	26.04
978.214	21.39
978.641	5.74
979.068	8.89
979.495	4.44
979.922	6.39
980.349	7.44
980.776	8.09
981.202	5.44
981.629	8.04
982.056	3.24
982.483	-3.36
982.91	8.64
983.337	-1.66
983.763	2.94
984.19	6.94
984.617	3.14
985.043	3.94
985.47	6.74
985.897	5.29
986.323	9.34
986.75	0.74
987.176	1.64
987.603	2.34
988.029	4.49
988.456	9.39
988.882	1.59
989.308	0.89
989.735	2.69
990.161	2.89
990.587	4.44
991.014	2.04
991.44	6.94
991.866	5.64
992.292	4.79
992.719	2.49
993.145	4.99
993.571	5.69
993.997	8.49
994.423	7.09
994.849	1.14
995.275	2.29
995.701	6.24
996.127	-0.06
996.553	1.69
996.979	-1.91
997.405	3.09
997.83	1.99
998.256	4.79
998.682	2.54
999.108	3.04
999.534	-1.26
999.959	4.24
1000.385	5.34
1000.811	1.64
1001.236	-2.56
1001.662	1.29
1002.087	5.54
1002.513	1.99
1002.938	-0.21
1003.364	3.09
1003.789	4.69
1004.215	-0.51
1004.64	0.49
1005.066	4.09
1005.491	11.69
1005.916	4.49
1006.342	1.09
1006.767	1.64
1007.192	3.14
1007.617	5.74
1008.042	2.34
1008.468	6.49
1008.893	7.69
1009.318	10.44
1009.743	14.24
1010.168	26.69
1010.593	26.69
1011.018	13.74
1011.443	9.99
1011.868	8.69
1012.293	10.04
1012.718	-0.41
1013.143	4.84
1013.567	9.34
1013.992	3.64
1014.417	2.34
1014.842	4.69
1015.267	1.49
1015.691	9.74
1016.116	0.89
1016.541	7.19
1016.965	6.44
1017.39	4.74
1017.814	-5.11
1018.239	2.49
1018.663	-4.41
1019.088	-1.76
1019.512	6.49
1019.937	4.29
1020.361	4.74
1020.785	-1.76
1021.21	-2.61
1021.634	0.64
1022.058	4.44
1022.483	-0.71
1022.907	-2.86
1023.331	-2.86
1023.755	-3.21
1024.179	-0.06
1024.604	1.39
1025.028	0.19
1025.452	5.59
1025.876	1.09
1026.3	-0.56
1026.724	-2.06
1027.148	0.64
1027.572	1.49
1027.996	4.44
1028.42	-1.06
1028.843	0.54
1029.267	-2.91
1029.691	4.64
1030.115	-2.26
1030.539	-0.06
1030.962	-0.11
1031.386	-0.86
1031.81	-1.01
1032.233	-3.01
1032.657	-7.61
1033.08	-1.76
1033.504	-3.96
1033.927	-0.36
1034.351	-4.41
1034.774	-3.61
1035.198	-6.31
1035.621	1.29
1036.045	0.24
1036.468	5.14
1036.891	0.79
1037.315	3.14
1037.738	3.04
1038.161	-1.66
1038.584	-1.21
1039.008	-3.81
1039.431	-1.71
1039.854	-7.36
1040.277	-0.06
1040.7	-3.21
1041.123	2.04
1041.546	0.19
1041.969	-1.01
1042.392	0.09
1042.815	-8.06
1043.238	-1.66
1043.661	0.69
1044.084	-3.66
1044.507	-0.86
1044.93	0.44
1045.352	-1.81
1045.775	2.39
1046.198	4.89
1046.621	2.09
1047.043	2.09
1047.466	0.39
1047.889	5.59
1048.311	6.34
1048.734	-6.96
1049.156	0.54
1049.579	-2.61
1050.001	0.24
1050.424	-3.31
1050.846	-6.76
1051.269	-3.51
1051.691	-0.11
1052.113	2.29
1052.536	-2.51
1052.958	-6.11
1053.38	-1.31
1053.802	1.54
1054.225	0.79
1054.647	-0.41
1055.069	0.84
1055.491	4.19
1055.913	1.99
1056.335	-6.36
1056.757	-2.46
1057.179	-0.41
1057.601	-1.06
1058.023	-0.16
1058.445	-3.41
1058.867	3.29
1059.289	-2.01
1059.711	-0.41
1060.133	0.74
1060.555	-0.06
1060.976	4.84
1061.398	-3.01
1061.82	0.49
1062.241	-1.06
1062.663	0.89
1063.085	-5.91
1063.506	-4.06
1063.928	-1.81
1064.35	-0.76
1064.771	-0.31
1065.193	-5.96
1065.614	-4.06
1066.035	2.99
1066.457	5.09
1066.878	-0.46
1067.3	-2.26
1067.721	0.09
1068.142	0.69
1068.564	4.64
1068.985	0.79
1069.406	-5.66
1069.827	-1.71
1070.248	-1.56
1070.67	-0.66
1071.091	-2.56
1071.512	-2.06
1071.933	-2.26
1072.354	-6.66
1072.775	-0.81
1073.196	-0.11
1073.617	-5.36
1074.038	1.19
1074.459	-1.71
1074.88	-0.41
1075.3	-0.81
1075.721	1.04
1076.142	-3.26
1076.563	-3.11
1076.983	2.14
1077.404	-8.36
1077.825	-2.36
1078.246	-6.46
1078.666	0.59
1079.087	0.09
1079.507	-2.31
1079.928	-0.46
1080.348	-2.21
1080.769	1.99
1081.189	-4.66
1081.61	-6.56
1082.03	2.04
1082.451	-1.06
1082.871	-4.71
1083.291	-9.16
1083.711	2.29
1084.132	-3.66
1084.552	-7.21
1084.972	-3.91
1085.392	-6.11
1085.813	-1.06
1086.233	-2.76
1086.653	1.69
1087.073	-3.06
1087.493	-3.06
1087.913	-4.96
1088.333	1.54
1088.753	3.94
1089.173	0.74
1089.593	-0.26
1090.013	-4.56
1090.433	-5.86
1090.852	-0.21
1091.272	-7.96
1091.692	-1.41
1092.112	-4.26
1092.531	-4.11
1092.951	3.99
1093.371	-2.51
1093.79	-1.51
1094.21	-3.91
1094.63	-0.91
1095.049	-3.11
1095.469	-5.76
1095.888	-2.01
1096.308	0.99
1096.727	-4.36
1097.146	-4.86
1097.566	1.14
1097.985	-1.81
1098.405	1.09
1098.824	-0.46
1099.243	-1.71
1099.662	-3.01
1100.082	-3.26
1100.501	1.39
1100.92	-0.51
1101.339	-1.31
1101.758	1.79
