Data from MSPlasma+Separation6_Subt14_10-13-57-850.txt Node
Date: Fri Jul 21 10:13:57 EDT 2017
User: Ender
Spectrometer: HR+D1039
Trigger mode: 0
Integration Time (sec): 6.430000E-3
Scans to average: 20
Electric dark correction enabled: true
Nonlinearity correction enabled: false
Boxcar width: 0
XAxis mode: Wavelengths
Number of Pixels in Spectrum: 2048
>>>>>Begin Spectral Data<<<<<
187.836	0.01
188.309	0.01
188.782	0.01
189.255	-1.09
189.728	0.41
190.201	-2.79
190.674	-1.24
191.147	0.06
191.619	-0.64
192.092	-4.39
192.565	-1.54
193.038	1.01
193.511	4.81
193.984	3.26
194.456	0.51
194.929	1.81
195.402	-0.84
195.874	0.66
196.347	1.71
196.82	-1.14
197.292	1.16
197.765	-3.29
198.237	-2.74
198.71	-2.69
199.182	-0.74
199.655	1.26
200.127	-0.19
200.6	0.91
201.072	-1.94
201.544	-0.79
202.017	1.16
202.489	0.36
202.961	0.61
203.433	-5.09
203.906	-0.89
204.378	4.31
204.85	-2.04
205.322	0.01
205.794	2.86
206.266	-2.49
206.739	3.81
207.211	0.51
207.683	-0.79
208.155	-0.39
208.627	-1.89
209.099	0.61
209.57	1.91
210.042	5.56
210.514	1.16
210.986	0.16
211.458	0.91
211.93	-0.39
212.402	1.51
212.873	-2.84
213.345	-1.99
213.817	0.31
214.288	-3.89
214.76	3.06
215.232	1.76
215.703	0.81
216.175	0.46
216.646	2.66
217.118	0.61
217.589	-4.89
218.061	1.76
218.532	-3.29
219.004	-0.34
219.475	1.36
219.946	1.66
220.418	9.21
220.889	5.46
221.36	3.06
221.832	5.31
222.303	5.31
222.774	8.31
223.245	0.46
223.717	-2.04
224.188	2.11
224.659	1.76
225.13	-0.89
225.601	1.46
226.072	4.46
226.543	3.41
227.014	4.16
227.485	9.01
227.956	6.21
228.427	12.96
228.898	6.76
229.369	11.41
229.839	4.56
230.31	11.56
230.781	4.61
231.252	9.11
231.722	9.06
232.193	9.21
232.664	11.81
233.135	8.56
233.605	9.56
234.076	13.66
234.546	10.41
235.017	14.81
235.487	14.36
235.958	11.11
236.428	16.16
236.899	5.76
237.369	18.16
237.84	16.51
238.31	21.41
238.78	15.56
239.251	14.31
239.721	15.66
240.191	12.26
240.662	17.61
241.132	16.26
241.602	20.16
242.072	19.81
242.542	13.66
243.013	15.91
243.483	19.76
243.953	18.01
244.423	20.81
244.893	17.06
245.363	23.51
245.833	19.06
246.303	18.46
246.773	20.71
247.243	19.86
247.712	26.51
248.182	23.96
248.652	25.86
249.122	27.96
249.592	28.36
250.061	29.21
250.531	26.26
251.001	25.31
251.471	23.51
251.94	28.51
252.41	29.46
252.879	28.76
253.349	30.56
253.818	35.01
254.288	37.66
254.757	30.61
255.227	32.21
255.696	36.46
256.166	37.01
256.635	36.71
257.105	38.96
257.574	33.21
258.043	32.91
258.513	39.76
258.982	35.66
259.451	36.76
259.92	38.36
260.389	44.01
260.859	40.71
261.328	41.86
261.797	41.21
262.266	43.71
262.735	46.06
263.204	40.26
263.673	44.71
264.142	40.36
264.611	46.06
265.08	44.26
265.549	42.11
266.018	44.56
266.487	46.81
266.955	46.41
267.424	48.96
267.893	53.96
268.362	49.86
268.83	47.16
269.299	49.16
269.768	48.81
270.236	54.61
270.705	59.96
271.174	52.36
271.642	50.61
272.111	52.01
272.579	51.96
273.048	56.56
273.516	56.86
273.985	56.86
274.453	57.76
274.922	57.91
275.39	57.26
275.858	58.76
276.327	62.16
276.795	62.86
277.263	62.81
277.731	61.36
278.2	68.26
278.668	65.76
279.136	70.11
279.604	67.81
280.072	68.01
280.54	67.76
281.008	73.76
281.477	70.06
281.945	69.21
282.413	70.86
282.881	69.26
283.348	72.21
283.816	73.36
284.284	76.71
284.752	76.86
285.22	80.26
285.688	79.36
286.156	77.61
286.623	80.06
287.091	78.36
287.559	82.51
288.026	86.11
288.494	88.86
288.962	83.56
289.429	88.41
289.897	83.16
290.364	83.51
290.832	86.61
291.3	86.91
291.767	90.66
292.234	89.61
292.702	90.41
293.169	88.21
293.637	93.46
294.104	94.11
294.571	91.46
295.039	97.41
295.506	89.76
295.973	97.31
296.44	92.11
296.908	93.91
297.375	97.96
297.842	100.06
298.309	96.81
298.776	97.81
299.243	107.91
299.71	104.01
300.177	109.11
300.644	105.96
301.111	108.06
301.578	108.26
302.045	110.61
302.512	108.96
302.979	109.51
303.446	116.61
303.913	114.21
304.379	124.06
304.846	117.31
305.313	130.71
305.78	125.56
306.246	128.91
306.713	128.76
307.18	130.86
307.646	130.11
308.113	132.06
308.579	134.21
309.046	140.76
309.512	136.71
309.979	140.81
310.445	141.16
310.912	144.31
311.378	140.56
311.845	144.01
312.311	140.56
312.777	142.76
313.244	153.76
313.71	151.06
314.176	153.16
314.642	151.71
315.109	155.11
315.575	147.31
316.041	154.86
316.507	148.56
316.973	163.61
317.439	158.61
317.905	163.06
318.371	163.56
318.837	158.76
319.303	164.66
319.769	160.86
320.235	166.86
320.701	169.96
321.167	167.31
321.633	172.66
322.099	169.06
322.564	175.31
323.03	172.61
323.496	171.61
323.962	175.66
324.427	182.61
324.893	180.31
325.359	183.66
325.824	185.66
326.29	187.36
326.755	181.36
327.221	184.01
327.686	198.86
328.152	196.56
328.617	204.11
329.083	203.46
329.548	205.71
330.014	203.76
330.479	210.76
330.944	203.26
331.41	214.46
331.875	201.61
332.34	205.21
332.805	209.26
333.271	212.66
333.736	210.96
334.201	216.11
334.666	235.76
335.131	232.71
335.596	236.71
336.061	220.26
336.526	223.06
336.991	217.61
337.456	213.31
337.921	219.51
338.386	215.81
338.851	219.11
339.316	220.21
339.781	221.81
340.246	218.96
340.711	225.11
341.175	231.16
341.64	242.86
342.105	243.16
342.569	252.11
343.034	241.86
343.499	247.91
343.963	255.46
344.428	256.76
344.893	257.76
345.357	262.26
345.822	257.76
346.286	265.86
346.751	270.86
347.215	272.51
347.679	283.01
348.144	295.91
348.608	294.36
349.073	295.66
349.537	305.86
350.001	305.26
350.465	307.86
350.93	302.31
351.394	315.26
351.858	313.06
352.322	317.71
352.786	318.46
353.25	323.56
353.715	326.11
354.179	337.51
354.643	350.36
355.107	351.91
355.571	339.91
356.035	340.96
356.498	341.51
356.962	338.31
357.426	341.76
357.89	337.71
358.354	333.46
358.818	332.51
359.281	337.51
359.745	339.76
360.209	335.96
360.673	333.21
361.136	343.86
361.6	336.66
362.064	351.06
362.527	355.51
362.991	358.01
363.454	347.61
363.918	360.26
364.381	363.21
364.845	359.16
365.308	361.41
365.772	367.91
366.235	360.76
366.698	363.41
367.162	360.01
367.625	369.76
368.088	383.16
368.552	373.51
369.015	377.61
369.478	376.56
369.941	383.26
370.404	386.36
370.867	383.01
371.331	388.31
371.794	394.31
372.257	393.61
372.72	393.11
373.183	395.36
373.646	399.56
374.109	400.01
374.572	403.66
375.035	406.71
375.497	411.21
375.96	415.31
376.423	426.26
376.886	432.96
377.349	438.51
377.811	437.41
378.274	439.06
378.737	431.21
379.199	433.16
379.662	443.81
380.125	443.86
380.587	450.66
381.05	457.26
381.512	465.01
381.975	482.41
382.437	480.96
382.9	479.01
383.362	476.81
383.825	479.11
384.287	484.51
384.75	480.51
385.212	490.86
385.674	492.16
386.136	502.11
386.599	495.56
387.061	493.11
387.523	497.91
387.985	502.31
388.447	511.16
388.91	504.26
389.372	508.91
389.834	507.56
390.296	494.81
390.758	504.96
391.22	508.46
391.682	514.41
392.144	520.76
392.606	520.61
393.068	528.66
393.529	557.71
393.991	570.31
394.453	539.76
394.915	522.46
395.377	512.56
395.838	522.91
396.3	519.71
396.762	528.11
397.224	526.16
397.685	526.61
398.147	536.61
398.608	539.66
399.07	546.01
399.531	542.36
399.993	562.91
400.454	568.76
400.916	568.66
401.377	585.36
401.839	591.66
402.3	587.01
402.762	612.06
403.223	657.81
403.684	649.01
404.145	622.96
404.607	615.66
405.068	607.66
405.529	611.76
405.99	623.66
406.451	637.31
406.913	620.26
407.374	620.76
407.835	617.66
408.296	638.11
408.757	638.76
409.218	658.56
409.679	660.21
410.14	668.21
410.601	686.61
411.062	688.46
411.522	690.81
411.983	689.26
412.444	697.91
412.905	705.86
413.366	739.01
413.826	770.81
414.287	866.61
414.748	1030.16
415.208	1050.01
415.669	886.41
416.13	805.61
416.59	785.61
417.051	813.66
417.511	850.71
417.972	906.61
418.432	987.11
418.893	1080.46
419.353	1032.71
419.814	803.96
420.274	721.81
420.734	707.11
421.195	728.61
421.655	727.06
422.115	740.36
422.576	735.01
423.036	737.11
423.496	771.41
423.956	798.26
424.416	853.36
424.876	963.06
425.336	950.21
425.797	936.26
426.257	926.01
426.717	871.01
427.177	808.21
427.637	815.96
428.097	855.11
428.556	885.56
429.016	941.91
429.476	942.51
429.936	923.21
430.396	915.06
430.856	941.76
431.315	960.26
431.775	1038.76
432.235	1103.36
432.694	1120.31
433.154	1062.46
433.614	1046.11
434.073	1001.06
434.533	913.91
434.993	878.81
435.452	885.46
435.912	868.66
436.371	867.81
436.83	852.51
437.29	836.66
437.749	816.26
438.209	812.41
438.668	820.86
439.127	836.26
439.587	825.66
440.046	802.26
440.505	827.61
440.964	828.71
441.424	852.81
441.883	877.06
442.342	824.46
442.801	787.76
443.26	798.81
443.719	786.56
444.178	789.91
444.637	801.01
445.096	805.81
445.555	816.11
446.014	812.36
446.473	800.51
446.932	812.51
447.391	816.96
447.849	827.76
448.308	816.41
448.767	826.61
449.226	838.61
449.685	849.06
450.143	893.21
450.602	881.76
451.061	840.86
451.519	840.86
451.978	834.46
452.436	823.46
452.895	833.96
453.353	840.96
453.812	826.61
454.27	825.26
454.729	827.51
455.187	836.31
455.646	835.51
456.104	841.71
456.562	844.31
457.021	863.01
457.479	827.56
457.937	850.21
458.395	873.71
458.854	865.81
459.312	854.76
459.77	865.71
460.228	873.71
460.686	884.41
461.144	890.26
461.602	879.56
462.06	877.76
462.518	900.11
462.976	906.16
463.434	912.21
463.892	923.76
464.35	937.86
464.808	956.36
465.266	964.06
465.724	974.31
466.181	971.86
466.639	966.96
467.097	1001.66
467.555	1043.01
468.012	1032.61
468.47	1041.96
468.928	1086.81
469.385	1111.61
469.843	1122.36
470.3	1108.51
470.758	1150.26
471.215	1174.16
471.673	1193.11
472.13	1221.26
472.588	1236.66
473.045	1238.56
473.503	1262.36
473.96	1310.91
474.417	1335.06
474.875	1388.31
475.332	1437.71
475.789	1471.86
476.246	1500.31
476.704	1554.16
477.161	1607.11
477.618	1644.21
478.075	1725.06
478.532	1852.96
478.989	1978.06
479.446	2161.51
479.903	2276.91
480.36	2460.76
480.817	2597.31
481.274	2756.91
481.731	2979.56
482.188	3196.41
482.645	3410.51
483.102	3594.46
483.558	3836.61
484.015	3995.11
484.472	3970.81
484.929	3845.16
485.385	3716.81
485.842	3653.66
486.299	3524.71
486.755	3247.61
487.212	2944.66
487.668	2665.66
488.125	2501.36
488.582	2338.41
489.038	2261.96
489.494	2192.31
489.951	2133.86
490.407	2069.61
490.864	2045.41
491.32	2002.46
491.776	1997.41
492.233	2006.06
492.689	1967.76
493.145	1923.71
493.602	1903.81
494.058	1920.71
494.514	1929.71
494.97	1942.46
495.426	1964.56
495.882	1965.31
496.338	1971.91
496.794	1971.06
497.251	1970.56
497.707	1991.91
498.163	1999.56
498.618	1991.36
499.074	1986.06
499.53	2021.91
499.986	2026.21
500.442	2016.46
500.898	1980.31
501.354	1999.76
501.809	2011.31
502.265	2004.06
502.721	2013.91
503.177	2021.11
503.632	2031.91
504.088	2035.81
504.543	2079.71
504.999	2085.16
505.455	2063.81
505.91	2054.56
506.366	2068.86
506.821	2067.16
507.277	2047.76
507.732	2060.26
508.187	2059.16
508.643	2074.66
509.098	2081.36
509.553	2109.21
510.009	2131.06
510.464	2175.36
510.919	2192.11
511.375	2205.81
511.83	2231.36
512.285	2272.36
512.74	2317.06
513.195	2346.86
513.65	2384.41
514.105	2410.66
514.56	2410.36
515.015	2468.06
515.47	2464.66
515.925	2435.36
516.38	2441.81
516.835	2457.76
517.29	2428.66
517.745	2434.16
518.2	2400.26
518.655	2347.16
519.109	2328.01
519.564	2282.66
520.019	2279.26
520.474	2271.56
520.928	2241.36
521.383	2232.06
521.838	2230.76
522.292	2210.51
522.747	2187.01
523.201	2189.01
523.656	2150.16
524.11	2154.11
524.565	2141.96
525.019	2133.61
525.474	2134.91
525.928	2143.06
526.382	2136.46
526.837	2143.26
527.291	2141.81
527.745	2130.71
528.2	2134.66
528.654	2113.76
529.108	2119.11
529.562	2121.31
530.016	2110.96
530.47	2115.76
530.925	2113.71
531.379	2110.26
531.833	2139.36
532.287	2136.56
532.741	2123.81
533.195	2130.06
533.649	2132.61
534.103	2144.71
534.556	2097.46
535.01	2137.86
535.464	2121.66
535.918	2114.56
536.372	2137.06
536.826	2136.86
537.279	2111.76
537.733	2109.66
538.187	2114.56
538.64	2113.71
539.094	2148.41
539.548	2164.66
540.001	2147.31
540.455	2168.16
540.908	2184.01
541.362	2199.31
541.815	2204.91
542.269	2258.71
542.722	2250.51
543.175	2279.01
543.629	2292.01
544.082	2298.56
544.536	2328.96
544.989	2339.06
545.442	2344.66
545.895	2349.21
546.349	2332.46
546.802	2346.66
547.255	2348.56
547.708	2371.26
548.161	2385.41
548.614	2369.76
549.067	2399.41
549.52	2383.91
549.973	2360.71
550.426	2359.26
550.879	2349.66
551.332	2335.26
551.785	2372.91
552.238	2380.11
552.691	2377.51
553.144	2426.21
553.596	2459.36
554.049	2503.06
554.502	2540.06
554.955	2566.66
555.407	2600.76
555.86	2580.51
556.313	2561.96
556.765	2539.66
557.218	2501.46
557.67	2491.21
558.123	2456.16
558.576	2447.66
559.028	2445.01
559.48	2463.71
559.933	2449.31
560.385	2395.91
560.838	2315.01
561.29	2242.41
561.742	2228.51
562.195	2174.81
562.647	2160.86
563.099	2150.06
563.551	2145.66
564.004	2161.26
564.456	2144.71
564.908	2110.96
565.36	2045.66
565.812	2012.86
566.264	1995.71
566.716	1981.71
567.168	1943.06
567.62	1947.46
568.072	1922.61
568.524	1911.56
568.976	1905.61
569.428	1883.56
569.88	1876.96
570.332	1895.96
570.784	1900.56
571.235	1902.56
571.687	1908.86
572.139	1923.36
572.59	1932.66
573.042	1938.11
573.494	1940.21
573.945	1914.71
574.397	1881.11
574.849	1876.46
575.3	1888.46
575.752	1833.96
576.203	1828.31
576.655	1847.46
577.106	1813.76
577.557	1804.41
578.009	1800.41
578.46	1788.71
578.912	1781.31
579.363	1793.86
579.814	1783.36
580.265	1789.81
580.717	1791.21
581.168	1804.21
581.619	1794.26
582.07	1816.81
582.521	1804.41
582.972	1796.81
583.423	1803.61
583.875	1815.06
584.326	1818.01
584.777	1867.51
585.227	1879.36
585.678	1901.41
586.129	1927.41
586.58	1950.06
587.031	1968.76
587.482	2016.41
587.933	2042.96
588.384	2041.11
588.834	2006.16
589.285	2016.46
589.736	2019.21
590.186	2021.26
590.637	2004.51
591.088	1952.96
591.538	1914.71
591.989	1886.86
592.439	1870.91
592.89	1841.66
593.34	1836.86
593.791	1828.31
594.241	1817.01
594.692	1811.31
595.142	1812.71
595.593	1806.61
596.043	1819.91
596.493	1840.66
596.943	1829.61
597.394	1885.81
597.844	1910.66
598.294	1954.16
598.744	2005.86
599.195	2105.36
599.645	2210.66
600.095	2325.81
600.545	2433.56
600.995	2532.11
601.445	2623.11
601.895	2751.86
602.345	2834.56
602.795	2801.06
603.245	2693.61
603.695	2545.51
604.145	2423.46
604.594	2291.96
605.044	2181.41
605.494	2055.71
605.944	1939.11
606.393	1895.76
606.843	1862.86
607.293	1860.01
607.743	1846.06
608.192	1860.61
608.642	1858.06
609.091	1856.81
609.541	1841.41
609.99	1843.76
610.44	1804.71
610.889	1785.01
611.339	1757.66
611.788	1743.46
612.238	1762.91
612.687	1760.51
613.136	1770.86
613.586	1786.71
614.035	1782.41
614.484	1793.31
614.933	1792.61
615.383	1757.86
615.832	1712.36
616.281	1690.41
616.73	1659.66
617.179	1622.11
617.628	1584.71
618.077	1564.81
618.526	1551.41
618.975	1538.56
619.424	1504.86
619.873	1506.26
620.322	1492.36
620.771	1489.46
621.22	1470.61
621.669	1438.56
622.118	1411.86
622.567	1413.41
623.015	1393.71
623.464	1382.16
623.913	1367.71
624.361	1380.71
624.81	1367.86
625.259	1370.46
625.707	1363.51
626.156	1371.66
626.604	1384.46
627.053	1388.16
627.501	1388.21
627.95	1396.91
628.398	1412.06
628.847	1391.71
629.295	1387.96
629.744	1384.71
630.192	1352.46
630.64	1338.56
631.089	1318.61
631.537	1291.21
631.985	1269.56
632.433	1277.61
632.881	1262.26
633.33	1282.46
633.778	1273.46
634.226	1278.61
634.674	1292.06
635.122	1295.96
635.57	1321.16
636.018	1338.21
636.466	1334.76
636.914	1331.26
637.362	1354.06
637.81	1375.86
638.258	1416.61
638.705	1435.51
639.153	1483.11
639.601	1494.41
640.049	1525.51
640.497	1553.16
640.944	1597.01
641.392	1530.81
641.84	1456.71
642.287	1392.71
642.735	1353.76
643.182	1343.01
643.63	1346.61
644.078	1345.81
644.525	1360.36
644.973	1408.06
645.42	1433.01
645.867	1462.16
646.315	1484.56
646.762	1538.16
647.21	1586.26
647.657	1666.26
648.104	1711.51
648.551	1748.81
648.999	1872.61
649.446	2050.76
649.893	2260.91
650.34	2628.36
650.787	3203.51
651.234	4075.96
651.682	5580.36
652.129	7803.11
652.576	11007.91
653.023	14485.81
653.47	15534.31
653.917	15534.36
654.363	15534.26
654.81	15531.26
655.257	15531.91
655.704	14285.71
656.151	8703.16
656.598	5760.66
657.044	4156.71
657.491	3270.56
657.938	2690.11
658.385	2286.46
658.831	2041.41
659.278	1837.11
659.724	1696.21
660.171	1577.31
660.618	1479.71
661.064	1403.36
661.511	1344.81
661.957	1315.71
662.404	1283.81
662.85	1284.36
663.296	1260.26
663.743	1239.26
664.189	1222.66
664.635	1211.41
665.082	1189.06
665.528	1174.41
665.974	1134.01
666.42	1118.56
666.867	1112.76
667.313	1057.76
667.759	1045.31
668.205	1048.96
668.651	1044.76
669.097	1044.91
669.543	1048.86
669.989	1056.96
670.435	1061.46
670.881	1070.51
671.327	1114.91
671.773	1198.11
672.219	1276.36
672.665	1361.01
673.11	1412.61
673.556	1423.46
674.002	1458.26
674.448	1469.06
674.893	1269.41
675.339	1094.61
675.785	1015.31
676.23	962.76
676.676	929.76
677.122	906.81
677.567	883.61
678.013	856.61
678.458	846.41
678.904	835.66
679.349	832.96
679.794	827.41
680.24	825.16
680.685	819.21
681.131	822.51
681.576	828.06
682.021	833.56
682.466	834.26
682.912	841.31
683.357	881.06
683.802	961.51
684.247	1039.86
684.692	1112.76
685.137	1163.71
685.583	1183.46
686.028	1239.06
686.473	1184.71
686.918	1022.31
687.363	943.26
687.807	893.66
688.252	853.16
688.697	828.26
689.142	802.06
689.587	800.16
690.032	825.26
690.477	845.36
690.921	888.86
691.366	928.06
691.811	967.06
692.255	1044.61
692.7	1269.06
693.145	1824.41
693.589	2769.16
694.034	3305.26
694.478	3528.71
694.923	3255.26
695.367	4622.91
695.812	2820.21
696.256	1196.71
696.701	879.31
697.145	812.41
697.59	774.96
698.034	769.96
698.478	766.61
698.922	767.21
699.367	780.46
699.811	818.16
700.255	884.81
700.699	969.86
701.143	1048.41
701.588	1113.31
702.032	1155.01
702.476	1199.31
702.92	1281.66
703.364	1669.01
703.808	2539.21
704.252	3174.36
704.696	3358.61
705.14	3196.16
705.584	4376.86
706.027	2428.76
706.471	1219.06
706.915	923.71
707.359	817.81
707.803	758.76
708.246	724.86
708.69	727.01
709.134	711.06
709.577	715.26
710.021	720.56
710.465	719.31
710.908	712.21
711.352	742.31
711.795	824.31
712.239	883.71
712.682	907.16
713.126	890.36
713.569	988.36
714.012	816.91
714.456	711.51
714.899	678.71
715.342	632.81
715.786	624.21
716.229	603.46
716.672	588.16
717.115	585.91
717.558	595.66
718.002	609.31
718.445	633.16
718.888	666.81
719.331	683.56
719.774	693.11
720.217	684.01
720.66	651.41
721.103	618.26
721.546	585.96
721.989	561.36
722.432	551.56
722.874	559.26
723.317	560.06
723.76	613.26
724.203	744.31
724.645	996.16
725.088	1175.76
725.531	1155.91
725.974	1268.56
726.416	1132.46
726.859	704.51
727.301	580.16
727.744	553.66
728.187	553.81
728.629	568.06
729.071	597.06
729.514	621.46
729.956	639.61
730.399	655.51
730.841	658.31
731.283	639.16
731.726	630.06
732.168	636.51
732.61	663.41
733.053	723.46
733.495	793.81
733.937	888.11
734.379	1041.76
734.821	1321.01
735.263	2080.31
735.705	3764.26
736.148	5521.56
736.59	5574.56
737.032	6057.06
737.474	5006.46
737.916	1921.21
738.357	1008.51
738.799	780.81
739.241	714.51
739.683	724.76
740.125	745.16
740.567	756.36
741.008	802.36
741.45	848.61
741.892	891.41
742.334	900.11
742.775	894.36
743.217	857.96
743.658	714.61
744.1	753.01
744.542	862.96
744.983	896.81
745.425	944.46
745.866	913.46
746.307	747.71
746.749	786.46
747.19	1130.56
747.632	2198.01
748.073	4087.96
748.514	5672.96
748.956	7517.46
749.397	8851.46
749.838	6136.76
750.279	5843.71
750.72	3032.36
751.162	1280.96
751.603	736.06
752.044	597.01
752.485	527.16
752.926	495.66
753.367	472.61
753.808	460.66
754.249	453.16
754.69	446.61
755.131	442.91
755.572	440.86
756.013	436.31
756.453	439.11
756.894	448.91
757.335	442.01
757.776	454.01
758.216	479.11
758.657	497.81
759.098	547.96
759.538	670.01
759.979	961.51
760.42	1923.96
760.86	4936.11
761.301	10216.21
761.741	12155.01
762.182	13936.51
762.622	9072.21
763.063	3232.71
763.503	1326.86
763.943	776.11
764.384	617.41
764.824	529.06
765.264	484.81
765.705	459.31
766.145	436.46
766.585	425.26
767.025	406.26
767.465	412.66
767.906	419.01
768.346	445.16
768.786	515.96
769.226	756.06
769.666	1511.76
770.106	3380.96
770.546	4872.46
770.986	5536.06
771.426	4199.96
771.866	1743.26
772.306	792.31
772.745	494.96
773.185	410.61
773.625	403.96
774.065	434.11
774.505	628.01
774.944	1132.06
775.384	1642.21
775.824	1864.16
776.263	1533.81
776.703	798.51
777.142	463.16
777.582	346.36
778.021	311.46
778.461	301.11
778.9	295.56
779.34	278.36
779.779	278.66
780.219	277.11
780.658	267.21
781.097	267.11
781.537	259.91
781.976	260.61
782.415	251.06
782.855	250.81
783.294	253.96
783.733	244.96
784.172	252.91
784.611	254.41
785.05	262.86
785.489	273.66
785.928	278.06
786.367	282.86
786.806	295.56
787.245	323.31
787.684	333.46
788.123	327.41
788.562	318.86
789.001	304.81
789.44	301.36
789.879	295.51
790.317	309.26
790.756	316.71
791.195	363.46
791.634	492.31
792.072	880.81
792.511	2139.81
792.95	3990.91
793.388	4870.51
793.827	3174.51
794.265	1445.81
794.704	692.31
795.142	427.11
795.581	345.61
796.019	317.46
796.458	316.46
796.896	329.81
797.334	372.26
797.773	498.81
798.211	950.66
798.649	1984.46
799.087	3358.81
799.526	4751.01
799.964	4911.86
800.402	3411.61
800.84	1532.91
801.278	749.71
801.716	458.31
802.154	367.71
802.592	346.66
803.03	348.61
803.468	359.11
803.906	361.06
804.344	357.66
804.782	344.46
805.22	352.16
805.658	356.46
806.096	379.46
806.533	424.11
806.971	547.41
807.409	795.21
807.847	1561.21
808.284	4001.01
808.722	7031.11
809.16	9893.01
809.597	13285.26
810.035	15534.61
810.472	10924.71
810.91	4599.21
811.347	2052.31
811.785	972.96
812.222	614.36
812.66	471.46
813.097	407.56
813.535	351.21
813.972	319.06
814.409	290.41
814.846	277.36
815.284	260.41
815.721	272.71
816.158	299.26
816.595	417.21
817.032	525.51
817.47	483.61
817.907	349.31
818.344	302.31
818.781	298.61
819.218	360.91
819.655	561.21
820.092	735.51
820.529	664.01
820.966	520.96
821.403	349.96
821.839	297.11
822.276	329.46
822.713	402.36
823.15	370.21
823.587	379.51
824.023	659.01
824.46	1646.86
824.897	2865.16
825.333	2261.46
825.77	1028.21
826.206	537.81
826.643	315.71
827.08	236.46
827.516	207.36
827.953	196.56
828.389	182.41
828.825	177.21
829.262	172.06
829.698	164.86
830.135	158.96
830.571	157.41
831.007	159.36
831.443	157.51
831.88	154.66
832.316	162.61
832.752	164.86
833.188	162.31
833.624	165.86
834.06	163.51
834.497	172.86
834.933	176.81
835.369	189.76
835.805	187.96
836.241	204.66
836.677	229.71
837.112	263.41
837.548	327.51
837.984	484.21
838.42	1024.51
838.856	2875.36
839.292	5717.66
839.727	4280.86
840.163	2846.51
840.599	4315.36
841.034	6654.01
841.47	3363.01
841.906	1612.61
842.341	865.56
842.777	646.11
843.212	680.96
843.648	422.01
844.083	281.71
844.519	213.41
844.954	183.06
845.39	158.61
845.825	152.06
846.261	146.01
846.696	138.76
847.131	133.76
847.566	139.01
848.002	136.71
848.437	147.66
848.872	158.06
849.307	195.56
849.742	357.81
850.177	933.01
850.613	1999.66
851.048	1466.86
851.483	660.16
851.918	369.01
852.353	206.46
852.788	144.71
853.223	130.16
853.657	115.96
854.092	123.21
854.527	118.76
854.962	122.51
855.397	136.16
855.832	119.11
856.266	105.41
856.701	107.86
857.136	109.51
857.57	134.76
858.005	165.66
858.44	141.86
858.874	127.51
859.309	131.06
859.743	128.51
860.178	127.96
860.612	142.71
861.047	186.36
861.481	265.91
861.915	185.31
862.35	133.76
862.784	109.26
863.218	107.11
863.653	113.51
864.087	141.36
864.521	168.46
864.955	275.61
865.39	470.81
865.824	373.51
866.258	489.26
866.692	754.06
867.126	547.01
867.56	294.81
867.994	187.71
868.428	157.11
868.862	190.26
869.296	180.61
869.73	219.16
870.164	188.11
870.598	171.31
871.031	118.61
871.465	104.61
871.899	83.56
872.333	75.51
872.766	73.01
873.2	72.61
873.634	71.71
874.067	80.96
874.501	77.96
874.935	80.21
875.368	81.01
875.802	72.76
876.235	67.81
876.669	69.51
877.102	59.06
877.535	60.21
877.969	58.86
878.402	60.81
878.836	62.51
879.269	55.16
879.702	54.46
880.135	61.86
880.569	64.91
881.002	56.71
881.435	57.51
881.868	58.16
882.301	54.71
882.734	51.61
883.167	57.86
883.601	56.21
884.034	50.06
884.467	48.01
884.899	55.71
885.332	50.96
885.765	46.56
886.198	46.56
886.631	47.31
887.064	46.31
887.497	47.61
887.929	49.66
888.362	44.46
888.795	47.51
889.228	48.91
889.66	47.31
890.093	45.96
890.526	46.41
890.958	45.86
891.391	48.31
891.823	46.46
892.256	45.36
892.688	46.36
893.121	41.16
893.553	48.86
893.985	43.26
894.418	41.41
894.85	48.16
895.282	44.71
895.715	40.66
896.147	39.46
896.579	40.21
897.011	46.96
897.444	42.06
897.876	39.41
898.308	38.31
898.74	45.06
899.172	46.16
899.604	41.41
900.036	44.71
900.468	37.71
900.9	50.06
901.332	58.56
901.764	63.11
902.196	59.11
902.628	60.06
903.06	87.06
903.491	94.66
903.923	79.96
904.355	80.66
904.787	79.26
905.218	66.71
905.65	59.71
906.082	55.71
906.513	46.21
906.945	52.01
907.376	49.36
907.808	49.36
908.239	58.81
908.671	64.01
909.102	66.86
909.534	91.71
909.965	183.76
910.397	464.81
910.828	1343.41
911.259	835.41
911.691	446.71
912.122	257.01
912.553	135.46
912.984	79.91
913.415	67.16
913.847	54.91
914.278	50.96
914.709	45.76
915.14	44.21
915.571	45.06
916.002	45.66
916.433	40.76
916.864	41.71
917.295	50.26
917.726	52.76
918.157	67.21
918.587	64.36
919.018	64.36
919.449	57.66
919.88	71.36
920.311	101.36
920.741	278.36
921.172	499.46
921.603	253.86
922.033	162.36
922.464	100.11
922.895	67.26
923.325	44.01
923.756	39.41
924.186	54.71
924.617	78.91
925.047	118.71
925.478	101.11
925.908	75.26
926.338	60.66
926.769	45.16
927.199	40.36
927.629	37.81
928.06	43.21
928.49	38.11
928.92	34.76
929.35	28.66
929.78	22.56
930.21	27.41
930.641	25.21
931.071	22.86
931.501	23.11
931.931	14.76
932.361	24.61
932.791	30.11
933.221	21.81
933.651	40.16
934.08	61.16
934.51	38.41
934.94	34.11
935.37	26.31
935.8	24.81
936.229	19.86
936.659	22.16
937.089	41.01
937.519	64.51
937.948	83.16
938.378	45.36
938.807	29.86
939.237	21.66
939.666	20.46
940.096	11.36
940.525	9.76
940.955	14.76
941.384	14.61
941.814	14.11
942.243	9.31
942.672	10.31
943.102	9.71
943.531	13.31
943.96	11.81
944.39	14.21
944.819	14.36
945.248	12.61
945.677	13.51
946.106	10.46
946.535	12.36
946.964	10.66
947.393	9.66
947.822	4.76
948.251	16.76
948.68	9.46
949.109	8.86
949.538	9.71
949.967	12.26
950.396	5.81
950.825	12.61
951.254	7.36
951.682	3.71
952.111	5.11
952.54	11.96
952.969	6.26
953.397	3.51
953.826	3.71
954.254	13.71
954.683	10.56
955.112	13.86
955.54	8.41
955.969	7.16
956.397	10.26
956.826	10.06
957.254	11.21
957.682	6.31
958.111	12.26
958.539	5.41
958.967	9.56
959.396	12.16
959.824	9.16
960.252	3.81
960.68	5.86
961.109	8.36
961.537	12.41
961.965	4.81
962.393	9.61
962.821	7.91
963.249	9.41
963.677	17.61
964.105	84.31
964.533	149.01
964.961	67.06
965.389	40.46
965.817	23.21
966.245	15.31
966.672	9.81
967.1	9.51
967.528	2.41
967.956	5.11
968.383	9.31
968.811	7.71
969.239	9.56
969.666	7.51
970.094	5.71
970.522	1.66
970.949	6.21
971.377	-2.89
971.804	3.31
972.232	1.66
972.659	5.26
973.087	6.66
973.514	4.06
973.941	5.56
974.369	2.56
974.796	5.56
975.223	5.66
975.651	6.16
976.078	5.51
976.505	11.86
976.932	31.96
977.359	47.96
977.786	28.96
978.214	17.11
978.641	5.71
979.068	6.66
979.495	7.56
979.922	6.16
980.349	4.16
980.776	10.01
981.202	6.31
981.629	9.61
982.056	5.91
982.483	3.31
982.91	10.26
983.337	5.31
983.763	6.61
984.19	8.76
984.617	5.01
985.043	11.36
985.47	8.06
985.897	6.01
986.323	6.71
986.75	2.21
987.176	-0.59
987.603	8.01
988.029	7.01
988.456	10.56
988.882	1.26
989.308	0.51
989.735	5.66
990.161	2.61
990.587	-0.29
991.014	5.61
991.44	5.91
991.866	2.21
992.292	0.76
992.719	4.76
993.145	10.96
993.571	6.61
993.997	6.96
994.423	5.41
994.849	-5.09
995.275	1.06
995.701	4.21
996.127	-0.54
996.553	3.36
996.979	2.81
997.405	5.76
997.83	2.06
998.256	4.01
998.682	1.61
999.108	4.01
999.534	-0.14
999.959	3.01
1000.385	7.51
1000.811	0.41
1001.236	-1.49
1001.662	4.16
1002.087	9.86
1002.513	3.51
1002.938	2.31
1003.364	3.96
1003.789	6.41
1004.215	3.31
1004.64	2.76
1005.066	5.16
1005.491	9.31
1005.916	8.46
1006.342	4.96
1006.767	4.76
1007.192	6.11
1007.617	3.66
1008.042	0.86
1008.468	3.86
1008.893	5.26
1009.318	12.16
1009.743	16.21
1010.168	30.46
1010.593	26.11
1011.018	17.26
1011.443	8.96
1011.868	12.06
1012.293	3.46
1012.718	-2.09
1013.143	-0.24
1013.567	9.71
1013.992	2.76
1014.417	4.26
1014.842	0.81
1015.267	1.71
1015.691	10.21
1016.116	4.01
1016.541	4.31
1016.965	1.41
1017.39	1.11
1017.814	0.86
1018.239	-1.29
1018.663	-5.89
1019.088	0.06
1019.512	0.46
1019.937	-3.79
1020.361	2.21
1020.785	-0.74
1021.21	-4.84
1021.634	-2.64
1022.058	5.26
1022.483	-3.64
1022.907	1.91
1023.331	0.36
1023.755	0.31
1024.179	4.26
1024.604	-2.24
1025.028	2.76
1025.452	5.41
1025.876	3.16
1026.3	6.61
1026.724	-3.79
1027.148	6.26
1027.572	0.61
1027.996	0.66
1028.42	3.06
1028.843	0.26
1029.267	-0.59
1029.691	5.36
1030.115	0.86
1030.539	1.46
1030.962	-0.69
1031.386	1.56
1031.81	0.86
1032.233	-1.74
1032.657	-8.99
1033.08	2.06
1033.504	-1.69
1033.927	-0.74
1034.351	-0.89
1034.774	0.11
1035.198	-1.64
1035.621	1.16
1036.045	-0.29
1036.468	6.76
1036.891	3.41
1037.315	1.16
1037.738	-1.64
1038.161	-0.84
1038.584	0.01
1039.008	-3.54
1039.431	-1.94
1039.854	-3.84
1040.277	3.71
1040.7	-3.14
1041.123	3.06
1041.546	0.81
1041.969	2.76
1042.392	0.21
1042.815	-7.44
1043.238	-0.14
1043.661	-1.94
1044.084	-7.09
1044.507	-1.19
1044.93	-2.44
1045.352	0.71
1045.775	3.31
1046.198	3.61
1046.621	2.96
1047.043	6.46
1047.466	3.36
1047.889	1.86
1048.311	4.06
1048.734	-0.09
1049.156	-1.79
1049.579	2.91
1050.001	-0.24
1050.424	0.96
1050.846	-3.34
1051.269	-2.79
1051.691	-6.44
1052.113	1.71
1052.536	-1.89
1052.958	-5.74
1053.38	3.51
1053.802	6.11
1054.225	-1.44
1054.647	1.16
1055.069	1.06
1055.491	0.11
1055.913	3.11
1056.335	-10.74
1056.757	-0.54
1057.179	3.76
1057.601	-4.29
1058.023	-2.99
1058.445	-5.89
1058.867	4.06
1059.289	-0.44
1059.711	-3.29
1060.133	2.16
1060.555	-1.59
1060.976	2.31
1061.398	-4.69
1061.82	0.76
1062.241	-5.69
1062.663	-1.39
1063.085	-4.94
1063.506	-5.29
1063.928	0.26
1064.35	-1.24
1064.771	-2.74
1065.193	-3.89
1065.614	-3.69
1066.035	3.71
1066.457	1.56
1066.878	0.01
1067.3	-1.99
1067.721	-2.14
1068.142	2.21
1068.564	1.91
1068.985	-2.79
1069.406	-7.54
1069.827	-4.09
1070.248	-4.94
1070.67	-3.14
1071.091	-5.29
1071.512	-2.99
1071.933	-4.64
1072.354	-7.09
1072.775	-4.24
1073.196	-2.19
1073.617	-4.09
1074.038	-4.24
1074.459	-4.44
1074.88	-3.69
1075.3	-0.84
1075.721	-1.04
1076.142	-1.14
1076.563	-8.39
1076.983	-0.34
1077.404	-9.64
1077.825	-1.04
1078.246	-6.64
1078.666	-2.64
1079.087	-1.99
1079.507	-7.04
1079.928	-0.64
1080.348	-1.64
1080.769	1.36
1081.189	-0.49
1081.61	-4.94
1082.03	-2.49
1082.451	-1.94
1082.871	-2.69
1083.291	-1.74
1083.711	-0.84
1084.132	-2.69
1084.552	-4.59
1084.972	-6.39
1085.392	-5.29
1085.813	0.26
1086.233	-5.04
1086.653	3.36
1087.073	-5.74
1087.493	-1.79
1087.913	-3.89
1088.333	-2.49
1088.753	0.86
1089.173	5.16
1089.593	-0.29
1090.013	-3.14
1090.433	-8.24
1090.852	0.56
1091.272	-4.94
1091.692	-4.39
1092.112	-5.39
1092.531	-4.29
1092.951	-4.49
1093.371	-3.34
1093.79	-5.94
1094.21	-2.34
1094.63	0.71
1095.049	-0.84
1095.469	-11.04
1095.888	0.96
1096.308	-2.44
1096.727	-8.74
1097.146	-4.24
1097.566	-2.14
1097.985	-4.69
1098.405	-4.74
1098.824	-0.29
1099.243	-7.04
1099.662	-0.24
1100.082	-2.69
1100.501	-3.79
1100.92	2.76
1101.339	-1.64
1101.758	2.96
