Data from MSPlasma+Separation6_Subt14_10-13-35-218.txt Node
Date: Fri Jul 21 10:13:35 EDT 2017
User: Ender
Spectrometer: HR+D1039
Trigger mode: 0
Integration Time (sec): 6.430000E-3
Scans to average: 20
Electric dark correction enabled: true
Nonlinearity correction enabled: false
Boxcar width: 0
XAxis mode: Wavelengths
Number of Pixels in Spectrum: 2048
>>>>>Begin Spectral Data<<<<<
187.836	-0.32
188.309	-0.32
188.782	-0.32
189.255	3.18
189.728	-0.62
190.201	-2.22
190.674	2.18
191.147	0.23
191.619	-0.72
192.092	2.73
192.565	-1.02
193.038	-0.77
193.511	1.08
193.984	-2.07
194.456	-0.67
194.929	-1.77
195.402	-2.12
195.874	2.83
196.347	4.83
196.82	1.43
197.292	-1.67
197.765	-0.32
198.237	2.38
198.71	-0.52
199.182	4.93
199.655	2.88
200.127	6.83
200.6	1.98
201.072	3.78
201.544	3.13
202.017	0.93
202.489	2.18
202.961	-0.52
203.433	-1.72
203.906	-0.27
204.378	3.43
204.85	-0.77
205.322	2.43
205.794	5.63
206.266	-0.32
206.739	3.43
207.211	3.73
207.683	-2.47
208.155	1.98
208.627	1.23
209.099	3.33
209.57	5.13
210.042	6.73
210.514	4.03
210.986	-0.07
211.458	0.73
211.93	4.08
212.402	4.78
212.873	2.73
213.345	-0.22
213.817	4.13
214.288	1.48
214.76	-0.52
215.232	0.28
215.703	6.38
216.175	4.13
216.646	3.08
217.118	1.73
217.589	-2.22
218.061	2.88
218.532	-2.82
219.004	5.53
219.475	4.28
219.946	2.98
220.418	6.23
220.889	4.78
221.36	9.53
221.832	5.93
222.303	4.48
222.774	6.58
223.245	1.58
223.717	0.28
224.188	5.58
224.659	-0.12
225.13	1.93
225.601	5.38
226.072	5.48
226.543	8.08
227.014	3.03
227.485	11.68
227.956	7.43
228.427	11.48
228.898	2.08
229.369	7.78
229.839	4.68
230.31	10.03
230.781	7.58
231.252	12.88
231.722	11.73
232.193	7.03
232.664	12.28
233.135	7.43
233.605	11.83
234.076	15.93
234.546	8.68
235.017	10.58
235.487	10.93
235.958	9.28
236.428	16.28
236.899	8.28
237.369	18.43
237.84	16.48
238.31	16.98
238.78	12.08
239.251	11.08
239.721	10.28
240.191	9.58
240.662	14.43
241.132	14.93
241.602	13.03
242.072	14.58
242.542	14.68
243.013	13.93
243.483	22.33
243.953	10.73
244.423	18.18
244.893	16.33
245.363	18.43
245.833	19.48
246.303	18.88
246.773	20.53
247.243	16.88
247.712	23.38
248.182	22.78
248.652	21.13
249.122	25.48
249.592	25.78
250.061	21.08
250.531	28.13
251.001	20.98
251.471	24.93
251.94	25.68
252.41	25.08
252.879	24.83
253.349	30.28
253.818	25.58
254.288	32.68
254.757	30.38
255.227	30.78
255.696	31.48
256.166	33.38
256.635	32.78
257.105	28.73
257.574	35.13
258.043	30.93
258.513	27.93
258.982	27.98
259.451	34.28
259.92	24.88
260.389	34.18
260.859	31.23
261.328	35.23
261.797	31.38
262.266	33.68
262.735	42.33
263.204	38.63
263.673	35.43
264.142	28.08
264.611	36.98
265.08	37.18
265.549	35.23
266.018	38.13
266.487	37.93
266.955	37.68
267.424	43.88
267.893	46.13
268.362	37.78
268.83	39.78
269.299	43.43
269.768	44.78
270.236	48.68
270.705	52.43
271.174	49.33
271.642	45.83
272.111	49.08
272.579	48.78
273.048	49.38
273.516	50.33
273.985	46.93
274.453	47.63
274.922	50.68
275.39	46.38
275.858	53.23
276.327	57.08
276.795	53.38
277.263	52.88
277.731	54.43
278.2	56.43
278.668	54.38
279.136	58.28
279.604	52.78
280.072	53.73
280.54	55.38
281.008	59.83
281.477	62.78
281.945	60.13
282.413	62.33
282.881	60.88
283.348	55.88
283.816	64.68
284.284	64.88
284.752	62.83
285.22	63.68
285.688	61.43
286.156	65.38
286.623	70.18
287.091	71.43
287.559	68.88
288.026	72.58
288.494	71.48
288.962	70.83
289.429	71.38
289.897	73.33
290.364	67.83
290.832	72.68
291.3	69.73
291.767	72.88
292.234	75.53
292.702	74.88
293.169	76.13
293.637	78.43
294.104	79.73
294.571	77.93
295.039	81.73
295.506	73.18
295.973	79.98
296.44	77.13
296.908	85.63
297.375	81.28
297.842	88.63
298.309	82.08
298.776	86.53
299.243	91.48
299.71	90.23
300.177	94.03
300.644	87.03
301.111	90.93
301.578	91.18
302.045	92.68
302.512	93.63
302.979	95.98
303.446	100.28
303.913	99.03
304.379	104.03
304.846	101.28
305.313	106.68
305.78	108.63
306.246	105.28
306.713	108.08
307.18	108.03
307.646	111.38
308.113	112.33
308.579	118.83
309.046	118.83
309.512	118.53
309.979	118.08
310.445	118.23
310.912	121.43
311.378	125.08
311.845	125.73
312.311	120.53
312.777	123.18
313.244	129.53
313.71	132.93
314.176	135.28
314.642	128.38
315.109	130.38
315.575	125.93
316.041	130.63
316.507	131.83
316.973	139.18
317.439	136.18
317.905	141.98
318.371	138.98
318.837	144.03
319.303	139.93
319.769	137.18
320.235	147.18
320.701	148.78
321.167	147.18
321.633	149.28
322.099	142.13
322.564	148.08
323.03	154.83
323.496	150.83
323.962	159.63
324.427	160.38
324.893	153.28
325.359	156.13
325.824	162.13
326.29	165.23
326.755	162.33
327.221	158.23
327.686	174.13
328.152	170.18
328.617	178.23
329.083	175.88
329.548	177.68
330.014	177.88
330.479	181.68
330.944	181.73
331.41	186.68
331.875	182.03
332.34	179.48
332.805	183.28
333.271	184.18
333.736	185.98
334.201	188.88
334.666	206.88
335.131	203.08
335.596	203.03
336.061	196.43
336.526	197.83
336.991	193.08
337.456	192.33
337.921	190.33
338.386	191.53
338.851	189.33
339.316	195.63
339.781	192.38
340.246	199.53
340.711	200.93
341.175	206.43
341.64	207.78
342.105	210.53
342.569	224.23
343.034	216.98
343.499	220.18
343.963	231.23
344.428	222.23
344.893	226.68
345.357	231.58
345.822	236.13
346.286	234.78
346.751	242.48
347.215	240.38
347.679	251.93
348.144	265.88
348.608	266.93
349.073	265.73
349.537	274.28
350.001	278.68
350.465	269.73
350.93	275.38
351.394	275.68
351.858	275.63
352.322	283.33
352.786	284.63
353.25	282.78
353.715	292.13
354.179	303.03
354.643	310.98
355.107	311.78
355.571	307.68
356.035	300.68
356.498	305.13
356.962	308.88
357.426	307.68
357.89	304.78
358.354	298.43
358.818	298.58
359.281	306.48
359.745	306.88
360.209	299.93
360.673	302.28
361.136	302.43
361.6	310.03
362.064	316.38
362.527	326.03
362.991	322.83
363.454	319.38
363.918	323.93
364.381	333.83
364.845	326.23
365.308	327.38
365.772	334.03
366.235	336.38
366.698	332.03
367.162	331.13
367.625	344.33
368.088	351.38
368.552	340.38
369.015	344.33
369.478	346.58
369.941	348.78
370.404	353.53
370.867	350.48
371.331	354.43
371.794	366.13
372.257	362.58
372.72	363.88
373.183	368.63
373.646	367.63
374.109	370.68
374.572	372.53
375.035	374.48
375.497	376.68
375.96	380.48
376.423	390.08
376.886	404.73
377.349	404.73
377.811	399.18
378.274	403.68
378.737	401.98
379.199	416.98
379.662	403.48
380.125	414.18
380.587	420.68
381.05	422.93
381.512	424.68
381.975	436.28
382.437	446.83
382.9	434.53
383.362	439.28
383.825	446.08
384.287	451.83
384.75	447.33
385.212	453.03
385.674	460.88
386.136	458.13
386.599	458.08
387.061	456.93
387.523	466.43
387.985	467.73
388.447	469.33
388.91	472.78
389.372	478.93
389.834	482.58
390.296	466.58
390.758	478.18
391.22	472.88
391.682	475.43
392.144	477.18
392.606	479.13
393.068	487.38
393.529	516.83
393.991	530.48
394.453	506.48
394.915	487.23
395.377	478.68
395.838	482.58
396.3	484.23
396.762	491.58
397.224	489.68
397.685	486.78
398.147	508.43
398.608	507.58
399.07	509.33
399.531	504.88
399.993	525.33
400.454	528.23
400.916	530.63
401.377	542.43
401.839	547.23
402.3	550.03
402.762	569.08
403.223	608.73
403.684	600.18
404.145	582.23
404.607	575.38
405.068	569.18
405.529	567.53
405.99	579.73
406.451	598.68
406.913	583.78
407.374	590.88
407.835	584.23
408.296	601.63
408.757	597.38
409.218	618.38
409.679	628.78
410.14	628.63
410.601	648.28
411.062	651.58
411.522	649.33
411.983	650.98
412.444	657.08
412.905	674.23
413.366	702.78
413.826	726.53
414.287	813.03
414.748	953.53
415.208	973.28
415.669	818.68
416.13	751.83
416.59	741.23
417.051	759.63
417.511	795.78
417.972	843.73
418.432	907.93
418.893	993.63
419.353	959.23
419.814	747.18
420.274	676.08
420.734	662.98
421.195	691.03
421.655	693.88
422.115	700.28
422.576	694.53
423.036	706.68
423.496	719.28
423.956	756.03
424.416	796.03
424.876	888.08
425.336	883.98
425.797	877.73
426.257	865.83
426.717	821.18
427.177	775.13
427.637	779.23
428.097	809.93
428.556	838.08
429.016	891.38
429.476	910.98
429.936	883.38
430.396	893.58
430.856	906.98
431.315	928.03
431.775	980.63
432.235	1040.98
432.694	1060.58
433.154	1006.98
433.614	979.68
434.073	948.63
434.533	861.03
434.993	832.98
435.452	834.13
435.912	812.78
436.371	814.73
436.83	807.98
437.29	782.03
437.749	774.28
438.209	768.18
438.668	780.28
439.127	784.58
439.587	778.23
440.046	754.53
440.505	771.28
440.964	774.73
441.424	802.58
441.883	819.53
442.342	771.03
442.801	748.28
443.26	741.58
443.719	743.73
444.178	733.73
444.637	748.03
445.096	760.58
445.555	763.38
446.014	760.33
446.473	757.48
446.932	756.48
447.391	772.88
447.849	785.78
448.308	766.78
448.767	775.98
449.226	788.33
449.685	790.98
450.143	824.23
450.602	822.78
451.061	782.88
451.519	788.58
451.978	771.28
452.436	765.13
452.895	782.13
453.353	773.63
453.812	763.83
454.27	774.28
454.729	775.43
455.187	779.43
455.646	782.38
456.104	779.73
456.562	796.18
457.021	805.23
457.479	778.03
457.937	802.73
458.395	819.13
458.854	811.03
459.312	801.53
459.77	810.33
460.228	828.08
460.686	831.88
461.144	827.33
461.602	822.73
462.06	825.23
462.518	847.98
462.976	843.53
463.434	851.78
463.892	861.48
464.35	876.33
464.808	887.63
465.266	903.28
465.724	911.83
466.181	919.28
466.639	915.43
467.097	943.98
467.555	981.33
468.012	972.23
468.47	979.38
468.928	1017.53
469.385	1041.38
469.843	1047.88
470.3	1044.98
470.758	1079.03
471.215	1090.88
471.673	1118.18
472.13	1150.43
472.588	1179.68
473.045	1172.53
473.503	1190.63
473.96	1239.58
474.417	1252.83
474.875	1303.43
475.332	1356.28
475.789	1380.28
476.246	1424.28
476.704	1478.18
477.161	1518.83
477.618	1573.63
478.075	1650.03
478.532	1777.08
478.989	1911.68
479.446	2094.48
479.903	2214.18
480.36	2395.48
480.817	2522.78
481.274	2688.28
481.731	2941.28
482.188	3124.48
482.645	3354.33
483.102	3521.68
483.558	3729.48
484.015	3880.83
484.472	3856.58
484.929	3722.18
485.385	3579.18
485.842	3480.58
486.299	3357.28
486.755	3103.93
487.212	2813.03
487.668	2543.13
488.125	2373.08
488.582	2200.03
489.038	2136.78
489.494	2073.78
489.951	1998.98
490.407	1953.08
490.864	1923.03
491.32	1874.58
491.776	1862.48
492.233	1875.13
492.689	1847.93
493.145	1817.28
493.602	1785.83
494.058	1801.98
494.514	1811.53
494.97	1814.58
495.426	1845.18
495.882	1835.08
496.338	1836.33
496.794	1838.23
497.251	1832.68
497.707	1861.38
498.163	1858.63
498.618	1868.93
499.074	1852.03
499.53	1873.23
499.986	1886.73
500.442	1868.23
500.898	1846.83
501.354	1864.08
501.809	1869.73
502.265	1875.33
502.721	1883.53
503.177	1885.88
503.632	1886.38
504.088	1902.03
504.543	1912.73
504.999	1934.98
505.455	1931.13
505.91	1915.98
506.366	1906.93
506.821	1929.13
507.277	1919.23
507.732	1932.03
508.187	1923.48
508.643	1941.93
509.098	1936.93
509.553	1974.48
510.009	1988.53
510.464	2024.48
510.919	2032.18
511.375	2055.78
511.83	2079.28
512.285	2118.83
512.74	2157.28
513.195	2183.53
513.65	2207.48
514.105	2236.13
514.56	2239.08
515.015	2279.88
515.47	2286.73
515.925	2262.83
516.38	2269.18
516.835	2267.48
517.29	2249.88
517.745	2258.33
518.2	2221.73
518.655	2173.18
519.109	2152.03
519.564	2119.63
520.019	2115.08
520.474	2097.13
520.928	2082.68
521.383	2067.93
521.838	2057.43
522.292	2040.08
522.747	2029.68
523.201	2029.43
523.656	2003.43
524.11	2008.03
524.565	1989.53
525.019	1995.18
525.474	1987.28
525.928	1993.23
526.382	1992.78
526.837	1998.03
527.291	2001.43
527.745	1979.63
528.2	1981.98
528.654	1954.68
529.108	1956.93
529.562	1971.68
530.016	1965.78
530.47	1975.23
530.925	1953.38
531.379	1959.48
531.833	1989.63
532.287	1976.63
532.741	1961.68
533.195	1975.28
533.649	1983.93
534.103	1978.68
534.556	1967.03
535.01	1973.13
535.464	1969.33
535.918	1954.48
536.372	1974.73
536.826	1971.78
537.279	1952.58
537.733	1958.23
538.187	1974.78
538.64	1967.13
539.094	1975.58
539.548	2011.98
540.001	2012.08
540.455	2014.18
540.908	2026.68
541.362	2049.38
541.815	2060.53
542.269	2108.23
542.722	2102.78
543.175	2120.38
543.629	2120.43
544.082	2132.08
544.536	2170.48
544.989	2163.73
545.442	2183.33
545.895	2175.78
546.349	2178.28
546.802	2182.13
547.255	2180.18
547.708	2198.93
548.161	2227.13
548.614	2216.88
549.067	2226.53
549.52	2217.08
549.973	2178.28
550.426	2179.28
550.879	2175.73
551.332	2178.38
551.785	2193.08
552.238	2221.48
552.691	2220.78
553.144	2252.23
553.596	2282.88
554.049	2320.28
554.502	2356.38
554.955	2377.03
555.407	2406.68
555.86	2386.13
556.313	2367.63
556.765	2351.03
557.218	2307.68
557.67	2316.03
558.123	2282.63
558.576	2269.48
559.028	2268.73
559.48	2288.23
559.933	2265.48
560.385	2204.28
560.838	2148.98
561.29	2079.48
561.742	2068.73
562.195	2029.23
562.647	2020.83
563.099	2003.08
563.551	1988.88
564.004	2004.68
564.456	1983.43
564.908	1945.68
565.36	1901.93
565.812	1871.58
566.264	1845.33
566.716	1829.93
567.168	1803.18
567.62	1807.78
568.072	1800.23
568.524	1776.68
568.976	1777.83
569.428	1756.23
569.88	1758.43
570.332	1770.73
570.784	1761.68
571.235	1759.28
571.687	1784.53
572.139	1788.33
572.59	1792.73
573.042	1801.03
573.494	1797.98
573.945	1775.28
574.397	1741.88
574.849	1732.93
575.3	1745.03
575.752	1710.23
576.203	1697.38
576.655	1705.98
577.106	1675.93
577.557	1673.73
578.009	1673.43
578.46	1684.03
578.912	1651.03
579.363	1671.53
579.814	1660.43
580.265	1658.18
580.717	1671.78
581.168	1668.53
581.619	1674.33
582.07	1687.88
582.521	1693.78
582.972	1676.63
583.423	1674.83
583.875	1690.33
584.326	1705.83
584.777	1728.53
585.227	1753.68
585.678	1779.78
586.129	1802.68
586.58	1817.43
587.031	1840.33
587.482	1887.88
587.933	1911.58
588.384	1897.63
588.834	1879.93
589.285	1874.28
589.736	1873.38
590.186	1863.88
590.637	1853.53
591.088	1806.68
591.538	1779.93
591.989	1757.68
592.439	1735.43
592.89	1721.98
593.34	1713.38
593.791	1709.08
594.241	1688.93
594.692	1685.98
595.142	1691.48
595.593	1679.48
596.043	1700.83
596.493	1713.33
596.943	1705.88
597.394	1758.68
597.844	1788.73
598.294	1819.08
598.744	1885.38
599.195	1971.48
599.645	2080.23
600.095	2191.58
600.545	2285.73
600.995	2373.38
601.445	2448.73
601.895	2549.88
602.345	2622.53
602.795	2591.53
603.245	2490.48
603.695	2347.18
604.145	2234.88
604.594	2117.18
605.044	2017.08
605.494	1896.38
605.944	1800.48
606.393	1755.03
606.843	1730.38
607.293	1734.48
607.743	1709.93
608.192	1723.93
608.642	1726.53
609.091	1717.38
609.541	1712.63
609.99	1709.78
610.44	1689.53
610.889	1663.43
611.339	1642.58
611.788	1625.13
612.238	1637.08
612.687	1638.78
613.136	1654.03
613.586	1666.68
614.035	1657.03
614.484	1667.68
614.933	1662.13
615.383	1636.18
615.832	1601.63
616.281	1579.98
616.73	1544.78
617.179	1507.38
617.628	1479.28
618.077	1455.53
618.526	1437.18
618.975	1433.43
619.424	1410.53
619.873	1405.68
620.322	1393.03
620.771	1382.73
621.22	1366.68
621.669	1341.08
622.118	1332.13
622.567	1316.28
623.015	1294.58
623.464	1290.83
623.913	1285.08
624.361	1277.18
624.81	1272.08
625.259	1277.28
625.707	1261.08
626.156	1276.88
626.604	1288.18
627.053	1293.18
627.501	1295.68
627.95	1307.33
628.398	1311.28
628.847	1299.28
629.295	1287.58
629.744	1294.43
630.192	1265.13
630.64	1250.13
631.089	1232.68
631.537	1200.68
631.985	1186.33
632.433	1190.68
632.881	1177.88
633.33	1194.18
633.778	1182.83
634.226	1195.18
634.674	1206.33
635.122	1216.33
635.57	1226.93
636.018	1252.33
636.466	1248.63
636.914	1244.53
637.362	1271.13
637.81	1281.23
638.258	1328.73
638.705	1345.93
639.153	1391.38
639.601	1406.48
640.049	1425.23
640.497	1461.38
640.944	1482.28
641.392	1426.33
641.84	1359.58
642.287	1310.23
642.735	1273.48
643.182	1258.38
643.63	1264.58
644.078	1264.03
644.525	1291.08
644.973	1323.13
645.42	1361.58
645.867	1374.08
646.315	1414.43
646.762	1465.88
647.21	1508.68
647.657	1579.28
648.104	1652.33
648.551	1687.83
648.999	1822.13
649.446	1996.53
649.893	2244.83
650.34	2621.23
650.787	3214.53
651.234	4148.83
651.682	5725.98
652.129	8085.53
652.576	11458.58
653.023	14927.43
653.47	15533.88
653.917	15533.93
654.363	15533.83
654.81	15530.83
655.257	15531.48
655.704	13878.03
656.151	8450.98
656.598	5604.43
657.044	4038.08
657.491	3172.78
657.938	2588.33
658.385	2203.53
658.831	1960.23
659.278	1759.43
659.724	1611.48
660.171	1502.68
660.618	1392.03
661.064	1323.58
661.511	1295.48
661.957	1253.73
662.404	1223.88
662.85	1207.78
663.296	1188.38
663.743	1164.48
664.189	1155.78
664.635	1133.33
665.082	1118.03
665.528	1102.08
665.974	1071.83
666.42	1053.08
666.867	1039.68
667.313	1000.73
667.759	980.73
668.205	979.23
668.651	989.08
669.097	982.03
669.543	988.53
669.989	999.33
670.435	1005.28
670.881	1007.48
671.327	1049.98
671.773	1128.63
672.219	1204.08
672.665	1289.73
673.11	1315.98
673.556	1324.53
674.002	1347.78
674.448	1360.83
674.893	1168.43
675.339	1026.63
675.785	950.28
676.23	899.98
676.676	873.63
677.122	845.08
677.567	818.73
678.013	787.83
678.458	787.33
678.904	777.93
679.349	773.68
679.794	776.18
680.24	771.93
680.685	764.08
681.131	759.23
681.576	772.28
682.021	774.18
682.466	778.28
682.912	794.73
683.357	831.73
683.802	901.68
684.247	981.83
684.692	1039.43
685.137	1092.83
685.583	1098.03
686.028	1143.73
686.473	1092.93
686.918	960.08
687.363	873.13
687.807	835.28
688.252	795.88
688.697	764.88
689.142	744.38
689.587	743.18
690.032	763.48
690.477	790.83
690.921	827.58
691.366	877.98
691.811	908.78
692.255	985.08
692.7	1195.23
693.145	1743.13
693.589	2670.98
694.034	3163.28
694.478	3293.63
694.923	2973.63
695.367	4072.08
695.812	2570.18
696.256	1110.48
696.701	812.78
697.145	754.33
697.59	724.33
698.034	716.73
698.478	711.63
698.922	716.78
699.367	734.63
699.811	773.43
700.255	832.98
700.699	913.83
701.143	985.23
701.588	1038.33
702.032	1078.83
702.476	1118.38
702.92	1194.03
703.364	1583.13
703.808	2438.78
704.252	3024.68
704.696	3145.98
705.14	2909.83
705.584	3878.33
706.027	2234.03
706.471	1136.73
706.915	854.63
707.359	751.78
707.803	717.03
708.246	679.73
708.69	684.63
709.134	672.78
709.577	668.73
710.021	675.18
710.465	668.88
710.908	664.73
711.352	694.78
711.795	769.68
712.239	828.13
712.682	844.83
713.126	828.88
713.569	905.33
714.012	757.78
714.456	663.58
714.899	621.38
715.342	589.53
715.786	577.23
716.229	562.23
716.672	547.68
717.115	543.68
717.558	550.78
718.002	571.38
718.445	589.88
718.888	624.73
719.331	635.98
719.774	651.48
720.217	636.58
720.66	606.58
721.103	571.18
721.546	540.48
721.989	529.63
722.432	523.03
722.874	520.78
723.317	524.33
723.76	570.98
724.203	701.28
724.645	943.48
725.088	1105.13
725.531	1065.83
725.974	1148.13
726.416	1037.63
726.859	651.38
727.301	538.43
727.744	514.43
728.187	515.43
728.629	525.58
729.071	552.38
729.514	573.98
729.956	600.53
730.399	607.88
730.841	612.08
731.283	600.73
731.726	590.23
732.168	589.98
732.61	628.18
733.053	672.63
733.495	742.58
733.937	825.33
734.379	973.38
734.821	1245.43
735.263	1991.58
735.705	3580.58
736.148	5192.58
736.59	5132.33
737.032	5388.23
737.474	4476.23
737.916	1776.88
738.357	934.93
738.799	724.43
739.241	664.63
739.683	678.73
740.125	693.08
740.567	704.23
741.008	739.53
741.45	792.53
741.892	826.13
742.334	813.63
742.775	826.88
743.217	785.23
743.658	671.38
744.1	697.38
744.542	814.93
744.983	828.33
745.425	852.08
745.866	833.48
746.307	700.18
746.749	739.68
747.19	1083.23
747.632	2101.58
748.073	3895.23
748.514	5298.63
748.956	6970.08
749.397	8064.98
749.838	5614.98
750.279	5177.18
750.72	2769.43
751.162	1193.28
751.603	683.43
752.044	550.88
752.485	485.33
752.926	459.83
753.367	441.28
753.808	425.13
754.249	423.63
754.69	418.68
755.131	413.18
755.572	416.58
756.013	410.68
756.453	413.28
756.894	422.93
757.335	417.83
757.776	428.78
758.216	447.63
758.657	465.43
759.098	515.53
759.538	633.23
759.979	913.73
760.42	1837.13
760.86	4716.33
761.301	9653.28
761.741	11180.98
762.182	12362.63
762.622	8111.93
763.063	2983.38
763.503	1226.93
763.943	723.78
764.384	569.73
764.824	495.23
765.264	460.08
765.705	434.03
766.145	410.93
766.585	395.03
767.025	378.18
767.465	388.43
767.906	394.43
768.346	422.88
768.786	484.58
769.226	717.73
769.666	1445.28
770.106	3206.83
770.546	4509.33
770.986	4938.33
771.426	3744.63
771.866	1605.23
772.306	732.33
772.745	453.28
773.185	382.63
773.625	373.08
774.065	404.68
774.505	588.48
774.944	1055.58
775.384	1496.48
775.824	1642.58
776.263	1351.83
776.703	735.38
777.142	422.53
777.582	315.73
778.021	288.68
778.461	276.83
778.9	276.73
779.34	267.48
779.779	257.78
780.219	257.23
780.658	249.53
781.097	248.58
781.537	243.73
781.976	242.63
782.415	231.03
782.855	235.43
783.294	233.78
783.733	231.98
784.172	238.28
784.611	234.48
785.05	243.28
785.489	251.53
785.928	257.93
786.367	264.73
786.806	280.03
787.245	299.58
787.684	304.13
788.123	301.63
788.562	299.23
789.001	285.68
789.44	275.08
789.879	278.88
790.317	280.83
790.756	294.98
791.195	341.43
791.634	460.48
792.072	832.68
792.511	2021.08
792.95	3705.48
793.388	4319.68
793.827	2827.58
794.265	1332.88
794.704	648.03
795.142	391.63
795.581	330.78
796.019	293.98
796.458	296.48
796.896	300.93
797.334	354.03
797.773	473.23
798.211	903.83
798.649	1847.38
799.087	3078.83
799.526	4347.83
799.964	4441.38
800.402	3050.78
800.84	1414.63
801.278	697.13
801.716	425.68
802.154	343.78
802.592	325.73
803.03	324.38
803.468	334.43
803.906	335.63
804.344	325.08
804.782	315.18
805.22	319.13
805.658	329.78
806.096	356.13
806.533	400.18
806.971	510.98
807.409	744.18
807.847	1470.08
808.284	3720.33
808.722	6455.98
809.16	8969.53
809.597	12274.83
810.035	14652.38
810.472	9677.68
810.91	4225.03
811.347	1912.73
811.785	901.38
812.222	561.08
812.66	438.28
813.097	373.73
813.535	323.13
813.972	294.63
814.409	273.53
814.846	254.88
815.284	246.43
815.721	250.38
816.158	283.03
816.595	379.38
817.032	479.08
817.47	430.28
817.907	318.03
818.344	285.38
818.781	277.38
819.218	336.73
819.655	518.88
820.092	662.68
820.529	596.33
820.966	465.88
821.403	323.58
821.839	274.08
822.276	304.38
822.713	364.83
823.15	343.93
823.587	349.53
824.023	615.68
824.46	1521.83
824.897	2597.13
825.333	2023.88
825.77	953.43
826.206	504.53
826.643	298.38
827.08	223.63
827.516	197.08
827.953	182.38
828.389	175.38
828.825	169.13
829.262	154.28
829.698	146.43
830.135	143.53
830.571	139.83
831.007	146.38
831.443	149.88
831.88	146.73
832.316	150.88
832.752	149.83
833.188	155.23
833.624	152.78
834.06	158.48
834.497	156.78
834.933	166.13
835.369	176.53
835.805	188.58
836.241	191.43
836.677	211.13
837.112	244.18
837.548	303.83
837.984	449.58
838.42	960.88
838.856	2648.28
839.292	5128.33
839.727	3844.13
840.163	2619.58
840.599	3957.33
841.034	5915.23
841.47	3013.48
841.906	1486.98
842.341	797.73
842.777	595.48
843.212	607.48
843.648	383.83
844.083	260.93
844.519	194.28
844.954	169.18
845.39	148.28
845.825	145.23
846.261	137.58
846.696	128.58
847.131	124.38
847.566	130.63
848.002	129.73
848.437	139.03
848.872	151.03
849.307	182.68
849.742	339.23
850.177	859.33
850.613	1799.88
851.048	1309.68
851.483	617.48
851.918	343.28
852.353	187.58
852.788	131.43
853.223	125.73
853.657	115.08
854.092	109.38
854.527	106.68
854.962	115.38
855.397	128.43
855.832	112.93
856.266	99.03
856.701	98.93
857.136	101.18
857.57	127.93
858.005	146.88
858.44	129.83
858.874	121.33
859.309	122.38
859.743	119.83
860.178	114.53
860.612	128.68
861.047	177.08
861.481	243.08
861.915	170.98
862.35	126.28
862.784	98.48
863.218	94.73
863.653	102.73
864.087	128.48
864.521	155.63
864.955	255.38
865.39	427.13
865.824	338.93
866.258	447.08
866.692	664.08
867.126	484.73
867.56	266.83
867.994	172.73
868.428	145.33
868.862	173.18
869.296	161.88
869.73	194.58
870.164	171.63
870.598	149.93
871.031	113.03
871.465	95.28
871.899	79.33
872.333	66.98
872.766	72.73
873.2	75.78
873.634	67.08
874.067	77.48
874.501	71.93
874.935	70.48
875.368	76.53
875.802	65.53
876.235	60.63
876.669	61.78
877.102	55.28
877.535	57.33
877.969	60.03
878.402	56.93
878.836	57.93
879.269	61.83
879.702	55.28
880.135	59.63
880.569	59.63
881.002	52.93
881.435	51.93
881.868	53.68
882.301	51.33
882.734	47.28
883.167	58.53
883.601	50.68
884.034	48.28
884.467	41.38
884.899	46.68
885.332	45.58
885.765	46.58
886.198	47.88
886.631	47.63
887.064	44.43
887.497	39.13
887.929	46.28
888.362	45.93
888.795	42.78
889.228	44.83
889.66	46.33
890.093	43.38
890.526	48.13
890.958	45.18
891.391	43.93
891.823	44.73
892.256	42.73
892.688	45.13
893.121	40.58
893.553	48.23
893.985	41.08
894.418	40.13
894.85	41.73
895.282	37.83
895.715	39.43
896.147	36.08
896.579	33.38
897.011	44.68
897.444	41.38
897.876	35.43
898.308	35.73
898.74	39.23
899.172	38.53
899.604	42.48
900.036	35.23
900.468	35.98
900.9	46.23
901.332	57.48
901.764	60.88
902.196	54.53
902.628	56.78
903.06	76.53
903.491	87.78
903.923	73.33
904.355	73.13
904.787	71.68
905.218	58.28
905.65	57.88
906.082	49.58
906.513	48.63
906.945	47.53
907.376	46.43
907.808	46.48
908.239	51.08
908.671	62.78
909.102	63.63
909.534	89.13
909.965	168.08
910.397	426.23
910.828	1196.33
911.259	746.23
911.691	410.13
912.122	236.53
912.553	125.83
912.984	70.83
913.415	61.03
913.847	56.63
914.278	53.63
914.709	42.13
915.14	39.23
915.571	44.38
916.002	41.88
916.433	41.48
916.864	38.83
917.295	44.43
917.726	46.03
918.157	60.08
918.587	57.98
919.018	56.68
919.449	50.38
919.88	62.48
920.311	94.98
920.741	254.23
921.172	440.93
921.603	228.98
922.033	151.13
922.464	95.93
922.895	62.08
923.325	43.18
923.756	38.03
924.186	50.78
924.617	68.63
925.047	106.58
925.478	96.43
925.908	69.98
926.338	50.08
926.769	40.93
927.199	39.38
927.629	36.28
928.06	36.03
928.49	38.53
928.92	35.53
929.35	28.28
929.78	26.03
930.21	24.43
930.641	21.13
931.071	25.18
931.501	21.93
931.931	22.23
932.361	22.03
932.791	28.18
933.221	28.08
933.651	39.18
934.08	60.68
934.51	39.23
934.94	36.53
935.37	23.08
935.8	21.23
936.229	19.33
936.659	22.93
937.089	34.33
937.519	61.83
937.948	73.23
938.378	46.23
938.807	28.73
939.237	18.23
939.666	20.93
940.096	6.33
940.525	8.98
940.955	12.68
941.384	16.98
941.814	13.48
942.243	10.98
942.672	10.63
943.102	10.03
943.531	11.28
943.96	10.03
944.39	9.78
944.819	12.93
945.248	11.28
945.677	7.73
946.106	7.73
946.535	10.88
946.964	12.13
947.393	4.63
947.822	11.43
948.251	16.38
948.68	13.38
949.109	11.83
949.538	8.43
949.967	12.43
950.396	6.88
950.825	13.58
951.254	11.73
951.682	4.13
952.111	9.03
952.54	10.78
952.969	10.13
953.397	6.13
953.826	8.23
954.254	7.28
954.683	6.68
955.112	14.08
955.54	8.38
955.969	6.78
956.397	10.78
956.826	6.68
957.254	10.63
957.682	7.58
958.111	10.23
958.539	8.38
958.967	5.18
959.396	9.63
959.824	11.78
960.252	8.48
960.68	9.63
961.109	10.73
961.537	14.48
961.965	3.93
962.393	6.23
962.821	10.53
963.249	7.38
963.677	13.93
964.105	75.73
964.533	134.83
964.961	67.43
965.389	42.38
965.817	20.28
966.245	14.53
966.672	10.43
967.1	11.68
967.528	4.83
967.956	7.78
968.383	9.33
968.811	4.93
969.239	7.68
969.666	8.68
970.094	5.98
970.522	3.88
970.949	10.33
971.377	1.58
971.804	3.98
972.232	6.93
972.659	6.68
973.087	6.43
973.514	4.73
973.941	4.53
974.369	4.33
974.796	4.53
975.223	-0.07
975.651	7.58
976.078	9.18
976.505	13.08
976.932	33.13
977.359	41.18
977.786	27.53
978.214	19.18
978.641	6.03
979.068	7.98
979.495	5.93
979.922	6.73
980.349	6.53
980.776	8.63
981.202	3.28
981.629	8.03
982.056	8.13
982.483	-2.57
982.91	11.48
983.337	0.53
983.763	5.93
984.19	12.08
984.617	4.63
985.043	9.08
985.47	9.33
985.897	8.13
986.323	1.98
986.75	2.23
987.176	2.88
987.603	3.48
988.029	6.83
988.456	9.28
988.882	5.63
989.308	1.43
989.735	-0.47
990.161	2.58
990.587	3.58
991.014	3.68
991.44	6.03
991.866	2.83
992.292	1.98
992.719	6.93
993.145	7.53
993.571	2.88
993.997	6.98
994.423	10.18
994.849	0.68
995.275	4.83
995.701	9.78
996.127	-3.42
996.553	2.43
996.979	2.48
997.405	13.03
997.83	2.58
998.256	1.33
998.682	6.98
999.108	4.43
999.534	-1.07
999.959	2.53
1000.385	9.58
1000.811	-0.12
1001.236	1.63
1001.662	-0.77
1002.087	9.98
1002.513	6.13
1002.938	-0.27
1003.364	5.78
1003.789	4.53
1004.215	2.08
1004.64	4.23
1005.066	3.43
1005.491	2.58
1005.916	5.48
1006.342	5.03
1006.767	8.43
1007.192	9.33
1007.617	5.38
1008.042	1.13
1008.468	3.53
1008.893	7.68
1009.318	11.73
1009.743	18.53
1010.168	27.38
1010.593	26.28
1011.018	15.08
1011.443	8.38
1011.868	12.13
1012.293	6.78
1012.718	1.28
1013.143	0.03
1013.567	7.08
1013.992	0.63
1014.417	7.48
1014.842	4.83
1015.267	4.23
1015.691	8.63
1016.116	3.38
1016.541	9.68
1016.965	6.68
1017.39	4.48
1017.814	2.38
1018.239	2.28
1018.663	-3.87
1019.088	-1.22
1019.512	8.13
1019.937	-2.82
1020.361	1.98
1020.785	0.33
1021.21	-2.77
1021.634	0.23
1022.058	1.38
1022.483	-0.52
1022.907	1.08
1023.331	-2.12
1023.755	0.48
1024.179	0.83
1024.604	-0.22
1025.028	3.28
1025.452	6.73
1025.876	5.88
1026.3	2.58
1026.724	-0.07
1027.148	4.93
1027.572	2.28
1027.996	1.48
1028.42	3.98
1028.843	2.53
1029.267	4.43
1029.691	5.13
1030.115	-2.92
1030.539	-1.87
1030.962	2.58
1031.386	-0.22
1031.81	0.43
1032.233	-1.87
1032.657	-2.47
1033.08	0.48
1033.504	-2.27
1033.927	4.58
1034.351	-3.82
1034.774	-4.52
1035.198	-3.67
1035.621	1.18
1036.045	0.38
1036.468	7.13
1036.891	3.38
1037.315	2.98
1037.738	3.33
1038.161	-1.72
1038.584	1.53
1039.008	-1.92
1039.431	3.38
1039.854	-2.62
1040.277	1.43
1040.7	1.58
1041.123	1.13
1041.546	2.53
1041.969	1.88
1042.392	-1.22
1042.815	-5.82
1043.238	1.33
1043.661	0.68
1044.084	1.03
1044.507	0.73
1044.93	2.28
1045.352	3.93
1045.775	7.53
1046.198	6.68
1046.621	4.08
1047.043	2.23
1047.466	3.93
1047.889	0.93
1048.311	8.43
1048.734	-3.97
1049.156	3.83
1049.579	-1.97
1050.001	-3.77
1050.424	-0.47
1050.846	-1.32
1051.269	0.23
1051.691	0.83
1052.113	3.33
1052.536	-3.57
1052.958	-2.12
1053.38	0.68
1053.802	-0.42
1054.225	0.08
1054.647	3.73
1055.069	-0.17
1055.491	1.68
1055.913	-0.97
1056.335	-11.57
1056.757	-3.97
1057.179	-0.47
1057.601	0.13
1058.023	1.58
1058.445	-4.47
1058.867	2.83
1059.289	-2.57
1059.711	2.28
1060.133	1.78
1060.555	3.33
1060.976	4.23
1061.398	-2.87
1061.82	0.43
1062.241	0.98
1062.663	0.93
1063.085	-2.32
1063.506	1.33
1063.928	-1.82
1064.35	2.73
1064.771	1.18
1065.193	-1.57
1065.614	0.13
1066.035	4.38
1066.457	2.68
1066.878	3.68
1067.3	-0.02
1067.721	1.03
1068.142	2.53
1068.564	3.88
1068.985	0.53
1069.406	-2.02
1069.827	-2.37
1070.248	-0.97
1070.67	-1.42
1071.091	-4.92
1071.512	-2.52
1071.933	-3.42
1072.354	-7.92
1072.775	-2.62
1073.196	2.23
1073.617	-2.62
1074.038	2.23
1074.459	-3.92
1074.88	-3.67
1075.3	-0.87
1075.721	2.53
1076.142	-0.47
1076.563	-4.62
1076.983	-0.12
1077.404	-5.82
1077.825	2.68
1078.246	-4.67
1078.666	-1.07
1079.087	-2.17
1079.507	-1.97
1079.928	0.93
1080.348	-0.67
1080.769	2.18
1081.189	-4.57
1081.61	-8.42
1082.03	2.73
1082.451	-0.02
1082.871	-3.92
1083.291	-1.37
1083.711	-2.12
1084.132	-2.42
1084.552	-7.42
1084.972	-4.27
1085.392	-2.22
1085.813	2.73
1086.233	-0.32
1086.653	0.53
1087.073	-4.72
1087.493	-2.32
1087.913	-3.47
1088.333	-3.02
1088.753	-1.27
1089.173	2.98
1089.593	-0.22
1090.013	1.73
1090.433	-3.77
1090.852	2.38
1091.272	-6.27
1091.692	-0.07
1092.112	-1.77
1092.531	-4.67
1092.951	-1.82
1093.371	-5.02
1093.79	0.93
1094.21	0.03
1094.63	0.73
1095.049	-0.87
1095.469	-7.02
1095.888	4.33
1096.308	0.18
1096.727	3.18
1097.146	-4.42
1097.566	-2.82
1097.985	-1.47
1098.405	2.43
1098.824	0.28
1099.243	0.53
1099.662	1.48
1100.082	-2.27
1100.501	-3.82
1100.92	1.23
1101.339	2.98
1101.758	1.03
