Data from MSPlasma+Separation6_Subt14_10-14-34-040.txt Node
Date: Fri Jul 21 10:14:34 EDT 2017
User: Ender
Spectrometer: HR+D1039
Trigger mode: 0
Integration Time (sec): 6.430000E-3
Scans to average: 20
Electric dark correction enabled: true
Nonlinearity correction enabled: false
Boxcar width: 0
XAxis mode: Wavelengths
Number of Pixels in Spectrum: 2048
>>>>>Begin Spectral Data<<<<<
187.836	-0.36
188.309	-0.36
188.782	-0.36
189.255	3.74
189.728	3.54
190.201	-4.06
190.674	1.09
191.147	-1.36
191.619	-1.76
192.092	-3.01
192.565	-0.61
193.038	4.54
193.511	1.79
193.984	0.24
194.456	-0.26
194.929	1.69
195.402	-4.31
195.874	-0.91
196.347	2.09
196.82	-0.36
197.292	-4.06
197.765	-4.61
198.237	0.29
198.71	-4.26
199.182	-0.46
199.655	0.74
200.127	4.69
200.6	-1.91
201.072	0.74
201.544	-1.21
202.017	2.04
202.489	6.19
202.961	-2.06
203.433	-2.61
203.906	-3.21
204.378	-1.26
204.85	-3.16
205.322	-0.86
205.794	3.74
206.266	-1.26
206.739	0.84
207.211	0.99
207.683	-5.86
208.155	1.39
208.627	1.54
209.099	4.89
209.57	5.19
210.042	3.99
210.514	0.89
210.986	2.04
211.458	-2.86
211.93	5.04
212.402	1.74
212.873	-0.71
213.345	-4.01
213.817	3.24
214.288	-1.31
214.76	2.34
215.232	-2.91
215.703	1.74
216.175	2.69
216.646	1.89
217.118	1.44
217.589	-2.41
218.061	6.24
218.532	-3.76
219.004	2.59
219.475	1.29
219.946	4.39
220.418	5.89
220.889	6.09
221.36	9.49
221.832	5.79
222.303	3.79
222.774	2.04
223.245	3.79
223.717	2.09
224.188	2.69
224.659	3.89
225.13	0.09
225.601	3.94
226.072	9.49
226.543	7.14
227.014	6.49
227.485	8.94
227.956	9.04
228.427	9.89
228.898	10.59
229.369	7.34
229.839	6.74
230.31	10.89
230.781	8.59
231.252	11.99
231.722	9.69
232.193	8.24
232.664	12.04
233.135	11.54
233.605	11.69
234.076	15.54
234.546	10.54
235.017	13.89
235.487	12.94
235.958	13.69
236.428	16.09
236.899	12.34
237.369	14.54
237.84	16.49
238.31	18.44
238.78	6.54
239.251	14.89
239.721	12.99
240.191	9.64
240.662	18.64
241.132	16.44
241.602	17.24
242.072	17.99
242.542	17.94
243.013	12.94
243.483	22.69
243.953	16.64
244.423	22.84
244.893	18.39
245.363	20.39
245.833	19.39
246.303	18.69
246.773	23.09
247.243	23.49
247.712	27.24
248.182	23.99
248.652	26.09
249.122	22.59
249.592	25.34
250.061	24.49
250.531	29.39
251.001	29.09
251.471	25.84
251.94	30.84
252.41	29.14
252.879	29.99
253.349	34.49
253.818	30.89
254.288	37.89
254.757	26.74
255.227	36.94
255.696	34.99
256.166	36.99
256.635	35.34
257.105	36.24
257.574	34.89
258.043	31.04
258.513	37.89
258.982	32.24
259.451	37.64
259.92	34.59
260.389	37.09
260.859	35.34
261.328	45.29
261.797	38.84
262.266	40.74
262.735	37.29
263.204	33.64
263.673	44.09
264.142	39.99
264.611	45.29
265.08	44.24
265.549	41.24
266.018	44.94
266.487	49.64
266.955	47.19
267.424	47.54
267.893	50.54
268.362	45.09
268.83	47.29
269.299	50.24
269.768	55.19
270.236	49.79
270.705	56.49
271.174	55.29
271.642	45.24
272.111	54.79
272.579	56.29
273.048	55.39
273.516	55.99
273.985	56.04
274.453	58.79
274.922	56.39
275.39	54.99
275.858	61.04
276.327	58.19
276.795	58.14
277.263	61.59
277.731	59.29
278.2	69.54
278.668	69.04
279.136	66.64
279.604	63.79
280.072	63.34
280.54	70.59
281.008	73.89
281.477	70.89
281.945	64.39
282.413	71.09
282.881	72.29
283.348	69.09
283.816	71.44
284.284	76.24
284.752	70.89
285.22	77.09
285.688	71.94
286.156	78.19
286.623	78.64
287.091	78.59
287.559	81.49
288.026	80.79
288.494	83.74
288.962	81.54
289.429	80.24
289.897	80.34
290.364	76.09
290.832	86.09
291.3	84.64
291.767	81.59
292.234	90.04
292.702	84.59
293.169	84.24
293.637	90.89
294.104	86.14
294.571	90.44
295.039	87.84
295.506	86.69
295.973	90.99
296.44	87.74
296.908	94.84
297.375	95.59
297.842	96.79
298.309	92.69
298.776	96.14
299.243	101.54
299.71	100.89
300.177	102.89
300.644	104.84
301.111	102.74
301.578	109.84
302.045	103.04
302.512	104.79
302.979	109.24
303.446	114.39
303.913	114.24
304.379	116.84
304.846	113.14
305.313	123.79
305.78	124.39
306.246	125.14
306.713	121.34
307.18	125.89
307.646	125.79
308.113	121.74
308.579	127.19
309.046	137.24
309.512	129.84
309.979	131.54
310.445	129.24
310.912	138.24
311.378	143.39
311.845	140.49
312.311	141.44
312.777	140.44
313.244	142.74
313.71	143.79
314.176	149.59
314.642	147.99
315.109	147.09
315.575	147.39
316.041	146.34
316.507	147.69
316.973	155.49
317.439	148.74
317.905	160.44
318.371	153.74
318.837	158.24
319.303	158.19
319.769	159.79
320.235	160.84
320.701	166.94
321.167	162.54
321.633	165.94
322.099	163.14
322.564	169.84
323.03	168.84
323.496	166.59
323.962	172.49
324.427	177.29
324.893	173.94
325.359	181.24
325.824	184.54
326.29	185.89
326.755	179.84
327.221	183.54
327.686	187.39
328.152	184.84
328.617	193.44
329.083	194.39
329.548	194.69
330.014	198.64
330.479	200.64
330.944	201.49
331.41	206.64
331.875	195.69
332.34	201.74
332.805	208.29
333.271	204.89
333.736	206.59
334.201	212.79
334.666	227.94
335.131	225.39
335.596	223.94
336.061	218.34
336.526	218.59
336.991	212.69
337.456	212.39
337.921	209.79
338.386	214.79
338.851	210.59
339.316	213.64
339.781	212.69
340.246	219.99
340.711	221.79
341.175	223.39
341.64	234.64
342.105	234.64
342.569	242.94
343.034	237.14
343.499	239.74
343.963	249.59
344.428	246.04
344.893	247.44
345.357	253.54
345.822	261.19
346.286	259.99
346.751	264.14
347.215	270.94
347.679	274.09
348.144	286.29
348.608	295.34
349.073	297.29
349.537	298.84
350.001	298.79
350.465	296.29
350.93	292.39
351.394	307.64
351.858	304.99
352.322	313.34
352.786	312.74
353.25	312.84
353.715	323.14
354.179	335.19
354.643	337.79
355.107	342.94
355.571	335.79
356.035	336.69
356.498	339.49
356.962	334.14
357.426	331.04
357.89	332.54
358.354	326.59
358.818	322.49
359.281	326.94
359.745	333.49
360.209	328.89
360.673	329.59
361.136	335.54
361.6	332.79
362.064	343.29
362.527	351.09
362.991	353.34
363.454	344.99
363.918	357.04
364.381	354.89
364.845	356.04
365.308	356.14
365.772	361.74
366.235	362.14
366.698	356.49
367.162	356.49
367.625	367.94
368.088	373.59
368.552	368.79
369.015	370.59
369.478	374.19
369.941	381.99
370.404	384.59
370.867	378.59
371.331	386.59
371.794	394.29
372.257	394.54
372.72	390.04
373.183	400.59
373.646	401.94
374.109	398.09
374.572	401.59
375.035	394.89
375.497	407.09
375.96	412.44
376.423	419.14
376.886	425.34
377.349	433.44
377.811	428.44
378.274	431.09
378.737	422.79
379.199	440.39
379.662	436.79
380.125	441.44
380.587	447.39
381.05	450.34
381.512	462.44
381.975	469.09
382.437	479.14
382.9	473.94
383.362	476.84
383.825	483.79
384.287	484.04
384.75	489.19
385.212	485.44
385.674	489.74
386.136	496.74
386.599	485.54
387.061	488.59
387.523	490.79
387.985	501.24
388.447	498.14
388.91	502.94
389.372	505.69
389.834	510.34
390.296	499.74
390.758	508.39
391.22	505.54
391.682	511.49
392.144	520.69
392.606	518.94
393.068	530.24
393.529	558.34
393.991	561.19
394.453	541.09
394.915	522.34
395.377	520.94
395.838	512.89
396.3	521.29
396.762	529.94
397.224	527.59
397.685	525.44
398.147	531.69
398.608	543.94
399.07	552.09
399.531	549.44
399.993	558.34
400.454	566.14
400.916	560.19
401.377	577.39
401.839	583.04
402.3	582.49
402.762	604.99
403.223	648.29
403.684	649.29
404.145	621.84
404.607	609.34
405.068	600.19
405.529	618.94
405.99	620.84
406.451	625.89
406.913	618.59
407.374	620.29
407.835	622.39
408.296	638.44
408.757	646.29
409.218	656.54
409.679	665.89
410.14	672.79
410.601	686.64
411.062	682.79
411.522	691.29
411.983	690.09
412.444	693.24
412.905	712.49
413.366	729.89
413.826	768.64
414.287	863.94
414.748	1035.54
415.208	1053.84
415.669	877.99
416.13	796.09
416.59	775.89
417.051	807.29
417.511	845.14
417.972	909.54
418.432	978.49
418.893	1074.49
419.353	1025.69
419.814	791.89
420.274	722.04
420.734	704.84
421.195	725.99
421.655	723.69
422.115	738.69
422.576	740.34
423.036	744.04
423.496	769.14
423.956	796.74
424.416	853.54
424.876	956.14
425.336	952.74
425.797	936.54
426.257	930.84
426.717	877.04
427.177	810.84
427.637	821.74
428.097	853.59
428.556	882.69
429.016	941.99
429.476	948.04
429.936	934.69
430.396	927.89
430.856	951.99
431.315	960.79
431.775	1033.39
432.235	1104.99
432.694	1125.99
433.154	1064.49
433.614	1035.74
434.073	1005.04
434.533	905.14
434.993	870.94
435.452	878.04
435.912	860.44
436.371	864.44
436.83	851.99
437.29	834.84
437.749	812.09
438.209	802.04
438.668	815.94
439.127	830.04
439.587	818.74
440.046	799.34
440.505	814.74
440.964	819.09
441.424	845.94
441.883	862.29
442.342	815.74
442.801	787.29
443.26	787.74
443.719	786.49
444.178	784.39
444.637	796.19
445.096	802.39
445.555	807.09
446.014	799.04
446.473	792.64
446.932	802.14
447.391	818.09
447.849	820.09
448.308	812.54
448.767	817.34
449.226	833.99
449.685	836.79
450.143	878.99
450.602	873.99
451.061	830.49
451.519	833.64
451.978	824.79
452.436	824.84
452.895	830.14
453.353	819.94
453.812	808.24
454.27	822.94
454.729	813.49
455.187	827.69
455.646	838.74
456.104	830.69
456.562	843.84
457.021	848.09
457.479	822.94
457.937	851.64
458.395	879.34
458.854	863.34
459.312	846.19
459.77	860.64
460.228	864.99
460.686	882.99
461.144	882.89
461.602	871.14
462.06	880.54
462.518	898.99
462.976	895.39
463.434	902.69
463.892	912.14
464.35	934.89
464.808	946.14
465.266	949.34
465.724	960.09
466.181	970.49
466.639	960.04
467.097	1005.79
467.555	1045.19
468.012	1043.29
468.47	1035.49
468.928	1071.14
469.385	1099.39
469.843	1116.99
470.3	1106.69
470.758	1138.64
471.215	1153.04
471.673	1183.29
472.13	1212.04
472.588	1238.39
473.045	1230.29
473.503	1256.39
473.96	1322.39
474.417	1327.84
474.875	1379.89
475.332	1416.29
475.789	1449.24
476.246	1489.09
476.704	1559.84
477.161	1597.04
477.618	1637.44
478.075	1726.64
478.532	1859.94
478.989	1984.69
479.446	2173.54
479.903	2280.34
480.36	2476.89
480.817	2622.34
481.274	2778.94
481.731	3015.64
482.188	3229.89
482.645	3461.84
483.102	3635.99
483.558	3872.09
484.015	4024.29
484.472	4017.64
484.929	3896.14
485.385	3751.79
485.842	3663.14
486.299	3521.89
486.755	3266.24
487.212	2942.79
487.668	2671.64
488.125	2496.89
488.582	2322.39
489.038	2240.59
489.494	2171.99
489.951	2111.49
490.407	2063.29
490.864	2022.19
491.32	1978.49
491.776	1969.74
492.233	1979.24
492.689	1943.04
493.145	1901.54
493.602	1884.59
494.058	1910.14
494.514	1909.19
494.97	1919.89
495.426	1939.04
495.882	1947.19
496.338	1936.59
496.794	1951.19
497.251	1943.54
497.707	1965.89
498.163	1963.79
498.618	1972.09
499.074	1966.74
499.53	1985.34
499.986	2003.49
500.442	1987.29
500.898	1961.49
501.354	1979.24
501.809	1980.79
502.265	1980.29
502.721	1988.24
503.177	2002.54
503.632	2016.04
504.088	2019.49
504.543	2029.29
504.999	2061.04
505.455	2060.54
505.91	2025.04
506.366	2033.49
506.821	2041.14
507.277	2025.69
507.732	2038.44
508.187	2037.94
508.643	2055.39
509.098	2057.69
509.553	2074.49
510.009	2109.79
510.464	2150.79
510.919	2153.89
511.375	2179.74
511.83	2196.79
512.285	2241.84
512.74	2287.69
513.195	2312.54
513.65	2349.89
514.105	2367.59
514.56	2371.74
515.015	2420.74
515.47	2433.89
515.925	2396.14
516.38	2419.89
516.835	2401.19
517.29	2405.39
517.745	2398.14
518.2	2356.69
518.655	2312.44
519.109	2295.59
519.564	2268.94
520.019	2247.19
520.474	2228.44
520.928	2205.69
521.383	2200.54
521.838	2192.19
522.292	2170.24
522.747	2164.09
523.201	2152.19
523.656	2133.44
524.11	2126.79
524.565	2115.14
525.019	2123.49
525.474	2125.49
525.928	2102.29
526.382	2108.89
526.837	2101.09
527.291	2111.04
527.745	2091.09
528.2	2101.54
528.654	2074.59
529.108	2087.39
529.562	2079.04
530.016	2079.04
530.47	2078.34
530.925	2082.59
531.379	2074.94
531.833	2089.39
532.287	2089.69
532.741	2082.29
533.195	2086.09
533.649	2092.89
534.103	2085.14
534.556	2084.69
535.01	2076.54
535.464	2077.89
535.918	2077.14
536.372	2096.14
536.826	2083.84
537.279	2074.14
537.733	2074.59
538.187	2085.94
538.64	2084.79
539.094	2093.74
539.548	2122.79
540.001	2125.89
540.455	2132.79
540.908	2151.19
541.362	2167.39
541.815	2180.54
542.269	2228.34
542.722	2218.79
543.175	2245.99
543.629	2252.59
544.082	2277.59
544.536	2289.84
544.989	2299.54
545.442	2320.89
545.895	2319.34
546.349	2312.79
546.802	2316.19
547.255	2312.39
547.708	2328.34
548.161	2352.19
548.614	2357.84
549.067	2366.54
549.52	2349.19
549.973	2319.54
550.426	2322.69
550.879	2306.39
551.332	2315.54
551.785	2327.54
552.238	2336.19
552.691	2352.39
553.144	2389.39
553.596	2416.79
554.049	2444.84
554.502	2502.09
554.955	2531.04
555.407	2558.49
555.86	2538.24
556.313	2524.29
556.765	2491.59
557.218	2466.69
557.67	2454.64
558.123	2413.09
558.576	2413.39
559.028	2408.29
559.48	2438.64
559.933	2419.49
560.385	2346.09
560.838	2275.39
561.29	2207.29
561.742	2203.44
562.195	2151.19
562.647	2141.94
563.099	2126.24
563.551	2103.79
564.004	2125.24
564.456	2105.44
564.908	2060.94
565.36	2029.39
565.812	1975.74
566.264	1957.69
566.716	1938.94
567.168	1901.04
567.62	1913.44
568.072	1887.89
568.524	1887.54
568.976	1866.49
569.428	1854.44
569.88	1845.09
570.332	1872.89
570.784	1880.64
571.235	1866.74
571.687	1889.49
572.139	1889.39
572.59	1905.34
573.042	1907.09
573.494	1908.29
573.945	1871.84
574.397	1835.89
574.849	1831.74
575.3	1839.64
575.752	1815.24
576.203	1796.59
576.655	1809.89
577.106	1777.34
577.557	1771.29
578.009	1760.04
578.46	1766.24
578.912	1748.39
579.363	1759.19
579.814	1758.49
580.265	1757.39
580.717	1754.64
581.168	1759.04
581.619	1753.54
582.07	1783.54
582.521	1771.04
582.972	1759.89
583.423	1766.54
583.875	1781.44
584.326	1806.54
584.777	1840.49
585.227	1875.04
585.678	1897.94
586.129	1913.89
586.58	1942.79
587.031	1971.34
587.482	2021.59
587.933	2075.14
588.384	2053.19
588.834	2000.94
589.285	1988.59
589.736	1988.79
590.186	1986.64
590.637	1964.64
591.088	1919.79
591.538	1883.29
591.989	1854.99
592.439	1838.39
592.89	1811.74
593.34	1811.34
593.791	1797.39
594.241	1788.94
594.692	1777.59
595.142	1778.14
595.593	1778.09
596.043	1790.29
596.493	1808.19
596.943	1804.29
597.394	1844.44
597.844	1871.99
598.294	1919.69
598.744	1982.94
599.195	2077.49
599.645	2200.09
600.095	2304.89
600.545	2414.79
600.995	2511.69
601.445	2597.64
601.895	2719.44
602.345	2798.34
602.795	2774.04
603.245	2667.64
603.695	2497.49
604.145	2369.99
604.594	2250.59
605.044	2138.89
605.494	2009.79
605.944	1902.44
606.393	1858.29
606.843	1823.54
607.293	1824.69
607.743	1807.69
608.192	1824.14
608.642	1827.04
609.091	1824.74
609.541	1817.79
609.99	1820.29
610.44	1775.99
610.889	1759.14
611.339	1737.59
611.788	1710.04
612.238	1719.59
612.687	1725.64
613.136	1728.99
613.586	1754.09
614.035	1747.84
614.484	1751.99
614.933	1748.69
615.383	1714.69
615.832	1679.69
616.281	1653.99
616.73	1626.59
617.179	1596.94
617.628	1562.69
618.077	1541.04
618.526	1516.89
618.975	1507.64
619.424	1481.14
619.873	1487.74
620.322	1464.24
620.771	1473.54
621.22	1446.84
621.669	1416.89
622.118	1403.74
622.567	1384.24
623.015	1362.89
623.464	1362.04
623.913	1348.94
624.361	1347.84
624.81	1331.89
625.259	1352.19
625.707	1335.09
626.156	1350.79
626.604	1361.69
627.053	1373.44
627.501	1363.24
627.95	1371.54
628.398	1384.94
628.847	1375.29
629.295	1360.24
629.744	1356.34
630.192	1331.94
630.64	1314.04
631.089	1300.24
631.537	1273.29
631.985	1250.29
632.433	1253.99
632.881	1248.04
633.33	1258.19
633.778	1249.64
634.226	1258.49
634.674	1261.44
635.122	1280.89
635.57	1299.29
636.018	1312.59
636.466	1302.44
636.914	1304.69
637.362	1332.69
637.81	1363.39
638.258	1405.79
638.705	1412.44
639.153	1461.74
639.601	1467.74
640.049	1491.19
640.497	1536.99
640.944	1577.04
641.392	1514.09
641.84	1423.99
642.287	1362.69
642.735	1332.79
643.182	1319.79
643.63	1317.54
644.078	1317.69
644.525	1335.49
644.973	1376.84
645.42	1395.69
645.867	1431.39
646.315	1463.04
646.762	1517.24
647.21	1554.79
647.657	1633.74
648.104	1686.29
648.551	1730.04
648.999	1860.74
649.446	2029.24
649.893	2275.94
650.34	2644.14
650.787	3243.69
651.234	4156.19
651.682	5710.24
652.129	8017.69
652.576	11392.89
653.023	14857.39
653.47	15537.59
653.917	15537.64
654.363	15537.54
654.81	15534.54
655.257	15535.19
655.704	14438.14
656.151	8791.84
656.598	5791.79
657.044	4168.34
657.491	3281.49
657.938	2680.59
658.385	2287.44
658.831	2022.44
659.278	1827.64
659.724	1677.54
660.171	1561.19
660.618	1453.49
661.064	1387.24
661.511	1326.64
661.957	1293.64
662.404	1262.09
662.85	1255.14
663.296	1243.04
663.743	1211.74
664.189	1198.44
664.635	1190.09
665.082	1172.29
665.528	1148.99
665.974	1122.49
666.42	1103.59
666.867	1088.69
667.313	1037.74
667.759	1026.24
668.205	1025.04
668.651	1026.94
669.097	1026.79
669.543	1031.84
669.989	1042.29
670.435	1044.14
670.881	1051.29
671.327	1093.69
671.773	1180.64
672.219	1265.14
672.665	1346.99
673.11	1381.84
673.556	1395.74
674.002	1424.34
674.448	1445.69
674.893	1248.09
675.339	1084.34
675.785	998.39
676.23	945.14
676.676	908.09
677.122	885.24
677.567	858.79
678.013	835.39
678.458	826.09
678.904	828.19
679.349	812.99
679.794	810.59
680.24	808.84
680.685	806.79
681.131	808.64
681.576	813.19
682.021	811.49
682.466	820.64
682.912	831.29
683.357	871.49
683.802	940.39
684.247	1035.39
684.692	1098.24
685.137	1147.19
685.583	1171.84
686.028	1223.34
686.473	1173.89
686.918	1007.79
687.363	923.49
687.807	888.49
688.252	830.44
688.697	810.99
689.142	778.99
689.587	786.04
690.032	800.14
690.477	834.74
690.921	875.99
691.366	920.69
691.811	952.19
692.255	1031.34
692.7	1268.29
693.145	1834.04
693.589	2795.09
694.034	3326.79
694.478	3536.64
694.923	3214.14
695.367	4530.39
695.812	2795.09
696.256	1178.54
696.701	858.59
697.145	791.29
697.59	763.79
698.034	749.34
698.478	743.64
698.922	756.44
699.367	772.04
699.811	811.34
700.255	880.74
700.699	959.19
701.143	1047.24
701.588	1094.19
702.032	1150.69
702.476	1187.99
702.92	1268.04
703.364	1676.69
703.808	2554.19
704.252	3179.84
704.696	3334.99
705.14	3152.94
705.584	4303.79
706.027	2401.94
706.471	1211.59
706.915	900.14
707.359	796.19
707.803	748.19
708.246	728.29
708.69	722.59
709.134	703.89
709.577	702.39
710.021	712.99
710.465	702.89
710.908	704.69
711.352	738.79
711.795	811.84
712.239	873.94
712.682	894.99
713.126	878.99
713.569	974.29
714.012	789.09
714.456	688.64
714.899	656.49
715.342	627.94
715.786	606.64
716.229	594.14
716.672	578.34
717.115	581.19
717.558	588.89
718.002	602.99
718.445	631.09
718.888	660.49
719.331	672.29
719.774	684.14
720.217	669.04
720.66	637.09
721.103	601.44
721.546	569.54
721.989	549.04
722.432	547.44
722.874	545.29
723.317	551.44
723.76	602.74
724.203	740.79
724.645	999.39
725.088	1164.84
725.531	1143.74
725.974	1248.24
726.416	1120.69
726.859	690.44
727.301	568.09
727.744	544.94
728.187	539.34
728.629	554.29
729.071	585.49
729.514	610.14
729.956	635.44
730.399	644.54
730.841	649.04
731.283	641.74
731.726	618.24
732.168	628.84
732.61	664.74
733.053	710.84
733.495	785.19
733.937	879.24
734.379	1032.84
734.821	1319.54
735.263	2107.54
735.705	3785.94
736.148	5544.94
736.59	5518.09
737.032	5959.99
737.474	4931.39
737.916	1904.29
738.357	986.49
738.799	759.99
739.241	705.44
739.683	706.79
740.125	723.69
740.567	732.74
741.008	780.54
741.45	815.44
741.892	847.34
742.334	856.54
742.775	849.44
743.217	815.69
743.658	690.79
744.1	712.74
744.542	813.09
744.983	838.24
745.425	873.54
745.866	847.79
746.307	730.74
746.749	776.94
747.19	1140.84
747.632	2220.09
748.073	4129.89
748.514	5696.74
748.956	7504.49
749.397	8792.49
749.838	6069.29
750.279	5763.74
750.72	3001.14
751.162	1273.79
751.603	732.14
752.044	586.39
752.485	516.39
752.926	484.89
753.367	465.79
753.808	452.29
754.249	441.99
754.69	440.99
755.131	437.14
755.572	434.59
756.013	436.14
756.453	431.04
756.894	446.24
757.335	447.99
757.776	447.09
758.216	469.19
758.657	499.54
759.098	550.49
759.538	668.34
759.979	960.44
760.42	1954.19
760.86	5022.89
761.301	10268.94
761.741	12033.09
762.182	13641.09
762.622	8920.99
763.063	3207.19
763.503	1311.54
763.943	770.09
764.384	615.29
764.824	533.09
765.264	490.59
765.705	457.89
766.145	433.84
766.585	424.19
767.025	403.39
767.465	411.39
767.906	419.49
768.346	450.89
768.786	514.34
769.226	756.29
769.666	1533.19
770.106	3417.69
770.546	4862.29
770.986	5438.49
771.426	4134.49
771.866	1729.94
772.306	779.79
772.745	482.04
773.185	406.49
773.625	387.79
774.065	422.14
774.505	579.04
774.944	1014.39
775.384	1455.19
775.824	1622.84
776.263	1339.99
776.703	727.89
777.142	432.99
777.582	332.79
778.021	300.34
778.461	294.89
778.9	288.64
779.34	277.54
779.779	273.64
780.219	268.49
780.658	260.14
781.097	261.79
781.537	251.99
781.976	253.14
782.415	250.79
782.855	249.54
783.294	248.09
783.733	238.44
784.172	247.89
784.611	244.99
785.05	255.64
785.489	264.39
785.928	274.34
786.367	281.44
786.806	290.59
787.245	315.39
787.684	330.54
788.123	321.74
788.562	313.59
789.001	305.59
789.44	290.49
789.879	288.49
790.317	293.14
790.756	314.94
791.195	360.09
791.634	489.84
792.072	881.79
792.511	2169.34
792.95	3973.54
793.388	4767.39
793.827	3105.89
794.265	1430.44
794.704	688.79
795.142	419.94
795.581	348.84
796.019	317.99
796.458	313.69
796.896	326.74
797.334	376.84
797.773	500.64
798.211	961.79
798.649	1990.54
799.087	3354.44
799.526	4725.59
799.964	4843.64
800.402	3345.94
800.84	1525.74
801.278	740.59
801.716	454.59
802.154	368.84
802.592	350.44
803.03	348.29
803.468	356.19
803.906	354.49
804.344	355.69
804.782	343.99
805.22	338.44
805.658	357.69
806.096	379.14
806.533	424.49
806.971	538.84
807.409	788.79
807.847	1574.04
808.284	4012.04
808.722	7006.34
809.16	9815.29
809.597	13244.94
810.035	15456.14
810.472	10680.74
810.91	4564.79
811.347	2047.59
811.785	969.04
812.222	609.14
812.66	463.59
813.097	396.59
813.535	346.04
813.972	318.29
814.409	281.34
814.846	275.84
815.284	259.69
815.721	265.19
816.158	289.84
816.595	384.34
817.032	480.44
817.47	439.59
817.907	321.19
818.344	283.69
818.781	278.79
819.218	340.49
819.655	510.74
820.092	649.59
820.529	586.59
820.966	470.09
821.403	321.24
821.839	285.29
822.276	315.34
822.713	373.69
823.15	351.09
823.587	370.74
824.023	657.29
824.46	1626.19
824.897	2849.99
825.333	2227.24
825.77	1033.09
826.206	536.19
826.643	314.04
827.08	238.19
827.516	205.19
827.953	191.14
828.389	177.34
828.825	174.19
829.262	164.74
829.698	166.59
830.135	151.19
830.571	153.29
831.007	155.89
831.443	155.59
831.88	156.99
832.316	165.79
832.752	165.89
833.188	161.84
833.624	161.64
834.06	167.24
834.497	162.14
834.933	167.94
835.369	187.14
835.805	198.14
836.241	206.14
836.677	220.14
837.112	260.59
837.548	320.69
837.984	478.99
838.42	1043.54
838.856	2890.49
839.292	5659.29
839.727	4216.64
840.163	2830.59
840.599	4312.74
841.034	6552.79
841.47	3292.84
841.906	1594.44
842.341	848.09
842.777	611.89
843.212	616.24
843.648	391.09
844.083	272.99
844.519	205.94
844.954	175.29
845.39	151.39
845.825	151.69
846.261	143.89
846.696	137.04
847.131	139.99
847.566	137.39
848.002	134.54
848.437	145.69
848.872	151.49
849.307	202.24
849.742	363.19
850.177	932.79
850.613	1994.44
851.048	1428.84
851.483	656.99
851.918	365.64
852.353	205.04
852.788	144.54
853.223	132.69
853.657	116.09
854.092	117.39
854.527	112.49
854.962	119.44
855.397	133.84
855.832	112.49
856.266	104.59
856.701	101.89
857.136	111.64
857.57	127.94
858.005	152.09
858.44	132.24
858.874	122.74
859.309	131.04
859.743	123.39
860.178	121.99
860.612	133.09
861.047	176.19
861.481	241.44
861.915	170.29
862.35	131.44
862.784	102.34
863.218	98.94
863.653	104.39
864.087	134.49
864.521	163.89
864.955	269.54
865.39	469.79
865.824	354.99
866.258	444.49
866.692	661.34
867.126	480.69
867.56	255.99
867.994	166.39
868.428	143.74
868.862	177.24
869.296	165.24
869.73	194.09
870.164	173.14
870.598	147.74
871.031	108.34
871.465	94.84
871.899	78.54
872.333	71.74
872.766	70.94
873.2	73.99
873.634	68.64
874.067	77.19
874.501	75.79
874.935	78.74
875.368	80.19
875.802	69.49
876.235	60.59
876.669	64.44
877.102	61.99
877.535	61.24
877.969	61.09
878.402	64.79
878.836	61.19
879.269	56.79
879.702	61.79
880.135	61.84
880.569	61.49
881.002	54.34
881.435	56.09
881.868	60.49
882.301	52.04
882.734	55.04
883.167	52.99
883.601	54.89
884.034	50.94
884.467	50.24
884.899	49.69
885.332	45.09
885.765	47.19
886.198	43.09
886.631	52.19
887.064	50.34
887.497	45.94
887.929	49.44
888.362	48.19
888.795	43.84
889.228	47.54
889.66	45.54
890.093	47.89
890.526	43.29
890.958	44.99
891.391	50.24
891.823	44.39
892.256	44.64
892.688	45.04
893.121	38.29
893.553	50.29
893.985	45.64
894.418	42.34
894.85	47.59
895.282	45.44
895.715	41.84
896.147	36.29
896.579	39.89
897.011	46.54
897.444	46.84
897.876	36.84
898.308	39.39
898.74	40.79
899.172	42.84
899.604	44.29
900.036	44.44
900.468	37.84
900.9	43.44
901.332	57.14
901.764	55.24
902.196	51.84
902.628	53.54
903.06	81.44
903.491	91.34
903.923	77.24
904.355	73.49
904.787	74.44
905.218	61.64
905.65	60.84
906.082	53.19
906.513	47.89
906.945	53.74
907.376	51.09
907.808	46.39
908.239	51.84
908.671	64.49
909.102	64.74
909.534	97.04
909.965	184.64
910.397	465.14
910.828	1317.44
911.259	816.29
911.691	441.39
912.122	256.74
912.553	130.09
912.984	72.94
913.415	61.84
913.847	53.44
914.278	53.24
914.709	45.09
915.14	44.54
915.571	50.39
916.002	49.74
916.433	40.34
916.864	38.89
917.295	41.44
917.726	54.24
918.157	64.89
918.587	64.64
919.018	57.79
919.449	56.84
919.88	67.94
920.311	103.79
920.741	276.14
921.172	489.94
921.603	248.04
922.033	154.59
922.464	101.84
922.895	64.44
923.325	47.39
923.756	42.64
924.186	52.19
924.617	73.29
925.047	103.34
925.478	94.89
925.908	70.34
926.338	50.64
926.769	41.04
927.199	42.69
927.629	33.99
928.06	37.24
928.49	37.39
928.92	31.59
929.35	30.84
929.78	29.94
930.21	25.39
930.641	17.99
931.071	23.59
931.501	22.94
931.931	20.94
932.361	19.54
932.791	24.89
933.221	27.99
933.651	39.84
934.08	66.09
934.51	39.79
934.94	30.89
935.37	30.79
935.8	22.84
936.229	19.74
936.659	21.64
937.089	39.94
937.519	52.54
937.948	70.84
938.378	42.69
938.807	26.79
939.237	20.34
939.666	20.99
940.096	13.14
940.525	8.44
940.955	14.84
941.384	10.44
941.814	11.84
942.243	10.39
942.672	6.19
943.102	9.49
943.531	10.94
943.96	9.64
944.39	11.89
944.819	12.49
945.248	7.54
945.677	11.79
946.106	12.89
946.535	9.34
946.964	12.19
947.393	8.99
947.822	7.19
948.251	13.24
948.68	15.84
949.109	12.79
949.538	8.24
949.967	9.24
950.396	8.84
950.825	12.14
951.254	10.84
951.682	7.24
952.111	5.09
952.54	8.09
952.969	9.54
953.397	3.64
953.826	5.29
954.254	11.79
954.683	9.99
955.112	11.39
955.54	10.14
955.969	5.54
956.397	10.24
956.826	4.74
957.254	9.39
957.682	7.89
958.111	9.44
958.539	10.09
958.967	5.79
959.396	7.64
959.824	7.89
960.252	9.49
960.68	8.14
961.109	10.24
961.537	11.09
961.965	6.79
962.393	10.44
962.821	10.44
963.249	8.29
963.677	15.59
964.105	79.14
964.533	136.69
964.961	69.54
965.389	41.99
965.817	25.39
966.245	11.29
966.672	11.29
967.1	14.14
967.528	6.94
967.956	8.49
968.383	12.49
968.811	6.94
969.239	8.59
969.666	7.89
970.094	2.04
970.522	5.49
970.949	7.39
971.377	-3.41
971.804	-0.61
972.232	7.49
972.659	7.34
973.087	9.29
973.514	1.49
973.941	0.14
974.369	-1.81
974.796	3.04
975.223	3.19
975.651	7.79
976.078	6.74
976.505	15.44
976.932	35.64
977.359	41.79
977.786	26.89
978.214	25.24
978.641	3.84
979.068	6.24
979.495	3.99
979.922	4.69
980.349	5.44
980.776	7.99
981.202	7.04
981.629	10.49
982.056	5.04
982.483	0.04
982.91	6.24
983.337	2.84
983.763	11.44
984.19	6.19
984.617	-0.96
985.043	9.99
985.47	8.19
985.897	5.34
986.323	8.84
986.75	3.04
987.176	6.24
987.603	4.44
988.029	2.74
988.456	8.09
988.882	1.19
989.308	-0.11
989.735	3.19
990.161	4.84
990.587	3.59
991.014	1.74
991.44	6.04
991.866	6.94
992.292	0.44
992.719	2.49
993.145	9.39
993.571	9.24
993.997	8.94
994.423	6.44
994.849	-1.46
995.275	7.84
995.701	6.29
996.127	2.09
996.553	6.19
996.979	-1.26
997.405	7.29
997.83	-0.56
998.256	5.74
998.682	-0.66
999.108	2.09
999.534	-2.01
999.959	4.19
1000.385	6.89
1000.811	-1.81
1001.236	-3.71
1001.662	-0.41
1002.087	8.44
1002.513	1.54
1002.938	2.19
1003.364	5.24
1003.789	5.74
1004.215	4.34
1004.64	0.84
1005.066	2.09
1005.491	6.19
1005.916	1.29
1006.342	5.94
1006.767	5.09
1007.192	8.09
1007.617	4.19
1008.042	5.49
1008.468	4.44
1008.893	6.79
1009.318	7.94
1009.743	20.49
1010.168	31.39
1010.593	22.64
1011.018	16.29
1011.443	9.49
1011.868	8.79
1012.293	5.44
1012.718	2.24
1013.143	2.79
1013.567	4.44
1013.992	3.59
1014.417	3.69
1014.842	0.99
1015.267	1.04
1015.691	3.29
1016.116	2.34
1016.541	7.34
1016.965	7.19
1017.39	5.39
1017.814	-1.16
1018.239	-0.56
1018.663	-6.81
1019.088	2.54
1019.512	7.39
1019.937	-0.46
1020.361	1.39
1020.785	1.09
1021.21	2.19
1021.634	-0.36
1022.058	1.14
1022.483	-5.11
1022.907	0.29
1023.331	1.29
1023.755	0.99
1024.179	2.29
1024.604	-0.36
1025.028	3.94
1025.452	2.34
1025.876	2.54
1026.3	-2.21
1026.724	-1.81
1027.148	3.79
1027.572	1.04
1027.996	6.69
1028.42	0.94
1028.843	2.94
1029.267	-1.26
1029.691	2.19
1030.115	-1.81
1030.539	1.54
1030.962	-0.06
1031.386	-2.36
1031.81	0.34
1032.233	0.49
1032.657	-5.36
1033.08	0.39
1033.504	1.09
1033.927	2.04
1034.351	0.54
1034.774	-0.96
1035.198	-0.21
1035.621	4.69
1036.045	-2.91
1036.468	2.29
1036.891	1.94
1037.315	6.34
1037.738	0.19
1038.161	1.69
1038.584	1.54
1039.008	1.79
1039.431	1.39
1039.854	-7.01
1040.277	6.09
1040.7	0.69
1041.123	-0.31
1041.546	0.84
1041.969	-0.86
1042.392	3.59
1042.815	-3.86
1043.238	-2.91
1043.661	-0.36
1044.084	1.19
1044.507	2.84
1044.93	6.24
1045.352	4.69
1045.775	4.54
1046.198	0.54
1046.621	2.14
1047.043	2.14
1047.466	3.99
1047.889	-0.71
1048.311	4.89
1048.734	1.14
1049.156	-1.36
1049.579	-0.51
1050.001	1.44
1050.424	-0.46
1050.846	-3.56
1051.269	-3.46
1051.691	-0.41
1052.113	3.69
1052.536	-2.21
1052.958	-2.96
1053.38	-0.11
1053.802	7.04
1054.225	-1.41
1054.647	3.94
1055.069	1.19
1055.491	0.49
1055.913	-0.01
1056.335	-8.11
1056.757	-1.91
1057.179	-2.16
1057.601	-5.21
1058.023	-0.06
1058.445	-4.31
1058.867	1.94
1059.289	-1.81
1059.711	-5.56
1060.133	-1.41
1060.555	-2.96
1060.976	1.24
1061.398	-3.11
1061.82	-0.66
1062.241	-0.01
1062.663	0.29
1063.085	-2.21
1063.506	-6.11
1063.928	-4.71
1064.35	2.84
1064.771	3.94
1065.193	-3.61
1065.614	-4.56
1066.035	3.54
1066.457	-0.21
1066.878	2.24
1067.3	-0.26
1067.721	-0.36
1068.142	2.34
1068.564	3.09
1068.985	4.04
1069.406	-7.01
1069.827	1.19
1070.248	-3.26
1070.67	-4.51
1071.091	-1.61
1071.512	-5.46
1071.933	-3.36
1072.354	-6.41
1072.775	3.74
1073.196	-1.26
1073.617	-5.26
1074.038	-1.66
1074.459	-2.46
1074.88	-1.61
1075.3	-3.46
1075.721	-0.46
1076.142	-4.11
1076.563	-8.61
1076.983	1.79
1077.404	-5.86
1077.825	2.94
1078.246	-2.91
1078.666	-8.11
1079.087	-6.51
1079.507	1.59
1079.928	3.74
1080.348	0.64
1080.769	1.89
1081.189	2.19
1081.61	-5.96
1082.03	2.89
1082.451	3.59
1082.871	-5.21
1083.291	-2.21
1083.711	-2.66
1084.132	-2.56
1084.552	-1.61
1084.972	-6.51
1085.392	-4.71
1085.813	-2.21
1086.233	-2.51
1086.653	-0.51
1087.073	-2.61
1087.493	-4.96
1087.913	-5.76
1088.333	-0.06
1088.753	-3.71
1089.173	3.39
1089.593	1.94
1090.013	-0.71
1090.433	-5.36
1090.852	3.34
1091.272	-6.31
1091.692	1.54
1092.112	-2.66
1092.531	-10.11
1092.951	-1.51
1093.371	-1.76
1093.79	-1.61
1094.21	-2.46
1094.63	-2.01
1095.049	0.09
1095.469	-8.06
1095.888	1.84
1096.308	-1.11
1096.727	-6.11
1097.146	-3.91
1097.566	-1.81
1097.985	-2.31
1098.405	2.04
1098.824	2.99
1099.243	-3.41
1099.662	-4.81
1100.082	-5.56
1100.501	-1.46
1100.92	3.49
1101.339	0.24
1101.758	3.29
