Data from MSPlasma+Separation6_Subt14_10-13-11-558.txt Node
Date: Fri Jul 21 10:13:11 EDT 2017
User: Ender
Spectrometer: HR+D1039
Trigger mode: 0
Integration Time (sec): 6.430000E-3
Scans to average: 20
Electric dark correction enabled: true
Nonlinearity correction enabled: false
Boxcar width: 0
XAxis mode: Wavelengths
Number of Pixels in Spectrum: 2048
>>>>>Begin Spectral Data<<<<<
187.836	1.23
188.309	1.23
188.782	1.23
189.255	1.53
189.728	1.88
190.201	-3.12
190.674	1.48
191.147	-2.72
191.619	0.38
192.092	-0.22
192.565	-2.52
193.038	1.03
193.511	1.18
193.984	1.53
194.456	1.33
194.929	-1.12
195.402	-1.67
195.874	-0.17
196.347	1.33
196.82	0.88
197.292	-1.12
197.765	-7.62
198.237	-3.42
198.71	-6.12
199.182	1.53
199.655	4.38
200.127	5.68
200.6	0.18
201.072	3.88
201.544	4.83
202.017	3.93
202.489	7.13
202.961	-2.52
203.433	-3.87
203.906	-1.02
204.378	7.88
204.85	5.58
205.322	1.53
205.794	6.33
206.266	1.93
206.739	9.33
207.211	5.83
207.683	5.88
208.155	5.58
208.627	8.08
209.099	11.38
209.57	6.78
210.042	7.73
210.514	5.08
210.986	6.63
211.458	0.53
211.93	7.18
212.402	4.93
212.873	1.93
213.345	-1.82
213.817	3.33
214.288	0.18
214.76	9.78
215.232	7.08
215.703	6.78
216.175	7.18
216.646	9.73
217.118	10.58
217.589	6.88
218.061	13.58
218.532	5.53
219.004	16.48
219.475	15.38
219.946	13.38
220.418	18.73
220.889	11.93
221.36	18.03
221.832	20.13
222.303	17.33
222.774	17.98
223.245	13.83
223.717	22.43
224.188	21.38
224.659	11.53
225.13	6.23
225.601	11.98
226.072	16.08
226.543	13.48
227.014	15.03
227.485	16.18
227.956	15.88
228.427	26.18
228.898	25.03
229.369	26.03
229.839	24.78
230.31	23.13
230.781	17.03
231.252	27.78
231.722	32.28
232.193	24.93
232.664	26.43
233.135	24.83
233.605	30.48
234.076	26.63
234.546	23.28
235.017	31.78
235.487	32.53
235.958	27.73
236.428	36.08
236.899	31.98
237.369	38.93
237.84	44.13
238.31	57.88
238.78	53.68
239.251	35.93
239.721	40.53
240.191	32.33
240.662	38.03
241.132	37.38
241.602	40.43
242.072	41.88
242.542	36.98
243.013	38.73
243.483	43.63
243.953	40.98
244.423	36.88
244.893	41.38
245.363	52.58
245.833	51.08
246.303	49.03
246.773	58.08
247.243	60.18
247.712	79.03
248.182	74.78
248.652	66.38
249.122	62.28
249.592	56.28
250.061	55.33
250.531	55.98
251.001	53.58
251.471	55.18
251.94	53.33
252.41	57.18
252.879	53.88
253.349	60.03
253.818	58.13
254.288	77.03
254.757	73.33
255.227	66.83
255.696	76.78
256.166	86.63
256.635	79.63
257.105	72.28
257.574	65.98
258.043	63.63
258.513	64.93
258.982	74.93
259.451	79.03
259.92	66.28
260.389	70.03
260.859	67.98
261.328	70.63
261.797	60.48
262.266	63.08
262.735	63.38
263.204	61.18
263.673	65.08
264.142	72.33
264.611	84.33
265.08	83.58
265.549	80.03
266.018	78.83
266.487	74.48
266.955	74.98
267.424	76.43
267.893	78.18
268.362	83.23
268.83	93.63
269.299	97.48
269.768	85.68
270.236	90.33
270.705	106.23
271.174	93.93
271.642	85.08
272.111	77.83
272.579	76.48
273.048	83.48
273.516	80.58
273.985	77.18
274.453	78.28
274.922	84.98
275.39	94.58
275.858	96.48
276.327	97.68
276.795	94.43
277.263	89.63
277.731	82.48
278.2	87.33
278.668	93.73
279.136	98.63
279.604	93.78
280.072	86.78
280.54	86.73
281.008	93.08
281.477	97.38
281.945	94.73
282.413	93.73
282.881	91.58
283.348	89.78
283.816	93.53
284.284	94.48
284.752	94.18
285.22	98.48
285.688	102.13
286.156	98.13
286.623	100.73
287.091	103.93
287.559	98.48
288.026	104.68
288.494	105.78
288.962	97.33
289.429	108.78
289.897	103.03
290.364	108.13
290.832	106.73
291.3	107.33
291.767	108.63
292.234	120.23
292.702	122.23
293.169	118.43
293.637	123.78
294.104	118.23
294.571	111.43
295.039	113.23
295.506	104.13
295.973	118.53
296.44	116.63
296.908	123.33
297.375	115.13
297.842	120.03
298.309	115.78
298.776	123.18
299.243	121.68
299.71	122.93
300.177	125.23
300.644	129.18
301.111	131.68
301.578	136.33
302.045	126.58
302.512	126.28
302.979	131.68
303.446	137.68
303.913	145.48
304.379	141.28
304.846	136.93
305.313	143.68
305.78	154.88
306.246	152.73
306.713	159.73
307.18	156.08
307.646	143.43
308.113	147.98
308.579	151.73
309.046	157.28
309.512	156.33
309.979	161.28
310.445	155.88
310.912	158.58
311.378	156.68
311.845	169.33
312.311	161.28
312.777	164.53
313.244	175.73
313.71	178.48
314.176	183.53
314.642	175.93
315.109	178.08
315.575	168.28
316.041	176.58
316.507	178.23
316.973	190.98
317.439	187.58
317.905	184.33
318.371	180.53
318.837	181.93
319.303	183.78
319.769	185.03
320.235	195.63
320.701	193.48
321.167	191.43
321.633	190.43
322.099	191.03
322.564	197.03
323.03	198.68
323.496	201.63
323.962	206.08
324.427	201.43
324.893	196.43
325.359	205.48
325.824	207.98
326.29	215.58
326.755	210.98
327.221	211.68
327.686	215.23
328.152	215.38
328.617	225.83
329.083	224.48
329.548	225.13
330.014	225.88
330.479	231.38
330.944	221.08
331.41	234.28
331.875	222.43
332.34	226.33
332.805	245.13
333.271	252.18
333.736	245.78
334.201	239.83
334.666	251.68
335.131	252.43
335.596	247.73
336.061	240.33
336.526	245.28
336.991	243.43
337.456	235.33
337.921	227.83
338.386	229.13
338.851	237.28
339.316	241.43
339.781	235.03
340.246	244.33
340.711	241.38
341.175	251.63
341.64	255.13
342.105	255.33
342.569	267.38
343.034	264.63
343.499	266.33
343.963	278.03
344.428	272.48
344.893	273.23
345.357	285.48
345.822	284.48
346.286	287.48
346.751	290.88
347.215	292.03
347.679	303.58
348.144	328.08
348.608	319.28
349.073	318.68
349.537	327.73
350.001	329.08
350.465	338.68
350.93	322.63
351.394	335.68
351.858	335.73
352.322	343.48
352.786	344.48
353.25	339.18
353.715	345.43
354.179	362.58
354.643	369.03
355.107	375.03
355.571	366.48
356.035	375.83
356.498	371.13
356.962	359.58
357.426	363.88
357.89	366.43
358.354	362.43
358.818	348.28
359.281	352.88
359.745	363.48
360.209	368.03
360.673	364.33
361.136	366.33
361.6	361.63
362.064	364.33
362.527	378.53
362.991	380.98
363.454	378.28
363.918	383.23
364.381	383.73
364.845	392.48
365.308	376.63
365.772	386.43
366.235	385.53
366.698	376.98
367.162	375.73
367.625	390.93
368.088	396.63
368.552	399.13
369.015	392.08
369.478	398.83
369.941	401.83
370.404	408.93
370.867	398.53
371.331	405.58
371.794	409.78
372.257	413.43
372.72	415.68
373.183	417.28
373.646	415.23
374.109	424.23
374.572	421.38
375.035	425.08
375.497	427.78
375.96	430.78
376.423	446.78
376.886	450.28
377.349	455.18
377.811	450.18
378.274	450.98
378.737	445.73
379.199	457.68
379.662	453.03
380.125	467.03
380.587	477.13
381.05	479.38
381.512	486.43
381.975	490.88
382.437	509.18
382.9	497.98
383.362	498.88
383.825	510.78
384.287	514.23
384.75	505.18
385.212	511.58
385.674	521.93
386.136	530.68
386.599	511.28
387.061	508.38
387.523	513.43
387.985	523.78
388.447	533.03
388.91	531.58
389.372	536.13
389.834	519.78
390.296	517.73
390.758	532.03
391.22	522.93
391.682	531.08
392.144	544.58
392.606	542.73
393.068	549.43
393.529	581.68
393.991	600.08
394.453	564.23
394.915	545.58
395.377	540.03
395.838	550.63
396.3	542.38
396.762	554.48
397.224	548.28
397.685	550.73
398.147	561.93
398.608	567.98
399.07	569.38
399.531	584.53
399.993	607.88
400.454	599.33
400.916	590.03
401.377	593.83
401.839	598.23
402.3	603.53
402.762	635.23
403.223	675.88
403.684	678.63
404.145	638.98
404.607	623.98
405.068	610.98
405.529	616.13
405.99	635.73
406.451	648.13
406.913	622.83
407.374	625.48
407.835	618.68
408.296	644.43
408.757	647.13
409.218	675.88
409.679	681.63
410.14	683.68
410.601	694.28
411.062	698.18
411.522	700.28
411.983	710.23
412.444	718.03
412.905	742.08
413.366	773.93
413.826	810.08
414.287	919.28
414.748	1101.08
415.208	1130.28
415.669	939.78
416.13	857.63
416.59	834.18
417.051	866.53
417.511	899.43
417.972	983.83
418.432	1054.73
418.893	1168.28
419.353	1131.58
419.814	865.68
420.274	773.43
420.734	755.13
421.195	782.83
421.655	777.98
422.115	783.58
422.576	779.18
423.036	782.83
423.496	813.48
423.956	848.03
424.416	897.68
424.876	1016.58
425.336	1012.88
425.797	985.98
426.257	959.38
426.717	885.18
427.177	804.88
427.637	797.18
428.097	837.03
428.556	865.33
429.016	901.33
429.476	886.78
429.936	838.58
430.396	831.83
430.856	846.08
431.315	858.38
431.775	926.43
432.235	1001.68
432.694	1016.33
433.154	942.93
433.614	935.38
434.073	905.73
434.533	826.78
434.993	813.28
435.452	827.83
435.912	837.13
436.371	840.33
436.83	837.63
437.29	826.23
437.749	815.68
438.209	820.63
438.668	831.98
439.127	858.68
439.587	851.78
440.046	834.73
440.505	864.48
440.964	869.23
441.424	911.58
441.883	921.13
442.342	873.53
442.801	842.13
443.26	848.63
443.719	844.63
444.178	845.73
444.637	858.98
445.096	864.53
445.555	875.08
446.014	876.03
446.473	859.73
446.932	867.08
447.391	875.93
447.849	899.28
448.308	882.58
448.767	887.93
449.226	905.58
449.685	919.13
450.143	959.28
450.602	952.18
451.061	908.83
451.519	910.23
451.978	900.83
452.436	890.28
452.895	906.63
453.353	896.38
453.812	885.63
454.27	890.28
454.729	888.43
455.187	906.13
455.646	908.63
456.104	906.48
456.562	913.68
457.021	927.93
457.479	891.58
457.937	922.78
458.395	945.23
458.854	933.48
459.312	918.63
459.77	938.78
460.228	941.68
460.686	957.53
461.144	956.83
461.602	943.63
462.06	951.48
462.518	974.83
462.976	974.73
463.434	988.28
463.892	996.13
464.35	1024.33
464.808	1039.83
465.266	1047.13
465.724	1046.58
466.181	1052.43
466.639	1049.08
467.097	1088.33
467.555	1127.93
468.012	1108.93
468.47	1118.58
468.928	1155.78
469.385	1171.88
469.843	1193.83
470.3	1179.43
470.758	1217.13
471.215	1224.98
471.673	1239.43
472.13	1285.38
472.588	1314.68
473.045	1291.73
473.503	1315.68
473.96	1364.58
474.417	1373.88
474.875	1416.83
475.332	1448.38
475.789	1473.88
476.246	1479.48
476.704	1514.83
477.161	1534.33
477.618	1537.18
478.075	1577.03
478.532	1643.63
478.989	1703.48
479.446	1800.68
479.903	1796.78
480.36	1835.43
480.817	1850.83
481.274	1881.48
481.731	1968.13
482.188	2022.48
482.645	2071.63
483.102	2115.83
483.558	2207.63
484.015	2245.28
484.472	2235.73
484.929	2237.93
485.385	2219.08
485.842	2221.28
486.299	2226.68
486.755	2193.88
487.212	2109.63
487.668	2028.03
488.125	2002.63
488.582	1963.08
489.038	1974.23
489.494	1985.33
489.951	1989.38
490.407	1979.68
490.864	1982.73
491.32	1977.78
491.776	1990.08
492.233	2017.08
492.689	2001.98
493.145	1974.68
493.602	1955.63
494.058	1999.13
494.514	2004.58
494.97	2024.58
495.426	2056.68
495.882	2053.03
496.338	2071.88
496.794	2087.58
497.251	2088.78
497.707	2114.43
498.163	2121.58
498.618	2128.78
499.074	2119.88
499.53	2153.53
499.986	2175.48
500.442	2154.73
500.898	2122.38
501.354	2146.18
501.809	2152.58
502.265	2143.68
502.721	2161.73
503.177	2159.13
503.632	2173.98
504.088	2202.73
504.543	2216.08
504.999	2232.03
505.455	2228.38
505.91	2216.18
506.366	2225.93
506.821	2219.18
507.277	2198.53
507.732	2223.43
508.187	2231.03
508.643	2234.43
509.098	2244.48
509.553	2277.58
510.009	2284.38
510.464	2329.43
510.919	2359.23
511.375	2384.98
511.83	2395.93
512.285	2440.73
512.74	2500.73
513.195	2527.68
513.65	2569.38
514.105	2604.48
514.56	2610.38
515.015	2656.98
515.47	2664.58
515.925	2633.38
516.38	2641.63
516.835	2655.63
517.29	2638.13
517.745	2649.98
518.2	2609.83
518.655	2552.33
519.109	2523.33
519.564	2488.38
520.019	2475.73
520.474	2445.78
520.928	2440.68
521.383	2418.43
521.838	2402.08
522.292	2387.73
522.747	2362.23
523.201	2351.68
523.656	2317.58
524.11	2317.23
524.565	2313.18
525.019	2312.93
525.474	2322.63
525.928	2301.98
526.382	2311.83
526.837	2318.93
527.291	2327.23
527.745	2309.33
528.2	2311.53
528.654	2283.33
529.108	2291.53
529.562	2295.28
530.016	2296.53
530.47	2296.18
530.925	2280.48
531.379	2290.03
531.833	2319.98
532.287	2309.28
532.741	2298.63
533.195	2294.18
533.649	2312.98
534.103	2303.93
534.556	2297.13
535.01	2318.73
535.464	2284.38
535.918	2295.33
536.372	2309.08
536.826	2295.93
537.279	2273.38
537.733	2275.38
538.187	2291.58
538.64	2290.78
539.094	2310.73
539.548	2320.48
540.001	2320.23
540.455	2329.38
540.908	2335.83
541.362	2361.03
541.815	2372.83
542.269	2430.03
542.722	2416.23
543.175	2447.88
543.629	2458.13
544.082	2481.28
544.536	2503.38
544.989	2505.03
545.442	2516.63
545.895	2519.43
546.349	2510.93
546.802	2523.73
547.255	2521.63
547.708	2535.73
548.161	2559.93
548.614	2566.18
549.067	2596.13
549.52	2568.03
549.973	2544.08
550.426	2547.23
550.879	2528.13
551.332	2535.78
551.785	2545.63
552.238	2544.73
552.691	2571.68
553.144	2602.68
553.596	2646.03
554.049	2677.08
554.502	2736.18
554.955	2787.83
555.407	2822.93
555.86	2796.23
556.313	2750.03
556.765	2731.88
557.218	2686.78
557.67	2692.23
558.123	2653.18
558.576	2658.68
559.028	2655.78
559.48	2672.68
559.933	2661.38
560.385	2587.88
560.838	2500.28
561.29	2427.53
561.742	2410.43
562.195	2357.48
562.647	2337.38
563.099	2322.08
563.551	2303.88
564.004	2339.18
564.456	2300.63
564.908	2261.33
565.36	2221.58
565.812	2162.53
566.264	2134.38
566.716	2126.03
567.168	2072.63
567.62	2079.38
568.072	2065.78
568.524	2039.18
568.976	2032.68
569.428	2012.48
569.88	2018.28
570.332	2034.43
570.784	2039.53
571.235	2017.88
571.687	2053.23
572.139	2060.93
572.59	2072.33
573.042	2081.88
573.494	2074.73
573.945	2050.88
574.397	2008.28
574.849	2008.78
575.3	2011.48
575.752	1979.93
576.203	1963.53
576.655	1980.33
577.106	1954.63
577.557	1927.58
578.009	1918.43
578.46	1928.03
578.912	1912.03
579.363	1920.18
579.814	1911.43
580.265	1920.08
580.717	1933.63
581.168	1920.18
581.619	1932.43
582.07	1958.58
582.521	1927.53
582.972	1926.63
583.423	1934.23
583.875	1943.38
584.326	1955.28
584.777	1981.53
585.227	2019.63
585.678	2031.43
586.129	2056.83
586.58	2066.98
587.031	2102.33
587.482	2153.43
587.933	2197.73
588.384	2183.13
588.834	2154.43
589.285	2154.28
589.736	2153.83
590.186	2160.63
590.637	2122.28
591.088	2088.33
591.538	2057.88
591.989	2011.18
592.439	1999.13
592.89	1977.43
593.34	1974.33
593.791	1961.03
594.241	1934.28
594.692	1935.38
595.142	1939.43
595.593	1938.43
596.043	1932.73
596.493	1971.58
596.943	1958.08
597.394	2025.63
597.844	2045.88
598.294	2086.48
598.744	2165.23
599.195	2257.83
599.645	2377.08
600.095	2495.73
600.545	2610.93
600.995	2713.68
601.445	2813.93
601.895	2952.98
602.345	3036.63
602.795	3015.88
603.245	2898.78
603.695	2738.43
604.145	2604.63
604.594	2468.23
605.044	2337.88
605.494	2202.93
605.944	2082.13
606.393	2020.98
606.843	1996.88
607.293	1986.73
607.743	1977.53
608.192	1985.58
608.642	1988.03
609.091	1990.13
609.541	1970.73
609.99	1979.28
610.44	1948.68
610.889	1933.98
611.339	1886.83
611.788	1867.08
612.238	1893.38
612.687	1893.73
613.136	1915.78
613.586	1947.83
614.035	1949.13
614.484	1960.88
614.933	1980.48
615.383	1937.68
615.832	1874.13
616.281	1837.68
616.73	1795.63
617.179	1751.18
617.628	1717.83
618.077	1681.23
618.526	1659.93
618.975	1647.83
619.424	1612.48
619.873	1604.03
620.322	1589.68
620.771	1589.88
621.22	1564.68
621.669	1526.73
622.118	1509.08
622.567	1502.23
623.015	1478.28
623.464	1469.08
623.913	1456.93
624.361	1457.03
624.81	1450.38
625.259	1451.48
625.707	1446.68
626.156	1447.13
626.604	1478.83
627.053	1473.78
627.501	1460.53
627.95	1474.78
628.398	1497.23
628.847	1475.48
629.295	1474.33
629.744	1458.38
630.192	1429.58
630.64	1423.68
631.089	1394.53
631.537	1356.68
631.985	1340.28
632.433	1332.53
632.881	1325.48
633.33	1323.08
633.778	1331.13
634.226	1329.28
634.674	1354.78
635.122	1365.63
635.57	1372.23
636.018	1392.43
636.466	1392.33
636.914	1386.58
637.362	1412.83
637.81	1440.63
638.258	1474.68
638.705	1484.18
639.153	1529.98
639.601	1542.98
640.049	1570.93
640.497	1614.48
640.944	1645.23
641.392	1584.63
641.84	1494.88
642.287	1421.03
642.735	1379.93
643.182	1350.08
643.63	1346.28
644.078	1345.83
644.525	1353.68
644.973	1381.73
645.42	1390.78
645.867	1398.83
646.315	1405.28
646.762	1420.38
647.21	1434.53
647.657	1458.68
648.104	1430.23
648.551	1376.93
648.999	1376.03
649.446	1369.13
649.893	1380.23
650.34	1425.48
650.787	1508.53
651.234	1637.88
651.682	1875.23
652.129	2225.08
652.576	2778.08
653.023	3415.28
653.47	3861.13
653.917	4143.68
654.363	4318.88
654.81	4614.63
655.257	4684.33
655.704	3457.58
656.151	2414.63
656.598	1886.98
657.044	1611.48
657.491	1480.53
657.938	1383.38
658.385	1322.78
658.831	1289.38
659.278	1258.08
659.724	1234.88
660.171	1217.83
660.618	1164.68
661.064	1163.03
661.511	1174.73
661.957	1177.18
662.404	1185.73
662.85	1199.98
663.296	1209.98
663.743	1207.03
664.189	1205.28
664.635	1199.03
665.082	1178.03
665.528	1167.18
665.974	1132.38
666.42	1117.48
666.867	1108.43
667.313	1060.03
667.759	1057.53
668.205	1057.48
668.651	1064.58
669.097	1072.28
669.543	1072.68
669.989	1101.93
670.435	1105.13
670.881	1124.93
671.327	1163.48
671.773	1240.93
672.219	1327.68
672.665	1422.83
673.11	1465.08
673.556	1496.08
674.002	1538.53
674.448	1559.53
674.893	1342.78
675.339	1167.03
675.785	1071.48
676.23	1018.18
676.676	979.18
677.122	954.38
677.567	930.03
678.013	898.48
678.458	895.88
678.904	891.48
679.349	874.18
679.794	868.28
680.24	868.48
680.685	862.63
681.131	861.78
681.576	862.38
682.021	865.13
682.466	881.33
682.912	879.93
683.357	929.43
683.802	1005.93
684.247	1092.38
684.692	1175.23
685.137	1231.83
685.583	1260.33
686.028	1331.38
686.473	1270.48
686.918	1088.93
687.363	995.13
687.807	944.18
688.252	900.68
688.697	870.03
689.142	850.03
689.587	853.58
690.032	868.38
690.477	898.88
690.921	944.28
691.366	991.03
691.811	1036.93
692.255	1117.08
692.7	1339.98
693.145	1896.23
693.589	2894.63
694.034	3481.98
694.478	3792.28
694.923	3529.83
695.367	5111.98
695.812	3071.58
696.256	1290.08
696.701	938.33
697.145	866.93
697.59	830.08
698.034	817.83
698.478	817.63
698.922	823.53
699.367	842.58
699.811	874.08
700.255	945.88
700.699	1018.68
701.143	1114.18
701.588	1182.43
702.032	1237.58
702.476	1280.08
702.92	1356.83
703.364	1731.98
703.808	2633.53
704.252	3331.98
704.696	3579.13
705.14	3446.98
705.584	4838.43
706.027	2625.38
706.471	1302.63
706.915	978.43
707.359	866.63
707.803	813.53
708.246	776.83
708.69	770.73
709.134	758.48
709.577	759.88
710.021	764.93
710.465	763.73
710.908	756.33
711.352	789.58
711.795	869.58
712.239	935.48
712.682	974.43
713.126	967.18
713.569	1089.28
714.012	888.63
714.456	791.18
714.899	733.88
715.342	687.08
715.786	668.98
716.229	645.28
716.672	627.83
717.115	628.88
717.558	630.93
718.002	649.08
718.445	668.23
718.888	710.53
719.331	725.48
719.774	747.83
720.217	731.68
720.66	695.68
721.103	658.43
721.546	617.08
721.989	603.93
722.432	597.73
722.874	593.03
723.317	603.08
723.76	645.08
724.203	784.33
724.645	1053.83
725.088	1248.43
725.531	1237.28
725.974	1386.63
726.416	1238.98
726.859	751.43
727.301	615.38
727.744	588.03
728.187	591.58
728.629	604.28
729.071	627.13
729.514	653.03
729.956	687.03
730.399	699.98
730.841	700.23
731.283	687.93
731.726	669.93
732.168	680.03
732.61	716.38
733.053	761.38
733.495	838.58
733.937	940.48
734.379	1094.58
734.821	1390.33
735.263	2177.23
735.705	3903.33
736.148	5815.98
736.59	6005.58
737.032	6660.33
737.474	5486.38
737.916	2055.38
738.357	1075.68
738.799	839.63
739.241	780.58
739.683	812.03
740.125	857.13
740.567	871.93
741.008	950.08
741.45	1011.78
741.892	1063.33
742.334	1086.53
742.775	1104.93
743.217	1074.38
743.658	841.48
744.1	891.58
744.542	1079.48
744.983	1163.08
745.425	1247.08
745.866	1189.38
746.307	872.53
746.749	861.83
747.19	1192.08
747.632	2272.68
748.073	4256.48
748.514	6015.13
748.956	8085.93
749.397	9579.73
749.838	6646.33
750.279	6460.43
750.72	3284.83
751.162	1374.48
751.603	782.48
752.044	633.28
752.485	566.38
752.926	529.28
753.367	511.83
753.808	487.53
754.249	480.68
754.69	473.68
755.131	472.53
755.572	469.73
756.013	471.73
756.453	463.48
756.894	476.33
757.335	479.63
757.776	481.08
758.216	502.88
758.657	532.98
759.098	584.83
759.538	700.63
759.979	997.43
760.42	1981.18
760.86	5048.78
761.301	10637.38
761.741	12949.23
762.182	15076.08
762.622	9933.13
763.063	3446.18
763.503	1410.68
763.943	825.63
764.384	644.38
764.824	568.88
765.264	520.53
765.705	492.68
766.145	466.98
766.585	455.88
767.025	436.18
767.465	439.23
767.906	446.83
768.346	475.38
768.786	539.38
769.226	786.33
769.666	1560.98
770.106	3523.78
770.546	5223.73
770.986	6089.48
771.426	4634.38
771.866	1869.23
772.306	846.03
772.745	528.73
773.185	452.73
773.625	449.23
774.065	507.48
774.505	789.33
774.944	1537.18
775.384	2357.93
775.824	2781.38
776.263	2280.93
776.703	1102.08
777.142	571.08
777.582	392.63
778.021	347.13
778.461	333.38
778.9	321.93
779.34	311.98
779.779	309.38
780.219	297.08
780.658	285.03
781.097	284.78
781.537	281.03
781.976	277.03
782.415	269.88
782.855	269.73
783.294	275.48
783.733	265.53
784.172	276.43
784.611	271.03
785.05	281.38
785.489	286.18
785.928	294.68
786.367	313.33
786.806	325.18
787.245	352.08
787.684	363.38
788.123	360.38
788.562	351.23
789.001	341.43
789.44	329.78
789.879	327.53
790.317	331.53
790.756	346.08
791.195	391.03
791.634	529.18
792.072	922.28
792.511	2247.28
792.95	4289.28
793.388	5390.83
793.827	3520.38
794.265	1562.63
794.704	746.98
795.142	461.13
795.581	384.33
796.019	346.03
796.458	340.53
796.896	346.48
797.334	398.93
797.773	520.98
798.211	993.03
798.649	2094.63
799.087	3584.83
799.526	5107.88
799.964	5356.63
800.402	3736.93
800.84	1643.73
801.278	798.68
801.716	483.88
802.154	396.43
802.592	371.43
803.03	372.53
803.468	382.43
803.906	383.28
804.344	372.23
804.782	366.43
805.22	366.63
805.658	383.58
806.096	401.98
806.533	453.58
806.971	574.63
807.409	830.73
807.847	1618.23
808.284	4180.38
808.722	7483.48
809.16	10589.38
809.597	13952.18
810.035	15530.53
810.472	11907.38
810.91	4922.28
811.347	2173.23
811.785	1034.38
812.222	661.23
812.66	508.83
813.097	436.68
813.535	381.78
813.972	343.33
814.409	318.73
814.846	307.63
815.284	296.78
815.721	308.58
816.158	366.83
816.595	540.08
817.032	745.78
817.47	680.98
817.907	441.33
818.344	378.48
818.781	378.93
819.218	483.93
819.655	794.78
820.092	1105.58
820.529	993.28
820.966	752.83
821.403	476.78
821.839	380.13
822.276	427.08
822.713	532.03
823.15	462.88
823.587	429.63
824.023	701.28
824.46	1725.58
824.897	3129.28
825.333	2499.83
825.77	1110.63
826.206	577.18
826.643	341.73
827.08	254.53
827.516	223.68
827.953	201.58
828.389	196.58
828.825	190.83
829.262	181.88
829.698	174.33
830.135	167.93
830.571	166.48
831.007	175.53
831.443	166.08
831.88	168.13
832.316	174.38
832.752	173.08
833.188	172.48
833.624	178.03
834.06	176.88
834.497	186.38
834.933	184.28
835.369	206.18
835.805	211.38
836.241	218.18
836.677	244.13
837.112	280.58
837.548	350.73
837.984	506.78
838.42	1083.48
838.856	3043.98
839.292	6193.38
839.727	4690.23
840.163	3002.63
840.599	4562.88
841.034	7201.53
841.47	3656.18
841.906	1723.43
842.341	944.43
842.777	780.73
843.212	913.68
843.648	547.68
844.083	349.73
844.519	247.38
844.954	199.13
845.39	175.93
845.825	168.33
846.261	161.73
846.696	150.38
847.131	145.78
847.566	143.28
848.002	149.73
848.437	159.48
848.872	166.13
849.307	215.73
849.742	375.18
850.177	984.23
850.613	2174.43
851.048	1605.63
851.483	710.23
851.918	388.58
852.353	217.38
852.788	160.18
853.223	142.33
853.657	127.33
854.092	126.98
854.527	126.58
854.962	147.18
855.397	166.93
855.832	137.33
856.266	118.73
856.701	117.98
857.136	126.78
857.57	167.38
858.005	225.13
858.44	177.28
858.874	148.58
859.309	149.43
859.743	143.73
860.178	142.18
860.612	169.28
861.047	245.93
861.481	394.53
861.915	266.08
862.35	177.88
862.784	138.23
863.218	123.98
863.653	136.88
864.087	172.63
864.521	199.78
864.955	316.08
865.39	543.63
865.824	463.03
866.258	697.93
866.692	1176.18
867.126	854.98
867.56	435.53
867.994	257.78
868.428	214.83
868.862	282.68
869.296	250.48
869.73	318.68
870.164	266.28
870.598	246.43
871.031	159.53
871.465	135.03
871.899	103.88
872.333	83.78
872.766	89.58
873.2	91.03
873.634	90.48
874.067	86.48
874.501	89.08
874.935	84.48
875.368	88.78
875.802	80.38
876.235	75.88
876.669	70.58
877.102	66.53
877.535	67.13
877.969	63.63
878.402	66.23
878.836	66.93
879.269	66.68
879.702	66.23
880.135	69.53
880.569	77.83
881.002	69.23
881.435	69.18
881.868	63.98
882.301	65.28
882.734	59.78
883.167	58.48
883.601	57.18
884.034	56.98
884.467	56.23
884.899	58.03
885.332	52.03
885.765	56.53
886.198	51.38
886.631	52.43
887.064	55.23
887.497	52.83
887.929	55.63
888.362	50.53
888.795	48.48
889.228	52.13
889.66	50.63
890.093	49.53
890.526	50.13
890.958	50.18
891.391	51.93
891.823	49.28
892.256	49.23
892.688	50.63
893.121	48.28
893.553	48.58
893.985	46.08
894.418	44.53
894.85	52.33
895.282	52.03
895.715	43.53
896.147	42.33
896.579	43.78
897.011	46.18
897.444	47.83
897.876	39.93
898.308	43.38
898.74	43.68
899.172	52.73
899.604	46.88
900.036	53.33
900.468	49.88
900.9	62.38
901.332	73.13
901.764	80.53
902.196	75.38
902.628	76.13
903.06	128.83
903.491	147.18
903.923	110.33
904.355	99.13
904.787	112.38
905.218	81.93
905.65	75.18
906.082	65.03
906.513	57.28
906.945	59.53
907.376	56.33
907.808	54.13
908.239	60.73
908.671	67.58
909.102	70.48
909.534	103.53
909.965	198.13
910.397	500.18
910.828	1475.03
911.259	910.33
911.691	471.08
912.122	274.88
912.553	139.13
912.984	86.23
913.415	67.78
913.847	64.73
914.278	58.58
914.709	54.53
915.14	54.13
915.571	53.73
916.002	54.88
916.433	48.98
916.864	48.48
917.295	50.63
917.726	61.63
918.157	73.68
918.587	73.58
919.018	69.33
919.449	61.98
919.88	74.28
920.311	116.58
920.741	306.88
921.172	544.93
921.603	273.78
922.033	172.78
922.464	112.83
922.895	73.28
923.325	51.33
923.756	50.13
924.186	67.93
924.617	106.98
925.047	165.78
925.478	149.38
925.908	107.98
926.338	79.68
926.769	57.93
927.199	51.93
927.629	44.58
928.06	47.38
928.49	45.18
928.92	38.43
929.35	35.93
929.78	31.63
930.21	31.08
930.641	21.08
931.071	27.03
931.501	22.88
931.931	24.08
932.361	23.63
932.791	27.48
933.221	30.58
933.651	45.23
934.08	74.58
934.51	46.43
934.94	34.78
935.37	30.38
935.8	27.13
936.229	23.73
936.659	29.83
937.089	66.98
937.519	95.33
937.948	128.28
938.378	76.93
938.807	45.68
939.237	30.08
939.666	24.43
940.096	15.18
940.525	7.48
940.955	19.48
941.384	10.88
941.814	15.63
942.243	14.23
942.672	9.18
943.102	13.53
943.531	7.88
943.96	13.53
944.39	15.58
944.819	14.93
945.248	9.98
945.677	14.03
946.106	11.08
946.535	12.23
946.964	15.13
947.393	8.48
947.822	10.28
948.251	15.73
948.68	20.73
949.109	14.53
949.538	10.93
949.967	12.33
950.396	8.78
950.825	9.93
951.254	9.98
951.682	4.38
952.111	3.53
952.54	8.88
952.969	7.63
953.397	3.88
953.826	2.83
954.254	11.38
954.683	11.33
955.112	12.18
955.54	7.68
955.969	11.43
956.397	10.73
956.826	10.03
957.254	7.88
957.682	6.58
958.111	8.18
958.539	11.73
958.967	9.78
959.396	13.73
959.824	7.73
960.252	8.73
960.68	6.88
961.109	10.48
961.537	12.33
961.965	3.98
962.393	8.38
962.821	4.78
963.249	11.03
963.677	14.63
964.105	91.78
964.533	158.58
964.961	79.08
965.389	44.68
965.817	27.48
966.245	11.93
966.672	12.43
967.1	11.93
967.528	2.13
967.956	6.68
968.383	10.28
968.811	6.53
969.239	5.33
969.666	0.58
970.094	5.63
970.522	2.58
970.949	4.88
971.377	-0.02
971.804	2.88
972.232	3.73
972.659	3.13
973.087	3.43
973.514	4.68
973.941	4.03
974.369	-2.17
974.796	3.83
975.223	5.43
975.651	5.68
976.078	7.38
976.505	13.23
976.932	39.93
977.359	45.18
977.786	29.98
978.214	17.33
978.641	8.48
979.068	11.98
979.495	6.23
979.922	8.18
980.349	7.93
980.776	9.38
981.202	4.38
981.629	13.88
982.056	10.58
982.483	2.68
982.91	11.88
983.337	5.53
983.763	5.03
984.19	6.03
984.617	9.53
985.043	10.88
985.47	11.78
985.897	6.13
986.323	15.13
986.75	6.48
987.176	3.83
987.603	3.58
988.029	3.18
988.456	9.68
988.882	1.38
989.308	2.58
989.735	3.08
990.161	5.68
990.587	4.48
991.014	4.68
991.44	9.33
991.866	2.68
992.292	1.43
992.719	2.53
993.145	7.13
993.571	2.33
993.997	9.08
994.423	4.93
994.849	-1.17
995.275	5.28
995.701	5.03
996.127	2.33
996.553	7.28
996.979	0.78
997.405	7.33
997.83	4.03
998.256	5.13
998.682	8.93
999.108	2.53
999.534	-1.12
999.959	4.78
1000.385	3.83
1000.811	-3.12
1001.236	-4.07
1001.662	0.03
1002.087	8.18
1002.513	3.73
1002.938	1.88
1003.364	2.28
1003.789	2.98
1004.215	3.58
1004.64	1.18
1005.066	5.88
1005.491	10.38
1005.916	3.48
1006.342	3.63
1006.767	7.38
1007.192	8.53
1007.617	3.93
1008.042	1.58
1008.468	9.03
1008.893	8.93
1009.318	23.63
1009.743	33.38
1010.168	54.83
1010.593	46.73
1011.018	26.38
1011.443	16.28
1011.868	17.53
1012.293	11.68
1012.718	5.53
1013.143	7.93
1013.567	8.48
1013.992	7.18
1014.417	4.68
1014.842	6.08
1015.267	4.38
1015.691	7.18
1016.116	3.68
1016.541	6.88
1016.965	2.68
1017.39	4.83
1017.814	0.98
1018.239	2.03
1018.663	-1.02
1019.088	-3.02
1019.512	5.43
1019.937	-2.72
1020.361	-1.52
1020.785	-3.32
1021.21	-1.57
1021.634	2.63
1022.058	2.73
1022.483	-5.22
1022.907	-0.97
1023.331	-0.82
1023.755	-1.37
1024.179	1.08
1024.604	-1.77
1025.028	2.63
1025.452	5.43
1025.876	3.58
1026.3	1.88
1026.724	2.28
1027.148	4.98
1027.572	-1.12
1027.996	-0.07
1028.42	-0.87
1028.843	0.23
1029.267	-1.62
1029.691	5.73
1030.115	3.58
1030.539	-0.07
1030.962	-2.22
1031.386	-0.52
1031.81	-1.22
1032.233	-1.37
1032.657	-5.62
1033.08	2.18
1033.504	1.73
1033.927	0.63
1034.351	-0.57
1034.774	-4.42
1035.198	-1.52
1035.621	1.43
1036.045	-0.72
1036.468	6.93
1036.891	3.98
1037.315	5.63
1037.738	0.93
1038.161	1.08
1038.584	1.78
1039.008	-1.12
1039.431	0.13
1039.854	-4.17
1040.277	0.78
1040.7	-4.82
1041.123	4.83
1041.546	-0.67
1041.969	2.08
1042.392	1.63
1042.815	-6.47
1043.238	-0.27
1043.661	-3.37
1044.084	-2.17
1044.507	-2.72
1044.93	-3.57
1045.352	1.78
1045.775	2.98
1046.198	1.78
1046.621	4.28
1047.043	0.23
1047.466	2.98
1047.889	-4.57
1048.311	6.83
1048.734	-2.47
1049.156	1.93
1049.579	-2.32
1050.001	-3.12
1050.424	-1.42
1050.846	-5.82
1051.269	-3.32
1051.691	-3.27
1052.113	-3.42
1052.536	-0.17
1052.958	-6.82
1053.38	1.48
1053.802	-2.12
1054.225	0.08
1054.647	1.88
1055.069	-0.32
1055.491	3.03
1055.913	-1.97
1056.335	-4.27
1056.757	-3.07
1057.179	-3.52
1057.601	0.33
1058.023	2.78
1058.445	-4.67
1058.867	0.98
1059.289	3.63
1059.711	-2.97
1060.133	-1.87
1060.555	-2.42
1060.976	1.18
1061.398	-0.37
1061.82	-1.07
1062.241	-2.17
1062.663	-7.42
1063.085	-5.17
1063.506	-5.92
1063.928	-3.32
1064.35	-4.47
1064.771	-3.72
1065.193	-1.47
1065.614	-2.02
1066.035	0.78
1066.457	3.18
1066.878	-0.02
1067.3	-1.07
1067.721	1.83
1068.142	1.78
1068.564	7.43
1068.985	2.53
1069.406	-6.87
1069.827	-1.97
1070.248	-4.87
1070.67	-6.52
1071.091	-9.02
1071.512	-2.12
1071.933	-3.67
1072.354	-7.52
1072.775	0.78
1073.196	0.98
1073.617	-4.62
1074.038	-1.22
1074.459	-0.77
1074.88	-0.82
1075.3	-2.42
1075.721	3.28
1076.142	-1.67
1076.563	-2.22
1076.983	2.13
1077.404	-6.37
1077.825	-0.67
1078.246	-5.72
1078.666	-1.22
1079.087	0.18
1079.507	-1.27
1079.928	0.48
1080.348	-2.17
1080.769	1.33
1081.189	-0.97
1081.61	-6.87
1082.03	6.73
1082.451	-4.12
1082.871	-12.07
1083.291	-0.62
1083.711	-2.37
1084.132	-4.37
1084.552	-4.82
1084.972	-6.32
1085.392	-7.27
1085.813	-1.77
1086.233	-3.32
1086.653	-0.07
1087.073	-5.72
1087.493	-1.47
1087.913	-2.67
1088.333	-3.37
1088.753	1.08
1089.173	2.33
1089.593	-3.02
1090.013	0.13
1090.433	-6.07
1090.852	2.88
1091.272	-7.32
1091.692	0.33
1092.112	-5.02
1092.531	-6.72
1092.951	-4.37
1093.371	-4.32
1093.79	-4.12
1094.21	-6.82
1094.63	2.13
1095.049	0.28
1095.469	-9.17
1095.888	1.38
1096.308	0.43
1096.727	-1.52
1097.146	-1.07
1097.566	-2.72
1097.985	0.63
1098.405	-1.57
1098.824	-1.17
1099.243	-1.12
1099.662	-3.37
1100.082	-1.42
1100.501	-3.47
1100.92	3.48
1101.339	0.98
1101.758	4.38
