Data from MSPlasma+Separation6_Subt14_10-14-15-523.txt Node
Date: Fri Jul 21 10:14:15 EDT 2017
User: Ender
Spectrometer: HR+D1039
Trigger mode: 0
Integration Time (sec): 6.430000E-3
Scans to average: 20
Electric dark correction enabled: true
Nonlinearity correction enabled: false
Boxcar width: 0
XAxis mode: Wavelengths
Number of Pixels in Spectrum: 2048
>>>>>Begin Spectral Data<<<<<
187.836	1.14
188.309	1.14
188.782	1.14
189.255	2.14
189.728	2.09
190.201	0.34
190.674	0.49
191.147	0.04
191.619	0.44
192.092	-3.21
192.565	-4.36
193.038	-0.71
193.511	5.34
193.984	-1.26
194.456	-1.11
194.929	-2.96
195.402	-0.66
195.874	2.19
196.347	3.29
196.82	-0.36
197.292	-7.56
197.765	0.89
198.237	0.99
198.71	-1.86
199.182	-2.21
199.655	6.49
200.127	2.44
200.6	-0.31
201.072	2.89
201.544	-2.01
202.017	1.74
202.489	2.59
202.961	-0.31
203.433	-0.71
203.906	-1.56
204.378	4.49
204.85	-0.01
205.322	-2.56
205.794	0.99
206.266	0.19
206.739	3.34
207.211	-0.76
207.683	4.79
208.155	1.59
208.627	3.84
209.099	6.29
209.57	5.34
210.042	3.94
210.514	3.29
210.986	-0.36
211.458	-3.06
211.93	2.59
212.402	-0.01
212.873	-3.21
213.345	-3.11
213.817	4.44
214.288	-2.01
214.76	3.74
215.232	2.64
215.703	1.04
216.175	5.19
216.646	2.14
217.118	2.14
217.589	-4.71
218.061	4.34
218.532	-0.36
219.004	9.84
219.475	4.49
219.946	2.99
220.418	7.89
220.889	3.29
221.36	5.94
221.832	9.74
222.303	1.39
222.774	3.49
223.245	1.49
223.717	4.14
224.188	0.34
224.659	4.14
225.13	0.19
225.601	2.69
226.072	4.74
226.543	7.39
227.014	3.64
227.485	9.99
227.956	5.94
228.427	8.24
228.898	10.14
229.369	4.44
229.839	6.79
230.31	10.79
230.781	13.09
231.252	12.24
231.722	10.09
232.193	6.99
232.664	12.19
233.135	7.84
233.605	6.34
234.076	15.04
234.546	12.29
235.017	11.54
235.487	16.14
235.958	10.34
236.428	17.04
236.899	12.69
237.369	16.29
237.84	19.69
238.31	16.29
238.78	14.14
239.251	13.24
239.721	10.94
240.191	12.54
240.662	19.29
241.132	13.49
241.602	18.79
242.072	17.54
242.542	17.04
243.013	15.74
243.483	21.74
243.953	17.74
244.423	17.44
244.893	19.89
245.363	21.54
245.833	20.34
246.303	23.99
246.773	23.54
247.243	21.44
247.712	24.19
248.182	22.79
248.652	22.94
249.122	26.19
249.592	25.09
250.061	24.19
250.531	27.39
251.001	26.19
251.471	29.19
251.94	25.69
252.41	28.79
252.879	31.79
253.349	35.34
253.818	27.29
254.288	34.04
254.757	32.49
255.227	39.34
255.696	36.64
256.166	38.44
256.635	39.14
257.105	34.69
257.574	36.74
258.043	36.69
258.513	40.84
258.982	33.49
259.451	38.84
259.92	35.19
260.389	41.04
260.859	39.39
261.328	38.29
261.797	39.89
262.266	40.89
262.735	45.49
263.204	37.84
263.673	45.09
264.142	44.24
264.611	42.69
265.08	44.64
265.549	43.39
266.018	48.19
266.487	43.44
266.955	44.64
267.424	49.49
267.893	49.09
268.362	48.14
268.83	49.79
269.299	52.24
269.768	51.59
270.236	49.99
270.705	55.29
271.174	50.94
271.642	54.74
272.111	52.19
272.579	52.99
273.048	53.84
273.516	59.74
273.985	57.44
274.453	58.49
274.922	53.99
275.39	55.24
275.858	58.99
276.327	60.29
276.795	59.39
277.263	61.59
277.731	57.79
278.2	68.29
278.668	65.49
279.136	65.39
279.604	67.49
280.072	65.59
280.54	71.04
281.008	70.09
281.477	69.24
281.945	70.69
282.413	70.84
282.881	75.54
283.348	72.89
283.816	75.09
284.284	78.79
284.752	76.79
285.22	81.44
285.688	77.99
286.156	77.09
286.623	78.84
287.091	76.59
287.559	80.04
288.026	83.29
288.494	78.89
288.962	84.04
289.429	82.14
289.897	84.24
290.364	77.04
290.832	83.94
291.3	86.44
291.767	86.29
292.234	89.99
292.702	88.44
293.169	89.64
293.637	91.69
294.104	91.14
294.571	94.84
295.039	95.24
295.506	90.99
295.973	97.79
296.44	87.39
296.908	102.44
297.375	94.89
297.842	101.34
298.309	95.34
298.776	99.44
299.243	102.24
299.71	103.59
300.177	102.09
300.644	94.39
301.111	105.74
301.578	106.29
302.045	104.24
302.512	105.69
302.979	114.89
303.446	114.59
303.913	112.09
304.379	115.09
304.846	117.24
305.313	125.49
305.78	124.14
306.246	122.49
306.713	123.54
307.18	125.09
307.646	126.89
308.113	126.04
308.579	135.64
309.046	131.74
309.512	134.39
309.979	135.94
310.445	134.64
310.912	137.44
311.378	142.54
311.845	143.54
312.311	139.29
312.777	142.34
313.244	145.14
313.71	144.69
314.176	146.84
314.642	152.14
315.109	148.04
315.575	144.34
316.041	150.24
316.507	147.14
316.973	157.04
317.439	156.09
317.905	158.29
318.371	159.59
318.837	157.19
319.303	162.04
319.769	159.39
320.235	162.59
320.701	165.04
321.167	162.24
321.633	163.64
322.099	162.79
322.564	167.84
323.03	168.49
323.496	164.99
323.962	169.69
324.427	178.59
324.893	174.59
325.359	177.49
325.824	180.69
326.29	183.54
326.755	176.59
327.221	185.24
327.686	191.99
328.152	193.79
328.617	197.14
329.083	193.29
329.548	200.79
330.014	202.24
330.479	198.24
330.944	200.39
331.41	209.84
331.875	195.79
332.34	196.94
332.805	204.59
333.271	205.74
333.736	208.04
334.201	207.39
334.666	223.89
335.131	223.04
335.596	221.59
336.061	218.34
336.526	215.59
336.991	219.54
337.456	209.94
337.921	206.39
338.386	214.64
338.851	210.89
339.316	210.69
339.781	210.59
340.246	220.19
340.711	224.09
341.175	226.19
341.64	231.04
342.105	229.74
342.569	237.99
343.034	237.89
343.499	237.89
343.963	248.99
344.428	249.99
344.893	250.19
345.357	255.94
345.822	256.19
346.286	258.64
346.751	261.44
347.215	265.19
347.679	267.64
348.144	285.54
348.608	285.29
349.073	289.89
349.537	298.99
350.001	295.34
350.465	298.99
350.93	299.69
351.394	303.14
351.858	299.04
352.322	307.39
352.786	308.19
353.25	308.39
353.715	313.54
354.179	325.54
354.643	333.89
355.107	342.04
355.571	332.84
356.035	333.74
356.498	326.59
356.962	325.99
357.426	325.69
357.89	332.19
358.354	324.59
358.818	320.04
359.281	322.74
359.745	324.24
360.209	329.19
360.673	325.99
361.136	327.79
361.6	333.29
362.064	338.84
362.527	345.79
362.991	343.54
363.454	343.94
363.918	353.24
364.381	342.59
364.845	350.09
365.308	347.84
365.772	353.59
366.235	356.84
366.698	359.69
367.162	348.69
367.625	360.99
368.088	368.89
368.552	361.04
369.015	363.24
369.478	370.39
369.941	371.99
370.404	375.19
370.867	367.99
371.331	376.79
371.794	385.59
372.257	384.74
372.72	383.69
373.183	392.34
373.646	390.94
374.109	385.59
374.572	385.39
375.035	393.19
375.497	398.34
375.96	400.84
376.423	413.49
376.886	413.59
377.349	414.54
377.811	418.99
378.274	425.09
378.737	415.84
379.199	420.39
379.662	428.69
380.125	433.79
380.587	442.44
381.05	439.94
381.512	448.59
381.975	460.99
382.437	465.29
382.9	463.59
383.362	464.04
383.825	463.39
384.287	470.34
384.75	467.79
385.212	470.69
385.674	478.94
386.136	484.29
386.599	478.09
387.061	480.14
387.523	480.39
387.985	486.39
388.447	491.79
388.91	494.49
389.372	493.49
389.834	496.44
390.296	487.64
390.758	493.59
391.22	493.34
391.682	499.89
392.144	497.04
392.606	503.09
393.068	508.69
393.529	542.09
393.991	543.54
394.453	530.89
394.915	507.69
395.377	501.59
395.838	510.34
396.3	510.59
396.762	520.89
397.224	516.14
397.685	513.74
398.147	519.59
398.608	526.79
399.07	534.59
399.531	530.74
399.993	547.94
400.454	550.59
400.916	545.79
401.377	563.14
401.839	569.64
402.3	570.24
402.762	597.14
403.223	634.79
403.684	632.44
404.145	607.59
404.607	599.69
405.068	586.69
405.529	601.19
405.99	613.19
406.451	622.59
406.913	604.14
407.374	609.49
407.835	609.19
408.296	623.24
408.757	625.54
409.218	644.79
409.679	644.24
410.14	655.64
410.601	666.64
411.062	666.89
411.522	673.84
411.983	672.59
412.444	676.79
412.905	691.69
413.366	709.09
413.826	744.19
414.287	832.49
414.748	993.84
415.208	1008.74
415.669	849.49
416.13	772.34
416.59	757.44
417.051	782.19
417.511	818.99
417.972	878.69
418.432	934.89
418.893	1035.94
419.353	1004.34
419.814	774.14
420.274	694.44
420.734	689.29
421.195	704.89
421.655	704.19
422.115	718.54
422.576	709.49
423.036	719.74
423.496	742.49
423.956	776.69
424.416	827.94
424.876	926.99
425.336	922.89
425.797	912.09
426.257	899.79
426.717	854.39
427.177	801.69
427.637	801.19
428.097	836.54
428.556	870.54
429.016	929.24
429.476	931.04
429.936	909.59
430.396	916.39
430.856	945.19
431.315	957.09
431.775	1012.89
432.235	1097.39
432.694	1120.49
433.154	1054.84
433.614	1028.04
434.073	991.69
434.533	893.04
434.993	868.89
435.452	874.39
435.912	856.69
436.371	846.99
436.83	834.29
437.29	814.19
437.749	796.69
438.209	785.09
438.668	796.19
439.127	816.64
439.587	796.79
440.046	782.34
440.505	796.99
440.964	803.99
441.424	826.14
441.883	837.04
442.342	790.79
442.801	756.34
443.26	773.99
443.719	765.44
444.178	754.84
444.637	767.24
445.096	778.79
445.555	783.29
446.014	779.84
446.473	773.39
446.932	778.49
447.391	788.94
447.849	801.79
448.308	792.99
448.767	790.99
449.226	806.29
449.685	815.24
450.143	848.74
450.602	847.89
451.061	806.24
451.519	813.54
451.978	797.09
452.436	791.44
452.895	802.64
453.353	798.29
453.812	786.59
454.27	786.94
454.729	785.29
455.187	798.14
455.646	808.44
456.104	805.49
456.562	814.04
457.021	828.64
457.479	789.19
457.937	821.64
458.395	846.39
458.854	830.14
459.312	822.64
459.77	828.24
460.228	840.74
460.686	851.09
461.144	857.94
461.602	842.94
462.06	843.59
462.518	868.44
462.976	866.24
463.434	881.29
463.892	889.04
464.35	904.34
464.808	920.59
465.266	928.94
465.724	937.34
466.181	946.59
466.639	931.94
467.097	971.64
467.555	1007.49
468.012	998.99
468.47	1012.74
468.928	1045.49
469.385	1076.39
469.843	1075.94
470.3	1083.04
470.758	1107.89
471.215	1129.04
471.673	1151.34
472.13	1181.59
472.588	1204.34
473.045	1195.24
473.503	1219.54
473.96	1275.79
474.417	1290.79
474.875	1351.44
475.332	1397.04
475.789	1417.14
476.246	1460.09
476.704	1523.14
477.161	1573.09
477.618	1608.94
478.075	1698.24
478.532	1845.09
478.989	1972.94
479.446	2170.49
479.903	2287.19
480.36	2501.19
480.817	2656.79
481.274	2827.84
481.731	3078.39
482.188	3300.29
482.645	3560.69
483.102	3770.84
483.558	4008.29
484.015	4202.94
484.472	4165.79
484.929	4053.04
485.385	3876.04
485.842	3811.84
486.299	3650.54
486.755	3335.64
487.212	2991.54
487.668	2710.34
488.125	2518.24
488.582	2329.69
489.038	2240.14
489.494	2177.54
489.951	2105.89
490.407	2041.94
490.864	2000.89
491.32	1954.04
491.776	1944.94
492.233	1944.64
492.689	1915.99
493.145	1883.54
493.602	1839.19
494.058	1871.34
494.514	1872.79
494.97	1878.59
495.426	1905.29
495.882	1913.74
496.338	1907.84
496.794	1915.09
497.251	1921.89
497.707	1917.29
498.163	1927.44
498.618	1927.19
499.074	1914.99
499.53	1941.84
499.986	1954.59
500.442	1937.64
500.898	1914.64
501.354	1927.54
501.809	1941.79
502.265	1940.74
502.721	1942.19
503.177	1941.69
503.632	1953.69
504.088	1964.59
504.543	1990.19
504.999	2006.14
505.455	1998.44
505.91	1975.69
506.366	1982.24
506.821	1979.64
507.277	1972.79
507.732	1979.89
508.187	1988.49
508.643	1999.24
509.098	2005.34
509.553	2027.24
510.009	2053.59
510.464	2087.24
510.919	2098.34
511.375	2114.84
511.83	2144.69
512.285	2182.14
512.74	2225.14
513.195	2252.19
513.65	2293.04
514.105	2317.99
514.56	2326.49
515.015	2355.94
515.47	2366.79
515.925	2341.24
516.38	2350.39
516.835	2365.24
517.29	2341.79
517.745	2336.09
518.2	2311.69
518.655	2265.09
519.109	2241.54
519.564	2196.44
520.019	2187.69
520.474	2176.04
520.928	2162.49
521.383	2138.59
521.838	2131.99
522.292	2119.84
522.747	2108.39
523.201	2101.09
523.656	2072.04
524.11	2068.49
524.565	2068.09
525.019	2061.34
525.474	2059.79
525.928	2051.39
526.382	2061.09
526.837	2056.94
527.291	2066.69
527.745	2052.19
528.2	2040.94
528.654	2029.39
529.108	2028.49
529.562	2035.24
530.016	2032.94
530.47	2036.79
530.925	2034.89
531.379	2031.89
531.833	2056.69
532.287	2056.44
532.741	2043.54
533.195	2039.44
533.649	2053.14
534.103	2045.89
534.556	2030.19
535.01	2045.39
535.464	2029.44
535.918	2041.39
536.372	2054.29
536.826	2053.59
537.279	2022.14
537.733	2034.84
538.187	2037.89
538.64	2052.34
539.094	2058.64
539.548	2085.49
540.001	2074.34
540.455	2087.04
540.908	2093.69
541.362	2112.19
541.815	2126.59
542.269	2183.44
542.722	2166.59
543.175	2195.64
543.629	2198.29
544.082	2215.39
544.536	2238.29
544.989	2246.89
545.442	2256.89
545.895	2256.24
546.349	2250.54
546.802	2262.39
547.255	2263.54
547.708	2274.04
548.161	2283.24
548.614	2295.29
549.067	2313.24
549.52	2283.99
549.973	2267.34
550.426	2269.44
550.879	2261.64
551.332	2259.24
551.785	2282.24
552.238	2293.29
552.691	2291.99
553.144	2330.94
553.596	2364.79
554.049	2389.24
554.502	2439.34
554.955	2463.49
555.407	2519.54
555.86	2477.24
556.313	2460.04
556.765	2442.74
557.218	2415.84
557.67	2410.44
558.123	2363.29
558.576	2369.64
559.028	2355.24
559.48	2372.19
559.933	2369.34
560.385	2292.49
560.838	2218.34
561.29	2157.04
561.742	2153.99
562.195	2098.09
562.647	2086.39
563.099	2079.94
563.551	2057.59
564.004	2084.59
564.456	2062.14
564.908	2015.04
565.36	1975.04
565.812	1939.19
566.264	1924.84
566.716	1893.64
567.168	1868.34
567.62	1870.09
568.072	1863.99
568.524	1847.84
568.976	1838.14
569.428	1828.69
569.88	1817.89
570.332	1835.24
570.784	1837.29
571.235	1823.44
571.687	1839.04
572.139	1848.64
572.59	1867.04
573.042	1867.29
573.494	1875.84
573.945	1852.19
574.397	1802.59
574.849	1799.39
575.3	1807.99
575.752	1778.69
576.203	1765.74
576.655	1774.99
577.106	1750.54
577.557	1739.99
578.009	1738.94
578.46	1738.59
578.912	1713.04
579.363	1737.39
579.814	1724.39
580.265	1720.84
580.717	1736.74
581.168	1726.54
581.619	1725.74
582.07	1747.44
582.521	1736.79
582.972	1732.24
583.423	1736.79
583.875	1749.04
584.326	1756.04
584.777	1784.19
585.227	1814.89
585.678	1835.59
586.129	1846.24
586.58	1870.54
587.031	1883.14
587.482	1939.24
587.933	1964.29
588.384	1962.14
588.834	1949.29
589.285	1931.44
589.736	1941.89
590.186	1944.39
590.637	1929.79
591.088	1878.29
591.538	1844.29
591.989	1810.24
592.439	1801.34
592.89	1777.79
593.34	1768.19
593.791	1759.04
594.241	1753.39
594.692	1737.64
595.142	1743.99
595.593	1744.69
596.043	1754.09
596.493	1773.59
596.943	1759.64
597.394	1817.54
597.844	1838.19
598.294	1874.74
598.744	1932.79
599.195	2034.99
599.645	2141.19
600.095	2246.59
600.545	2344.39
600.995	2444.29
601.445	2528.64
601.895	2642.44
602.345	2741.24
602.795	2708.79
603.245	2602.84
603.695	2456.74
604.145	2325.39
604.594	2213.89
605.044	2103.54
605.494	1971.44
605.944	1876.29
606.393	1820.49
606.843	1789.04
607.293	1787.74
607.743	1786.99
608.192	1786.79
608.642	1791.64
609.091	1786.64
609.541	1793.14
609.99	1777.99
610.44	1747.49
610.889	1730.39
611.339	1706.14
611.788	1682.74
612.238	1686.04
612.687	1688.94
613.136	1709.09
613.586	1731.39
614.035	1714.64
614.484	1728.44
614.933	1736.54
615.383	1699.84
615.832	1651.59
616.281	1636.34
616.73	1599.19
617.179	1568.94
617.628	1533.89
618.077	1509.79
618.526	1492.94
618.975	1478.84
619.424	1451.14
619.873	1451.29
620.322	1445.34
620.771	1443.64
621.22	1415.09
621.669	1392.84
622.118	1373.94
622.567	1360.04
623.015	1343.14
623.464	1348.44
623.913	1324.59
624.361	1322.59
624.81	1317.14
625.259	1327.59
625.707	1320.29
626.156	1325.39
626.604	1340.79
627.053	1338.09
627.501	1336.74
627.95	1344.49
628.398	1371.59
628.847	1350.49
629.295	1350.84
629.744	1327.39
630.192	1324.59
630.64	1298.19
631.089	1277.69
631.537	1239.69
631.985	1228.39
632.433	1230.04
632.881	1227.74
633.33	1230.24
633.778	1227.54
634.226	1235.14
634.674	1250.79
635.122	1252.09
635.57	1277.79
636.018	1290.94
636.466	1291.64
636.914	1288.59
637.362	1321.44
637.81	1340.99
638.258	1379.74
638.705	1392.39
639.153	1435.69
639.601	1456.44
640.049	1477.19
640.497	1522.94
640.944	1551.49
641.392	1500.64
641.84	1425.54
642.287	1359.94
642.735	1330.84
643.182	1307.59
643.63	1320.89
644.078	1323.74
644.525	1348.44
644.973	1385.89
645.42	1410.04
645.867	1444.69
646.315	1477.39
646.762	1535.19
647.21	1578.19
647.657	1657.34
648.104	1741.89
648.551	1782.74
648.999	1923.89
649.446	2105.74
649.893	2357.94
650.34	2768.74
650.787	3414.14
651.234	4395.09
651.682	6064.59
652.129	8564.84
652.576	12147.19
653.023	15510.04
653.47	15536.79
653.917	15536.84
654.363	15536.74
654.81	15533.74
655.257	15534.39
655.704	15479.54
656.151	9549.99
656.598	6249.54
657.044	4465.44
657.491	3485.04
657.938	2823.64
658.385	2385.89
658.831	2100.89
659.278	1879.09
659.724	1721.14
660.171	1602.89
660.618	1491.64
661.064	1407.69
661.511	1354.99
661.957	1308.74
662.404	1273.44
662.85	1263.29
663.296	1251.44
663.743	1225.34
664.189	1205.89
664.635	1189.64
665.082	1170.84
665.528	1143.19
665.974	1114.34
666.42	1098.19
666.867	1085.19
667.313	1032.79
667.759	1025.44
668.205	1015.59
668.651	1020.04
669.097	1021.84
669.543	1020.49
669.989	1041.64
670.435	1032.24
670.881	1050.34
671.327	1092.69
671.773	1161.29
672.219	1235.99
672.665	1317.79
673.11	1369.09
673.556	1381.49
674.002	1404.74
674.448	1429.09
674.893	1218.79
675.339	1062.99
675.785	982.84
676.23	939.29
676.676	899.54
677.122	877.94
677.567	850.14
678.013	825.84
678.458	822.79
678.904	811.64
679.349	806.74
679.794	806.94
680.24	796.24
680.685	792.04
681.131	797.44
681.576	801.54
682.021	800.64
682.466	812.89
682.912	812.54
683.357	849.79
683.802	930.84
684.247	1007.09
684.692	1066.94
685.137	1118.39
685.583	1138.09
686.028	1200.59
686.473	1143.99
686.918	981.69
687.363	910.84
687.807	862.59
688.252	818.39
688.697	796.74
689.142	769.64
689.587	776.24
690.032	788.69
690.477	813.39
690.921	854.79
691.366	894.14
691.811	937.49
692.255	1013.34
692.7	1225.84
693.145	1757.09
693.589	2667.34
694.034	3180.79
694.478	3399.49
694.923	3128.49
695.367	4427.64
695.812	2717.84
696.256	1153.14
696.701	845.14
697.145	777.54
697.59	755.69
698.034	736.24
698.478	734.84
698.922	739.14
699.367	758.54
699.811	793.84
700.255	853.94
700.699	935.04
701.143	1020.04
701.588	1072.59
702.032	1120.84
702.476	1159.34
702.92	1236.94
703.364	1604.84
703.808	2437.24
704.252	3049.39
704.696	3243.69
705.14	3063.74
705.584	4193.69
706.027	2341.69
706.471	1180.19
706.915	885.29
707.359	787.09
707.803	736.44
708.246	708.24
708.69	709.44
709.134	696.49
709.577	692.09
710.021	696.19
710.465	692.99
710.908	690.29
711.352	723.04
711.795	790.64
712.239	853.54
712.682	877.24
713.126	861.04
713.569	954.39
714.012	785.24
714.456	683.94
714.899	648.89
715.342	623.79
715.786	604.14
716.229	585.24
716.672	569.64
717.115	572.99
717.558	571.79
718.002	587.24
718.445	611.29
718.888	647.64
719.331	663.24
719.774	674.79
720.217	664.64
720.66	624.99
721.103	593.59
721.546	565.59
721.989	552.14
722.432	541.24
722.874	538.29
723.317	542.24
723.76	593.29
724.203	723.69
724.645	964.74
725.088	1127.14
725.531	1114.84
725.974	1215.19
726.416	1099.14
726.859	679.19
727.301	562.84
727.744	534.89
728.187	534.94
728.629	547.79
729.071	571.89
729.514	599.34
729.956	616.39
730.399	639.59
730.841	633.34
731.283	617.79
731.726	613.39
732.168	611.94
732.61	649.04
733.053	696.29
733.495	768.14
733.937	853.24
734.379	992.54
734.821	1270.19
735.263	2017.34
735.705	3619.84
736.148	5306.94
736.59	5353.89
737.032	5769.39
737.474	4800.64
737.916	1849.94
738.357	978.09
738.799	748.09
739.241	694.74
739.683	699.14
740.125	724.64
740.567	727.44
741.008	776.74
741.45	818.64
741.892	863.24
742.334	861.29
742.775	862.84
743.217	830.34
743.658	696.79
744.1	716.24
744.542	835.39
744.983	870.64
745.425	898.34
745.866	872.29
746.307	719.89
746.749	760.69
747.19	1093.14
747.632	2124.79
748.073	3935.04
748.514	5475.19
748.956	7262.14
749.397	8517.04
749.838	5882.74
750.279	5624.74
750.72	2914.94
751.162	1239.09
751.603	714.09
752.044	567.04
752.485	505.64
752.926	473.49
753.367	455.99
753.808	443.69
754.249	441.64
754.69	432.29
755.131	419.39
755.572	422.64
756.013	426.29
756.453	425.89
756.894	436.74
757.335	438.99
757.776	442.14
758.216	455.54
758.657	488.44
759.098	534.04
759.538	642.94
759.979	925.94
760.42	1868.84
760.86	4768.54
761.301	9869.44
761.741	11685.04
762.182	13409.09
762.622	8706.69
763.063	3109.34
763.503	1273.39
763.943	739.64
764.384	591.99
764.824	510.99
765.264	472.39
765.705	445.19
766.145	430.79
766.585	409.09
767.025	398.09
767.465	400.74
767.906	402.19
768.346	435.14
768.786	494.74
769.226	732.19
769.666	1469.24
770.106	3271.69
770.546	4689.59
770.986	5308.74
771.426	4028.64
771.866	1678.24
772.306	762.94
772.745	467.44
773.185	402.04
773.625	389.74
774.065	422.59
774.505	607.59
774.944	1103.29
775.384	1581.44
775.824	1792.24
776.263	1492.09
776.703	781.14
777.142	450.99
777.582	333.29
778.021	296.24
778.461	292.09
778.9	287.29
779.34	277.44
779.779	270.69
780.219	267.39
780.658	258.84
781.097	258.14
781.537	245.14
781.976	249.69
782.415	244.04
782.855	246.49
783.294	246.59
783.733	238.49
784.172	244.94
784.611	247.04
785.05	250.44
785.489	258.39
785.928	266.54
786.367	273.29
786.806	291.99
787.245	310.64
787.684	317.09
788.123	318.89
788.562	307.39
789.001	297.24
789.44	289.34
789.879	285.34
790.317	294.09
790.756	314.54
791.195	353.24
791.634	475.09
792.072	850.24
792.511	2068.14
792.95	3842.94
793.388	4659.04
793.827	3030.14
794.265	1389.79
794.704	672.94
795.142	411.74
795.581	338.49
796.019	308.54
796.458	308.19
796.896	314.24
797.334	361.99
797.773	491.84
798.211	925.69
798.649	1922.04
799.087	3229.24
799.526	4581.59
799.964	4718.54
800.402	3271.19
800.84	1475.84
801.278	728.24
801.716	442.29
802.154	353.29
802.592	338.49
803.03	335.74
803.468	346.89
803.906	344.49
804.344	340.84
804.782	338.59
805.22	336.84
805.658	349.04
806.096	368.14
806.533	412.69
806.971	524.04
807.409	763.89
807.847	1513.99
808.284	3845.09
808.722	6800.14
809.16	9517.29
809.597	12866.19
810.035	15474.69
810.472	10510.09
810.91	4456.49
811.347	1996.99
811.785	942.99
812.222	594.94
812.66	454.29
813.097	387.19
813.535	342.29
813.972	304.54
814.409	282.34
814.846	268.69
815.284	255.34
815.721	266.39
816.158	292.34
816.595	399.19
817.032	511.64
817.47	462.39
817.907	331.64
818.344	291.74
818.781	287.84
819.218	353.84
819.655	544.99
820.092	717.84
820.529	638.79
820.966	507.29
821.403	340.14
821.839	296.64
822.276	327.09
822.713	392.74
823.15	362.19
823.587	366.64
824.023	638.69
824.46	1572.59
824.897	2764.59
825.333	2167.14
825.77	995.34
826.206	522.74
826.643	312.99
827.08	228.69
827.516	201.69
827.953	192.79
828.389	178.69
828.825	167.39
829.262	162.64
829.698	160.29
830.135	152.04
830.571	150.34
831.007	153.59
831.443	153.74
831.88	156.99
832.316	159.19
832.752	157.89
833.188	161.59
833.624	163.99
834.06	162.89
834.497	163.99
834.933	169.84
835.369	183.84
835.805	193.44
836.241	198.74
836.677	215.19
837.112	253.54
837.548	311.69
837.984	473.19
838.42	1002.54
838.856	2771.84
839.292	5482.44
839.727	4121.59
840.163	2739.94
840.599	4158.24
841.034	6394.79
841.47	3219.79
841.906	1557.19
842.341	840.99
842.777	627.29
843.212	646.89
843.648	408.09
844.083	271.09
844.519	201.09
844.954	172.14
845.39	154.09
845.825	145.84
846.261	139.34
846.696	137.19
847.131	136.19
847.566	133.54
848.002	136.34
848.437	146.59
848.872	152.24
849.307	187.79
849.742	355.89
850.177	909.19
850.613	1921.54
851.048	1394.29
851.483	646.19
851.918	362.79
852.353	198.64
852.788	137.34
853.223	126.99
853.657	121.04
854.092	113.84
854.527	114.54
854.962	119.49
855.397	135.09
855.832	113.44
856.266	102.99
856.701	102.94
857.136	111.09
857.57	129.44
858.005	158.59
858.44	135.74
858.874	122.54
859.309	129.99
859.743	125.34
860.178	122.09
860.612	135.39
861.047	186.14
861.481	261.39
861.915	181.24
862.35	133.84
862.784	103.14
863.218	96.49
863.653	107.79
864.087	132.89
864.521	162.59
864.955	261.59
865.39	456.64
865.824	362.64
866.258	475.89
866.692	729.79
867.126	522.54
867.56	285.14
867.994	178.69
868.428	152.94
868.862	189.99
869.296	173.89
869.73	213.14
870.164	180.14
870.598	165.34
871.031	110.64
871.465	101.89
871.899	85.09
872.333	69.24
872.766	75.34
873.2	72.84
873.634	68.94
874.067	74.09
874.501	75.34
874.935	75.04
875.368	74.64
875.802	64.39
876.235	67.54
876.669	62.59
877.102	58.44
877.535	64.39
877.969	57.74
878.402	60.39
878.836	60.39
879.269	57.74
879.702	56.24
880.135	58.44
880.569	66.24
881.002	60.24
881.435	57.69
881.868	57.14
882.301	52.64
882.734	51.34
883.167	52.29
883.601	52.34
884.034	50.54
884.467	49.49
884.899	56.39
885.332	45.84
885.765	49.89
886.198	43.84
886.631	53.19
887.064	47.69
887.497	46.79
887.929	46.19
888.362	43.29
888.795	46.09
889.228	50.14
889.66	46.84
890.093	44.74
890.526	46.19
890.958	43.69
891.391	44.74
891.823	45.04
892.256	47.39
892.688	47.39
893.121	42.49
893.553	50.59
893.985	43.69
894.418	41.54
894.85	46.99
895.282	42.89
895.715	41.14
896.147	40.34
896.579	38.89
897.011	40.84
897.444	44.99
897.876	35.74
898.308	37.59
898.74	43.04
899.172	42.89
899.604	43.69
900.036	40.14
900.468	40.39
900.9	44.99
901.332	60.64
901.764	63.89
902.196	55.34
902.628	57.74
903.06	87.64
903.491	96.64
903.923	79.69
904.355	76.59
904.787	76.84
905.218	62.79
905.65	55.84
906.082	56.49
906.513	48.59
906.945	50.24
907.376	51.54
907.808	49.79
908.239	57.09
908.671	59.74
909.102	67.04
909.534	90.09
909.965	174.74
910.397	457.34
910.828	1295.34
911.259	803.59
911.691	425.79
912.122	247.74
912.553	129.24
912.984	72.59
913.415	62.79
913.847	55.09
914.278	48.34
914.709	44.14
915.14	44.89
915.571	47.79
916.002	45.04
916.433	39.24
916.864	41.69
917.295	50.44
917.726	50.44
918.157	59.99
918.587	65.49
919.018	64.19
919.449	59.04
919.88	65.44
920.311	97.94
920.741	271.04
921.172	482.99
921.603	241.84
922.033	150.99
922.464	98.29
922.895	62.24
923.325	42.69
923.756	40.49
924.186	53.69
924.617	81.49
925.047	111.69
925.478	97.54
925.908	71.84
926.338	57.54
926.769	44.44
927.199	44.64
927.629	39.44
928.06	43.84
928.49	38.99
928.92	40.09
929.35	32.69
929.78	27.49
930.21	24.34
930.641	20.44
931.071	24.54
931.501	23.34
931.931	19.64
932.361	26.24
932.791	28.94
933.221	28.94
933.651	40.04
934.08	63.74
934.51	39.94
934.94	29.69
935.37	28.94
935.8	19.89
936.229	21.04
936.659	17.89
937.089	33.49
937.519	65.54
937.948	81.64
938.378	51.64
938.807	31.29
939.237	20.89
939.666	17.44
940.096	15.74
940.525	8.09
940.955	16.39
941.384	10.79
941.814	9.04
942.243	9.74
942.672	11.34
943.102	11.94
943.531	6.39
943.96	10.79
944.39	10.89
944.819	11.04
945.248	10.64
945.677	8.74
946.106	14.79
946.535	14.04
946.964	9.39
947.393	8.59
947.822	9.99
948.251	10.64
948.68	10.89
949.109	11.19
949.538	12.69
949.967	11.29
950.396	12.59
950.825	14.19
951.254	12.54
951.682	5.14
952.111	2.69
952.54	8.44
952.969	11.04
953.397	1.64
953.826	10.14
954.254	11.89
954.683	9.24
955.112	9.24
955.54	10.34
955.969	7.84
956.397	9.84
956.826	8.59
957.254	5.74
957.682	13.04
958.111	9.94
958.539	11.79
958.967	10.39
959.396	14.54
959.824	5.89
960.252	11.69
960.68	12.69
961.109	8.79
961.537	11.14
961.965	2.64
962.393	5.19
962.821	8.49
963.249	6.99
963.677	17.34
964.105	80.64
964.533	140.44
964.961	68.19
965.389	38.99
965.817	23.29
966.245	10.79
966.672	8.84
967.1	10.44
967.528	7.94
967.956	3.34
968.383	7.84
968.811	6.49
969.239	9.44
969.666	8.14
970.094	4.59
970.522	5.24
970.949	3.99
971.377	0.19
971.804	2.89
972.232	3.59
972.659	5.34
973.087	8.89
973.514	1.39
973.941	4.24
974.369	-0.26
974.796	3.19
975.223	3.34
975.651	7.64
976.078	5.29
976.505	12.34
976.932	32.84
977.359	41.09
977.786	28.69
978.214	16.74
978.641	5.24
979.068	9.14
979.495	3.74
979.922	8.24
980.349	7.59
980.776	3.49
981.202	8.09
981.629	6.54
982.056	5.44
982.483	-3.51
982.91	8.99
983.337	-0.86
983.763	2.39
984.19	4.69
984.617	5.79
985.043	8.69
985.47	6.24
985.897	12.09
986.323	10.84
986.75	4.99
987.176	2.79
987.603	6.04
988.029	4.69
988.456	8.94
988.882	1.99
989.308	0.64
989.735	1.84
990.161	1.49
990.587	5.54
991.014	2.14
991.44	5.64
991.866	5.44
992.292	5.29
992.719	4.34
993.145	3.94
993.571	6.04
993.997	4.59
994.423	4.44
994.849	-4.86
995.275	7.34
995.701	5.34
996.127	-3.71
996.553	-0.01
996.979	-2.86
997.405	4.34
997.83	2.79
998.256	6.44
998.682	0.19
999.108	3.69
999.534	-3.81
999.959	-0.71
1000.385	6.89
1000.811	-6.81
1001.236	0.79
1001.662	-2.46
1002.087	5.79
1002.513	4.39
1002.938	-0.46
1003.364	6.24
1003.789	5.74
1004.215	5.09
1004.64	0.49
1005.066	6.39
1005.491	3.99
1005.916	4.94
1006.342	3.49
1006.767	2.94
1007.192	6.79
1007.617	4.44
1008.042	1.24
1008.468	4.24
1008.893	8.19
1009.318	12.49
1009.743	20.19
1010.168	29.89
1010.593	25.29
1011.018	17.94
1011.443	10.64
1011.868	9.54
1012.293	0.29
1012.718	2.74
1013.143	6.94
1013.567	7.69
1013.992	7.29
1014.417	4.89
1014.842	0.39
1015.267	0.14
1015.691	7.69
1016.116	0.49
1016.541	3.59
1016.965	1.09
1017.39	5.44
1017.814	-3.76
1018.239	-2.21
1018.663	-4.41
1019.088	-0.06
1019.512	6.24
1019.937	0.54
1020.361	1.79
1020.785	0.84
1021.21	1.09
1021.634	4.14
1022.058	2.04
1022.483	-3.46
1022.907	-1.31
1023.331	-1.26
1023.755	0.04
1024.179	3.29
1024.604	1.44
1025.028	-0.16
1025.452	3.29
1025.876	0.99
1026.3	0.69
1026.724	-4.46
1027.148	2.59
1027.572	2.44
1027.996	1.94
1028.42	3.19
1028.843	0.54
1029.267	0.24
1029.691	2.69
1030.115	-2.56
1030.539	-0.56
1030.962	-0.51
1031.386	-2.66
1031.81	2.04
1032.233	-0.36
1032.657	-5.76
1033.08	-1.11
1033.504	-2.26
1033.927	-0.66
1034.351	2.09
1034.774	-2.71
1035.198	-3.76
1035.621	2.04
1036.045	-0.36
1036.468	6.39
1036.891	4.24
1037.315	1.39
1037.738	-2.06
1038.161	1.09
1038.584	-0.71
1039.008	-1.36
1039.431	2.94
1039.854	-4.91
1040.277	1.64
1040.7	-0.11
1041.123	-0.61
1041.546	-0.01
1041.969	5.19
1042.392	6.19
1042.815	-7.26
1043.238	-0.06
1043.661	1.69
1044.084	-1.91
1044.507	-0.51
1044.93	-0.41
1045.352	4.49
1045.775	4.09
1046.198	3.44
1046.621	-0.16
1047.043	0.29
1047.466	1.64
1047.889	-6.26
1048.311	8.44
1048.734	-2.21
1049.156	3.69
1049.579	-1.66
1050.001	-1.46
1050.424	-1.56
1050.846	-3.66
1051.269	-3.91
1051.691	0.49
1052.113	-0.11
1052.536	1.24
1052.958	-5.91
1053.38	0.49
1053.802	2.24
1054.225	-0.91
1054.647	2.54
1055.069	-0.16
1055.491	1.74
1055.913	5.04
1056.335	-4.56
1056.757	-5.11
1057.179	0.59
1057.601	2.74
1058.023	2.29
1058.445	0.49
1058.867	4.29
1059.289	-0.61
1059.711	-1.26
1060.133	-0.16
1060.555	-2.76
1060.976	2.24
1061.398	2.59
1061.82	-2.36
1062.241	-3.36
1062.663	-1.86
1063.085	-2.91
1063.506	-3.21
1063.928	-2.46
1064.35	3.34
1064.771	-0.51
1065.193	-3.36
1065.614	-1.51
1066.035	4.59
1066.457	0.89
1066.878	0.84
1067.3	0.24
1067.721	2.34
1068.142	-0.31
1068.564	4.74
1068.985	-1.36
1069.406	-4.06
1069.827	0.29
1070.248	0.49
1070.67	-8.86
1071.091	-2.26
1071.512	-5.26
1071.933	-4.06
1072.354	-5.91
1072.775	-5.46
1073.196	-0.51
1073.617	-3.51
1074.038	1.24
1074.459	-5.51
1074.88	-5.36
1075.3	0.59
1075.721	0.04
1076.142	-2.21
1076.563	-3.96
1076.983	0.34
1077.404	-5.46
1077.825	-2.16
1078.246	-3.16
1078.666	0.34
1079.087	-0.01
1079.507	-0.71
1079.928	-0.76
1080.348	-0.66
1080.769	0.94
1081.189	1.39
1081.61	-4.26
1082.03	-1.56
1082.451	-0.91
1082.871	-5.86
1083.291	-1.66
1083.711	-1.31
1084.132	-0.91
1084.552	-3.81
1084.972	-5.16
1085.392	-3.76
1085.813	1.14
1086.233	-3.71
1086.653	1.04
1087.073	0.24
1087.493	-5.66
1087.913	-1.06
1088.333	-2.71
1088.753	0.79
1089.173	2.74
1089.593	-1.66
1090.013	-4.81
1090.433	-5.66
1090.852	3.79
1091.272	-6.01
1091.692	-3.01
1092.112	-1.26
1092.531	-4.26
1092.951	3.89
1093.371	-2.91
1093.79	-3.21
1094.21	-5.96
1094.63	-2.11
1095.049	-0.96
1095.469	-3.36
1095.888	0.24
1096.308	-0.51
1096.727	-2.76
1097.146	-7.61
1097.566	-2.01
1097.985	-1.06
1098.405	2.54
1098.824	3.19
1099.243	-3.96
1099.662	-3.11
1100.082	-2.31
1100.501	0.64
1100.92	2.04
1101.339	1.14
1101.758	5.44
