Data from MSPlasma+Separation6_Subt14_10-13-53-735.txt Node
Date: Fri Jul 21 10:13:53 EDT 2017
User: Ender
Spectrometer: HR+D1039
Trigger mode: 0
Integration Time (sec): 6.430000E-3
Scans to average: 20
Electric dark correction enabled: true
Nonlinearity correction enabled: false
Boxcar width: 0
XAxis mode: Wavelengths
Number of Pixels in Spectrum: 2048
>>>>>Begin Spectral Data<<<<<
187.836	-0.29
188.309	-0.29
188.782	-0.29
189.255	1.76
189.728	3.76
190.201	1.86
190.674	-0.49
191.147	0.21
191.619	-0.39
192.092	0.71
192.565	-2.14
193.038	4.41
193.511	4.01
193.984	-0.39
194.456	-5.04
194.929	-4.74
195.402	-3.49
195.874	0.31
196.347	-1.24
196.82	-1.74
197.292	-0.94
197.765	1.36
198.237	-4.39
198.71	-5.84
199.182	-2.89
199.655	3.81
200.127	-1.34
200.6	-0.64
201.072	4.31
201.544	-5.24
202.017	-0.44
202.489	1.41
202.961	0.26
203.433	-2.39
203.906	-3.94
204.378	2.11
204.85	-0.19
205.322	1.76
205.794	6.41
206.266	-3.14
206.739	4.41
207.211	-1.89
207.683	-1.54
208.155	1.66
208.627	2.06
209.099	4.06
209.57	3.36
210.042	2.91
210.514	-0.84
210.986	1.81
211.458	-2.04
211.93	-0.39
212.402	-3.34
212.873	-2.94
213.345	-4.09
213.817	1.46
214.288	-3.09
214.76	1.81
215.232	-0.89
215.703	-3.44
216.175	2.51
216.646	4.96
217.118	4.41
217.589	2.81
218.061	4.81
218.532	0.96
219.004	6.11
219.475	2.51
219.946	1.86
220.418	5.71
220.889	4.16
221.36	8.31
221.832	4.71
222.303	6.81
222.774	4.61
223.245	0.91
223.717	0.46
224.188	3.41
224.659	4.71
225.13	-0.89
225.601	3.31
226.072	5.76
226.543	8.46
227.014	6.91
227.485	7.36
227.956	6.66
228.427	13.71
228.898	6.36
229.369	6.66
229.839	6.66
230.31	10.96
230.781	10.66
231.252	8.11
231.722	11.96
232.193	10.81
232.664	9.31
233.135	9.21
233.605	10.46
234.076	15.91
234.546	8.71
235.017	10.56
235.487	13.96
235.958	11.16
236.428	19.01
236.899	11.71
237.369	19.16
237.84	13.56
238.31	17.81
238.78	8.56
239.251	15.36
239.721	10.36
240.191	14.56
240.662	17.81
241.132	15.61
241.602	21.31
242.072	19.51
242.542	12.96
243.013	17.06
243.483	25.56
243.953	17.11
244.423	21.01
244.893	17.91
245.363	26.06
245.833	20.11
246.303	21.66
246.773	24.56
247.243	23.86
247.712	24.46
248.182	25.06
248.652	28.56
249.122	25.86
249.592	24.36
250.061	26.06
250.531	24.01
251.001	29.51
251.471	27.36
251.94	26.16
252.41	26.86
252.879	31.21
253.349	38.81
253.818	29.66
254.288	33.51
254.757	35.56
255.227	34.46
255.696	33.71
256.166	36.51
256.635	38.51
257.105	35.76
257.574	33.51
258.043	30.01
258.513	40.36
258.982	37.71
259.451	41.71
259.92	33.56
260.389	45.46
260.859	39.61
261.328	45.71
261.797	39.96
262.266	44.01
262.735	45.26
263.204	38.01
263.673	45.11
264.142	39.86
264.611	41.26
265.08	40.06
265.549	39.31
266.018	47.01
266.487	48.81
266.955	42.66
267.424	50.61
267.893	54.36
268.362	55.71
268.83	49.76
269.299	49.16
269.768	52.56
270.236	59.91
270.705	57.76
271.174	54.21
271.642	51.91
272.111	55.51
272.579	56.81
273.048	54.76
273.516	58.71
273.985	61.86
274.453	54.41
274.922	62.21
275.39	58.46
275.858	65.06
276.327	61.36
276.795	60.96
277.263	66.01
277.731	65.16
278.2	64.26
278.668	65.16
279.136	71.36
279.604	66.46
280.072	66.96
280.54	65.96
281.008	73.16
281.477	71.46
281.945	71.76
282.413	68.41
282.881	70.86
283.348	74.21
283.816	75.76
284.284	71.11
284.752	76.36
285.22	79.76
285.688	81.61
286.156	74.66
286.623	78.51
287.091	82.86
287.559	86.71
288.026	84.96
288.494	85.71
288.962	87.46
289.429	83.86
289.897	87.21
290.364	84.31
290.832	89.16
291.3	87.91
291.767	92.11
292.234	93.36
292.702	87.46
293.169	92.06
293.637	96.61
294.104	95.66
294.571	95.51
295.039	99.21
295.506	87.51
295.973	93.46
296.44	95.56
296.908	101.56
297.375	101.86
297.842	97.71
298.309	97.86
298.776	97.91
299.243	104.41
299.71	107.11
300.177	101.66
300.644	105.31
301.111	105.81
301.578	106.61
302.045	106.31
302.512	110.51
302.979	109.81
303.446	118.01
303.913	115.36
304.379	115.16
304.846	120.31
305.313	130.71
305.78	128.41
306.246	128.16
306.713	127.36
307.18	132.26
307.646	128.91
308.113	130.56
308.579	137.16
309.046	144.21
309.512	135.91
309.979	135.46
310.445	139.96
310.912	144.51
311.378	150.46
311.845	148.86
312.311	145.76
312.777	147.31
313.244	150.91
313.71	149.36
314.176	158.21
314.642	157.01
315.109	156.96
315.575	149.76
316.041	154.76
316.507	156.26
316.973	163.21
317.439	166.31
317.905	166.46
318.371	166.41
318.837	163.61
319.303	169.51
319.769	163.56
320.235	168.41
320.701	169.81
321.167	170.71
321.633	169.06
322.099	167.41
322.564	168.21
323.03	176.36
323.496	171.31
323.962	181.46
324.427	180.56
324.893	176.96
325.359	192.16
325.824	188.66
326.29	190.86
326.755	186.76
327.221	191.81
327.686	200.76
328.152	201.76
328.617	203.11
329.083	208.96
329.548	209.31
330.014	210.21
330.479	210.91
330.944	207.36
331.41	212.91
331.875	205.46
332.34	204.76
332.805	214.36
333.271	212.76
333.736	214.06
334.201	217.71
334.666	228.16
335.131	232.46
335.596	234.31
336.061	222.16
336.526	227.56
336.991	220.31
337.456	215.66
337.921	218.11
338.386	223.56
338.851	222.31
339.316	221.66
339.781	219.26
340.246	228.96
340.711	233.46
341.175	237.71
341.64	240.96
342.105	244.41
342.569	253.41
343.034	247.26
343.499	249.66
343.963	254.06
344.428	256.41
344.893	253.76
345.357	266.71
345.822	261.61
346.286	276.91
346.751	274.36
347.215	279.66
347.679	287.11
348.144	300.01
348.608	298.96
349.073	305.06
349.537	307.71
350.001	316.21
350.465	317.81
350.93	312.71
351.394	317.56
351.858	318.26
352.322	321.66
352.786	324.31
353.25	330.86
353.715	331.26
354.179	345.31
354.643	353.56
355.107	361.81
355.571	349.71
356.035	348.91
356.498	342.96
356.962	346.66
357.426	343.11
357.89	348.46
358.354	335.56
358.818	335.71
359.281	337.51
359.745	342.51
360.209	345.16
360.673	343.51
361.136	337.26
361.6	339.76
362.064	353.66
362.527	355.51
362.991	361.16
363.454	353.31
363.918	364.16
364.381	367.81
364.845	370.01
365.308	370.46
365.772	376.41
366.235	373.61
366.698	370.76
367.162	368.81
367.625	378.66
368.088	385.01
368.552	375.11
369.015	380.81
369.478	388.21
369.941	390.16
370.404	395.61
370.867	384.96
371.331	392.66
371.794	400.16
372.257	402.21
372.72	401.36
373.183	407.71
373.646	414.26
374.109	403.56
374.572	417.21
375.035	417.16
375.497	416.46
375.96	418.81
376.423	433.66
376.886	434.66
377.349	447.86
377.811	444.11
378.274	445.76
378.737	439.31
379.199	447.51
379.662	455.31
380.125	452.41
380.587	458.01
381.05	468.31
381.512	470.86
381.975	473.86
382.437	489.26
382.9	484.46
383.362	484.16
383.825	497.41
384.287	497.31
384.75	490.51
385.212	499.56
385.674	505.71
386.136	509.51
386.599	499.16
387.061	503.06
387.523	505.51
387.985	514.51
388.447	517.76
388.91	517.01
389.372	519.56
389.834	523.51
390.296	509.36
390.758	524.76
391.22	514.41
391.682	520.51
392.144	522.76
392.606	521.51
393.068	538.41
393.529	565.26
393.991	572.76
394.453	549.36
394.915	536.36
395.377	523.36
395.838	530.51
396.3	529.31
396.762	539.61
397.224	535.96
397.685	534.36
398.147	546.21
398.608	550.21
399.07	554.86
399.531	557.51
399.993	571.86
400.454	582.21
400.916	579.66
401.377	590.96
401.839	590.46
402.3	599.81
402.762	624.16
403.223	661.31
403.684	655.81
404.145	632.91
404.607	621.31
405.068	613.11
405.529	619.91
405.99	631.96
406.451	641.16
406.913	634.21
407.374	640.11
407.835	638.11
408.296	654.56
408.757	650.26
409.218	675.91
409.679	674.46
410.14	679.86
410.601	696.96
411.062	698.11
411.522	703.66
411.983	705.36
412.444	718.21
412.905	730.41
413.366	754.11
413.826	783.81
414.287	879.31
414.748	1050.76
415.208	1067.76
415.669	894.36
416.13	818.91
416.59	791.31
417.051	811.31
417.511	861.01
417.972	921.66
418.432	991.41
418.893	1098.36
419.353	1058.41
419.814	812.01
420.274	730.51
420.734	723.86
421.195	748.21
421.655	742.01
422.115	759.66
422.576	751.46
423.036	751.06
423.496	785.06
423.956	814.61
424.416	865.21
424.876	972.91
425.336	972.01
425.797	945.61
426.257	939.06
426.717	884.41
427.177	830.81
427.637	835.51
428.097	869.91
428.556	900.31
429.016	963.46
429.476	962.06
429.936	939.56
430.396	937.81
430.856	963.81
431.315	990.86
431.775	1053.66
432.235	1140.01
432.694	1146.71
433.154	1085.46
433.614	1060.66
434.073	1028.46
434.533	927.91
434.993	904.76
435.452	900.81
435.912	888.86
436.371	885.16
436.83	873.16
437.29	852.61
437.749	834.71
438.209	828.26
438.668	836.61
439.127	849.51
439.587	837.86
440.046	817.26
440.505	839.71
440.964	847.21
441.424	870.86
441.883	878.61
442.342	831.76
442.801	804.41
443.26	806.11
443.719	795.71
444.178	802.56
444.637	809.16
445.096	817.51
445.555	825.36
446.014	828.51
446.473	819.66
446.932	816.86
447.391	830.66
447.849	844.01
448.308	823.91
448.767	842.06
449.226	848.86
449.685	866.46
450.143	892.61
450.602	900.26
451.061	850.86
451.519	850.66
451.978	834.01
452.436	835.91
452.895	852.41
453.353	846.86
453.812	830.11
454.27	836.11
454.729	836.91
455.187	839.21
455.646	851.36
456.104	850.46
456.562	856.46
457.021	866.96
457.479	841.76
457.937	863.06
458.395	887.51
458.854	878.66
459.312	863.96
459.77	871.81
460.228	886.51
460.686	894.31
461.144	904.86
461.602	890.16
462.06	895.46
462.518	908.06
462.976	909.51
463.434	923.16
463.892	932.11
464.35	951.51
464.808	960.76
465.266	974.76
465.724	985.31
466.181	987.46
466.639	983.81
467.097	1029.31
467.555	1057.51
468.012	1053.96
468.47	1056.66
468.928	1098.81
469.385	1120.51
469.843	1125.46
470.3	1125.31
470.758	1165.56
471.215	1180.46
471.673	1201.26
472.13	1236.26
472.588	1262.06
473.045	1262.36
473.503	1284.16
473.96	1332.66
474.417	1348.91
474.875	1400.91
475.332	1459.31
475.789	1493.26
476.246	1516.16
476.704	1582.01
477.161	1638.31
477.618	1676.56
478.075	1763.71
478.532	1880.96
478.989	2028.81
479.446	2219.56
479.903	2325.01
480.36	2510.61
480.817	2654.66
481.274	2823.76
481.731	3057.01
482.188	3291.96
482.645	3538.86
483.102	3720.66
483.558	3962.31
484.015	4132.71
484.472	4112.16
484.929	3987.46
485.385	3837.21
485.842	3757.46
486.299	3629.66
486.755	3349.51
487.212	3028.21
487.668	2733.96
488.125	2556.16
488.582	2376.01
489.038	2297.16
489.494	2236.06
489.951	2168.26
490.407	2116.61
490.864	2080.81
491.32	2035.41
491.776	2020.16
492.233	2025.26
492.689	1996.06
493.145	1952.51
493.602	1916.76
494.058	1958.11
494.514	1954.61
494.97	1962.66
495.426	1985.21
495.882	1978.31
496.338	1980.11
496.794	2000.41
497.251	2000.51
497.707	2015.51
498.163	2016.11
498.618	2017.46
499.074	2012.76
499.53	2037.71
499.986	2041.96
500.442	2021.36
500.898	2002.76
501.354	2025.11
501.809	2030.06
502.265	2020.51
502.721	2044.36
503.177	2035.26
503.632	2044.31
504.088	2067.36
504.543	2083.86
504.999	2116.96
505.455	2089.31
505.91	2075.86
506.366	2074.96
506.821	2077.51
507.277	2074.11
507.732	2085.01
508.187	2080.31
508.643	2092.16
509.098	2103.26
509.553	2129.46
510.009	2146.86
510.464	2197.46
510.919	2212.51
511.375	2229.46
511.83	2239.86
512.285	2289.56
512.74	2339.26
513.195	2360.51
513.65	2400.31
514.105	2434.56
514.56	2435.31
515.015	2480.21
515.47	2494.71
515.925	2460.01
516.38	2470.61
516.835	2478.41
517.29	2451.46
517.745	2452.21
518.2	2409.16
518.655	2359.96
519.109	2348.61
519.564	2315.16
520.019	2301.21
520.474	2277.86
520.928	2263.51
521.383	2245.81
521.838	2225.36
522.292	2217.76
522.747	2199.76
523.201	2204.26
523.656	2167.36
524.11	2173.16
524.565	2159.16
525.019	2153.66
525.474	2160.66
525.928	2145.71
526.382	2150.41
526.837	2159.01
527.291	2163.76
527.745	2152.01
528.2	2144.31
528.654	2125.71
529.108	2126.71
529.562	2141.46
530.016	2131.71
530.47	2132.21
530.925	2126.11
531.379	2127.76
531.833	2152.11
532.287	2144.36
532.741	2145.66
533.195	2133.71
533.649	2151.96
534.103	2148.06
534.556	2132.26
535.01	2147.21
535.464	2128.61
535.918	2143.36
536.372	2149.11
536.826	2140.11
537.279	2121.61
537.733	2122.21
538.187	2139.26
538.64	2127.86
539.094	2160.06
539.548	2183.66
540.001	2172.36
540.455	2191.31
540.908	2193.16
541.362	2208.76
541.815	2234.66
542.269	2261.16
542.722	2275.91
543.175	2294.81
543.629	2307.26
544.082	2328.41
544.536	2343.06
544.989	2336.41
545.442	2349.66
545.895	2358.06
546.349	2359.16
546.802	2369.56
547.255	2372.06
547.708	2375.06
548.161	2393.66
548.614	2395.71
549.067	2409.36
549.52	2406.71
549.973	2373.26
550.426	2376.86
550.879	2358.71
551.332	2357.16
551.785	2375.26
552.238	2405.51
552.691	2392.51
553.144	2447.26
553.596	2470.86
554.049	2495.31
554.502	2548.56
554.955	2587.71
555.407	2614.61
555.86	2598.26
556.313	2569.51
556.765	2537.26
557.218	2513.51
557.67	2503.01
558.123	2476.86
558.576	2458.86
559.028	2463.61
559.48	2494.21
559.933	2478.76
560.385	2400.41
560.838	2318.36
561.29	2257.86
561.742	2257.36
562.195	2198.06
562.647	2186.46
563.099	2168.56
563.551	2151.96
564.004	2183.56
564.456	2148.31
564.908	2114.11
565.36	2072.71
565.812	2026.31
566.264	2012.36
566.716	1973.76
567.168	1951.56
567.62	1945.31
568.072	1936.86
568.524	1927.96
568.976	1913.96
569.428	1905.66
569.88	1903.26
570.332	1915.86
570.784	1924.31
571.235	1909.31
571.687	1922.91
572.139	1926.46
572.59	1946.51
573.042	1957.51
573.494	1954.41
573.945	1928.31
574.397	1882.71
574.849	1883.36
575.3	1888.66
575.752	1869.01
576.203	1843.41
576.655	1843.36
577.106	1825.11
577.557	1811.46
578.009	1796.26
578.46	1811.11
578.912	1790.86
579.363	1797.66
579.814	1793.81
580.265	1795.11
580.717	1807.56
581.168	1809.31
581.619	1814.31
582.07	1823.21
582.521	1809.06
582.972	1800.61
583.423	1812.76
583.875	1816.81
584.326	1840.51
584.777	1871.96
585.227	1896.86
585.678	1917.51
586.129	1936.56
586.58	1950.81
587.031	1981.86
587.482	2033.41
587.933	2062.41
588.384	2041.06
588.834	2031.46
589.285	2021.46
589.736	2023.76
590.186	2019.16
590.637	2009.11
591.088	1959.16
591.538	1926.16
591.989	1900.96
592.439	1879.96
592.89	1857.81
593.34	1851.76
593.791	1846.31
594.241	1824.51
594.692	1821.51
595.142	1834.16
595.593	1817.41
596.043	1831.06
596.493	1849.66
596.943	1842.16
597.394	1881.36
597.844	1914.51
598.294	1960.76
598.744	2023.31
599.195	2120.91
599.645	2229.76
600.095	2343.01
600.545	2450.76
600.995	2543.51
601.445	2645.96
601.895	2774.31
602.345	2842.86
602.795	2818.11
603.245	2706.11
603.695	2566.66
604.145	2423.51
604.594	2299.41
605.044	2194.71
605.494	2057.01
605.944	1945.06
606.393	1903.71
606.843	1871.81
607.293	1866.21
607.743	1833.51
608.192	1852.36
608.642	1866.31
609.091	1866.66
609.541	1854.41
609.99	1855.76
610.44	1819.46
610.889	1801.01
611.339	1775.31
611.788	1757.66
612.238	1762.11
612.687	1769.06
613.136	1775.96
613.586	1799.91
614.035	1793.06
614.484	1800.26
614.933	1805.86
615.383	1769.46
615.832	1727.76
616.281	1711.31
616.73	1668.11
617.179	1630.36
617.628	1597.86
618.077	1576.76
618.526	1550.76
618.975	1540.66
619.424	1518.26
619.873	1510.11
620.322	1494.66
620.771	1491.96
621.22	1472.36
621.669	1451.51
622.118	1436.66
622.567	1427.36
623.015	1399.96
623.464	1395.76
623.913	1376.91
624.361	1385.51
624.81	1374.21
625.259	1378.66
625.707	1370.66
626.156	1371.81
626.604	1395.11
627.053	1400.36
627.501	1396.76
627.95	1394.96
628.398	1423.26
628.847	1406.86
629.295	1397.26
629.744	1388.11
630.192	1354.11
630.64	1344.41
631.089	1328.31
631.537	1292.66
631.985	1277.51
632.433	1284.01
632.881	1270.86
633.33	1276.56
633.778	1268.61
634.226	1280.36
634.674	1293.06
635.122	1299.11
635.57	1323.71
636.018	1346.01
636.466	1336.41
636.914	1343.61
637.362	1363.21
637.81	1391.46
638.258	1425.06
638.705	1440.76
639.153	1489.96
639.601	1504.01
640.049	1529.21
640.497	1582.31
640.944	1615.51
641.392	1546.16
641.84	1469.06
642.287	1397.66
642.735	1375.76
643.182	1355.06
643.63	1354.76
644.078	1356.26
644.525	1372.66
644.973	1420.46
645.42	1445.71
645.867	1476.56
646.315	1501.46
646.762	1563.16
647.21	1607.56
647.657	1680.51
648.104	1746.21
648.551	1785.01
648.999	1916.71
649.446	2083.91
649.893	2323.11
650.34	2702.71
650.787	3295.26
651.234	4227.76
651.682	5791.26
652.129	8121.96
652.576	11455.06
653.023	14991.91
653.47	15533.66
653.917	15533.71
654.363	15533.61
654.81	15530.61
655.257	15531.26
655.704	14846.81
656.151	9053.41
656.598	5983.71
657.044	4290.11
657.491	3373.46
657.938	2761.01
658.385	2344.41
658.831	2082.11
659.278	1871.26
659.724	1720.41
660.171	1596.66
660.618	1491.71
661.064	1419.91
661.511	1376.81
661.957	1339.31
662.404	1312.11
662.85	1291.71
663.296	1275.91
663.743	1249.81
664.189	1228.26
664.635	1228.31
665.082	1201.66
665.528	1185.01
665.974	1150.26
666.42	1136.41
666.867	1121.16
667.313	1074.06
667.759	1063.31
668.205	1049.01
668.651	1051.91
669.097	1055.46
669.543	1048.21
669.989	1074.41
670.435	1067.36
670.881	1083.71
671.327	1129.26
671.773	1185.51
672.219	1283.86
672.665	1357.61
673.11	1407.91
673.556	1424.46
674.002	1466.56
674.448	1471.91
674.893	1270.56
675.339	1106.06
675.785	1025.71
676.23	966.06
676.676	925.16
677.122	907.91
677.567	880.46
678.013	852.01
678.458	847.21
678.904	850.36
679.349	841.71
679.794	832.21
680.24	830.71
680.685	826.11
681.131	822.21
681.576	820.41
682.021	833.46
682.466	835.21
682.912	839.31
683.357	882.01
683.802	959.91
684.247	1047.56
684.692	1115.61
685.137	1163.86
685.583	1188.66
686.028	1254.01
686.473	1188.61
686.918	1033.41
687.363	945.71
687.807	895.61
688.252	857.06
688.697	816.06
689.142	803.56
689.587	801.86
690.032	822.31
690.477	847.36
690.921	894.46
691.366	932.91
691.811	971.61
692.255	1051.76
692.7	1267.86
693.145	1827.56
693.589	2784.06
694.034	3329.26
694.478	3557.36
694.923	3264.76
695.367	4626.26
695.812	2822.71
696.256	1196.31
696.701	874.31
697.145	808.31
697.59	780.46
698.034	766.96
698.478	765.71
698.922	767.76
699.367	793.46
699.811	825.76
700.255	893.31
700.699	974.91
701.143	1052.46
701.588	1110.96
702.032	1165.06
702.476	1204.81
702.92	1288.36
703.364	1672.71
703.808	2541.86
704.252	3197.26
704.696	3364.31
705.14	3203.01
705.584	4385.46
706.027	2437.61
706.471	1223.91
706.915	928.26
707.359	821.96
707.803	765.66
708.246	736.81
708.69	732.66
709.134	723.36
709.577	720.41
710.021	725.16
710.465	722.81
710.908	715.61
711.352	746.11
711.795	822.31
712.239	885.26
712.682	906.56
713.126	888.66
713.569	992.71
714.012	816.11
714.456	709.16
714.899	674.41
715.342	647.51
715.786	619.11
716.229	608.46
716.672	584.71
717.115	588.76
717.558	601.01
718.002	611.06
718.445	632.46
718.888	671.46
719.331	683.46
719.774	697.96
720.217	688.01
720.66	655.41
721.103	619.41
721.546	589.01
721.989	571.36
722.432	562.86
722.874	553.46
723.317	567.11
723.76	609.21
724.203	743.11
724.645	999.11
725.088	1176.21
725.531	1159.11
725.974	1268.51
726.416	1143.86
726.859	713.06
727.301	582.41
727.744	553.51
728.187	560.66
728.629	568.96
729.071	596.01
729.514	624.66
729.956	645.01
730.399	656.06
730.841	661.61
731.283	654.16
731.726	631.21
732.168	642.36
732.61	675.26
733.053	719.56
733.495	791.61
733.937	891.06
734.379	1041.16
734.821	1324.81
735.263	2101.11
735.705	3768.31
736.148	5552.36
736.59	5608.26
737.032	6077.51
737.474	5025.31
737.916	1923.51
738.357	1014.01
738.799	777.46
739.241	720.61
739.683	730.26
740.125	750.11
740.567	757.36
741.008	802.06
741.45	851.01
741.892	886.31
742.334	902.36
742.775	897.81
743.217	864.61
743.658	723.41
744.1	747.86
744.542	864.31
744.983	905.16
745.425	938.16
745.866	922.71
746.307	755.46
746.749	791.61
747.19	1136.76
747.632	2202.91
748.073	4115.76
748.514	5705.76
748.956	7569.91
749.397	8908.06
749.838	6156.96
750.279	5881.81
750.72	3046.26
751.162	1293.56
751.603	740.96
752.044	597.21
752.485	536.86
752.926	492.31
753.367	470.86
753.808	460.56
754.249	455.76
754.69	450.96
755.131	438.46
755.572	439.71
756.013	442.16
756.453	442.06
756.894	453.46
757.335	456.06
757.776	456.66
758.216	472.21
758.657	500.31
759.098	555.16
759.538	672.81
759.979	962.66
760.42	1935.81
760.86	4953.51
761.301	10261.01
761.741	12187.36
762.182	13976.61
762.622	9106.21
763.063	3244.16
763.503	1331.86
763.943	777.01
764.384	615.31
764.824	531.21
765.264	490.16
765.705	466.51
766.145	441.31
766.585	428.16
767.025	416.66
767.465	419.01
767.906	428.31
768.346	450.56
768.786	518.31
769.226	756.31
769.666	1512.61
770.106	3401.31
770.546	4879.61
770.986	5556.16
771.426	4207.91
771.866	1746.51
772.306	790.11
772.745	495.76
773.185	418.96
773.625	402.41
774.065	436.16
774.505	632.81
774.944	1139.41
775.384	1647.21
775.824	1855.71
776.263	1536.71
776.703	810.71
777.142	462.36
777.582	340.81
778.021	315.11
778.461	299.76
778.9	296.46
779.34	280.66
779.779	278.71
780.219	275.66
780.658	266.46
781.097	265.61
781.537	257.11
781.976	258.81
782.415	249.56
782.855	256.56
783.294	253.16
783.733	247.91
784.172	255.71
784.611	250.86
785.05	264.61
785.489	271.26
785.928	274.66
786.367	287.56
786.806	299.16
787.245	322.96
787.684	334.71
788.123	331.21
788.562	316.11
789.001	310.76
789.44	297.11
789.879	299.41
790.317	303.36
790.756	317.56
791.195	361.71
791.634	496.16
792.072	881.41
792.511	2157.26
792.95	4010.86
793.388	4855.16
793.827	3161.31
794.265	1439.81
794.704	701.06
795.142	421.76
795.581	353.81
796.019	320.26
796.458	321.56
796.896	332.56
797.334	374.46
797.773	507.86
798.211	950.26
798.649	1996.51
799.087	3371.46
799.526	4772.66
799.964	4951.16
800.402	3419.61
800.84	1536.96
801.278	757.01
801.716	458.96
802.154	372.96
802.592	353.26
803.03	348.66
803.468	357.01
803.906	356.66
804.344	348.76
804.782	346.21
805.22	345.36
805.658	359.26
806.096	381.81
806.533	427.26
806.971	541.61
807.409	788.26
807.847	1571.01
808.284	3984.91
808.722	7055.91
809.16	9913.56
809.597	13305.31
810.035	15535.61
810.472	10945.41
810.91	4625.61
811.347	2073.11
811.785	987.46
812.222	617.61
812.66	473.26
813.097	402.91
813.535	354.41
813.972	318.61
814.409	293.66
814.846	282.06
815.284	264.66
815.721	272.81
816.158	302.41
816.595	414.56
817.032	530.36
817.47	487.21
817.907	344.66
818.344	302.66
818.781	295.36
819.218	364.91
819.655	565.06
820.092	736.91
820.529	664.56
820.966	514.61
821.403	356.91
821.839	299.21
822.276	338.16
822.713	399.71
823.15	369.21
823.587	380.56
824.023	661.36
824.46	1636.31
824.897	2870.11
825.333	2276.31
825.77	1032.46
826.206	545.06
826.643	320.21
827.08	236.26
827.516	211.41
827.953	195.41
828.389	188.51
828.825	177.91
829.262	167.56
829.698	160.56
830.135	156.56
830.571	153.21
831.007	156.96
831.443	157.66
831.88	160.56
832.316	166.86
832.752	163.81
833.188	163.16
833.624	163.96
834.06	168.41
834.497	170.71
834.933	177.56
835.369	189.01
835.805	197.56
836.241	206.26
836.677	222.61
837.112	267.16
837.548	329.01
837.984	483.71
838.42	1039.61
838.856	2883.56
839.292	5727.66
839.727	4301.81
840.163	2867.91
840.599	4308.71
841.034	6631.21
841.47	3356.61
841.906	1605.71
842.341	866.91
842.777	648.71
843.212	675.76
843.648	421.76
844.083	280.61
844.519	211.66
844.954	183.01
845.39	156.41
845.825	156.51
846.261	148.76
846.696	141.96
847.131	135.96
847.566	137.31
848.002	142.66
848.437	146.36
848.872	156.66
849.307	198.41
849.742	363.11
850.177	939.76
850.613	2007.21
851.048	1463.71
851.483	669.26
851.918	371.31
852.353	204.56
852.788	146.91
853.223	128.86
853.657	117.16
854.092	115.66
854.527	112.06
854.962	123.01
855.397	136.51
855.832	121.76
856.266	109.16
856.701	109.21
857.136	109.26
857.57	136.96
858.005	166.36
858.44	141.61
858.874	128.36
859.309	130.26
859.743	128.06
860.178	125.21
860.612	137.16
861.047	191.01
861.481	271.31
861.915	188.41
862.35	138.26
862.784	110.06
863.218	106.61
863.653	117.91
864.087	137.46
864.521	166.41
864.955	279.16
865.39	472.71
865.824	374.66
866.258	487.66
866.692	751.41
867.126	550.11
867.56	290.11
867.994	184.71
868.428	157.61
868.862	192.76
869.296	181.81
869.73	221.31
870.164	184.96
870.598	170.31
871.031	118.06
871.465	106.31
871.899	81.56
872.333	71.61
872.766	75.71
873.2	74.96
873.634	76.96
874.067	78.21
874.501	78.06
874.935	78.61
875.368	83.96
875.802	70.96
876.235	67.66
876.669	69.21
877.102	64.76
877.535	65.71
877.969	57.11
878.402	62.36
878.836	62.21
879.269	61.51
879.702	60.51
880.135	65.41
880.569	64.51
881.002	59.46
881.435	60.21
881.868	60.26
882.301	53.96
882.734	54.66
883.167	55.21
883.601	53.61
884.034	52.26
884.467	50.16
884.899	49.46
885.332	47.71
885.765	48.16
886.198	49.66
886.631	49.41
887.064	48.86
887.497	48.51
887.929	46.21
888.362	45.81
888.795	46.96
889.228	53.96
889.66	44.61
890.093	47.11
890.526	47.46
890.958	49.81
891.391	49.61
891.823	45.26
892.256	51.41
892.688	45.76
893.121	39.96
893.553	45.91
893.985	44.06
894.418	45.61
894.85	48.11
895.282	43.26
895.715	39.96
896.147	37.91
896.579	37.11
897.011	46.96
897.444	45.66
897.876	37.11
898.308	40.06
898.74	42.46
899.172	45.36
899.604	43.11
900.036	43.96
900.468	43.21
900.9	49.31
901.332	56.61
901.764	62.26
902.196	59.01
902.628	60.26
903.06	92.16
903.491	98.11
903.923	80.51
904.355	69.76
904.787	82.56
905.218	61.21
905.65	63.21
906.082	54.91
906.513	45.31
906.945	55.21
907.376	53.31
907.808	51.46
908.239	54.66
908.671	63.16
909.102	65.11
909.534	96.76
909.965	185.76
910.397	472.56
910.828	1351.66
911.259	838.11
911.691	446.06
912.122	258.51
912.553	132.36
912.984	75.76
913.415	65.41
913.847	56.16
914.278	55.31
914.709	47.01
915.14	42.66
915.571	47.11
916.002	45.01
916.433	41.61
916.864	43.11
917.295	49.21
917.726	50.01
918.157	65.71
918.587	69.76
919.018	60.66
919.449	53.36
919.88	63.11
920.311	105.31
920.741	279.26
921.172	501.11
921.603	252.06
922.033	159.36
922.464	101.21
922.895	66.36
923.325	47.56
923.756	39.51
924.186	50.71
924.617	79.16
925.047	114.21
925.478	102.51
925.908	69.31
926.338	54.61
926.769	45.91
927.199	44.51
927.629	34.96
928.06	40.96
928.49	39.71
928.92	35.51
929.35	33.91
929.78	21.31
930.21	25.26
930.641	19.21
931.071	21.56
931.501	25.81
931.931	18.91
932.361	24.26
932.791	26.96
933.221	29.56
933.651	38.76
934.08	70.31
934.51	38.76
934.94	36.16
935.37	24.91
935.8	23.61
936.229	21.11
936.659	20.71
937.089	39.76
937.519	64.76
937.948	81.41
938.378	48.11
938.807	29.96
939.237	19.71
939.666	16.86
940.096	12.56
940.525	6.56
940.955	13.51
941.384	5.71
941.814	10.41
942.243	10.21
942.672	9.71
943.102	9.16
943.531	9.11
943.96	6.61
944.39	11.86
944.819	17.41
945.248	12.06
945.677	9.96
946.106	9.96
946.535	11.76
946.964	10.81
947.393	12.21
947.822	6.56
948.251	13.86
948.68	9.51
949.109	8.66
949.538	8.21
949.967	11.26
950.396	9.06
950.825	11.31
951.254	10.26
951.682	3.86
952.111	1.16
952.54	9.91
952.969	10.21
953.397	3.01
953.826	8.01
954.254	9.96
954.683	13.41
955.112	13.91
955.54	12.56
955.969	8.41
956.397	10.31
956.826	6.26
957.254	6.41
957.682	8.11
958.111	10.56
958.539	11.51
958.967	4.16
959.396	10.41
959.824	8.51
960.252	7.16
960.68	9.41
961.109	9.76
961.537	12.21
961.965	2.26
962.393	5.61
962.821	6.56
963.249	15.71
963.677	16.26
964.105	79.46
964.533	143.21
964.961	69.76
965.389	44.11
965.817	26.66
966.245	13.16
966.672	8.91
967.1	7.76
967.528	4.86
967.956	8.16
968.383	8.36
968.811	4.31
969.239	8.21
969.666	3.31
970.094	4.36
970.522	1.16
970.949	8.71
971.377	-0.74
971.804	0.86
972.232	-1.44
972.659	4.26
973.087	6.26
973.514	0.41
973.941	2.66
974.369	-1.39
974.796	6.46
975.223	-1.34
975.651	5.76
976.078	3.46
976.505	9.81
976.932	34.71
977.359	42.46
977.786	26.16
978.214	18.36
978.641	5.81
979.068	6.71
979.495	3.61
979.922	3.36
980.349	5.71
980.776	6.11
981.202	4.86
981.629	13.11
982.056	7.26
982.483	-0.09
982.91	10.26
983.337	3.86
983.763	4.06
984.19	9.31
984.617	3.06
985.043	4.56
985.47	6.86
985.897	4.81
986.323	9.41
986.75	0.31
987.176	3.41
987.603	3.81
988.029	5.46
988.456	9.11
988.882	-1.34
989.308	0.16
989.735	0.61
990.161	1.16
990.587	4.81
991.014	8.41
991.44	6.06
991.866	3.36
992.292	2.16
992.719	1.46
993.145	6.66
993.571	3.86
993.997	5.16
994.423	6.01
994.849	-1.74
995.275	3.96
995.701	6.36
996.127	-0.84
996.553	1.96
996.979	1.71
997.405	2.36
997.83	4.86
998.256	4.26
998.682	3.36
999.108	1.66
999.534	-2.34
999.959	2.21
1000.385	7.66
1000.811	-3.29
1001.236	-1.79
1001.662	0.41
1002.087	10.61
1002.513	3.16
1002.938	3.01
1003.364	1.06
1003.789	3.56
1004.215	0.96
1004.64	2.86
1005.066	-0.19
1005.491	7.96
1005.916	2.86
1006.342	0.91
1006.767	5.26
1007.192	3.41
1007.617	5.06
1008.042	6.36
1008.468	5.06
1008.893	5.61
1009.318	10.21
1009.743	14.96
1010.168	31.56
1010.593	25.31
1011.018	15.06
1011.443	12.66
1011.868	11.11
1012.293	6.76
1012.718	3.26
1013.143	3.41
1013.567	1.56
1013.992	6.51
1014.417	7.86
1014.842	0.31
1015.267	1.76
1015.691	6.31
1016.116	4.91
1016.541	4.01
1016.965	3.66
1017.39	2.51
1017.814	0.86
1018.239	-2.84
1018.663	-1.59
1019.088	-1.29
1019.512	4.41
1019.937	1.01
1020.361	0.86
1020.785	-2.34
1021.21	-3.74
1021.634	-1.19
1022.058	2.76
1022.483	-6.29
1022.907	-0.64
1023.331	0.76
1023.755	-1.24
1024.179	0.41
1024.604	0.61
1025.028	-1.34
1025.452	2.66
1025.876	3.51
1026.3	0.61
1026.724	-2.09
1027.148	-0.34
1027.572	0.86
1027.996	3.51
1028.42	0.26
1028.843	-4.49
1029.267	0.71
1029.691	0.56
1030.115	-3.29
1030.539	-3.94
1030.962	-3.54
1031.386	2.41
1031.81	-2.69
1032.233	-4.69
1032.657	-4.14
1033.08	-0.34
1033.504	1.61
1033.927	-3.09
1034.351	1.96
1034.774	-3.89
1035.198	-0.24
1035.621	-0.94
1036.045	-7.69
1036.468	7.41
1036.891	-2.69
1037.315	6.51
1037.738	1.71
1038.161	0.61
1038.584	-3.74
1039.008	-1.99
1039.431	-3.49
1039.854	-5.49
1040.277	2.56
1040.7	0.06
1041.123	3.01
1041.546	-2.14
1041.969	0.36
1042.392	0.76
1042.815	-8.89
1043.238	-1.14
1043.661	-2.24
1044.084	-3.99
1044.507	-2.84
1044.93	-3.04
1045.352	1.31
1045.775	2.01
1046.198	1.51
1046.621	3.31
1047.043	-0.49
1047.466	3.16
1047.889	-2.04
1048.311	3.06
1048.734	-0.29
1049.156	-2.09
1049.579	1.96
1050.001	-0.69
1050.424	-0.09
1050.846	-0.59
1051.269	-0.54
1051.691	-0.74
1052.113	0.66
1052.536	-0.89
1052.958	-3.99
1053.38	2.51
1053.802	1.26
1054.225	2.91
1054.647	0.51
1055.069	-0.24
1055.491	-2.64
1055.913	-0.64
1056.335	-5.84
1056.757	-5.34
1057.179	-3.04
1057.601	-4.99
1058.023	-2.74
1058.445	-2.94
1058.867	-0.74
1059.289	-2.49
1059.711	-3.59
1060.133	0.81
1060.555	-2.79
1060.976	-0.09
1061.398	-3.39
1061.82	-1.24
1062.241	-0.09
1062.663	-0.54
1063.085	-3.99
1063.506	-2.84
1063.928	-3.29
1064.35	0.66
1064.771	-3.39
1065.193	0.06
1065.614	-2.54
1066.035	3.76
1066.457	5.71
1066.878	-1.04
1067.3	-0.14
1067.721	3.51
1068.142	0.56
1068.564	1.76
1068.985	-1.19
1069.406	-7.39
1069.827	1.01
1070.248	-4.99
1070.67	-5.09
1071.091	-4.44
1071.512	-1.34
1071.933	-3.74
1072.354	-7.39
1072.775	-1.89
1073.196	-3.49
1073.617	-4.04
1074.038	0.81
1074.459	-3.04
1074.88	-2.74
1075.3	-0.29
1075.721	1.71
1076.142	-6.54
1076.563	-5.89
1076.983	2.21
1077.404	-5.09
1077.825	-1.29
1078.246	-2.39
1078.666	-0.69
1079.087	4.26
1079.507	-6.39
1079.928	-3.64
1080.348	-1.89
1080.769	-4.34
1081.189	-3.34
1081.61	-5.14
1082.03	2.56
1082.451	0.56
1082.871	-8.44
1083.291	-1.99
1083.711	-1.89
1084.132	-4.24
1084.552	-7.19
1084.972	-1.49
1085.392	-2.94
1085.813	1.56
1086.233	-2.79
1086.653	4.01
1087.073	-2.29
1087.493	-1.09
1087.913	-6.84
1088.333	-6.54
1088.753	1.16
1089.173	4.46
1089.593	0.81
1090.013	-0.54
1090.433	-8.44
1090.852	-2.34
1091.272	-6.14
1091.692	-2.74
1092.112	-5.39
1092.531	-5.94
1092.951	-1.14
1093.371	-3.34
1093.79	-2.54
1094.21	-3.64
1094.63	-4.54
1095.049	-1.54
1095.469	-7.89
1095.888	-3.84
1096.308	-2.69
1096.727	-6.04
1097.146	-0.54
1097.566	-3.54
1097.985	-3.69
1098.405	0.06
1098.824	0.56
1099.243	-5.74
1099.662	-6.14
1100.082	-2.19
1100.501	1.11
1100.92	5.11
1101.339	-0.44
1101.758	2.31
