Data from MSPlasma+Separation6_Subt14_10-13-38-304.txt Node
Date: Fri Jul 21 10:13:38 EDT 2017
User: Ender
Spectrometer: HR+D1039
Trigger mode: 0
Integration Time (sec): 6.430000E-3
Scans to average: 20
Electric dark correction enabled: true
Nonlinearity correction enabled: false
Boxcar width: 0
XAxis mode: Wavelengths
Number of Pixels in Spectrum: 2048
>>>>>Begin Spectral Data<<<<<
187.836	-0.48
188.309	-0.48
188.782	-0.48
189.255	1.22
189.728	1.67
190.201	0.22
190.674	2.12
191.147	-2.13
191.619	1.77
192.092	-2.38
192.565	-1.38
193.038	1.87
193.511	2.82
193.984	1.22
194.456	0.47
194.929	-3.93
195.402	-4.38
195.874	1.32
196.347	-0.08
196.82	1.37
197.292	-5.83
197.765	-4.43
198.237	-5.03
198.71	-2.73
199.182	2.12
199.655	0.57
200.127	0.27
200.6	0.87
201.072	-0.18
201.544	-3.23
202.017	1.32
202.489	2.17
202.961	0.92
203.433	-1.08
203.906	-2.13
204.378	4.57
204.85	0.22
205.322	-4.43
205.794	5.52
206.266	-1.58
206.739	2.42
207.211	-2.78
207.683	-0.18
208.155	2.27
208.627	1.67
209.099	2.37
209.57	2.57
210.042	5.52
210.514	-2.38
210.986	-2.18
211.458	-5.88
211.93	1.52
212.402	2.82
212.873	-0.38
213.345	-4.83
213.817	-2.58
214.288	-2.28
214.76	2.92
215.232	0.92
215.703	0.92
216.175	5.37
216.646	2.77
217.118	0.67
217.589	-3.98
218.061	1.67
218.532	-0.18
219.004	1.72
219.475	3.77
219.946	3.97
220.418	11.52
220.889	5.02
221.36	4.22
221.832	6.97
222.303	4.37
222.774	4.77
223.245	0.57
223.717	1.02
224.188	3.92
224.659	3.97
225.13	-0.43
225.601	4.82
226.072	5.57
226.543	6.92
227.014	5.42
227.485	5.12
227.956	8.82
228.427	9.82
228.898	8.97
229.369	6.12
229.839	6.82
230.31	11.02
230.781	9.27
231.252	13.87
231.722	9.47
232.193	7.02
232.664	5.67
233.135	8.67
233.605	8.87
234.076	11.57
234.546	8.67
235.017	12.57
235.487	12.82
235.958	13.42
236.428	16.42
236.899	12.42
237.369	21.87
237.84	14.37
238.31	16.47
238.78	8.12
239.251	10.82
239.721	8.22
240.191	14.57
240.662	17.32
241.132	15.17
241.602	21.12
242.072	19.57
242.542	18.72
243.013	16.97
243.483	22.12
243.953	18.92
244.423	18.02
244.893	18.12
245.363	23.57
245.833	18.12
246.303	18.42
246.773	27.67
247.243	24.72
247.712	21.67
248.182	25.37
248.652	27.92
249.122	25.27
249.592	25.27
250.061	25.87
250.531	26.37
251.001	29.07
251.471	27.47
251.94	28.92
252.41	30.17
252.879	32.52
253.349	34.22
253.818	31.52
254.288	34.52
254.757	28.42
255.227	32.87
255.696	32.72
256.166	37.67
256.635	35.62
257.105	37.77
257.574	33.37
258.043	31.22
258.513	40.17
258.982	38.22
259.451	41.22
259.92	36.32
260.389	41.87
260.859	40.97
261.328	39.17
261.797	40.67
262.266	45.12
262.735	43.77
263.204	40.87
263.673	46.72
264.142	43.12
264.611	46.47
265.08	44.42
265.549	42.52
266.018	47.77
266.487	47.92
266.955	43.17
267.424	52.72
267.893	50.32
268.362	52.62
268.83	45.02
269.299	52.07
269.768	50.57
270.236	54.27
270.705	56.77
271.174	47.52
271.642	52.97
272.111	59.62
272.579	57.27
273.048	53.22
273.516	55.07
273.985	60.47
274.453	54.67
274.922	56.97
275.39	56.42
275.858	61.07
276.327	61.02
276.795	62.47
277.263	65.17
277.731	60.02
278.2	62.57
278.668	64.07
279.136	69.02
279.604	62.72
280.072	69.32
280.54	65.17
281.008	73.22
281.477	71.47
281.945	72.17
282.413	70.67
282.881	75.37
283.348	74.27
283.816	69.42
284.284	74.77
284.752	77.32
285.22	80.27
285.688	77.42
286.156	78.77
286.623	75.82
287.091	79.97
287.559	81.52
288.026	84.02
288.494	83.82
288.962	80.22
289.429	82.32
289.897	83.17
290.364	86.02
290.832	84.87
291.3	84.42
291.767	84.87
292.234	93.32
292.702	88.52
293.169	94.12
293.637	89.67
294.104	95.07
294.571	93.32
295.039	88.27
295.506	88.32
295.973	91.52
296.44	91.77
296.908	99.62
297.375	95.47
297.842	100.17
298.309	94.37
298.776	94.42
299.243	100.87
299.71	101.92
300.177	103.82
300.644	102.57
301.111	101.57
301.578	106.72
302.045	111.57
302.512	108.27
302.979	110.62
303.446	113.12
303.913	113.12
304.379	116.17
304.846	120.32
305.313	127.72
305.78	129.77
306.246	126.57
306.713	123.32
307.18	125.82
307.646	124.72
308.113	123.77
308.579	139.52
309.046	139.37
309.512	137.27
309.979	135.47
310.445	133.07
310.912	139.02
311.378	146.82
311.845	146.42
312.311	141.77
312.777	143.42
313.244	148.12
313.71	146.57
314.176	154.77
314.642	150.57
315.109	154.27
315.575	156.37
316.041	155.17
316.507	149.52
316.973	160.67
317.439	160.47
317.905	160.27
318.371	159.07
318.837	163.17
319.303	162.42
319.769	159.62
320.235	165.67
320.701	173.27
321.167	164.97
321.633	169.22
322.099	165.37
322.564	170.07
323.03	174.82
323.496	169.62
323.962	179.82
324.427	178.67
324.893	177.52
325.359	185.87
325.824	186.47
326.29	186.77
326.755	184.52
327.221	190.97
327.686	198.17
328.152	198.07
328.617	197.72
329.083	203.87
329.548	202.22
330.014	202.42
330.479	203.97
330.944	204.22
331.41	216.62
331.875	207.47
332.34	206.82
332.805	210.82
333.271	208.32
333.736	214.07
334.201	216.72
334.666	231.32
335.131	229.97
335.596	229.67
336.061	223.82
336.526	225.67
336.991	218.37
337.456	213.97
337.921	217.37
338.386	212.32
338.851	218.47
339.316	215.92
339.781	216.92
340.246	222.42
340.711	225.87
341.175	233.67
341.64	239.47
342.105	240.07
342.569	250.57
343.034	243.57
343.499	248.72
343.963	251.62
344.428	256.37
344.893	251.87
345.357	263.92
345.822	260.12
346.286	265.22
346.751	270.27
347.215	278.37
347.679	280.42
348.144	296.62
348.608	293.32
349.073	297.92
349.537	311.07
350.001	302.67
350.465	309.07
350.93	311.07
351.394	312.82
351.858	320.57
352.322	323.62
352.786	324.67
353.25	323.27
353.715	323.22
354.179	342.12
354.643	350.12
355.107	351.82
355.571	347.67
356.035	339.47
356.498	339.02
356.962	338.47
357.426	341.07
357.89	339.72
358.354	335.42
358.818	328.97
359.281	336.17
359.745	337.82
360.209	338.82
360.673	339.92
361.136	338.22
361.6	346.02
362.064	350.72
362.527	359.27
362.991	359.52
363.454	351.27
363.918	360.27
364.381	368.77
364.845	362.37
365.308	362.42
365.772	371.67
366.235	367.52
366.698	369.37
367.162	368.92
367.625	372.87
368.088	382.42
368.552	372.57
369.015	375.97
369.478	377.72
369.941	384.27
370.404	387.72
370.867	383.17
371.331	395.82
371.794	401.97
372.257	399.87
372.72	403.82
373.183	407.02
373.646	406.02
374.109	403.97
374.572	403.32
375.035	410.87
375.497	414.92
375.96	422.87
376.423	425.22
376.886	431.17
377.349	434.37
377.811	435.02
378.274	443.92
378.737	433.02
379.199	447.82
379.662	447.17
380.125	451.27
380.587	458.67
381.05	459.62
381.512	463.87
381.975	476.27
382.437	485.57
382.9	480.02
383.362	482.47
383.825	492.67
384.287	489.07
384.75	489.92
385.212	491.57
385.674	495.32
386.136	504.87
386.599	499.72
387.061	504.37
387.523	495.12
387.985	507.67
388.447	512.17
388.91	508.97
389.372	514.77
389.834	514.27
390.296	507.82
390.758	515.02
391.22	511.27
391.682	518.57
392.144	517.42
392.606	522.27
393.068	537.62
393.529	563.67
393.991	572.47
394.453	549.12
394.915	529.17
395.377	521.32
395.838	535.52
396.3	525.77
396.762	539.62
397.224	536.27
397.685	530.82
398.147	540.52
398.608	551.42
399.07	551.47
399.531	555.07
399.993	567.77
400.454	574.07
400.916	573.22
401.377	585.37
401.839	590.32
402.3	589.92
402.762	613.42
403.223	661.52
403.684	658.52
404.145	627.12
404.607	620.17
405.068	605.17
405.529	616.17
405.99	633.27
406.451	638.37
406.913	627.22
407.374	634.47
407.835	635.52
408.296	649.17
408.757	648.57
409.218	668.77
409.679	677.17
410.14	678.82
410.601	690.32
411.062	694.97
411.522	703.27
411.983	695.02
412.444	702.92
412.905	724.62
413.366	745.62
413.826	782.77
414.287	878.47
414.748	1039.92
415.208	1059.27
415.669	890.87
416.13	799.77
416.59	788.92
417.051	817.12
417.511	861.32
417.972	916.32
418.432	982.92
418.893	1087.42
419.353	1052.77
419.814	811.42
420.274	726.97
420.734	714.52
421.195	730.47
421.655	728.67
422.115	752.12
422.576	740.22
423.036	754.02
423.496	776.77
423.956	811.22
424.416	861.52
424.876	962.47
425.336	959.72
425.797	945.17
426.257	938.92
426.717	886.72
427.177	821.52
427.637	830.12
428.097	858.17
428.556	889.62
429.016	951.82
429.476	955.82
429.936	925.62
430.396	933.02
430.856	962.07
431.315	973.87
431.775	1046.57
432.235	1128.42
432.694	1137.22
433.154	1072.22
433.614	1055.42
434.073	1022.62
434.533	915.72
434.993	885.77
435.452	889.02
435.912	878.62
436.371	874.22
436.83	869.27
437.29	847.22
437.749	823.17
438.209	817.42
438.668	830.72
439.127	846.62
439.587	828.92
440.046	810.82
440.505	834.27
440.964	833.37
441.424	867.17
441.883	880.62
442.342	830.02
442.801	793.97
443.26	807.97
443.719	799.62
444.178	787.32
444.637	807.12
445.096	814.17
445.555	823.77
446.014	820.12
446.473	808.92
446.932	812.07
447.391	824.47
447.849	833.47
448.308	822.57
448.767	838.67
449.226	850.62
449.685	859.37
450.143	887.22
450.602	888.32
451.061	849.47
451.519	841.82
451.978	831.12
452.436	833.87
452.895	846.52
453.353	840.37
453.812	823.07
454.27	831.42
454.729	831.77
455.187	841.52
455.646	842.42
456.104	848.52
456.562	858.62
457.021	869.12
457.479	832.27
457.937	857.87
458.395	886.42
458.854	875.67
459.312	863.97
459.77	866.72
460.228	886.22
460.686	900.47
461.144	898.27
461.602	880.62
462.06	887.02
462.518	907.07
462.976	906.42
463.434	920.27
463.892	916.17
464.35	949.57
464.808	955.72
465.266	967.52
465.724	978.62
466.181	977.67
466.639	979.72
467.097	1016.62
467.555	1053.12
468.012	1042.87
468.47	1048.97
468.928	1093.37
469.385	1111.32
469.843	1133.37
470.3	1118.12
470.758	1159.87
471.215	1175.82
471.673	1206.82
472.13	1230.97
472.588	1254.12
473.045	1243.87
473.503	1267.52
473.96	1327.12
474.417	1345.07
474.875	1401.32
475.332	1447.72
475.789	1470.77
476.246	1510.47
476.704	1572.32
477.161	1614.47
477.618	1653.37
478.075	1740.97
478.532	1874.12
478.989	2008.02
479.446	2198.77
479.903	2303.52
480.36	2480.42
480.817	2608.62
481.274	2777.27
481.731	3035.47
482.188	3234.87
482.645	3469.07
483.102	3652.22
483.558	3903.72
484.015	4062.22
484.472	4029.87
484.929	3913.37
485.385	3768.67
485.842	3705.07
486.299	3568.17
486.755	3285.52
487.212	2975.72
487.668	2702.12
488.125	2520.27
488.582	2362.92
489.038	2266.07
489.494	2215.92
489.951	2148.97
490.407	2103.87
490.864	2053.72
491.32	2014.37
491.776	2006.62
492.233	2006.97
492.689	1978.77
493.145	1942.17
493.602	1914.02
494.058	1942.57
494.514	1950.62
494.97	1956.47
495.426	1975.97
495.882	1965.37
496.338	1967.72
496.794	1983.02
497.251	1975.42
497.707	2006.27
498.163	2007.22
498.618	2006.27
499.074	1992.62
499.53	2022.62
499.986	2039.22
500.442	2013.52
500.898	1991.32
501.354	2006.17
501.809	2016.77
502.265	2011.92
502.721	2019.87
503.177	2042.22
503.632	2043.02
504.088	2039.42
504.543	2062.67
504.999	2088.12
505.455	2083.52
505.91	2067.17
506.366	2061.27
506.821	2065.42
507.277	2056.37
507.732	2056.12
508.187	2067.22
508.643	2086.22
509.098	2083.82
509.553	2108.92
510.009	2136.22
510.464	2175.17
510.919	2183.37
511.375	2207.62
511.83	2226.17
512.285	2277.67
512.74	2310.52
513.195	2337.42
513.65	2370.47
514.105	2419.47
514.56	2421.37
515.015	2461.37
515.47	2464.67
515.925	2447.37
516.38	2445.57
516.835	2456.12
517.29	2434.37
517.745	2429.22
518.2	2394.72
518.655	2345.02
519.109	2321.17
519.564	2286.87
520.019	2273.62
520.474	2266.42
520.928	2250.17
521.383	2221.17
521.838	2220.07
522.292	2200.47
522.747	2191.47
523.201	2184.47
523.656	2164.32
524.11	2149.12
524.565	2144.57
525.019	2154.87
525.474	2150.22
525.928	2133.52
526.382	2139.57
526.837	2139.47
527.291	2154.12
527.745	2116.12
528.2	2135.62
528.654	2104.82
529.108	2107.87
529.562	2127.02
530.016	2114.02
530.47	2122.32
530.925	2114.02
531.379	2111.02
531.833	2137.52
532.287	2137.52
532.741	2116.97
533.195	2117.17
533.649	2127.62
534.103	2127.92
534.556	2118.12
535.01	2113.07
535.464	2108.97
535.918	2102.57
536.372	2130.32
536.826	2119.57
537.279	2101.82
537.733	2120.07
538.187	2123.72
538.64	2130.17
539.094	2132.37
539.548	2169.72
540.001	2160.82
540.455	2166.07
540.908	2179.67
541.362	2209.52
541.815	2204.22
542.269	2254.62
542.722	2240.42
543.175	2268.52
543.629	2281.97
544.082	2284.42
544.536	2320.72
544.989	2321.37
545.442	2336.42
545.895	2347.67
546.349	2334.42
546.802	2344.67
547.255	2335.77
547.708	2357.32
548.161	2379.87
548.614	2385.42
549.067	2389.02
549.52	2377.82
549.973	2353.22
550.426	2352.52
550.879	2340.67
551.332	2336.22
551.785	2359.92
552.238	2387.52
552.691	2378.97
553.144	2417.47
553.596	2449.97
554.049	2473.82
554.502	2525.82
554.955	2567.82
555.407	2600.72
555.86	2570.57
556.313	2532.22
556.765	2523.87
557.218	2492.52
557.67	2489.82
558.123	2461.87
558.576	2453.52
559.028	2438.87
559.48	2474.42
559.933	2452.07
560.385	2374.62
560.838	2296.12
561.29	2241.07
561.742	2230.87
562.195	2178.37
562.647	2165.37
563.099	2157.52
563.551	2125.52
564.004	2157.77
564.456	2134.72
564.908	2096.67
565.36	2048.02
565.812	2002.57
566.264	2008.17
566.716	1963.47
567.168	1927.87
567.62	1937.27
568.072	1920.37
568.524	1908.27
568.976	1889.82
569.428	1874.97
569.88	1890.42
570.332	1883.37
570.784	1904.77
571.235	1886.02
571.687	1903.92
572.139	1901.57
572.59	1931.67
573.042	1942.37
573.494	1926.22
573.945	1913.32
574.397	1872.22
574.849	1861.37
575.3	1858.27
575.752	1844.72
576.203	1816.02
576.655	1832.77
577.106	1802.72
577.557	1796.02
578.009	1784.82
578.46	1800.62
578.912	1771.32
579.363	1793.22
579.814	1781.97
580.265	1784.67
580.717	1781.77
581.168	1779.02
581.619	1787.22
582.07	1802.92
582.521	1798.32
582.972	1795.17
583.423	1794.02
583.875	1799.17
584.326	1810.07
584.777	1845.62
585.227	1877.37
585.678	1896.62
586.129	1920.37
586.58	1937.57
587.031	1972.27
587.482	2004.42
587.933	2039.57
588.384	2023.37
588.834	2016.37
589.285	2003.72
589.736	2005.82
590.186	2004.87
590.637	1984.77
591.088	1930.52
591.538	1913.27
591.989	1873.67
592.439	1855.02
592.89	1837.92
593.34	1834.62
593.791	1825.97
594.241	1813.57
594.692	1810.27
595.142	1803.67
595.593	1807.82
596.043	1804.32
596.493	1826.27
596.943	1823.92
597.394	1886.92
597.844	1891.32
598.294	1946.22
598.744	2016.47
599.195	2097.92
599.645	2207.42
600.095	2328.32
600.545	2422.17
600.995	2527.57
601.445	2616.57
601.895	2737.82
602.345	2812.62
602.795	2788.97
603.245	2681.42
603.695	2533.47
604.145	2408.72
604.594	2289.57
605.044	2169.92
605.494	2037.07
605.944	1928.62
606.393	1891.97
606.843	1856.97
607.293	1842.77
607.743	1841.72
608.192	1851.52
608.642	1839.37
609.091	1839.67
609.541	1834.62
609.99	1836.67
610.44	1809.22
610.889	1788.22
611.339	1753.92
611.788	1726.07
612.238	1745.22
612.687	1752.67
613.136	1760.92
613.586	1784.42
614.035	1774.27
614.484	1792.32
614.933	1786.32
615.383	1750.12
615.832	1705.12
616.281	1682.12
616.73	1653.47
617.179	1611.47
617.628	1590.47
618.077	1557.77
618.526	1527.37
618.975	1518.22
619.424	1500.67
619.873	1501.62
620.322	1491.32
620.771	1480.62
621.22	1454.77
621.669	1441.92
622.118	1418.97
622.567	1416.12
623.015	1390.82
623.464	1383.17
623.913	1357.07
624.361	1367.52
624.81	1360.27
625.259	1363.07
625.707	1355.32
626.156	1366.12
626.604	1381.67
627.053	1373.82
627.501	1386.22
627.95	1383.92
628.398	1403.37
628.847	1390.17
629.295	1378.27
629.744	1364.62
630.192	1351.47
630.64	1332.17
631.089	1302.02
631.537	1278.82
631.985	1260.87
632.433	1269.92
632.881	1258.97
633.33	1261.82
633.778	1257.47
634.226	1269.32
634.674	1271.02
635.122	1292.52
635.57	1308.62
636.018	1330.67
636.466	1327.62
636.914	1328.22
637.362	1353.62
637.81	1375.37
638.258	1409.72
638.705	1425.67
639.153	1478.37
639.601	1497.52
640.049	1510.97
640.497	1552.82
640.944	1584.82
641.392	1534.82
641.84	1448.32
642.287	1381.92
642.735	1354.27
643.182	1342.57
643.63	1340.27
644.078	1341.02
644.525	1356.52
644.973	1395.32
645.42	1429.42
645.867	1462.72
646.315	1485.57
646.762	1548.07
647.21	1578.07
647.657	1651.02
648.104	1713.12
648.551	1750.97
648.999	1875.32
649.446	2046.57
649.893	2273.02
650.34	2635.07
650.787	3225.17
651.234	4121.92
651.682	5649.37
652.129	7912.07
652.576	11183.67
653.023	14666.92
653.47	15533.22
653.917	15533.27
654.363	15533.17
654.81	15530.17
655.257	15530.82
655.704	14376.97
656.151	8792.72
656.598	5786.52
657.044	4177.12
657.491	3299.62
657.938	2699.67
658.385	2295.57
658.831	2046.52
659.278	1838.07
659.724	1681.27
660.171	1575.17
660.618	1478.02
661.064	1406.72
661.511	1352.82
661.957	1305.47
662.404	1298.22
662.85	1276.47
663.296	1262.42
663.743	1229.22
664.189	1215.97
664.635	1210.77
665.082	1182.32
665.528	1173.32
665.974	1130.02
666.42	1119.77
666.867	1116.32
667.313	1058.12
667.759	1047.87
668.205	1034.67
668.651	1043.92
669.097	1041.57
669.543	1048.62
669.989	1055.67
670.435	1051.82
670.881	1070.92
671.327	1114.02
671.773	1182.37
672.219	1275.62
672.665	1348.82
673.11	1387.17
673.556	1424.97
674.002	1435.02
674.448	1468.72
674.893	1259.02
675.339	1096.27
675.785	1005.32
676.23	960.32
676.676	921.82
677.122	896.37
677.567	866.67
678.013	839.02
678.458	847.17
678.904	846.72
679.349	828.57
679.794	825.37
680.24	816.12
680.685	819.17
681.131	813.27
681.576	817.22
682.021	824.07
682.466	832.77
682.912	838.92
683.357	881.32
683.802	955.42
684.247	1037.27
684.692	1106.97
685.137	1153.47
685.583	1173.42
686.028	1235.17
686.473	1175.77
686.918	1017.67
687.363	935.77
687.807	895.47
688.252	842.12
688.697	814.67
689.142	792.47
689.587	796.27
690.032	812.02
690.477	831.12
690.921	875.32
691.366	925.62
691.811	962.32
692.255	1043.57
692.7	1255.77
693.145	1814.82
693.589	2764.37
694.034	3300.32
694.478	3513.02
694.923	3236.42
695.367	4577.47
695.812	2803.92
696.256	1190.52
696.701	874.82
697.145	805.32
697.59	773.12
698.034	763.52
698.478	756.22
698.922	768.77
699.367	782.77
699.811	822.37
700.255	878.62
700.699	960.72
701.143	1042.42
701.588	1099.87
702.032	1152.97
702.476	1187.97
702.92	1270.57
703.364	1648.72
703.808	2531.82
704.252	3161.02
704.696	3344.62
705.14	3157.32
705.584	4314.32
706.027	2417.57
706.471	1217.87
706.915	917.12
707.359	807.77
707.803	754.87
708.246	732.17
708.69	723.87
709.134	719.42
709.577	707.37
710.021	723.02
710.465	709.97
710.908	714.22
711.352	738.12
711.795	814.07
712.239	875.12
712.682	899.37
713.126	881.07
713.569	979.07
714.012	811.17
714.456	709.62
714.899	667.47
715.342	638.32
715.786	613.37
716.229	597.62
716.672	585.27
717.115	587.87
717.558	593.77
718.002	606.22
718.445	631.82
718.888	663.97
719.331	683.27
719.774	693.37
720.217	675.57
720.66	646.67
721.103	612.57
721.546	578.32
721.989	557.27
722.432	556.87
722.874	555.67
723.317	560.82
723.76	608.32
724.203	740.87
724.645	993.72
725.088	1170.22
725.531	1153.32
725.974	1252.92
726.416	1128.72
726.859	707.47
727.301	576.22
727.744	550.12
728.187	548.72
728.629	554.27
729.071	592.27
729.514	617.52
729.956	638.37
730.399	655.17
730.841	657.22
731.283	644.37
731.726	626.17
732.168	636.47
732.61	665.92
733.053	712.27
733.495	790.47
733.937	882.37
734.379	1026.32
734.821	1313.47
735.263	2075.82
735.705	3736.32
736.148	5481.22
736.59	5535.87
737.032	5997.82
737.474	4943.17
737.916	1910.92
738.357	1000.97
738.799	770.92
739.241	719.77
739.683	730.37
740.125	740.97
740.567	743.22
741.008	795.62
741.45	847.32
741.892	886.32
742.334	888.67
742.775	889.92
743.217	857.17
743.658	717.77
744.1	735.42
744.542	846.07
744.983	893.92
745.425	935.27
745.866	900.72
746.307	746.47
746.749	777.87
747.19	1131.12
747.632	2183.82
748.073	4070.37
748.514	5656.12
748.956	7466.37
749.397	8783.62
749.838	6103.87
750.279	5795.22
750.72	3002.02
751.162	1268.22
751.603	736.32
752.044	591.62
752.485	524.37
752.926	487.07
753.367	467.92
753.808	453.32
754.249	452.12
754.69	443.57
755.131	438.62
755.572	435.87
756.013	435.82
756.453	436.67
756.894	446.57
757.335	449.47
757.776	459.17
758.216	471.02
758.657	503.82
759.098	551.12
759.538	658.12
759.979	948.22
760.42	1906.37
760.86	4893.32
761.301	10142.42
761.741	12067.47
762.182	13783.12
762.622	8976.37
763.063	3209.07
763.503	1308.72
763.943	774.42
764.384	607.22
764.824	532.82
765.264	493.22
765.705	459.17
766.145	439.67
766.585	418.72
767.025	408.72
767.465	411.62
767.906	417.47
768.346	441.92
768.786	512.17
769.226	751.67
769.666	1499.52
770.106	3353.77
770.546	4843.52
770.986	5494.17
771.426	4138.87
771.866	1730.42
772.306	786.72
772.745	481.82
773.185	412.02
773.625	397.82
774.065	434.02
774.505	623.12
774.944	1135.17
775.384	1651.92
775.824	1844.37
776.263	1518.62
776.703	792.27
777.142	458.27
777.582	341.22
778.021	302.07
778.461	301.57
778.9	297.67
779.34	282.47
779.779	279.22
780.219	274.72
780.658	262.42
781.097	262.12
781.537	253.92
781.976	252.82
782.415	253.37
782.855	253.32
783.294	248.72
783.733	238.32
784.172	254.82
784.611	248.82
785.05	259.62
785.489	266.92
785.928	273.22
786.367	282.47
786.806	297.22
787.245	318.57
787.684	334.52
788.123	327.92
788.562	314.12
789.001	298.47
789.44	294.22
789.879	289.52
790.317	299.27
790.756	320.37
791.195	362.57
791.634	483.07
792.072	873.32
792.511	2132.87
792.95	3966.82
793.388	4794.52
793.827	3142.07
794.265	1430.42
794.704	685.32
795.142	425.52
795.581	349.62
796.019	321.42
796.458	313.42
796.896	325.17
797.334	372.37
797.773	497.47
798.211	945.17
798.649	1965.62
799.087	3331.32
799.526	4716.22
799.964	4849.62
800.402	3370.67
800.84	1519.17
801.278	739.82
801.716	455.27
802.154	370.52
802.592	348.52
803.03	345.37
803.468	354.32
803.906	357.02
804.344	350.97
804.782	340.22
805.22	341.32
805.658	357.52
806.096	376.77
806.533	416.82
806.971	542.57
807.409	781.72
807.847	1549.22
808.284	3939.32
808.722	6981.17
809.16	9772.42
809.597	13153.77
810.035	15533.47
810.472	10830.42
810.91	4567.47
811.347	2045.82
811.785	971.52
812.222	615.57
812.66	465.67
813.097	394.82
813.535	346.72
813.972	313.82
814.409	290.92
814.846	276.77
815.284	262.12
815.721	271.77
816.158	301.77
816.595	411.42
817.032	522.47
817.47	475.32
817.907	339.22
818.344	298.42
818.781	291.57
819.218	365.57
819.655	557.77
820.092	731.42
820.529	653.77
820.966	516.32
821.403	350.37
821.839	302.37
822.276	338.02
822.713	401.52
823.15	369.77
823.587	375.62
824.023	649.32
824.46	1619.92
824.897	2843.77
825.333	2227.27
825.77	1021.37
826.206	536.52
826.643	314.07
827.08	234.82
827.516	209.42
827.953	191.12
828.389	181.02
828.825	176.62
829.262	169.02
829.698	166.32
830.135	157.72
830.571	159.67
831.007	163.47
831.443	162.62
831.88	158.02
832.316	163.02
832.752	161.47
833.188	160.77
833.624	161.12
834.06	171.92
834.497	170.57
834.933	174.32
835.369	182.97
835.805	197.52
836.241	206.07
836.677	226.67
837.112	260.12
837.548	326.62
837.984	477.82
838.42	1018.42
838.856	2851.47
839.292	5639.12
839.727	4250.67
840.163	2828.47
840.599	4261.97
841.034	6548.37
841.47	3313.07
841.906	1595.62
842.341	853.87
842.777	640.52
843.212	675.67
843.648	414.32
844.083	281.37
844.519	210.72
844.954	175.82
845.39	156.72
845.825	151.17
846.261	145.92
846.696	142.42
847.131	138.22
847.566	135.42
848.002	135.82
848.437	149.77
848.872	152.17
849.307	198.17
849.742	353.77
850.177	928.02
850.613	1975.72
851.048	1456.42
851.483	663.37
851.918	365.27
852.353	196.92
852.788	141.87
853.223	127.07
853.657	117.62
854.092	115.97
854.527	116.52
854.962	128.07
855.397	135.02
855.832	123.57
856.266	102.17
856.701	105.12
857.136	108.77
857.57	132.42
858.005	169.47
858.44	138.57
858.874	129.97
859.309	132.22
859.743	127.17
860.178	127.77
860.612	140.37
861.047	189.27
861.481	270.07
861.915	181.12
862.35	131.57
862.784	109.92
863.218	99.42
863.653	114.12
864.087	131.67
864.521	164.42
864.955	275.37
865.39	470.07
865.824	366.62
866.258	480.22
866.692	743.22
867.126	538.57
867.56	293.37
867.994	182.57
868.428	152.42
868.862	193.37
869.296	179.87
869.73	218.97
870.164	189.37
870.598	168.97
871.031	118.97
871.465	103.67
871.899	82.07
872.333	74.67
872.766	71.77
873.2	78.02
873.634	77.02
874.067	77.57
874.501	76.07
874.935	78.87
875.368	78.57
875.802	72.87
876.235	66.12
876.669	67.12
877.102	59.97
877.535	61.72
877.969	60.97
878.402	61.32
878.836	59.87
879.269	61.27
879.702	61.52
880.135	65.37
880.569	66.67
881.002	56.82
881.435	57.02
881.868	56.82
882.301	54.32
882.734	49.62
883.167	57.02
883.601	55.57
884.034	53.32
884.467	47.77
884.899	47.02
885.332	43.72
885.765	46.82
886.198	49.12
886.631	50.07
887.064	49.52
887.497	49.57
887.929	56.72
888.362	46.47
888.795	46.87
889.228	47.92
889.66	45.32
890.093	48.22
890.526	48.52
890.958	52.72
891.391	49.07
891.823	41.67
892.256	44.52
892.688	49.12
893.121	42.02
893.553	46.02
893.985	38.32
894.418	38.42
894.85	46.77
895.282	44.52
895.715	41.92
896.147	40.87
896.579	38.97
897.011	41.32
897.444	42.42
897.876	35.67
898.308	40.77
898.74	45.92
899.172	44.87
899.604	43.92
900.036	42.47
900.468	42.32
900.9	46.37
901.332	57.27
901.764	63.17
902.196	57.82
902.628	55.67
903.06	89.22
903.491	93.72
903.923	77.37
904.355	75.22
904.787	79.57
905.218	70.62
905.65	61.52
906.082	54.22
906.513	51.02
906.945	52.62
907.376	51.52
907.808	51.67
908.239	56.82
908.671	66.67
909.102	69.57
909.534	96.67
909.965	179.92
910.397	463.17
910.828	1327.47
911.259	823.12
911.691	441.42
912.122	253.77
912.553	126.97
912.984	76.92
913.415	67.92
913.847	59.02
914.278	56.47
914.709	45.37
915.14	47.02
915.571	45.47
916.002	43.02
916.433	40.82
916.864	42.07
917.295	46.92
917.726	54.52
918.157	62.17
918.587	63.82
919.018	62.47
919.449	60.07
919.88	69.07
920.311	99.32
920.741	270.27
921.172	492.12
921.603	244.62
922.033	155.57
922.464	103.47
922.895	63.47
923.325	46.07
923.756	41.02
924.186	56.82
924.617	80.82
925.047	115.32
925.478	105.37
925.908	70.17
926.338	58.72
926.769	51.47
927.199	41.42
927.629	34.27
928.06	41.87
928.49	39.47
928.92	33.02
929.35	32.72
929.78	27.72
930.21	25.67
930.641	23.22
931.071	25.12
931.501	19.77
931.931	20.42
932.361	26.22
932.791	28.97
933.221	25.22
933.651	40.52
934.08	66.42
934.51	38.77
934.94	36.02
935.37	25.22
935.8	19.72
936.229	20.92
936.659	22.42
937.089	41.52
937.519	61.22
937.948	85.22
938.378	45.62
938.807	29.27
939.237	21.72
939.666	19.57
940.096	15.92
940.525	11.82
940.955	15.92
941.384	12.17
941.814	8.92
942.243	6.72
942.672	13.42
943.102	8.77
943.531	12.27
943.96	7.42
944.39	11.32
944.819	11.47
945.248	12.42
945.677	12.47
946.106	13.37
946.535	6.82
946.964	9.97
947.393	9.32
947.822	8.02
948.251	15.87
948.68	13.72
949.109	5.32
949.538	9.02
949.967	10.37
950.396	10.97
950.825	11.97
951.254	11.67
951.682	6.52
952.111	7.22
952.54	8.07
952.969	9.82
953.397	3.72
953.826	5.07
954.254	6.12
954.683	9.42
955.112	11.57
955.54	5.32
955.969	5.87
956.397	12.07
956.826	5.17
957.254	10.07
957.682	10.72
958.111	10.82
958.539	12.42
958.967	11.17
959.396	11.22
959.824	7.67
960.252	10.52
960.68	7.47
961.109	10.22
961.537	14.77
961.965	3.57
962.393	5.87
962.821	10.77
963.249	8.57
963.677	14.62
964.105	82.67
964.533	139.07
964.961	69.52
965.389	40.37
965.817	24.32
966.245	13.02
966.672	9.62
967.1	8.87
967.528	4.07
967.956	7.52
968.383	6.12
968.811	1.97
969.239	8.97
969.666	5.77
970.094	6.12
970.522	-0.43
970.949	2.37
971.377	-0.13
971.804	5.72
972.232	5.47
972.659	6.07
973.087	8.87
973.514	3.87
973.941	3.47
974.369	0.47
974.796	8.82
975.223	-0.03
975.651	8.32
976.078	3.27
976.505	14.62
976.932	35.47
977.359	40.82
977.786	26.92
978.214	17.47
978.641	8.82
979.068	6.87
979.495	6.02
979.922	5.67
980.349	5.57
980.776	7.47
981.202	5.42
981.629	11.87
982.056	6.57
982.483	1.02
982.91	7.17
983.337	1.57
983.763	5.72
984.19	5.27
984.617	6.17
985.043	7.57
985.47	5.97
985.897	5.97
986.323	8.42
986.75	0.97
987.176	5.72
987.603	5.27
988.029	2.22
988.456	6.62
988.882	2.42
989.308	-2.38
989.735	-0.58
990.161	3.07
990.587	3.67
991.014	2.12
991.44	4.12
991.866	1.32
992.292	1.32
992.719	5.52
993.145	5.57
993.571	3.42
993.997	9.77
994.423	9.72
994.849	-0.08
995.275	4.52
995.701	3.62
996.127	-2.68
996.553	1.27
996.979	0.57
997.405	4.32
997.83	0.92
998.256	4.87
998.682	5.12
999.108	2.32
999.534	-2.13
999.959	1.17
1000.385	6.17
1000.811	0.87
1001.236	-1.98
1001.662	1.07
1002.087	6.57
1002.513	3.47
1002.938	2.62
1003.364	0.87
1003.789	8.32
1004.215	-1.93
1004.64	-1.18
1005.066	3.92
1005.491	5.47
1005.916	8.17
1006.342	5.57
1006.767	5.02
1007.192	4.82
1007.617	4.57
1008.042	4.72
1008.468	9.42
1008.893	8.47
1009.318	9.17
1009.743	18.02
1010.168	33.72
1010.593	27.12
1011.018	13.52
1011.443	14.22
1011.868	8.37
1012.293	6.72
1012.718	0.87
1013.143	0.77
1013.567	11.47
1013.992	4.62
1014.417	5.17
1014.842	-0.53
1015.267	-1.63
1015.691	3.92
1016.116	3.02
1016.541	1.02
1016.965	-0.88
1017.39	5.32
1017.814	-1.38
1018.239	2.37
1018.663	-6.38
1019.088	-0.93
1019.512	6.77
1019.937	-1.68
1020.361	0.57
1020.785	2.37
1021.21	-1.23
1021.634	-0.33
1022.058	0.67
1022.483	1.32
1022.907	-4.08
1023.331	-3.18
1023.755	-1.03
1024.179	-2.18
1024.604	1.72
1025.028	2.12
1025.452	-0.43
1025.876	4.12
1026.3	3.37
1026.724	-0.18
1027.148	3.17
1027.572	4.22
1027.996	4.12
1028.42	3.97
1028.843	-0.03
1029.267	-1.23
1029.691	6.27
1030.115	0.17
1030.539	4.92
1030.962	0.42
1031.386	-0.73
1031.81	-0.63
1032.233	-4.08
1032.657	-6.63
1033.08	-1.18
1033.504	-0.68
1033.927	-2.88
1034.351	-0.43
1034.774	-2.83
1035.198	-3.83
1035.621	3.57
1036.045	3.27
1036.468	3.22
1036.891	5.22
1037.315	2.22
1037.738	-3.13
1038.161	1.22
1038.584	-2.13
1039.008	-2.68
1039.431	-0.18
1039.854	-1.38
1040.277	2.62
1040.7	2.07
1041.123	1.42
1041.546	-1.53
1041.969	1.52
1042.392	-0.68
1042.815	-4.18
1043.238	0.37
1043.661	1.32
1044.084	-1.43
1044.507	-2.63
1044.93	0.07
1045.352	0.27
1045.775	4.87
1046.198	1.12
1046.621	-0.08
1047.043	-1.88
1047.466	3.22
1047.889	-3.28
1048.311	3.87
1048.734	-0.13
1049.156	0.32
1049.579	1.92
1050.001	-3.33
1050.424	-2.38
1050.846	-5.28
1051.269	-2.63
1051.691	0.92
1052.113	-1.18
1052.536	-3.28
1052.958	-5.88
1053.38	2.97
1053.802	1.42
1054.225	-1.63
1054.647	0.87
1055.069	-0.93
1055.491	0.47
1055.913	2.62
1056.335	-9.53
1056.757	-3.73
1057.179	-0.73
1057.601	-1.63
1058.023	2.97
1058.445	-5.38
1058.867	-0.58
1059.289	-3.13
1059.711	-3.83
1060.133	-0.88
1060.555	2.52
1060.976	3.32
1061.398	-6.23
1061.82	0.77
1062.241	-4.38
1062.663	0.82
1063.085	-5.38
1063.506	-6.23
1063.928	1.67
1064.35	-2.63
1064.771	-2.93
1065.193	-7.18
1065.614	-0.43
1066.035	2.42
1066.457	-0.13
1066.878	2.32
1067.3	-4.03
1067.721	-2.48
1068.142	0.57
1068.564	1.27
1068.985	-5.43
1069.406	-6.88
1069.827	-0.23
1070.248	-1.73
1070.67	-4.43
1071.091	-4.38
1071.512	-1.93
1071.933	-1.98
1072.354	-11.03
1072.775	-1.28
1073.196	-3.33
1073.617	-5.83
1074.038	-2.23
1074.459	-3.88
1074.88	-4.73
1075.3	0.82
1075.721	1.27
1076.142	-2.28
1076.563	-4.08
1076.983	0.07
1077.404	-9.63
1077.825	-1.43
1078.246	-6.38
1078.666	-3.58
1079.087	-5.38
1079.507	-4.73
1079.928	-1.38
1080.348	0.57
1080.769	-1.53
1081.189	-0.88
1081.61	-5.28
1082.03	-0.13
1082.451	-2.98
1082.871	-4.38
1083.291	-4.13
1083.711	-1.68
1084.132	-5.93
1084.552	-5.28
1084.972	-7.98
1085.392	-5.93
1085.813	1.87
1086.233	-6.53
1086.653	-1.78
1087.073	-3.38
1087.493	0.97
1087.913	-8.83
1088.333	-2.93
1088.753	-0.48
1089.173	-1.33
1089.593	1.87
1090.013	-3.28
1090.433	-1.33
1090.852	0.47
1091.272	-9.18
1091.692	-2.13
1092.112	-7.33
1092.531	-7.93
1092.951	0.12
1093.371	-3.13
1093.79	-2.48
1094.21	-3.13
1094.63	-5.43
1095.049	-4.43
1095.469	-8.03
1095.888	-1.93
1096.308	-1.13
1096.727	-0.68
1097.146	-5.28
1097.566	0.37
1097.985	-5.43
1098.405	-3.43
1098.824	-2.03
1099.243	-3.18
1099.662	-1.08
1100.082	-0.88
1100.501	2.07
1100.92	2.62
1101.339	-0.58
1101.758	-0.03
