Data from MSPlasma+Separation6_Subt14_10-13-41-391.txt Node
Date: Fri Jul 21 10:13:41 EDT 2017
User: Ender
Spectrometer: HR+D1039
Trigger mode: 0
Integration Time (sec): 6.430000E-3
Scans to average: 20
Electric dark correction enabled: true
Nonlinearity correction enabled: false
Boxcar width: 0
XAxis mode: Wavelengths
Number of Pixels in Spectrum: 2048
>>>>>Begin Spectral Data<<<<<
187.836	-0.12
188.309	-0.12
188.782	-0.12
189.255	4.48
189.728	3.83
190.201	-1.72
190.674	-0.52
191.147	-0.82
191.619	0.93
192.092	-3.07
192.565	2.73
193.038	0.33
193.511	2.73
193.984	-2.67
194.456	-2.42
194.929	-0.92
195.402	-2.72
195.874	-0.12
196.347	2.53
196.82	3.38
197.292	-5.82
197.765	-4.87
198.237	-0.52
198.71	-1.12
199.182	2.13
199.655	4.98
200.127	2.83
200.6	0.13
201.072	4.08
201.544	-0.37
202.017	1.93
202.489	2.38
202.961	3.08
203.433	-3.52
203.906	1.03
204.378	4.88
204.85	0.78
205.322	0.13
205.794	2.63
206.266	-4.22
206.739	5.33
207.211	1.53
207.683	-4.97
208.155	2.28
208.627	3.73
209.099	5.78
209.57	3.48
210.042	3.23
210.514	3.68
210.986	-3.27
211.458	-3.57
211.93	1.88
212.402	2.13
212.873	2.18
213.345	-2.47
213.817	-1.12
214.288	-2.27
214.76	1.58
215.232	-0.32
215.703	-1.22
216.175	1.63
216.646	3.83
217.118	-2.02
217.589	0.63
218.061	5.73
218.532	-4.07
219.004	4.48
219.475	0.08
219.946	4.83
220.418	8.03
220.889	4.03
221.36	5.88
221.832	5.78
222.303	6.23
222.774	7.33
223.245	2.38
223.717	1.23
224.188	5.73
224.659	0.08
225.13	1.13
225.601	5.98
226.072	3.28
226.543	6.08
227.014	3.68
227.485	9.93
227.956	12.13
228.427	16.18
228.898	11.78
229.369	9.38
229.839	9.08
230.31	11.03
230.781	9.68
231.252	11.38
231.722	12.63
232.193	9.28
232.664	13.88
233.135	10.98
233.605	13.53
234.076	15.13
234.546	12.88
235.017	15.13
235.487	14.73
235.958	15.38
236.428	14.23
236.899	9.58
237.369	16.63
237.84	17.83
238.31	18.68
238.78	16.63
239.251	21.73
239.721	17.93
240.191	14.98
240.662	20.23
241.132	17.13
241.602	20.88
242.072	17.38
242.542	17.78
243.013	20.78
243.483	25.48
243.953	18.53
244.423	24.13
244.893	22.58
245.363	23.68
245.833	20.43
246.303	24.23
246.773	28.08
247.243	22.53
247.712	27.53
248.182	25.53
248.652	25.08
249.122	28.13
249.592	29.28
250.061	24.68
250.531	26.78
251.001	27.48
251.471	27.18
251.94	30.73
252.41	31.43
252.879	31.68
253.349	32.43
253.818	35.28
254.288	40.88
254.757	35.03
255.227	34.83
255.696	38.38
256.166	35.58
256.635	38.43
257.105	34.58
257.574	37.13
258.043	38.63
258.513	45.68
258.982	41.48
259.451	42.23
259.92	35.08
260.389	44.88
260.859	40.38
261.328	42.48
261.797	42.28
262.266	44.73
262.735	46.28
263.204	43.63
263.673	44.08
264.142	45.18
264.611	45.28
265.08	47.13
265.549	43.73
266.018	45.43
266.487	47.28
266.955	44.13
267.424	54.53
267.893	51.03
268.362	55.63
268.83	49.18
269.299	49.88
269.768	52.48
270.236	49.68
270.705	54.13
271.174	55.13
271.642	51.83
272.111	57.68
272.579	54.73
273.048	57.33
273.516	58.33
273.985	58.78
274.453	60.13
274.922	56.03
275.39	58.53
275.858	62.33
276.327	64.38
276.795	64.88
277.263	64.83
277.731	64.98
278.2	67.48
278.668	65.53
279.136	72.58
279.604	69.23
280.072	65.48
280.54	69.78
281.008	76.18
281.477	68.23
281.945	74.73
282.413	71.68
282.881	76.13
283.348	73.28
283.816	77.33
284.284	79.43
284.752	76.48
285.22	81.18
285.688	76.43
286.156	80.08
286.623	80.28
287.091	79.48
287.559	88.03
288.026	87.68
288.494	84.53
288.962	89.98
289.429	80.38
289.897	87.83
290.364	90.13
290.832	90.33
291.3	87.83
291.767	90.98
292.234	91.73
292.702	90.43
293.169	88.93
293.637	95.68
294.104	98.03
294.571	95.08
295.039	96.73
295.506	91.23
295.973	95.73
296.44	94.63
296.908	100.58
297.375	104.03
297.842	107.53
298.309	103.48
298.776	105.28
299.243	103.83
299.71	111.78
300.177	106.53
300.644	107.48
301.111	110.78
301.578	113.48
302.045	110.18
302.512	108.88
302.979	116.78
303.446	116.88
303.913	120.08
304.379	124.53
304.846	124.28
305.313	128.63
305.78	133.78
306.246	129.18
306.713	130.48
307.18	135.83
307.646	134.58
308.113	134.53
308.579	141.73
309.046	138.58
309.512	137.33
309.979	146.08
310.445	137.48
310.912	145.68
311.378	151.38
311.845	148.48
312.311	145.58
312.777	149.08
313.244	157.13
313.71	152.18
314.176	157.28
314.642	159.93
315.109	158.93
315.575	160.58
316.041	159.23
316.507	158.23
316.973	165.83
317.439	167.53
317.905	169.63
318.371	165.53
318.837	168.13
319.303	167.08
319.769	165.93
320.235	173.38
320.701	175.58
321.167	172.63
321.633	177.33
322.099	173.53
322.564	175.78
323.03	179.53
323.496	179.08
323.962	182.93
324.427	189.08
324.893	186.23
325.359	187.78
325.824	193.13
326.29	200.18
326.755	194.58
327.221	195.68
327.686	200.58
328.152	210.53
328.617	201.83
329.083	212.68
329.548	210.03
330.014	213.28
330.479	215.08
330.944	218.13
331.41	223.53
331.875	209.13
332.34	214.33
332.805	213.53
333.271	225.33
333.736	218.48
334.201	223.93
334.666	238.33
335.131	239.33
335.596	239.88
336.061	231.78
336.526	233.68
336.991	227.33
337.456	229.23
337.921	229.53
338.386	229.38
338.851	226.28
339.316	230.78
339.781	226.23
340.246	234.63
340.711	237.38
341.175	242.48
341.64	247.78
342.105	255.08
342.569	262.68
343.034	256.08
343.499	260.53
343.963	267.43
344.428	263.83
344.893	267.33
345.357	277.63
345.822	270.63
346.286	280.38
346.751	281.93
347.215	287.78
347.679	297.08
348.144	310.53
348.608	307.93
349.073	317.78
349.537	323.03
350.001	323.33
350.465	323.68
350.93	326.88
351.394	333.18
351.858	329.68
352.322	336.83
352.786	335.63
353.25	333.08
353.715	345.88
354.179	351.43
354.643	365.43
355.107	369.63
355.571	363.38
356.035	352.48
356.498	356.83
356.962	362.63
357.426	354.03
357.89	363.43
358.354	348.73
358.818	348.38
359.281	355.33
359.745	353.08
360.209	355.03
360.673	355.38
361.136	358.63
361.6	362.93
362.064	360.88
362.527	373.08
362.991	365.93
363.454	367.88
363.918	378.58
364.381	381.28
364.845	375.23
365.308	376.73
365.772	392.03
366.235	391.13
366.698	392.08
367.162	383.53
367.625	388.28
368.088	399.28
368.552	395.68
369.015	390.03
369.478	403.63
369.941	406.63
370.404	411.48
370.867	401.08
371.331	409.43
371.794	418.58
372.257	419.78
372.72	416.08
373.183	426.03
373.646	420.63
374.109	422.08
374.572	430.38
375.035	431.13
375.497	435.53
375.96	438.23
376.423	445.08
376.886	453.58
377.349	465.28
377.811	459.68
378.274	463.38
378.737	454.88
379.199	467.78
379.662	467.58
380.125	467.88
380.587	477.88
381.05	484.63
381.512	483.23
381.975	500.33
382.437	517.83
382.9	510.38
383.362	509.93
383.825	512.53
384.287	513.98
384.75	516.83
385.212	521.23
385.674	526.53
386.136	527.08
386.599	521.83
387.061	523.68
387.523	530.23
387.985	531.13
388.447	541.63
388.91	538.38
389.372	540.73
389.834	542.98
390.296	532.93
390.758	544.33
391.22	538.23
391.682	534.73
392.144	546.68
392.606	553.58
393.068	559.13
393.529	599.58
393.991	610.08
394.453	572.83
394.915	556.28
395.377	547.58
395.838	558.23
396.3	557.43
396.762	563.03
397.224	565.33
397.685	564.13
398.147	565.23
398.608	569.23
399.07	581.58
399.531	578.68
399.993	596.18
400.454	609.13
400.916	601.88
401.377	616.78
401.839	623.98
402.3	615.58
402.762	644.18
403.223	696.78
403.684	693.38
404.145	668.08
404.607	651.43
405.068	638.08
405.529	651.08
405.99	659.73
406.451	670.73
406.913	653.23
407.374	663.73
407.835	664.88
408.296	680.18
408.757	682.93
409.218	703.23
409.679	710.48
410.14	705.58
410.601	729.23
411.062	732.53
411.522	736.53
411.983	736.23
412.444	745.13
412.905	756.78
413.366	774.48
413.826	813.93
414.287	910.38
414.748	1087.23
415.208	1117.03
415.669	930.73
416.13	852.63
416.59	830.28
417.051	861.48
417.511	897.23
417.972	968.18
418.432	1037.13
418.893	1149.88
419.353	1102.83
419.814	854.43
420.274	756.33
420.734	747.73
421.195	771.93
421.655	770.83
422.115	786.68
422.576	779.23
423.036	786.63
423.496	814.23
423.956	846.53
424.416	905.08
424.876	1010.13
425.336	1010.88
425.797	992.78
426.257	979.98
426.717	925.38
427.177	863.48
427.637	875.23
428.097	893.03
428.556	929.83
429.016	1000.33
429.476	998.08
429.936	984.48
430.396	976.18
430.856	996.18
431.315	1026.28
431.775	1093.28
432.235	1171.58
432.694	1189.13
433.154	1126.08
433.614	1111.73
434.073	1062.23
434.533	961.33
434.993	928.28
435.452	938.98
435.912	915.13
436.371	913.23
436.83	900.08
437.29	882.03
437.749	863.73
438.209	849.48
438.668	871.23
439.127	885.08
439.587	874.83
440.046	848.08
440.505	862.88
440.964	863.78
441.424	897.58
441.883	923.98
442.342	867.88
442.801	825.63
443.26	841.28
443.719	832.58
444.178	832.98
444.637	846.73
445.096	860.08
445.555	857.53
446.014	851.98
446.473	843.73
446.932	850.78
447.391	867.53
447.849	875.53
448.308	859.38
448.767	865.13
449.226	889.13
449.685	894.33
450.143	927.48
450.602	918.88
451.061	879.03
451.519	882.18
451.978	872.83
452.436	867.23
452.895	881.48
453.353	876.83
453.812	866.43
454.27	868.58
454.729	872.98
455.187	883.73
455.646	888.13
456.104	884.13
456.562	885.03
457.021	904.08
457.479	872.68
457.937	898.43
458.395	920.73
458.854	910.98
459.312	893.68
459.77	904.68
460.228	918.18
460.686	931.83
461.144	932.63
461.602	922.38
462.06	925.13
462.518	943.73
462.976	937.28
463.434	949.53
463.892	960.28
464.35	973.63
464.808	990.78
465.266	995.33
465.724	1011.98
466.181	1019.28
466.639	1011.73
467.097	1049.98
467.555	1082.73
468.012	1080.68
468.47	1089.58
468.928	1132.63
469.385	1153.78
469.843	1173.98
470.3	1166.08
470.758	1202.18
471.215	1215.53
471.673	1244.78
472.13	1280.88
472.588	1298.03
473.045	1303.68
473.503	1329.73
473.96	1374.18
474.417	1387.78
474.875	1450.08
475.332	1493.83
475.789	1527.63
476.246	1566.93
476.704	1627.48
477.161	1667.23
477.618	1707.33
478.075	1794.23
478.532	1930.98
478.989	2066.48
479.446	2270.83
479.903	2374.13
480.36	2559.68
480.817	2712.23
481.274	2861.68
481.731	3128.08
482.188	3331.28
482.645	3572.48
483.102	3759.68
483.558	4014.38
484.015	4184.23
484.472	4171.48
484.929	4051.33
485.385	3883.43
485.842	3819.63
486.299	3687.23
486.755	3407.03
487.212	3082.98
487.668	2800.68
488.125	2604.08
488.582	2427.68
489.038	2334.48
489.494	2281.33
489.951	2207.43
490.407	2169.23
490.864	2130.23
491.32	2081.33
491.776	2076.88
492.233	2072.98
492.689	2040.58
493.145	2001.08
493.602	1982.93
494.058	2010.28
494.514	2002.88
494.97	2004.23
495.426	2026.58
495.882	2025.78
496.338	2014.23
496.794	2036.78
497.251	2021.43
497.707	2043.83
498.163	2071.08
498.618	2047.68
499.074	2042.18
499.53	2071.63
499.986	2092.33
500.442	2061.23
500.898	2051.43
501.354	2066.48
501.809	2072.53
502.265	2078.93
502.721	2079.83
503.177	2084.83
503.632	2093.18
504.088	2113.43
504.543	2124.78
504.999	2158.08
505.455	2148.88
505.91	2122.68
506.366	2123.48
506.821	2127.73
507.277	2109.03
507.732	2121.63
508.187	2126.18
508.643	2137.88
509.098	2141.33
509.553	2166.13
510.009	2197.43
510.464	2230.53
510.919	2243.73
511.375	2276.13
511.83	2297.18
512.285	2332.88
512.74	2372.18
513.195	2410.98
513.65	2419.53
514.105	2471.88
514.56	2474.33
515.015	2528.23
515.47	2535.28
515.925	2505.63
516.38	2510.98
516.835	2515.03
517.29	2496.13
517.745	2493.43
518.2	2467.98
518.655	2419.53
519.109	2393.98
519.564	2347.63
520.019	2335.83
520.474	2320.43
520.928	2307.83
521.383	2291.78
521.838	2264.03
522.292	2259.33
522.747	2244.63
523.201	2243.78
523.656	2214.23
524.11	2215.73
524.565	2211.63
525.019	2212.93
525.474	2195.73
525.928	2186.63
526.382	2191.48
526.837	2191.43
527.291	2195.58
527.745	2176.23
528.2	2191.68
528.654	2156.53
529.108	2163.38
529.562	2167.73
530.016	2145.78
530.47	2158.13
530.925	2162.78
531.379	2152.83
531.833	2183.88
532.287	2167.68
532.741	2167.58
533.195	2168.73
533.649	2181.43
534.103	2179.43
534.556	2158.03
535.01	2167.78
535.464	2154.23
535.918	2166.08
536.372	2183.83
536.826	2172.13
537.279	2148.28
537.733	2169.58
538.187	2169.18
538.64	2156.63
539.094	2187.68
539.548	2209.48
540.001	2201.78
540.455	2216.53
540.908	2234.78
541.362	2262.93
541.815	2277.63
542.269	2311.43
542.722	2300.53
543.175	2332.33
543.629	2340.13
544.082	2357.93
544.536	2365.98
544.989	2371.83
545.442	2399.38
545.895	2396.43
546.349	2376.23
546.802	2402.68
547.255	2390.53
547.708	2404.53
548.161	2434.03
548.614	2431.13
549.067	2452.13
549.52	2432.18
549.973	2406.83
550.426	2399.53
550.879	2392.48
551.332	2395.98
551.785	2418.63
552.238	2430.03
552.691	2433.63
553.144	2473.98
553.596	2505.48
554.049	2528.93
554.502	2581.93
554.955	2624.78
555.407	2646.73
555.86	2624.03
556.313	2594.58
556.765	2572.48
557.218	2548.53
557.67	2533.13
558.123	2507.38
558.576	2500.43
559.028	2494.58
559.48	2520.63
559.933	2503.38
560.385	2444.53
560.838	2352.73
561.29	2293.08
561.742	2285.18
562.195	2231.03
562.647	2198.13
563.099	2199.63
563.551	2182.93
564.004	2193.73
564.456	2181.58
564.908	2140.78
565.36	2092.78
565.812	2043.78
566.264	2034.23
566.716	2011.03
567.168	1972.13
567.62	1975.58
568.072	1961.28
568.524	1948.08
568.976	1931.38
569.428	1927.28
569.88	1914.73
570.332	1936.53
570.784	1938.53
571.235	1927.83
571.687	1941.68
572.139	1950.38
572.59	1964.48
573.042	1967.38
573.494	1970.93
573.945	1948.73
574.397	1903.28
574.849	1901.73
575.3	1910.83
575.752	1877.63
576.203	1860.38
576.655	1860.23
577.106	1839.83
577.557	1831.28
578.009	1820.33
578.46	1830.13
578.912	1807.23
579.363	1820.88
579.814	1820.08
580.265	1817.58
580.717	1822.58
581.168	1813.43
581.619	1818.58
582.07	1840.63
582.521	1836.53
582.972	1825.08
583.423	1839.53
583.875	1848.58
584.326	1858.23
584.777	1896.03
585.227	1920.18
585.678	1941.98
586.129	1963.63
586.58	1977.23
587.031	2001.53
587.482	2052.33
587.933	2094.23
588.384	2096.38
588.834	2061.98
589.285	2044.18
589.736	2043.03
590.186	2048.38
590.637	2020.13
591.088	1978.08
591.538	1942.33
591.989	1905.33
592.439	1896.23
592.89	1871.08
593.34	1860.33
593.791	1857.43
594.241	1843.48
594.692	1845.68
595.142	1843.38
595.593	1839.98
596.043	1854.48
596.493	1859.18
596.943	1854.73
597.394	1905.13
597.844	1926.08
598.294	1981.08
598.744	2050.68
599.195	2133.03
599.645	2253.58
600.095	2353.93
600.545	2467.08
600.995	2583.58
601.445	2679.93
601.895	2793.38
602.345	2877.18
602.795	2838.63
603.245	2736.63
603.695	2582.48
604.145	2445.58
604.594	2331.53
605.044	2208.38
605.494	2070.33
605.944	1966.83
606.393	1925.43
606.843	1875.43
607.293	1876.88
607.743	1870.63
608.192	1879.28
608.642	1876.03
609.091	1880.43
609.541	1872.38
609.99	1871.48
610.44	1837.63
610.889	1814.08
611.339	1783.73
611.788	1767.03
612.238	1780.03
612.687	1794.73
613.136	1795.43
613.586	1819.53
614.035	1809.18
614.484	1822.58
614.933	1820.68
615.383	1766.08
615.832	1735.98
616.281	1712.23
616.73	1683.88
617.179	1649.73
617.628	1605.48
618.077	1585.08
618.526	1558.98
618.975	1557.78
619.424	1528.23
619.873	1529.28
620.322	1515.08
620.771	1508.78
621.22	1494.58
621.669	1462.53
622.118	1443.68
622.567	1437.48
623.015	1400.53
623.464	1412.13
623.913	1391.58
624.361	1387.88
624.81	1376.53
625.259	1385.48
625.707	1376.93
626.156	1377.08
626.604	1406.18
627.053	1414.33
627.501	1414.68
627.95	1419.58
628.398	1425.98
628.847	1405.63
629.295	1410.88
629.744	1401.53
630.192	1372.98
630.64	1360.98
631.089	1338.73
631.537	1298.63
631.985	1285.38
632.433	1281.73
632.881	1273.23
633.33	1287.98
633.778	1280.73
634.226	1282.78
634.674	1307.98
635.122	1311.68
635.57	1337.93
636.018	1353.68
636.466	1346.98
636.914	1350.88
637.362	1376.88
637.81	1392.48
638.258	1437.93
638.705	1448.63
639.153	1497.78
639.601	1505.28
640.049	1537.13
640.497	1580.93
640.944	1616.98
641.392	1565.38
641.84	1471.13
642.287	1400.48
642.735	1371.53
643.182	1358.93
643.63	1364.38
644.078	1359.83
644.525	1395.63
644.973	1423.38
645.42	1448.08
645.867	1486.83
646.315	1511.08
646.762	1568.33
647.21	1608.83
647.657	1684.43
648.104	1730.53
648.551	1783.23
648.999	1915.43
649.446	2083.13
649.893	2316.18
650.34	2685.08
650.787	3266.73
651.234	4172.88
651.682	5732.88
652.129	8016.88
652.576	11342.63
653.023	14857.33
653.47	15533.83
653.917	15533.88
654.363	15533.78
654.81	15530.78
655.257	15531.43
655.704	14627.68
656.151	8915.03
656.598	5902.58
657.044	4242.08
657.491	3352.43
657.938	2727.53
658.385	2327.48
658.831	2061.58
659.278	1866.68
659.724	1713.28
660.171	1604.38
660.618	1496.08
661.064	1413.98
661.511	1370.78
661.957	1340.48
662.404	1305.78
662.85	1295.23
663.296	1281.03
663.743	1256.08
664.189	1234.58
664.635	1237.28
665.082	1197.18
665.528	1188.53
665.974	1157.43
666.42	1133.18
666.867	1137.23
667.313	1075.93
667.759	1062.63
668.205	1052.73
668.651	1062.58
669.097	1062.18
669.543	1059.08
669.989	1069.18
670.435	1081.83
670.881	1091.03
671.327	1135.63
671.773	1206.48
672.219	1303.98
672.665	1370.78
673.11	1422.98
673.556	1438.43
674.002	1468.53
674.448	1484.43
674.893	1271.18
675.339	1118.08
675.785	1016.63
676.23	972.98
676.676	936.28
677.122	916.18
677.567	892.93
678.013	862.78
678.458	848.03
678.904	856.93
679.349	846.33
679.794	836.68
680.24	839.08
680.685	825.48
681.131	824.33
681.576	835.03
682.021	837.78
682.466	853.28
682.912	860.18
683.357	892.53
683.802	963.88
684.247	1062.08
684.692	1116.88
685.137	1177.13
685.583	1199.33
686.028	1258.48
686.473	1193.68
686.918	1038.48
687.363	955.28
687.807	898.23
688.252	865.78
688.697	829.23
689.142	804.33
689.587	813.33
690.032	826.23
690.477	861.43
690.921	893.03
691.366	943.58
691.811	974.33
692.255	1054.93
692.7	1286.13
693.145	1849.68
693.589	2810.08
694.034	3373.83
694.478	3588.18
694.923	3298.48
695.367	4674.33
695.812	2862.38
696.256	1209.13
696.701	881.13
697.145	814.63
697.59	789.28
698.034	773.43
698.478	772.98
698.922	777.88
699.367	792.78
699.811	830.48
700.255	900.83
700.699	973.78
701.143	1072.08
701.588	1123.63
702.032	1174.43
702.476	1214.58
702.92	1300.93
703.364	1680.13
703.808	2570.28
704.252	3207.43
704.696	3404.83
705.14	3228.33
705.584	4421.48
706.027	2467.23
706.471	1234.38
706.915	926.78
707.359	816.43
707.803	760.98
708.246	743.78
708.69	737.28
709.134	726.43
709.577	724.03
710.021	736.13
710.465	728.83
710.908	717.93
711.352	749.53
711.795	823.83
712.239	894.98
712.682	914.23
713.126	898.68
713.569	996.88
714.012	827.83
714.456	721.13
714.899	676.58
715.342	644.58
715.786	617.93
716.229	612.73
716.672	600.33
717.115	593.88
717.558	603.33
718.002	619.33
718.445	645.78
718.888	666.58
719.331	691.53
719.774	702.93
720.217	697.48
720.66	657.18
721.103	622.43
721.546	587.63
721.989	571.88
722.432	566.78
722.874	566.93
723.317	570.58
723.76	614.28
724.203	759.63
724.645	1007.43
725.088	1188.73
725.531	1169.28
725.974	1277.13
726.416	1146.23
726.859	711.23
727.301	590.23
727.744	560.23
728.187	558.38
728.629	570.28
729.071	600.53
729.514	625.23
729.956	658.58
730.399	664.73
730.841	663.23
731.283	660.08
731.726	632.98
732.168	646.28
732.61	670.48
733.053	724.38
733.495	805.58
733.937	896.68
734.379	1041.98
734.821	1336.48
735.263	2107.88
735.705	3806.03
736.148	5603.48
736.59	5638.03
737.032	6117.13
737.474	5048.43
737.916	1939.73
738.357	1021.93
738.799	785.43
739.241	730.23
739.683	738.28
740.125	758.18
740.567	761.88
741.008	804.53
741.45	860.63
741.892	895.38
742.334	902.63
742.775	901.28
743.217	864.18
743.658	724.78
744.1	749.08
744.542	862.98
744.983	906.28
745.425	943.93
745.866	923.23
746.307	756.53
746.749	795.83
747.19	1150.13
747.632	2219.58
748.073	4144.88
748.514	5768.58
748.956	7619.18
749.397	8966.33
749.838	6243.48
750.279	5913.53
750.72	3066.78
751.162	1294.08
751.603	740.73
752.044	599.43
752.485	535.73
752.926	498.23
753.367	478.83
753.808	464.83
754.249	452.73
754.69	447.78
755.131	450.83
755.572	445.88
756.013	445.78
756.453	440.68
756.894	454.33
757.335	449.88
757.776	465.23
758.216	476.93
758.657	508.23
759.098	560.98
759.538	667.33
759.979	969.73
760.42	1943.58
760.86	4988.23
761.301	10346.53
761.741	12280.03
762.182	14043.28
762.622	9164.03
763.063	3264.33
763.503	1342.68
763.943	788.28
764.384	626.63
764.824	546.63
765.264	500.68
765.705	469.33
766.145	438.18
766.585	427.78
767.025	418.23
767.465	414.28
767.906	431.43
768.346	459.28
768.786	519.18
769.226	764.78
769.666	1532.08
770.106	3427.78
770.546	4950.33
770.986	5583.08
771.426	4241.88
771.866	1762.33
772.306	803.33
772.745	496.53
773.185	423.08
773.625	408.48
774.065	440.33
774.505	629.68
774.944	1142.13
775.384	1658.93
775.824	1863.18
776.263	1536.28
776.703	810.08
777.142	462.98
777.582	343.13
778.021	317.53
778.461	301.83
778.9	300.13
779.34	292.43
779.779	281.53
780.219	277.68
780.658	270.28
781.097	269.78
781.537	256.83
781.976	264.98
782.415	260.28
782.855	255.48
783.294	253.78
783.733	253.03
784.172	256.48
784.611	254.48
785.05	268.08
785.489	275.38
785.928	281.58
786.367	288.38
786.806	306.13
787.245	325.08
787.684	341.78
788.123	337.18
788.562	321.88
789.001	313.33
789.44	302.73
789.879	301.08
790.317	308.58
790.756	327.98
791.195	366.43
791.634	493.23
792.072	882.83
792.511	2171.28
792.95	4051.53
793.388	4914.18
793.827	3205.63
794.265	1460.68
794.704	701.88
795.142	432.98
795.581	357.93
796.019	324.18
796.458	316.38
796.896	335.63
797.334	377.78
797.773	506.33
798.211	969.08
798.649	2010.58
799.087	3382.98
799.526	4818.58
799.964	4967.58
800.402	3421.88
800.84	1554.53
801.278	761.33
801.716	458.18
802.154	378.98
802.592	351.53
803.03	348.23
803.468	360.23
803.906	365.43
804.344	352.13
804.782	345.28
805.22	346.33
805.658	363.13
806.096	389.63
806.533	432.28
806.971	557.48
807.409	805.38
807.847	1574.38
808.284	4019.18
808.722	7106.63
809.16	9963.93
809.597	13406.68
810.035	15535.78
810.472	11011.33
810.91	4662.38
811.347	2076.83
811.785	984.28
812.222	625.73
812.66	480.63
813.097	406.08
813.535	355.38
813.972	321.08
814.409	295.33
814.846	284.78
815.284	268.38
815.721	276.18
816.158	305.33
816.595	416.38
817.032	532.93
817.47	480.18
817.907	346.03
818.344	299.13
818.781	309.13
819.218	370.03
819.655	569.83
820.092	734.93
820.529	666.48
820.966	522.93
821.403	362.83
821.839	304.58
822.276	334.38
822.713	408.93
823.15	377.18
823.587	386.23
824.023	660.38
824.46	1640.48
824.897	2898.93
825.333	2278.13
825.77	1038.68
826.206	545.38
826.643	319.78
827.08	240.58
827.516	213.43
827.953	199.68
828.389	187.88
828.825	177.38
829.262	172.88
829.698	161.78
830.135	158.83
830.571	156.93
831.007	156.33
831.443	150.98
831.88	160.73
832.316	163.38
832.752	162.93
833.188	166.83
833.624	164.68
834.06	165.48
834.497	173.48
834.933	173.93
835.369	192.48
835.805	204.08
836.241	205.63
836.677	228.53
837.112	273.03
837.548	330.83
837.984	487.98
838.42	1034.58
838.856	2890.78
839.292	5781.38
839.727	4327.48
840.163	2866.68
840.599	4337.83
841.034	6693.73
841.47	3381.08
841.906	1616.38
842.341	867.58
842.777	651.23
843.212	683.93
843.648	422.43
844.083	288.48
844.519	216.68
844.954	184.28
845.39	165.53
845.825	157.68
846.261	151.43
846.696	142.08
847.131	142.13
847.566	139.43
848.002	145.78
848.437	150.58
848.872	157.28
849.307	201.93
849.742	363.78
850.177	942.88
850.613	2024.53
851.048	1478.08
851.483	672.33
851.918	373.53
852.353	207.43
852.788	147.68
853.223	133.53
853.657	118.98
854.092	117.93
854.527	116.28
854.962	129.23
855.397	140.93
855.832	120.83
856.266	111.48
856.701	108.63
857.136	113.58
857.57	134.98
858.005	169.23
858.44	138.98
858.874	131.03
859.309	135.73
859.743	132.68
860.178	127.38
860.612	138.88
861.047	189.18
861.481	271.93
861.915	186.83
862.35	141.73
862.784	115.28
863.218	101.63
863.653	117.63
864.087	139.18
864.521	171.33
864.955	276.33
865.39	475.68
865.824	375.83
866.258	491.13
866.692	753.13
867.126	551.38
867.56	296.08
867.994	188.48
868.428	158.08
868.862	195.23
869.296	177.73
869.73	217.83
870.164	189.48
870.598	173.33
871.031	118.78
871.465	105.58
871.899	85.98
872.333	76.23
872.766	80.48
873.2	79.73
873.634	75.78
874.067	77.58
874.501	81.83
874.935	81.58
875.368	78.58
875.802	75.33
876.235	71.48
876.669	66.63
877.102	64.43
877.535	63.43
877.969	62.63
878.402	63.18
878.836	60.53
879.269	64.68
879.702	61.93
880.135	62.98
880.569	68.18
881.002	62.28
881.435	60.68
881.868	59.53
882.301	56.03
882.734	54.48
883.167	58.68
883.601	54.78
884.034	52.03
884.467	49.78
884.899	54.23
885.332	50.68
885.765	51.63
886.198	49.63
886.631	47.83
887.064	54.93
887.497	47.18
887.929	48.23
888.362	48.03
888.795	48.38
889.228	57.78
889.66	52.78
890.093	47.83
890.526	47.48
890.958	44.48
891.391	48.73
891.823	45.53
892.256	48.63
892.688	49.73
893.121	44.48
893.553	49.18
893.985	43.48
894.418	45.58
894.85	44.28
895.282	48.38
895.715	44.88
896.147	43.73
896.579	36.33
897.011	45.88
897.444	45.48
897.876	36.58
898.308	43.73
898.74	45.33
899.172	48.33
899.604	44.93
900.036	44.58
900.468	42.18
900.9	48.28
901.332	60.78
901.764	63.98
902.196	56.93
902.628	60.08
903.06	93.23
903.491	96.93
903.923	81.63
904.355	75.33
904.787	80.18
905.218	64.33
905.65	59.38
906.082	53.53
906.513	51.83
906.945	53.28
907.376	55.78
907.808	56.03
908.239	52.38
908.671	63.83
909.102	71.88
909.534	99.83
909.965	182.08
910.397	473.13
910.828	1355.63
911.259	832.13
911.691	455.03
912.122	261.98
912.553	133.88
912.984	74.53
913.415	68.88
913.847	59.48
914.278	55.43
914.709	53.23
915.14	46.28
915.571	47.28
916.002	48.93
916.433	42.88
916.864	47.03
917.295	48.38
917.726	54.43
918.157	66.18
918.587	65.53
919.018	63.53
919.449	56.93
919.88	67.33
920.311	106.68
920.741	277.38
921.172	503.98
921.603	251.68
922.033	162.43
922.464	104.13
922.895	67.68
923.325	45.68
923.756	44.88
924.186	58.48
924.617	82.38
925.047	118.63
925.478	102.13
925.908	77.08
926.338	58.83
926.769	44.53
927.199	44.83
927.629	40.58
928.06	41.88
928.49	41.73
928.92	34.28
929.35	34.93
929.78	26.28
930.21	29.33
930.641	21.78
931.071	24.03
931.501	22.58
931.931	23.23
932.361	27.03
932.791	27.98
933.221	31.63
933.651	41.08
934.08	69.53
934.51	41.43
934.94	32.08
935.37	23.13
935.8	23.78
936.229	23.53
936.659	24.23
937.089	43.68
937.519	66.03
937.948	87.68
938.378	47.83
938.807	27.98
939.237	21.03
939.666	21.43
940.096	8.08
940.525	12.18
940.955	11.78
941.384	9.83
941.814	9.93
942.243	11.28
942.672	10.23
943.102	9.93
943.531	11.28
943.96	10.78
944.39	10.43
944.819	19.33
945.248	10.78
945.677	16.03
946.106	10.28
946.535	13.28
946.964	9.63
947.393	8.48
947.822	7.43
948.251	11.28
948.68	14.63
949.109	10.08
949.538	13.13
949.967	11.73
950.396	12.98
950.825	14.48
951.254	14.13
951.682	9.08
952.111	2.58
952.54	10.88
952.969	7.78
953.397	6.48
953.826	7.23
954.254	11.08
954.683	11.13
955.112	11.83
955.54	9.18
955.969	9.43
956.397	11.28
956.826	8.73
957.254	8.53
957.682	12.03
958.111	11.73
958.539	13.18
958.967	9.53
959.396	15.28
959.824	10.78
960.252	8.93
960.68	8.43
961.109	13.03
961.537	12.98
961.965	5.78
962.393	5.38
962.821	8.98
963.249	12.78
963.677	18.83
964.105	82.38
964.533	143.08
964.961	71.93
965.389	41.78
965.817	23.83
966.245	10.88
966.672	13.93
967.1	9.78
967.528	3.73
967.956	7.23
968.383	11.13
968.811	5.58
969.239	8.98
969.666	8.78
970.094	11.23
970.522	4.83
970.949	8.48
971.377	-1.27
971.804	7.13
972.232	3.98
972.659	4.93
973.087	6.38
973.514	2.53
973.941	1.28
974.369	1.63
974.796	3.13
975.223	1.88
975.651	11.08
976.078	8.13
976.505	17.48
976.932	36.33
977.359	42.83
977.786	27.83
978.214	20.58
978.641	8.43
979.068	6.23
979.495	7.68
979.922	7.28
980.349	7.58
980.776	7.78
981.202	4.48
981.629	9.18
982.056	7.93
982.483	1.73
982.91	8.83
983.337	2.93
983.763	1.88
984.19	8.13
984.617	1.68
985.043	13.23
985.47	11.08
985.897	8.48
986.323	11.48
986.75	2.33
987.176	5.03
987.603	3.93
988.029	10.28
988.456	6.48
988.882	-0.17
989.308	-1.07
989.735	1.03
990.161	3.18
990.587	0.08
991.014	7.33
991.44	3.88
991.866	5.93
992.292	-0.12
992.719	1.93
993.145	12.68
993.571	5.58
993.997	8.33
994.423	5.78
994.849	-1.52
995.275	3.03
995.701	5.98
996.127	1.53
996.553	1.53
996.979	-0.02
997.405	3.68
997.83	3.63
998.256	5.08
998.682	4.13
999.108	3.33
999.534	-2.02
999.959	1.38
1000.385	4.68
1000.811	1.73
1001.236	-5.67
1001.662	-0.32
1002.087	10.08
1002.513	4.33
1002.938	-0.77
1003.364	4.83
1003.789	7.03
1004.215	1.23
1004.64	2.93
1005.066	6.53
1005.491	7.93
1005.916	6.38
1006.342	4.78
1006.767	7.03
1007.192	8.38
1007.617	2.48
1008.042	4.38
1008.468	5.03
1008.893	4.28
1009.318	10.38
1009.743	19.68
1010.168	32.63
1010.593	25.03
1011.018	16.38
1011.443	10.58
1011.868	9.73
1012.293	9.38
1012.718	3.03
1013.143	3.73
1013.567	8.63
1013.992	5.18
1014.417	2.63
1014.842	7.83
1015.267	2.88
1015.691	6.88
1016.116	3.28
1016.541	5.23
1016.965	5.93
1017.39	-0.67
1017.814	-2.82
1018.239	-1.27
1018.663	-3.72
1019.088	0.23
1019.512	5.68
1019.937	-5.07
1020.361	1.73
1020.785	5.18
1021.21	-2.52
1021.634	2.13
1022.058	2.73
1022.483	1.08
1022.907	-1.22
1023.331	2.48
1023.755	-1.27
1024.179	-1.22
1024.604	1.18
1025.028	3.83
1025.452	4.63
1025.876	6.23
1026.3	2.38
1026.724	2.38
1027.148	1.53
1027.572	3.63
1027.996	-1.07
1028.42	3.18
1028.843	2.53
1029.267	0.33
1029.691	7.08
1030.115	0.43
1030.539	1.28
1030.962	-1.67
1031.386	0.93
1031.81	-1.32
1032.233	-2.27
1032.657	-5.62
1033.08	0.78
1033.504	0.38
1033.927	-2.87
1034.351	-3.92
1034.774	-3.47
1035.198	-5.27
1035.621	1.48
1036.045	-3.97
1036.468	5.88
1036.891	3.53
1037.315	0.03
1037.738	-0.32
1038.161	-0.02
1038.584	-0.37
1039.008	-3.52
1039.431	-3.42
1039.854	-5.17
1040.277	1.73
1040.7	-2.12
1041.123	3.53
1041.546	-0.47
1041.969	5.18
1042.392	-1.62
1042.815	-4.97
1043.238	0.23
1043.661	-1.47
1044.084	-0.77
1044.507	-0.17
1044.93	0.08
1045.352	-2.22
1045.775	5.28
1046.198	1.68
1046.621	4.38
1047.043	-3.12
1047.466	2.08
1047.889	1.48
1048.311	0.98
1048.734	-1.92
1049.156	-1.02
1049.579	2.53
1050.001	4.13
1050.424	1.93
1050.846	-0.87
1051.269	-0.12
1051.691	-1.42
1052.113	3.93
1052.536	1.63
1052.958	-5.67
1053.38	2.68
1053.802	1.43
1054.225	1.38
1054.647	2.88
1055.069	0.48
1055.491	1.53
1055.913	0.28
1056.335	-5.52
1056.757	-5.77
1057.179	-1.37
1057.601	-0.72
1058.023	-1.57
1058.445	-5.22
1058.867	2.33
1059.289	-0.62
1059.711	-2.17
1060.133	3.48
1060.555	-1.47
1060.976	1.58
1061.398	-2.07
1061.82	7.28
1062.241	-0.27
1062.663	-1.97
1063.085	-2.52
1063.506	-5.37
1063.928	-6.52
1064.35	-3.27
1064.771	-2.17
1065.193	-2.97
1065.614	-1.42
1066.035	7.48
1066.457	1.58
1066.878	1.98
1067.3	0.83
1067.721	1.38
1068.142	2.78
1068.564	1.98
1068.985	-3.52
1069.406	-1.17
1069.827	-1.42
1070.248	-1.92
1070.67	-4.52
1071.091	-4.12
1071.512	-4.57
1071.933	-5.37
1072.354	-2.77
1072.775	1.13
1073.196	-0.17
1073.617	-5.12
1074.038	1.28
1074.459	-1.62
1074.88	-4.92
1075.3	-1.57
1075.721	2.18
1076.142	-4.67
1076.563	-4.72
1076.983	3.73
1077.404	-5.22
1077.825	-0.67
1078.246	-4.52
1078.666	-3.27
1079.087	-3.97
1079.507	-5.37
1079.928	0.83
1080.348	-3.37
1080.769	0.08
1081.189	-3.37
1081.61	-10.82
1082.03	0.53
1082.451	-2.72
1082.871	-2.87
1083.291	-4.67
1083.711	-0.52
1084.132	-4.52
1084.552	-5.97
1084.972	-6.47
1085.392	-4.02
1085.813	-2.92
1086.233	-3.92
1086.653	-5.22
1087.073	-6.57
1087.493	-1.02
1087.913	-3.97
1088.333	-5.42
1088.753	1.88
1089.173	1.88
1089.593	0.68
1090.013	-3.77
1090.433	-6.47
1090.852	0.63
1091.272	-5.17
1091.692	-0.02
1092.112	-5.07
1092.531	-1.37
1092.951	-2.27
1093.371	-2.47
1093.79	-5.37
1094.21	-2.17
1094.63	-3.72
1095.049	-0.02
1095.469	-8.17
1095.888	-0.22
1096.308	2.58
1096.727	1.83
1097.146	-5.72
1097.566	-3.27
1097.985	-3.87
1098.405	2.63
1098.824	0.48
1099.243	-5.42
1099.662	0.43
1100.082	-2.17
1100.501	0.18
1100.92	4.98
1101.339	3.38
1101.758	2.43
