Data from MSPlasma+Separation6_Subt14_10-13-18-759.txt Node
Date: Fri Jul 21 10:13:18 EDT 2017
User: Ender
Spectrometer: HR+D1039
Trigger mode: 0
Integration Time (sec): 6.430000E-3
Scans to average: 20
Electric dark correction enabled: true
Nonlinearity correction enabled: false
Boxcar width: 0
XAxis mode: Wavelengths
Number of Pixels in Spectrum: 2048
>>>>>Begin Spectral Data<<<<<
187.836	0.62
188.309	0.62
188.782	0.62
189.255	1.12
189.728	1.02
190.201	2.77
190.674	2.32
191.147	-2.48
191.619	-0.38
192.092	-2.18
192.565	-4.48
193.038	3.77
193.511	0.97
193.984	1.57
194.456	2.72
194.929	0.22
195.402	-6.88
195.874	-0.63
196.347	5.82
196.82	-2.18
197.292	-1.98
197.765	-1.63
198.237	0.97
198.71	-6.03
199.182	-0.98
199.655	-0.23
200.127	-2.48
200.6	3.72
201.072	-0.13
201.544	1.72
202.017	0.52
202.489	3.67
202.961	-0.63
203.433	-4.48
203.906	-1.33
204.378	2.97
204.85	6.37
205.322	-5.13
205.794	2.12
206.266	0.52
206.739	4.02
207.211	1.77
207.683	0.12
208.155	2.07
208.627	-1.78
209.099	4.87
209.57	-1.23
210.042	2.72
210.514	1.12
210.986	1.57
211.458	-5.13
211.93	3.22
212.402	0.62
212.873	-0.53
213.345	-1.53
213.817	3.32
214.288	2.27
214.76	5.12
215.232	1.52
215.703	2.92
216.175	-1.98
216.646	1.32
217.118	-1.63
217.589	-1.58
218.061	2.42
218.532	2.37
219.004	-0.53
219.475	5.02
219.946	3.17
220.418	3.17
220.889	0.07
221.36	1.87
221.832	7.17
222.303	4.02
222.774	6.42
223.245	5.62
223.717	2.92
224.188	7.22
224.659	-0.03
225.13	1.42
225.601	2.22
226.072	4.52
226.543	6.82
227.014	2.27
227.485	9.17
227.956	9.37
228.427	12.47
228.898	5.22
229.369	10.02
229.839	6.92
230.31	10.97
230.781	9.32
231.252	12.87
231.722	9.57
232.193	7.22
232.664	6.57
233.135	5.82
233.605	7.62
234.076	11.42
234.546	9.87
235.017	9.27
235.487	8.62
235.958	10.77
236.428	13.17
236.899	10.72
237.369	11.02
237.84	19.27
238.31	14.92
238.78	13.42
239.251	12.02
239.721	11.67
240.191	12.37
240.662	14.97
241.132	17.77
241.602	12.07
242.072	16.27
242.542	13.77
243.013	11.67
243.483	20.47
243.953	14.27
244.423	17.02
244.893	18.42
245.363	19.32
245.833	17.92
246.303	20.62
246.773	20.77
247.243	15.22
247.712	21.07
248.182	21.07
248.652	25.07
249.122	22.22
249.592	28.47
250.061	20.87
250.531	23.87
251.001	21.57
251.471	25.62
251.94	22.72
252.41	28.62
252.879	24.72
253.349	25.72
253.818	24.32
254.288	30.77
254.757	29.12
255.227	27.67
255.696	33.27
256.166	31.07
256.635	30.62
257.105	31.12
257.574	33.52
258.043	30.97
258.513	35.02
258.982	38.02
259.451	34.27
259.92	30.27
260.389	35.82
260.859	32.52
261.328	37.57
261.797	34.97
262.266	40.57
262.735	41.37
263.204	32.62
263.673	39.67
264.142	35.77
264.611	37.72
265.08	39.37
265.549	36.02
266.018	39.07
266.487	46.02
266.955	42.87
267.424	46.92
267.893	48.77
268.362	49.87
268.83	40.22
269.299	39.92
269.768	43.62
270.236	45.87
270.705	51.52
271.174	44.67
271.642	44.77
272.111	49.02
272.579	48.67
273.048	49.27
273.516	51.17
273.985	49.32
274.453	50.82
274.922	51.07
275.39	47.12
275.858	53.47
276.327	50.77
276.795	56.97
277.263	52.17
277.731	52.07
278.2	60.82
278.668	55.82
279.136	64.87
279.604	63.12
280.072	59.27
280.54	61.87
281.008	63.77
281.477	62.87
281.945	60.77
282.413	62.87
282.881	66.67
283.348	65.72
283.816	65.52
284.284	67.37
284.752	70.62
285.22	72.62
285.688	66.72
286.156	69.32
286.623	75.62
287.091	73.67
287.559	75.07
288.026	76.82
288.494	76.02
288.962	77.87
289.429	78.27
289.897	74.92
290.364	70.57
290.832	74.17
291.3	77.62
291.767	76.42
292.234	81.07
292.702	74.42
293.169	83.67
293.637	85.62
294.104	84.37
294.571	82.27
295.039	89.92
295.506	77.37
295.973	85.07
296.44	82.47
296.908	90.72
297.375	85.17
297.842	91.22
298.309	92.77
298.776	87.47
299.243	94.27
299.71	90.02
300.177	91.47
300.644	93.32
301.111	97.02
301.578	95.97
302.045	92.57
302.512	97.52
302.979	104.37
303.446	105.37
303.913	105.67
304.379	111.17
304.846	106.57
305.313	112.02
305.78	117.07
306.246	114.97
306.713	115.42
307.18	115.87
307.646	123.97
308.113	118.62
308.579	121.17
309.046	126.82
309.512	126.42
309.979	130.07
310.445	124.22
310.912	132.42
311.378	135.52
311.845	135.27
312.311	132.52
312.777	137.77
313.244	135.67
313.71	141.07
314.176	140.17
314.642	142.17
315.109	142.47
315.575	138.97
316.041	136.57
316.507	143.97
316.973	150.42
317.439	149.37
317.905	150.82
318.371	147.27
318.837	144.87
319.303	147.82
319.769	150.67
320.235	157.27
320.701	158.37
321.167	155.57
321.633	155.72
322.099	152.67
322.564	164.57
323.03	163.42
323.496	164.87
323.962	170.17
324.427	168.12
324.893	167.02
325.359	176.07
325.824	179.52
326.29	183.22
326.755	174.07
327.221	175.52
327.686	191.17
328.152	188.12
328.617	190.97
329.083	190.97
329.548	190.12
330.014	189.37
330.479	196.82
330.944	195.87
331.41	199.32
331.875	192.07
332.34	193.12
332.805	205.47
333.271	199.02
333.736	200.82
334.201	204.77
334.666	215.72
335.131	218.77
335.596	222.17
336.061	211.07
336.526	207.72
336.991	204.42
337.456	205.52
337.921	205.27
338.386	203.37
338.851	212.02
339.316	208.87
339.781	205.87
340.246	213.92
340.711	215.77
341.175	222.52
341.64	224.82
342.105	229.42
342.569	237.92
343.034	234.57
343.499	237.92
343.963	241.17
344.428	242.22
344.893	242.77
345.357	255.77
345.822	250.27
346.286	255.02
346.751	261.52
347.215	265.27
347.679	269.12
348.144	288.02
348.608	286.77
349.073	285.07
349.537	298.27
350.001	297.17
350.465	291.72
350.93	291.82
351.394	298.62
351.858	301.47
352.322	305.82
352.786	307.57
353.25	313.72
353.715	318.62
354.179	332.47
354.643	341.47
355.107	344.77
355.571	331.52
356.035	331.22
356.498	327.47
356.962	334.52
357.426	333.02
357.89	325.57
358.354	322.97
358.818	323.57
359.281	330.37
359.745	327.92
360.209	331.62
360.673	333.77
361.136	334.27
361.6	334.47
362.064	345.47
362.527	346.22
362.991	345.42
363.454	347.92
363.918	357.82
364.381	358.42
364.845	357.82
365.308	355.32
365.772	361.77
366.235	360.92
366.698	360.52
367.162	358.87
367.625	366.27
368.088	376.32
368.552	372.17
369.015	374.87
369.478	382.92
369.941	382.92
370.404	391.57
370.867	378.42
371.331	391.57
371.794	403.32
372.257	396.57
372.72	389.67
373.183	400.77
373.646	404.17
374.109	396.42
374.572	406.32
375.035	410.37
375.497	410.12
375.96	421.97
376.423	421.77
376.886	429.77
377.349	438.97
377.811	434.87
378.274	442.02
378.737	432.67
379.199	438.12
379.662	448.32
380.125	456.42
380.587	461.37
381.05	462.12
381.512	466.87
381.975	481.52
382.437	487.12
382.9	481.97
383.362	486.77
383.825	489.97
384.287	491.07
384.75	486.77
385.212	503.12
385.674	500.32
386.136	504.22
386.599	498.77
387.061	494.02
387.523	506.92
387.985	509.42
388.447	515.87
388.91	512.47
389.372	519.52
389.834	522.12
390.296	511.17
390.758	527.47
391.22	517.82
391.682	523.02
392.144	525.22
392.606	530.12
393.068	537.62
393.529	567.47
393.991	581.07
394.453	552.02
394.915	538.57
395.377	531.92
395.838	532.32
396.3	536.52
396.762	543.57
397.224	550.27
397.685	540.72
398.147	549.37
398.608	557.92
399.07	561.12
399.531	563.12
399.993	579.57
400.454	592.82
400.916	580.12
401.377	596.12
401.839	603.47
402.3	598.67
402.762	624.57
403.223	666.02
403.684	665.12
404.145	636.77
404.607	633.42
405.068	630.67
405.529	638.67
405.99	650.22
406.451	656.02
406.913	646.12
407.374	648.92
407.835	654.32
408.296	668.52
408.757	666.47
409.218	687.47
409.679	690.67
410.14	695.97
410.601	712.82
411.062	712.12
411.522	717.07
411.983	709.52
412.444	720.57
412.905	734.47
413.366	765.17
413.826	783.12
414.287	872.57
414.748	1019.87
415.208	1046.37
415.669	887.57
416.13	816.22
416.59	802.57
417.051	819.77
417.511	849.97
417.972	901.87
418.432	968.52
418.893	1056.72
419.353	1017.72
419.814	805.77
420.274	728.67
420.734	720.07
421.195	755.57
421.655	742.47
422.115	765.02
422.576	767.02
423.036	769.27
423.496	791.72
423.956	818.52
424.416	866.37
424.876	966.67
425.336	971.82
425.797	953.77
426.257	948.77
426.717	916.02
427.177	858.52
427.637	878.07
428.097	914.67
428.556	941.92
429.016	1010.62
429.476	1026.42
429.936	1013.67
430.396	1024.77
430.856	1043.57
431.315	1066.17
431.775	1130.82
432.235	1193.82
432.694	1212.92
433.154	1151.07
433.614	1127.27
434.073	1089.57
434.533	986.62
434.993	946.62
435.452	944.77
435.912	921.62
436.371	916.92
436.83	894.02
437.29	874.27
437.749	855.22
438.209	843.42
438.668	862.52
439.127	865.02
439.587	854.27
440.046	825.07
440.505	836.07
440.964	848.27
441.424	877.72
441.883	885.77
442.342	840.57
442.801	798.97
443.26	810.52
443.719	807.67
444.178	801.32
444.637	816.07
445.096	809.17
445.555	825.22
446.014	825.52
446.473	812.42
446.932	813.12
447.391	826.62
447.849	841.92
448.308	822.32
448.767	833.07
449.226	842.92
449.685	858.22
450.143	890.62
450.602	885.92
451.061	843.37
451.519	846.57
451.978	838.12
452.436	835.32
452.895	847.57
453.353	832.87
453.812	829.17
454.27	831.72
454.729	830.02
455.187	839.52
455.646	845.37
456.104	848.52
456.562	859.12
457.021	874.02
457.479	835.82
457.937	861.87
458.395	882.72
458.854	875.37
459.312	865.97
459.77	881.07
460.228	888.12
460.686	899.02
461.144	901.77
461.602	885.02
462.06	895.97
462.518	912.67
462.976	911.47
463.434	923.87
463.892	932.67
464.35	952.27
464.808	961.57
465.266	968.62
465.724	983.37
466.181	988.82
466.639	988.92
467.097	1020.92
467.555	1067.37
468.012	1054.52
468.47	1071.22
468.928	1097.62
469.385	1129.77
469.843	1140.27
470.3	1131.17
470.758	1171.57
471.215	1197.02
471.673	1223.37
472.13	1259.47
472.588	1292.87
473.045	1282.62
473.503	1309.47
473.96	1373.77
474.417	1383.92
474.875	1442.62
475.332	1502.02
475.789	1539.92
476.246	1586.87
476.704	1667.72
477.161	1724.82
477.618	1792.37
478.075	1902.87
478.532	2064.52
478.989	2242.02
479.446	2492.52
479.903	2666.47
480.36	2945.62
480.817	3151.47
481.274	3370.62
481.731	3700.27
482.188	3983.77
482.645	4269.97
483.102	4503.22
483.558	4783.67
484.015	4978.12
484.472	4913.57
484.929	4723.67
485.385	4509.42
485.842	4389.92
486.299	4187.62
486.755	3825.97
487.212	3412.27
487.668	3061.67
488.125	2818.12
488.582	2600.67
489.038	2476.37
489.494	2378.72
489.951	2289.02
490.407	2208.27
490.864	2163.62
491.32	2101.22
491.776	2086.87
492.233	2089.77
492.689	2055.57
493.145	2004.07
493.602	1960.77
494.058	1986.72
494.514	1994.27
494.97	1993.12
495.426	2014.52
495.882	2005.22
496.338	1995.27
496.794	2012.67
497.251	2007.57
497.707	2029.62
498.163	2018.37
498.618	2028.82
499.074	2027.92
499.53	2034.67
499.986	2044.77
500.442	2040.67
500.898	2017.52
501.354	2032.37
501.809	2029.82
502.265	2041.07
502.721	2044.02
503.177	2024.22
503.632	2045.97
504.088	2062.02
504.543	2085.82
504.999	2101.12
505.455	2083.82
505.91	2071.12
506.366	2074.27
506.821	2081.97
507.277	2077.22
507.732	2096.17
508.187	2078.62
508.643	2103.12
509.098	2109.42
509.553	2125.37
510.009	2155.87
510.464	2190.57
510.919	2198.92
511.375	2218.37
511.83	2246.02
512.285	2280.57
512.74	2319.47
513.195	2355.57
513.65	2383.37
514.105	2425.92
514.56	2412.22
515.015	2453.12
515.47	2457.72
515.925	2437.92
516.38	2436.42
516.835	2455.47
517.29	2437.37
517.745	2423.77
518.2	2392.57
518.655	2352.52
519.109	2331.32
519.564	2295.77
520.019	2293.67
520.474	2260.37
520.928	2244.72
521.383	2235.17
521.838	2230.92
522.292	2211.32
522.747	2201.77
523.201	2189.72
523.656	2173.02
524.11	2182.02
524.565	2159.92
525.019	2161.97
525.474	2160.52
525.928	2140.37
526.382	2166.77
526.837	2153.87
527.291	2162.52
527.745	2139.72
528.2	2148.57
528.654	2118.52
529.108	2133.02
529.562	2125.62
530.016	2133.27
530.47	2123.47
530.925	2125.97
531.379	2130.87
531.833	2141.67
532.287	2146.22
532.741	2131.52
533.195	2140.22
533.649	2137.67
534.103	2137.42
534.556	2131.67
535.01	2131.82
535.464	2125.27
535.918	2129.42
536.372	2153.57
536.826	2137.87
537.279	2107.07
537.733	2119.42
538.187	2137.42
538.64	2122.57
539.094	2141.37
539.548	2177.17
540.001	2163.77
540.455	2177.72
540.908	2202.27
541.362	2226.67
541.815	2230.02
542.269	2264.07
542.722	2266.17
543.175	2294.37
543.629	2299.17
544.082	2311.42
544.536	2345.37
544.989	2332.57
545.442	2352.97
545.895	2360.57
546.349	2360.57
546.802	2366.47
547.255	2357.72
547.708	2381.77
548.161	2390.67
548.614	2394.12
549.067	2409.62
549.52	2386.32
549.973	2368.87
550.426	2362.12
550.879	2352.77
551.332	2348.37
551.785	2372.72
552.238	2388.22
552.691	2392.07
553.144	2432.77
553.596	2467.07
554.049	2495.97
554.502	2544.07
554.955	2576.42
555.407	2597.17
555.86	2576.17
556.313	2554.57
556.765	2533.42
557.218	2508.02
557.67	2497.27
558.123	2467.52
558.576	2466.07
559.028	2453.12
559.48	2466.97
559.933	2462.57
560.385	2389.82
560.838	2316.72
561.29	2256.52
561.742	2239.27
562.195	2197.27
562.647	2179.72
563.099	2169.97
563.551	2151.52
564.004	2164.62
564.456	2143.52
564.908	2105.42
565.36	2053.72
565.812	2014.47
566.264	2010.57
566.716	1974.72
567.168	1946.77
567.62	1945.37
568.072	1945.92
568.524	1931.77
568.976	1921.52
569.428	1894.87
569.88	1897.52
570.332	1916.27
570.784	1923.52
571.235	1915.77
571.687	1928.97
572.139	1930.92
572.59	1940.97
573.042	1944.02
573.494	1951.67
573.945	1922.87
574.397	1889.67
574.849	1883.77
575.3	1884.47
575.752	1850.77
576.203	1840.42
576.655	1844.87
577.106	1824.82
577.557	1808.82
578.009	1812.27
578.46	1819.72
578.912	1800.77
579.363	1811.17
579.814	1804.42
580.265	1809.77
580.717	1802.27
581.168	1808.67
581.619	1815.32
582.07	1824.22
582.521	1820.37
582.972	1813.67
583.423	1818.62
583.875	1823.32
584.326	1837.32
584.777	1886.37
585.227	1913.42
585.678	1930.57
586.129	1940.37
586.58	1960.42
587.031	1975.82
587.482	2038.87
587.933	2070.77
588.384	2062.92
588.834	2037.22
589.285	2028.42
589.736	2012.42
590.186	2027.02
590.637	2010.47
591.088	1953.77
591.538	1937.32
591.989	1902.77
592.439	1880.67
592.89	1862.57
593.34	1861.07
593.791	1851.47
594.241	1828.07
594.692	1816.17
595.142	1828.67
595.593	1827.42
596.043	1826.72
596.493	1856.22
596.943	1850.17
597.394	1901.22
597.844	1930.27
598.294	1970.97
598.744	2031.07
599.195	2125.57
599.645	2247.52
600.095	2358.92
600.545	2454.17
600.995	2557.92
601.445	2650.57
601.895	2736.67
602.345	2817.27
602.795	2777.32
603.245	2679.77
603.695	2522.87
604.145	2393.52
604.594	2290.47
605.044	2173.22
605.494	2036.42
605.944	1949.32
606.393	1901.72
606.843	1866.07
607.293	1875.52
607.743	1850.02
608.192	1862.97
608.642	1864.07
609.091	1855.22
609.541	1854.02
609.99	1847.07
610.44	1816.22
610.889	1797.77
611.339	1781.42
611.788	1758.77
612.238	1782.92
612.687	1784.27
613.136	1791.62
613.586	1802.07
614.035	1785.82
614.484	1807.27
614.933	1803.32
615.383	1767.32
615.832	1735.32
616.281	1699.92
616.73	1675.67
617.179	1633.07
617.628	1594.32
618.077	1578.97
618.526	1561.62
618.975	1544.17
619.424	1513.42
619.873	1523.17
620.322	1502.62
620.771	1499.72
621.22	1484.77
621.669	1454.37
622.118	1438.17
622.567	1430.92
623.015	1400.22
623.464	1407.27
623.913	1381.12
624.361	1391.47
624.81	1396.72
625.259	1380.02
625.707	1376.97
626.156	1391.12
626.604	1406.37
627.053	1401.97
627.501	1403.87
627.95	1416.07
628.398	1432.67
628.847	1417.22
629.295	1411.12
629.744	1401.67
630.192	1372.72
630.64	1353.97
631.089	1336.52
631.537	1301.77
631.985	1304.67
632.433	1292.07
632.881	1290.42
633.33	1302.32
633.778	1290.22
634.226	1303.62
634.674	1324.02
635.122	1323.97
635.57	1345.12
636.018	1365.37
636.466	1353.37
636.914	1360.87
637.362	1390.17
637.81	1407.22
638.258	1470.37
638.705	1480.17
639.153	1522.77
639.601	1534.27
640.049	1563.02
640.497	1603.42
640.944	1629.27
641.392	1575.57
641.84	1504.02
642.287	1450.62
642.735	1419.32
643.182	1418.17
643.63	1426.87
644.078	1432.37
644.525	1447.37
644.973	1504.97
645.42	1549.07
645.867	1585.22
646.315	1640.37
646.762	1703.37
647.21	1770.67
647.657	1866.97
648.104	1961.72
648.551	2054.72
648.999	2257.92
649.446	2517.42
649.893	2877.52
650.34	3457.52
650.787	4320.42
651.234	5696.27
651.682	7883.42
652.129	11314.67
652.576	15447.52
653.023	15528.62
653.47	15531.82
653.917	15531.87
654.363	15531.77
654.81	15528.77
655.257	15529.42
655.704	15533.22
656.151	11693.72
656.598	7645.27
657.044	5443.77
657.491	4222.82
657.938	3378.92
658.385	2831.32
658.831	2461.12
659.278	2177.92
659.724	1971.07
660.171	1821.12
660.618	1672.17
661.064	1565.57
661.511	1503.32
661.957	1456.57
662.404	1408.72
662.85	1380.62
663.296	1363.57
663.743	1324.52
664.189	1301.72
664.635	1283.67
665.082	1251.62
665.528	1227.82
665.974	1198.87
666.42	1183.12
666.867	1161.37
667.313	1108.12
667.759	1099.87
668.205	1086.92
668.651	1086.97
669.097	1085.47
669.543	1085.97
669.989	1098.37
670.435	1112.42
670.881	1113.72
671.327	1165.97
671.773	1239.32
672.219	1322.52
672.665	1405.37
673.11	1436.72
673.556	1443.42
674.002	1456.87
674.448	1465.52
674.893	1271.87
675.339	1113.17
675.785	1024.22
676.23	984.52
676.676	936.17
677.122	915.72
677.567	891.82
678.013	864.22
678.458	862.22
678.904	851.82
679.349	840.22
679.794	843.62
680.24	839.27
680.685	827.47
681.131	836.37
681.576	836.77
682.021	838.47
682.466	841.97
682.912	851.02
683.357	898.07
683.802	966.62
684.247	1062.67
684.692	1118.92
685.137	1175.07
685.583	1179.22
686.028	1222.37
686.473	1176.37
686.918	1032.92
687.363	944.62
687.807	895.12
688.252	849.72
688.697	823.92
689.142	806.87
689.587	813.97
690.032	826.57
690.477	859.37
690.921	902.82
691.366	937.77
691.811	980.47
692.255	1052.62
692.7	1280.67
693.145	1866.72
693.589	2855.17
694.034	3381.87
694.478	3510.67
694.923	3149.67
695.367	4276.07
695.812	2712.22
696.256	1188.02
696.701	870.87
697.145	814.22
697.59	778.67
698.034	775.12
698.478	766.27
698.922	779.52
699.367	790.12
699.811	827.77
700.255	893.67
700.699	977.32
701.143	1057.77
701.588	1113.62
702.032	1155.37
702.476	1192.37
702.92	1285.12
703.364	1696.87
703.808	2606.77
704.252	3243.62
704.696	3333.22
705.14	3070.12
705.584	4069.92
706.027	2353.32
706.471	1211.57
706.915	912.17
707.359	810.57
707.803	764.57
708.246	736.72
708.69	732.62
709.134	718.32
709.577	721.07
710.021	725.57
710.465	724.27
710.908	719.27
711.352	748.77
711.795	829.97
712.239	890.17
712.682	905.77
713.126	882.32
713.569	963.22
714.012	807.82
714.456	710.32
714.899	671.87
715.342	642.92
715.786	619.02
716.229	606.17
716.672	592.02
717.115	587.37
717.558	599.62
718.002	612.22
718.445	638.92
718.888	675.62
719.331	684.12
719.774	692.87
720.217	681.97
720.66	646.22
721.103	620.42
721.546	588.67
721.989	570.72
722.432	561.62
722.874	556.77
723.317	566.62
723.76	621.47
724.203	765.67
724.645	1006.42
725.088	1180.17
725.531	1143.87
725.974	1204.52
726.416	1099.32
726.859	702.57
727.301	579.22
727.744	554.37
728.187	561.02
728.629	577.22
729.071	593.22
729.514	621.22
729.956	642.22
730.399	654.17
730.841	661.02
731.283	640.22
731.726	628.17
732.168	639.12
732.61	675.82
733.053	724.32
733.495	793.92
733.937	879.37
734.379	1043.47
734.821	1324.07
735.263	2108.72
735.705	3819.17
736.148	5542.62
736.59	5438.27
737.032	5635.47
737.474	4692.77
737.916	1882.47
738.357	1002.47
738.799	770.77
739.241	712.67
739.683	721.97
740.125	742.87
740.567	751.32
741.008	781.52
741.45	842.72
741.892	886.02
742.334	881.82
742.775	867.82
743.217	832.72
743.658	716.97
744.1	747.87
744.542	863.47
744.983	884.87
745.425	906.82
745.866	884.87
746.307	748.12
746.749	791.52
747.19	1151.22
747.632	2237.37
748.073	4147.42
748.514	5640.57
748.956	7331.97
749.397	8536.32
749.838	5941.67
750.279	5419.62
750.72	2911.82
751.162	1266.12
751.603	736.52
752.044	589.97
752.485	521.77
752.926	485.77
753.367	473.62
753.808	462.67
754.249	449.57
754.69	449.12
755.131	441.82
755.572	436.27
756.013	432.92
756.453	442.27
756.894	457.07
757.335	448.57
757.776	463.97
758.216	475.82
758.657	501.27
759.098	550.37
759.538	672.47
759.979	968.57
760.42	1968.47
760.86	5035.92
761.301	10253.82
761.741	11840.12
762.182	12896.32
762.622	8522.02
763.063	3158.32
763.503	1305.47
763.943	767.97
764.384	609.97
764.824	532.52
765.264	488.17
765.705	456.57
766.145	436.17
766.585	427.77
767.025	413.62
767.465	416.02
767.906	421.22
768.346	447.62
768.786	522.07
769.226	761.22
769.666	1528.87
770.106	3407.22
770.546	4806.92
770.986	5185.42
771.426	3920.47
771.866	1704.07
772.306	783.87
772.745	486.27
773.185	409.77
773.625	400.42
774.065	435.92
774.505	636.67
774.944	1142.52
775.384	1635.32
775.824	1753.92
776.263	1428.97
776.703	782.37
777.142	456.77
777.582	343.82
778.021	308.47
778.461	296.07
778.9	298.62
779.34	286.22
779.779	273.77
780.219	266.87
780.658	264.82
781.097	265.27
781.537	260.47
781.976	253.72
782.415	254.02
782.855	255.47
783.294	249.72
783.733	247.17
784.172	251.92
784.611	255.52
785.05	260.57
785.489	261.77
785.928	271.62
786.367	289.42
786.806	296.77
787.245	318.62
787.684	329.12
788.123	325.62
788.562	318.77
789.001	303.07
789.44	297.47
789.879	293.47
790.317	298.72
790.756	315.37
791.195	366.77
791.634	499.82
792.072	883.92
792.511	2146.42
792.95	3921.42
793.388	4559.17
793.827	2983.77
794.265	1413.07
794.704	686.32
795.142	426.22
795.581	356.62
796.019	324.52
796.458	320.37
796.896	324.37
797.334	380.47
797.773	502.82
798.211	954.72
798.649	1975.07
799.087	3264.52
799.526	4584.52
799.964	4646.22
800.402	3189.72
800.84	1491.57
801.278	739.87
801.716	447.17
802.154	367.32
802.592	346.62
803.03	347.87
803.468	357.77
803.906	354.72
804.344	351.77
804.782	342.82
805.22	349.32
805.658	354.77
806.096	387.72
806.533	421.77
806.971	541.97
807.409	790.17
807.847	1561.82
808.284	3930.42
808.722	6813.67
809.16	9457.47
809.597	12987.17
810.035	15216.22
810.472	10173.37
810.91	4483.77
811.347	2026.27
811.785	959.87
812.222	602.47
812.66	454.07
813.097	396.97
813.535	343.52
813.972	313.67
814.409	284.57
814.846	280.07
815.284	258.12
815.721	269.17
816.158	299.77
816.595	406.47
817.032	511.62
817.47	450.77
817.907	338.17
818.344	294.02
818.781	287.97
819.218	359.67
819.655	540.97
820.092	698.77
820.529	629.62
820.966	494.17
821.403	343.62
821.839	299.72
822.276	327.62
822.713	382.57
823.15	360.02
823.587	373.17
824.023	656.27
824.46	1602.92
824.897	2728.17
825.333	2115.27
825.77	1004.17
826.206	532.07
826.643	314.22
827.08	233.97
827.516	204.67
827.953	193.52
828.389	184.42
828.825	176.37
829.262	167.72
829.698	162.72
830.135	154.97
830.571	157.27
831.007	157.97
831.443	156.17
831.88	157.52
832.316	162.12
832.752	161.57
833.188	165.37
833.624	173.47
834.06	170.02
834.497	165.07
834.933	172.42
835.369	184.72
835.805	201.57
836.241	199.57
836.677	222.32
837.112	257.47
837.548	325.62
837.984	478.62
838.42	1019.97
838.856	2796.17
839.292	5383.92
839.727	4034.47
840.163	2783.37
840.599	4175.67
841.034	6188.27
841.47	3182.82
841.906	1566.42
842.341	851.92
842.777	632.87
843.212	639.97
843.648	401.57
844.083	277.27
844.519	208.42
844.954	177.17
845.39	154.47
845.825	150.47
846.261	146.27
846.696	140.52
847.131	131.72
847.566	137.47
848.002	145.42
848.437	153.02
848.872	151.72
849.307	195.02
849.742	357.37
850.177	899.17
850.613	1872.82
851.048	1379.97
851.483	643.62
851.918	364.87
852.353	203.17
852.788	147.12
853.223	134.27
853.657	116.52
854.092	109.97
854.527	116.22
854.962	123.92
855.397	137.37
855.832	117.02
856.266	104.77
856.701	101.17
857.136	113.22
857.57	134.82
858.005	158.62
858.44	136.27
858.874	129.97
859.309	126.12
859.743	123.27
860.178	120.67
860.612	130.42
861.047	181.87
861.481	253.52
861.915	180.62
862.35	135.82
862.784	105.97
863.218	103.27
863.653	108.77
864.087	132.57
864.521	163.77
864.955	264.57
865.39	447.57
865.824	361.87
866.258	467.52
866.692	697.07
867.126	506.22
867.56	281.47
867.994	182.47
868.428	150.42
868.862	185.07
869.296	166.27
869.73	207.72
870.164	178.82
870.598	156.62
871.031	115.07
871.465	100.52
871.899	82.22
872.333	67.37
872.766	75.02
873.2	76.47
873.634	74.22
874.067	78.57
874.501	76.07
874.935	77.57
875.368	81.42
875.802	75.77
876.235	69.22
876.669	67.52
877.102	55.92
877.535	60.52
877.969	59.97
878.402	60.47
878.836	61.72
879.269	56.02
879.702	60.87
880.135	56.62
880.569	68.27
881.002	50.62
881.435	55.47
881.868	60.12
882.301	52.47
882.734	48.12
883.167	60.52
883.601	56.27
884.034	52.02
884.467	47.07
884.899	49.72
885.332	41.87
885.765	50.07
886.198	45.87
886.631	50.17
887.064	46.77
887.497	50.87
887.929	47.32
888.362	46.67
888.795	42.37
889.228	50.22
889.66	44.02
890.093	46.32
890.526	47.32
890.958	50.17
891.391	47.42
891.823	45.32
892.256	46.72
892.688	48.77
893.121	43.67
893.553	48.07
893.985	43.57
894.418	42.72
894.85	44.62
895.282	42.82
895.715	38.92
896.147	39.37
896.579	36.72
897.011	44.07
897.444	44.97
897.876	33.77
898.308	41.17
898.74	41.87
899.172	40.67
899.604	43.82
900.036	45.07
900.468	39.67
900.9	42.52
901.332	57.02
901.764	58.47
902.196	54.42
902.628	60.67
903.06	86.17
903.491	87.52
903.923	76.97
904.355	71.62
904.787	74.07
905.218	65.07
905.65	59.12
906.082	51.92
906.513	53.92
906.945	48.72
907.376	50.22
907.808	48.47
908.239	49.52
908.671	59.62
909.102	66.52
909.534	97.17
909.965	178.62
910.397	446.32
910.828	1235.02
911.259	780.92
911.691	429.47
912.122	255.52
912.553	124.52
912.984	74.92
913.415	66.92
913.847	56.77
914.278	49.97
914.709	45.77
915.14	46.17
915.571	46.82
916.002	41.67
916.433	40.82
916.864	42.67
917.295	41.77
917.726	49.52
918.157	65.82
918.587	63.32
919.018	58.47
919.449	54.17
919.88	66.77
920.311	92.37
920.741	265.77
921.172	458.82
921.603	240.72
922.033	152.87
922.464	101.12
922.895	65.02
923.325	44.42
923.756	43.47
924.186	52.07
924.617	82.02
925.047	110.12
925.478	98.17
925.908	74.37
926.338	56.17
926.769	45.37
927.199	39.27
927.629	35.12
928.06	42.57
928.49	39.57
928.92	33.87
929.35	36.37
929.78	22.87
930.21	24.77
930.641	23.47
931.071	21.27
931.501	18.92
931.931	20.02
932.361	20.12
932.791	24.47
933.221	28.42
933.651	39.07
934.08	63.32
934.51	43.57
934.94	35.72
935.37	28.62
935.8	22.67
936.229	20.57
936.659	20.67
937.089	40.07
937.519	56.42
937.948	77.12
938.378	48.62
938.807	26.47
939.237	18.52
939.666	18.42
940.096	10.72
940.525	8.32
940.955	11.97
941.384	10.37
941.814	7.62
942.243	9.37
942.672	10.32
943.102	10.22
943.531	9.57
943.96	11.07
944.39	14.82
944.819	14.87
945.248	10.42
945.677	13.57
946.106	13.47
946.535	10.62
946.964	8.52
947.393	9.82
947.822	10.17
948.251	13.57
948.68	15.17
949.109	11.82
949.538	10.22
949.967	11.87
950.396	9.82
950.825	11.02
951.254	10.42
951.682	6.82
952.111	7.72
952.54	8.62
952.969	7.07
953.397	2.42
953.826	6.62
954.254	13.87
954.683	11.27
955.112	9.82
955.54	9.12
955.969	7.57
956.397	9.67
956.826	8.87
957.254	9.22
957.682	10.97
958.111	6.37
958.539	11.22
958.967	5.97
959.396	12.02
959.824	9.02
960.252	10.52
960.68	8.17
961.109	12.27
961.537	17.12
961.965	9.22
962.393	5.02
962.821	8.82
963.249	12.87
963.677	15.57
964.105	76.62
964.533	131.72
964.961	68.77
965.389	43.07
965.817	24.82
966.245	14.37
966.672	6.72
967.1	12.72
967.528	5.77
967.956	3.32
968.383	7.32
968.811	7.22
969.239	8.37
969.666	8.47
970.094	7.72
970.522	5.32
970.949	7.42
971.377	0.57
971.804	4.77
972.232	-0.63
972.659	4.22
973.087	2.22
973.514	2.92
973.941	0.62
974.369	-2.63
974.796	2.02
975.223	4.22
975.651	5.77
976.078	7.07
976.505	13.22
976.932	29.92
977.359	37.92
977.786	27.37
978.214	17.47
978.641	8.37
979.068	10.62
979.495	10.27
979.922	4.62
980.349	3.42
980.776	8.42
981.202	8.32
981.629	6.97
982.056	5.52
982.483	2.27
982.91	11.22
983.337	1.02
983.763	3.87
984.19	5.92
984.617	3.47
985.043	11.17
985.47	11.57
985.897	7.17
986.323	7.92
986.75	5.42
987.176	3.67
987.603	4.97
988.029	6.12
988.456	8.27
988.882	-0.03
989.308	1.62
989.735	2.92
990.161	1.92
990.587	2.12
991.014	3.27
991.44	9.07
991.866	6.02
992.292	5.92
992.719	-1.18
993.145	7.07
993.571	2.57
993.997	6.72
994.423	6.67
994.849	-5.73
995.275	7.17
995.701	2.62
996.127	-0.73
996.553	-0.63
996.979	-1.63
997.405	6.27
997.83	4.52
998.256	4.17
998.682	3.72
999.108	7.02
999.534	-3.53
999.959	1.67
1000.385	5.02
1000.811	1.97
1001.236	-1.83
1001.662	-0.73
1002.087	5.52
1002.513	5.72
1002.938	0.67
1003.364	2.97
1003.789	5.92
1004.215	-0.83
1004.64	5.57
1005.066	6.97
1005.491	6.42
1005.916	3.87
1006.342	-3.23
1006.767	3.32
1007.192	1.37
1007.617	4.57
1008.042	3.07
1008.468	4.27
1008.893	6.62
1009.318	12.77
1009.743	18.32
1010.168	33.37
1010.593	27.77
1011.018	17.32
1011.443	11.57
1011.868	9.97
1012.293	3.52
1012.718	2.37
1013.143	3.97
1013.567	4.82
1013.992	2.92
1014.417	5.37
1014.842	3.87
1015.267	-1.08
1015.691	2.87
1016.116	1.67
1016.541	2.22
1016.965	2.92
1017.39	3.02
1017.814	-6.18
1018.239	-1.08
1018.663	-2.18
1019.088	-0.43
1019.512	3.07
1019.937	-6.38
1020.361	4.97
1020.785	-1.28
1021.21	-2.08
1021.634	-6.93
1022.058	2.87
1022.483	-3.48
1022.907	-0.53
1023.331	-6.03
1023.755	0.17
1024.179	1.57
1024.604	-1.03
1025.028	5.07
1025.452	1.52
1025.876	3.82
1026.3	2.02
1026.724	-1.63
1027.148	2.02
1027.572	-0.63
1027.996	2.32
1028.42	-0.68
1028.843	1.12
1029.267	-2.08
1029.691	0.52
1030.115	-1.48
1030.539	4.77
1030.962	-1.18
1031.386	-3.33
1031.81	0.12
1032.233	-1.73
1032.657	-5.33
1033.08	-1.63
1033.504	-3.93
1033.927	-1.48
1034.351	-3.63
1034.774	-0.73
1035.198	-3.28
1035.621	2.22
1036.045	-3.98
1036.468	7.32
1036.891	1.92
1037.315	4.52
1037.738	4.72
1038.161	-1.38
1038.584	-0.98
1039.008	-2.63
1039.431	-0.93
1039.854	-8.78
1040.277	0.42
1040.7	-1.28
1041.123	4.92
1041.546	-3.08
1041.969	-1.48
1042.392	4.27
1042.815	-1.48
1043.238	-0.88
1043.661	-1.33
1044.084	-2.18
1044.507	-3.03
1044.93	0.92
1045.352	1.57
1045.775	1.37
1046.198	3.57
1046.621	-0.58
1047.043	1.12
1047.466	-0.23
1047.889	-0.88
1048.311	5.22
1048.734	-0.78
1049.156	-4.93
1049.579	-3.03
1050.001	-0.48
1050.424	2.72
1050.846	-1.38
1051.269	-5.53
1051.691	0.22
1052.113	1.57
1052.536	0.12
1052.958	-4.98
1053.38	-1.83
1053.802	6.07
1054.225	-1.98
1054.647	-0.28
1055.069	-1.33
1055.491	-0.03
1055.913	1.52
1056.335	-8.23
1056.757	-3.93
1057.179	-2.13
1057.601	-3.73
1058.023	-1.33
1058.445	-1.78
1058.867	1.92
1059.289	-1.38
1059.711	-2.53
1060.133	-2.33
1060.555	-2.58
1060.976	-1.18
1061.398	-5.58
1061.82	-3.48
1062.241	-3.18
1062.663	-0.98
1063.085	-5.98
1063.506	-8.98
1063.928	-0.53
1064.35	-0.13
1064.771	-1.48
1065.193	-3.18
1065.614	-2.58
1066.035	4.02
1066.457	2.62
1066.878	1.47
1067.3	0.02
1067.721	0.77
1068.142	1.12
1068.564	0.92
1068.985	-2.73
1069.406	-6.68
1069.827	0.37
1070.248	-2.03
1070.67	-3.13
1071.091	-3.83
1071.512	-1.73
1071.933	-2.73
1072.354	-10.28
1072.775	-2.53
1073.196	-5.73
1073.617	-4.83
1074.038	-0.08
1074.459	-2.23
1074.88	0.42
1075.3	-0.43
1075.721	-1.88
1076.142	-4.83
1076.563	-5.78
1076.983	-1.03
1077.404	-3.03
1077.825	3.27
1078.246	-7.63
1078.666	-4.68
1079.087	-2.28
1079.507	-6.93
1079.928	-3.18
1080.348	-0.13
1080.769	-0.13
1081.189	-1.38
1081.61	-7.33
1082.03	0.47
1082.451	-2.38
1082.871	-8.48
1083.291	-4.53
1083.711	-3.28
1084.132	-0.88
1084.552	-6.78
1084.972	-2.83
1085.392	-1.18
1085.813	-2.08
1086.233	-4.83
1086.653	2.52
1087.073	-3.48
1087.493	-5.03
1087.913	-5.43
1088.333	-4.73
1088.753	0.67
1089.173	0.32
1089.593	1.57
1090.013	-3.83
1090.433	-3.73
1090.852	2.62
1091.272	-6.18
1091.692	0.02
1092.112	-5.93
1092.531	-7.18
1092.951	-2.03
1093.371	-2.73
1093.79	-1.18
1094.21	-3.83
1094.63	-0.98
1095.049	-5.48
1095.469	-7.58
1095.888	-2.08
1096.308	2.67
1096.727	-3.63
1097.146	-3.58
1097.566	0.22
1097.985	-3.73
1098.405	-0.93
1098.824	-1.28
1099.243	-4.53
1099.662	-2.78
1100.082	0.02
1100.501	-4.43
1100.92	-0.63
1101.339	-0.53
1101.758	0.07
