Data from MSPlasma+Separation6_Subt14_10-14-06-079.txt Node
Date: Fri Jul 21 10:14:06 EDT 2017
User: Ender
Spectrometer: HR+D1039
Trigger mode: 0
Integration Time (sec): 6.430000E-3
Scans to average: 20
Electric dark correction enabled: true
Nonlinearity correction enabled: false
Boxcar width: 0
XAxis mode: Wavelengths
Number of Pixels in Spectrum: 2048
>>>>>Begin Spectral Data<<<<<
187.836	-0.46
188.309	-0.46
188.782	-0.46
189.255	2.19
189.728	0.39
190.201	-1.31
190.674	-1.11
191.147	-3.36
191.619	-1.11
192.092	0.89
192.565	-3.11
193.038	3.44
193.511	4.79
193.984	0.29
194.456	-0.46
194.929	-1.56
195.402	-0.46
195.874	0.99
196.347	4.79
196.82	0.49
197.292	0.49
197.765	-1.76
198.237	-1.26
198.71	-4.36
199.182	0.79
199.655	4.54
200.127	1.69
200.6	2.79
201.072	4.09
201.544	0.39
202.017	2.04
202.489	4.89
202.961	-1.06
203.433	-1.66
203.906	-0.61
204.378	2.04
204.85	1.89
205.322	-1.41
205.794	7.39
206.266	-2.11
206.739	3.14
207.211	0.74
207.683	-0.61
208.155	3.04
208.627	3.34
209.099	3.39
209.57	-0.46
210.042	5.64
210.514	5.74
210.986	-2.16
211.458	1.64
211.93	4.64
212.402	4.59
212.873	-0.66
213.345	-2.26
213.817	3.09
214.288	0.24
214.76	5.84
215.232	3.19
215.703	1.74
216.175	-0.36
216.646	5.94
217.118	3.79
217.589	1.04
218.061	0.64
218.532	-1.26
219.004	3.94
219.475	0.59
219.946	6.69
220.418	8.29
220.889	0.94
221.36	4.54
221.832	4.39
222.303	6.89
222.774	4.79
223.245	1.44
223.717	4.79
224.188	2.24
224.659	6.24
225.13	-0.76
225.601	3.19
226.072	5.29
226.543	7.79
227.014	4.54
227.485	8.54
227.956	8.69
228.427	11.19
228.898	10.79
229.369	12.79
229.839	9.29
230.31	14.34
230.781	10.09
231.252	13.49
231.722	7.04
232.193	6.04
232.664	12.14
233.135	7.74
233.605	11.84
234.076	13.29
234.546	9.64
235.017	12.49
235.487	14.24
235.958	12.39
236.428	15.14
236.899	15.64
237.369	22.24
237.84	18.59
238.31	16.89
238.78	15.04
239.251	15.89
239.721	12.49
240.191	15.64
240.662	22.39
241.132	19.24
241.602	18.54
242.072	20.24
242.542	19.49
243.013	19.19
243.483	22.14
243.953	17.24
244.423	23.99
244.893	20.94
245.363	22.44
245.833	22.59
246.303	22.14
246.773	29.54
247.243	22.34
247.712	27.59
248.182	24.29
248.652	26.74
249.122	25.04
249.592	30.69
250.061	23.89
250.531	25.29
251.001	28.39
251.471	30.14
251.94	33.14
252.41	31.44
252.879	32.49
253.349	32.84
253.818	33.99
254.288	41.94
254.757	36.74
255.227	36.69
255.696	35.94
256.166	38.39
256.635	37.94
257.105	37.34
257.574	36.44
258.043	36.14
258.513	42.19
258.982	37.59
259.451	41.99
259.92	35.49
260.389	39.24
260.859	38.74
261.328	43.79
261.797	41.24
262.266	44.59
262.735	45.44
263.204	38.44
263.673	46.79
264.142	43.34
264.611	45.09
265.08	44.34
265.549	41.54
266.018	45.49
266.487	49.19
266.955	43.54
267.424	48.94
267.893	53.89
268.362	48.64
268.83	55.84
269.299	52.69
269.768	50.04
270.236	53.49
270.705	57.24
271.174	56.04
271.642	54.99
272.111	62.74
272.579	59.74
273.048	60.29
273.516	58.74
273.985	60.19
274.453	54.94
274.922	56.79
275.39	56.39
275.858	60.54
276.327	62.29
276.795	60.94
277.263	66.89
277.731	64.24
278.2	65.69
278.668	66.69
279.136	72.24
279.604	63.29
280.072	65.69
280.54	67.74
281.008	73.79
281.477	68.89
281.945	70.44
282.413	71.04
282.881	71.14
283.348	71.14
283.816	71.14
284.284	75.24
284.752	77.99
285.22	82.79
285.688	76.24
286.156	80.39
286.623	78.64
287.091	80.04
287.559	83.49
288.026	82.59
288.494	85.89
288.962	82.34
289.429	86.54
289.897	83.44
290.364	81.49
290.832	85.59
291.3	86.64
291.767	89.39
292.234	90.99
292.702	88.59
293.169	88.74
293.637	94.69
294.104	93.49
294.571	92.44
295.039	95.19
295.506	88.64
295.973	98.79
296.44	92.09
296.908	102.44
297.375	95.89
297.842	103.99
298.309	96.64
298.776	101.74
299.243	106.84
299.71	102.64
300.177	103.14
300.644	99.54
301.111	109.39
301.578	109.84
302.045	109.04
302.512	110.54
302.979	111.64
303.446	117.44
303.913	116.79
304.379	123.54
304.846	120.79
305.313	127.29
305.78	127.19
306.246	128.19
306.713	130.04
307.18	128.54
307.646	127.89
308.113	131.19
308.579	137.04
309.046	136.84
309.512	138.24
309.979	140.34
310.445	136.24
310.912	143.09
311.378	145.99
311.845	146.94
312.311	138.49
312.777	143.64
313.244	151.39
313.71	149.79
314.176	155.19
314.642	156.59
315.109	152.09
315.575	151.49
316.041	154.04
316.507	158.34
316.973	167.49
317.439	163.69
317.905	159.89
318.371	160.64
318.837	160.19
319.303	163.79
319.769	161.99
320.235	169.59
320.701	168.64
321.167	166.19
321.633	173.79
322.099	167.34
322.564	176.59
323.03	175.79
323.496	176.09
323.962	175.64
324.427	180.54
324.893	177.24
325.359	188.54
325.824	187.69
326.29	191.69
326.755	184.59
327.221	183.84
327.686	197.94
328.152	194.54
328.617	198.24
329.083	200.94
329.548	207.19
330.014	206.84
330.479	208.49
330.944	210.64
331.41	212.19
331.875	203.89
332.34	204.29
332.805	214.04
333.271	209.79
333.736	211.44
334.201	214.79
334.666	227.89
335.131	229.24
335.596	225.49
336.061	219.84
336.526	217.34
336.991	217.04
337.456	210.34
337.921	216.99
338.386	213.49
338.851	219.59
339.316	217.29
339.781	215.09
340.246	227.54
340.711	223.84
341.175	231.64
341.64	243.84
342.105	244.49
342.569	250.34
343.034	242.64
343.499	249.19
343.963	256.84
344.428	255.04
344.893	254.09
345.357	262.59
345.822	265.09
346.286	268.29
346.751	271.24
347.215	272.89
347.679	287.49
348.144	294.84
348.608	297.04
349.073	302.74
349.537	306.14
350.001	303.64
350.465	304.99
350.93	311.19
351.394	318.14
351.858	314.94
352.322	314.94
352.786	318.29
353.25	320.69
353.715	325.14
354.179	339.34
354.643	346.29
355.107	348.09
355.571	345.24
356.035	343.24
356.498	348.84
356.962	339.99
357.426	344.39
357.89	335.99
358.354	335.14
358.818	336.99
359.281	338.84
359.745	336.79
360.209	341.59
360.673	335.49
361.136	336.89
361.6	340.34
362.064	347.19
362.527	357.74
362.991	350.94
363.454	352.04
363.918	361.24
364.381	364.54
364.845	362.19
365.308	360.34
365.772	366.34
366.235	371.39
366.698	369.44
367.162	365.24
367.625	367.64
368.088	381.59
368.552	379.34
369.015	372.59
369.478	374.54
369.941	382.89
370.404	386.24
370.867	384.59
371.331	383.94
371.794	396.29
372.257	401.24
372.72	396.69
373.183	406.19
373.646	400.24
374.109	400.39
374.572	402.39
375.035	411.04
375.497	412.69
375.96	427.44
376.423	429.34
376.886	433.74
377.349	440.44
377.811	433.49
378.274	440.64
378.737	436.04
379.199	444.19
379.662	445.69
380.125	449.34
380.587	455.64
381.05	463.24
381.512	470.29
381.975	474.69
382.437	481.29
382.9	476.54
383.362	476.49
383.825	485.79
384.287	487.24
384.75	488.24
385.212	492.59
385.674	496.69
386.136	499.69
386.599	497.29
387.061	495.54
387.523	505.59
387.985	504.69
388.447	514.44
388.91	509.04
389.372	512.24
389.834	515.84
390.296	507.09
390.758	515.34
391.22	508.29
391.682	518.74
392.144	518.34
392.606	519.79
393.068	534.59
393.529	560.39
393.991	566.94
394.453	545.14
394.915	525.64
395.377	517.84
395.838	517.24
396.3	519.59
396.762	533.04
397.224	529.14
397.685	523.74
398.147	539.39
398.608	544.39
399.07	549.59
399.531	553.34
399.993	565.69
400.454	573.54
400.916	572.69
401.377	577.34
401.839	587.44
402.3	588.04
402.762	612.94
403.223	653.19
403.684	652.09
404.145	627.14
404.607	618.04
405.068	606.94
405.529	613.14
405.99	630.69
406.451	636.04
406.913	617.44
407.374	628.34
407.835	622.04
408.296	640.19
408.757	645.44
409.218	665.99
409.679	661.79
410.14	678.14
410.601	693.59
411.062	690.84
411.522	694.34
411.983	699.44
412.444	696.04
412.905	713.79
413.366	733.69
413.826	762.74
414.287	869.04
414.748	1030.29
415.208	1049.39
415.669	882.54
416.13	809.99
416.59	782.04
417.051	808.69
417.511	846.14
417.972	908.14
418.432	984.79
418.893	1085.19
419.353	1038.29
419.814	807.44
420.274	717.24
420.734	711.09
421.195	735.14
421.655	720.89
422.115	750.04
422.576	745.94
423.036	748.49
423.496	773.74
423.956	793.74
424.416	855.69
424.876	958.74
425.336	956.79
425.797	942.94
426.257	929.09
426.717	876.24
427.177	821.64
427.637	822.29
428.097	853.39
428.556	884.64
429.016	950.54
429.476	948.54
429.936	931.19
430.396	926.24
430.856	948.64
431.315	973.49
431.775	1040.29
432.235	1116.69
432.694	1133.04
433.154	1064.14
433.614	1044.44
434.073	1019.74
434.533	912.09
434.993	878.94
435.452	890.79
435.912	874.94
436.371	872.34
436.83	856.39
437.29	832.84
437.749	820.89
438.209	813.69
438.668	826.74
439.127	843.49
439.587	822.09
440.046	801.19
440.505	819.99
440.964	824.19
441.424	854.59
441.883	879.84
442.342	824.89
442.801	783.54
443.26	797.09
443.719	793.14
444.178	791.54
444.637	794.49
445.096	802.54
445.555	819.04
446.014	813.44
446.473	795.79
446.932	797.89
447.391	813.19
447.849	825.09
448.308	818.54
448.767	820.24
449.226	836.14
449.685	853.54
450.143	886.14
450.602	880.64
451.061	835.74
451.519	845.04
451.978	827.94
452.436	825.64
452.895	837.04
453.353	824.54
453.812	817.44
454.27	823.44
454.729	827.84
455.187	836.89
455.646	836.64
456.104	843.24
456.562	845.89
457.021	853.99
457.479	824.39
457.937	854.49
458.395	875.39
458.854	870.79
459.312	857.24
459.77	866.09
460.228	870.04
460.686	878.29
461.144	887.74
461.602	882.44
462.06	883.64
462.518	898.09
462.976	899.69
463.434	901.14
463.892	916.84
464.35	936.14
464.808	953.39
465.266	958.84
465.724	975.39
466.181	979.79
466.639	964.09
467.097	1008.24
467.555	1043.04
468.012	1028.14
468.47	1048.69
468.928	1077.79
469.385	1106.09
469.843	1109.79
470.3	1107.54
470.758	1142.49
471.215	1166.19
471.673	1188.54
472.13	1222.99
472.588	1243.34
473.045	1238.44
473.503	1255.84
473.96	1315.04
474.417	1323.64
474.875	1381.14
475.332	1427.24
475.789	1460.49
476.246	1491.24
476.704	1554.99
477.161	1602.64
477.618	1642.94
478.075	1731.04
478.532	1853.74
478.989	1989.04
479.446	2180.99
479.903	2295.79
480.36	2477.84
480.817	2613.44
481.274	2770.49
481.731	3018.34
482.188	3228.79
482.645	3459.79
483.102	3654.14
483.558	3889.19
484.015	4061.79
484.472	4038.24
484.929	3924.09
485.385	3764.79
485.842	3699.09
486.299	3560.14
486.755	3292.94
487.212	2979.74
487.668	2688.64
488.125	2524.24
488.582	2333.79
489.038	2257.39
489.494	2183.34
489.951	2133.09
490.407	2079.59
490.864	2046.44
491.32	2009.89
491.776	1992.14
492.233	1997.49
492.689	1966.39
493.145	1921.39
493.602	1903.74
494.058	1926.89
494.514	1928.54
494.97	1922.59
495.426	1953.24
495.882	1960.24
496.338	1942.74
496.794	1961.79
497.251	1956.64
497.707	1977.39
498.163	1985.19
498.618	1980.49
499.074	1980.09
499.53	1994.04
499.986	2010.34
500.442	2000.14
500.898	1971.24
501.354	1997.89
501.809	1992.84
502.265	1997.34
502.721	2005.54
503.177	2008.29
503.632	2012.99
504.088	2030.99
504.543	2044.14
504.999	2067.09
505.455	2062.44
505.91	2044.54
506.366	2040.64
506.821	2047.49
507.277	2035.34
507.732	2038.54
508.187	2034.29
508.643	2059.54
509.098	2061.04
509.553	2086.14
510.009	2118.99
510.464	2149.49
510.919	2159.09
511.375	2184.84
511.83	2205.49
512.285	2235.54
512.74	2297.84
513.195	2324.79
513.65	2353.69
514.105	2383.54
514.56	2384.79
515.015	2436.39
515.47	2427.89
515.925	2416.44
516.38	2410.89
516.835	2438.89
517.29	2407.44
517.745	2414.79
518.2	2382.19
518.655	2332.29
519.109	2309.24
519.564	2267.59
520.019	2258.49
520.474	2240.24
520.928	2228.69
521.383	2206.54
521.838	2199.39
522.292	2181.79
522.747	2174.84
523.201	2159.24
523.656	2127.64
524.11	2130.69
524.565	2128.84
525.019	2134.44
525.474	2123.14
525.928	2107.14
526.382	2123.29
526.837	2114.94
527.291	2147.39
527.745	2114.19
528.2	2119.24
528.654	2083.19
529.108	2088.59
529.562	2091.64
530.016	2099.09
530.47	2095.89
530.925	2089.84
531.379	2089.94
531.833	2107.84
532.287	2112.29
532.741	2101.19
533.195	2103.99
533.649	2097.74
534.103	2102.64
534.556	2078.24
535.01	2095.94
535.464	2085.24
535.918	2099.14
536.372	2110.69
536.826	2102.64
537.279	2090.79
537.733	2087.99
538.187	2095.74
538.64	2097.14
539.094	2106.89
539.548	2149.44
540.001	2148.64
540.455	2144.79
540.908	2155.84
541.362	2162.04
541.815	2185.14
542.269	2229.59
542.722	2231.94
543.175	2245.79
543.629	2263.39
544.082	2275.84
544.536	2300.24
544.989	2299.59
545.442	2323.89
545.895	2319.44
546.349	2320.59
546.802	2311.44
547.255	2322.24
547.708	2341.59
548.161	2354.84
548.614	2361.44
549.067	2370.39
549.52	2351.39
549.973	2331.09
550.426	2317.54
550.879	2319.99
551.332	2323.94
551.785	2332.49
552.238	2369.49
552.691	2370.64
553.144	2395.74
553.596	2425.49
554.049	2468.64
554.502	2505.94
554.955	2539.49
555.407	2571.09
555.86	2555.59
556.313	2531.59
556.765	2484.89
557.218	2458.29
557.67	2458.64
558.123	2436.14
558.576	2422.64
559.028	2423.74
559.48	2446.44
559.933	2428.54
560.385	2357.79
560.838	2276.84
561.29	2215.69
561.742	2200.89
562.195	2162.74
562.647	2141.04
563.099	2133.89
563.551	2113.44
564.004	2135.79
564.456	2121.34
564.908	2068.09
565.36	2030.04
565.812	1992.29
566.264	1976.99
566.716	1944.09
567.168	1913.99
567.62	1917.19
568.072	1900.49
568.524	1892.14
568.976	1886.64
569.428	1871.49
569.88	1866.44
570.332	1881.69
570.784	1880.79
571.235	1871.59
571.687	1888.74
572.139	1894.04
572.59	1911.59
573.042	1922.69
573.494	1924.24
573.945	1881.59
574.397	1854.34
574.849	1843.79
575.3	1860.39
575.752	1828.69
576.203	1801.59
576.655	1812.24
577.106	1793.29
577.557	1780.34
578.009	1768.39
578.46	1769.34
578.912	1756.89
579.363	1773.99
579.814	1767.54
580.265	1774.14
580.717	1768.74
581.168	1774.34
581.619	1768.79
582.07	1798.64
582.521	1787.24
582.972	1777.24
583.423	1775.39
583.875	1793.39
584.326	1797.19
584.777	1822.54
585.227	1863.99
585.678	1874.49
586.129	1897.19
586.58	1914.69
587.031	1940.69
587.482	1984.84
587.933	2014.14
588.384	2017.49
588.834	1994.14
589.285	1984.44
589.736	1989.44
590.186	1984.79
590.637	1963.74
591.088	1922.99
591.538	1896.84
591.989	1866.64
592.439	1839.64
592.89	1827.04
593.34	1824.59
593.791	1814.34
594.241	1787.04
594.692	1802.24
595.142	1788.29
595.593	1779.39
596.043	1793.89
596.493	1814.44
596.943	1805.69
597.394	1846.34
597.844	1891.39
598.294	1914.49
598.744	1992.19
599.195	2077.59
599.645	2191.74
600.095	2287.34
600.545	2403.64
600.995	2502.69
601.445	2596.89
601.895	2711.54
602.345	2783.49
602.795	2755.54
603.245	2656.34
603.695	2515.89
604.145	2384.04
604.594	2284.69
605.044	2164.79
605.494	2028.69
605.944	1920.89
606.393	1872.59
606.843	1841.34
607.293	1821.34
607.743	1819.89
608.192	1833.29
608.642	1830.74
609.091	1826.64
609.541	1821.24
609.99	1814.09
610.44	1794.24
610.889	1764.39
611.339	1736.84
611.788	1733.19
612.238	1737.59
612.687	1738.79
613.136	1751.79
613.586	1763.99
614.035	1763.29
614.484	1778.19
614.933	1771.74
615.383	1733.44
615.832	1698.69
616.281	1670.69
616.73	1639.94
617.179	1601.84
617.628	1570.64
618.077	1550.14
618.526	1525.39
618.975	1517.19
619.424	1483.44
619.873	1490.44
620.322	1478.14
620.771	1470.84
621.22	1449.14
621.669	1425.19
622.118	1397.89
622.567	1397.59
623.015	1372.04
623.464	1369.09
623.913	1351.29
624.361	1352.09
624.81	1342.04
625.259	1354.39
625.707	1343.69
626.156	1351.89
626.604	1369.49
627.053	1370.79
627.501	1368.94
627.95	1383.09
628.398	1398.29
628.847	1381.64
629.295	1376.04
629.744	1369.19
630.192	1342.14
630.64	1325.54
631.089	1304.94
631.537	1271.39
631.985	1272.59
632.433	1254.09
632.881	1249.24
633.33	1247.89
633.778	1245.49
634.226	1255.59
634.674	1271.39
635.122	1281.94
635.57	1296.04
636.018	1318.74
636.466	1313.79
636.914	1311.44
637.362	1339.19
637.81	1363.09
638.258	1403.39
638.705	1420.99
639.153	1473.89
639.601	1477.19
640.049	1501.54
640.497	1554.04
640.944	1571.19
641.392	1532.39
641.84	1446.64
642.287	1379.49
642.735	1346.19
643.182	1337.34
643.63	1332.99
644.078	1333.24
644.525	1359.54
644.973	1390.39
645.42	1417.89
645.867	1450.74
646.315	1488.44
646.762	1537.34
647.21	1583.99
647.657	1644.59
648.104	1710.79
648.551	1748.69
648.999	1883.19
649.446	2055.04
649.893	2299.24
650.34	2661.84
650.787	3242.89
651.234	4151.34
651.682	5674.89
652.129	7976.09
652.576	11304.74
653.023	14775.09
653.47	15535.94
653.917	15535.99
654.363	15535.89
654.81	15532.89
655.257	15533.54
655.704	14594.54
656.151	8889.79
656.598	5856.99
657.044	4232.19
657.491	3305.19
657.938	2704.09
658.385	2304.59
658.831	2052.79
659.278	1848.14
659.724	1690.49
660.171	1589.49
660.618	1489.64
661.064	1394.64
661.511	1346.49
661.957	1308.99
662.404	1286.04
662.85	1269.39
663.296	1254.19
663.743	1229.79
664.189	1218.44
664.635	1206.99
665.082	1182.59
665.528	1167.89
665.974	1127.49
666.42	1109.99
666.867	1102.19
667.313	1058.54
667.759	1039.49
668.205	1029.64
668.651	1027.64
669.097	1032.59
669.543	1042.49
669.989	1052.79
670.435	1049.99
670.881	1065.54
671.327	1096.94
671.773	1178.44
672.219	1266.54
672.665	1336.29
673.11	1383.74
673.556	1405.64
674.002	1432.94
674.448	1453.39
674.893	1248.74
675.339	1085.04
675.785	1002.19
676.23	952.24
676.676	913.39
677.122	892.04
677.567	870.49
678.013	837.69
678.458	839.54
678.904	833.29
679.349	830.84
679.794	810.89
680.24	815.79
680.685	812.09
681.131	811.79
681.576	814.34
682.021	814.79
682.466	825.54
682.912	826.34
683.357	876.64
683.802	948.49
684.247	1037.79
684.692	1099.94
685.137	1147.09
685.583	1169.89
686.028	1224.99
686.473	1167.44
686.918	1004.64
687.363	926.59
687.807	886.09
688.252	836.99
688.697	807.94
689.142	780.94
689.587	795.24
690.032	810.54
690.477	833.49
690.921	876.59
691.366	925.94
691.811	960.84
692.255	1032.79
692.7	1255.09
693.145	1792.34
693.589	2730.54
694.034	3267.99
694.478	3486.74
694.923	3200.64
695.367	4536.59
695.812	2779.64
696.256	1180.44
696.701	861.09
697.145	802.84
697.59	771.29
698.034	759.14
698.478	746.74
698.922	755.49
699.367	784.44
699.811	808.19
700.255	870.94
700.699	956.99
701.143	1038.19
701.588	1099.99
702.032	1144.14
702.476	1181.14
702.92	1259.29
703.364	1656.19
703.808	2507.54
704.252	3114.89
704.696	3312.79
705.14	3130.14
705.584	4291.74
706.027	2395.64
706.471	1211.49
706.915	905.59
707.359	810.89
707.803	753.09
708.246	723.79
708.69	719.89
709.134	712.64
709.577	706.99
710.021	718.19
710.465	716.84
710.908	699.94
711.352	731.89
711.795	808.14
712.239	869.09
712.682	894.54
713.126	882.79
713.569	976.04
714.012	804.34
714.456	700.34
714.899	668.09
715.342	634.24
715.786	603.94
716.229	600.64
716.672	585.34
717.115	580.59
717.558	582.84
718.002	598.89
718.445	636.59
718.888	660.64
719.331	675.34
719.774	687.89
720.217	676.29
720.66	646.04
721.103	607.89
721.546	575.84
721.989	556.39
722.432	545.29
722.874	548.34
723.317	555.19
723.76	605.79
724.203	740.19
724.645	979.49
725.088	1151.89
725.531	1139.94
725.974	1253.59
726.416	1120.29
726.859	693.84
727.301	577.19
727.744	544.89
728.187	539.74
728.629	553.09
729.071	585.84
729.514	606.14
729.956	636.09
730.399	647.84
730.841	654.39
731.283	639.24
731.726	618.99
732.168	630.49
732.61	658.29
733.053	709.19
733.495	780.59
733.937	869.89
734.379	1020.74
734.821	1300.09
735.263	2058.09
735.705	3697.44
736.148	5438.24
736.59	5498.49
737.032	5967.84
737.474	4934.99
737.916	1902.69
738.357	995.64
738.799	766.39
739.241	708.64
739.683	716.69
740.125	740.29
740.567	744.04
741.008	800.29
741.45	837.74
741.892	881.69
742.334	888.39
742.775	879.09
743.217	852.89
743.658	715.74
744.1	739.04
744.542	856.34
744.983	891.64
745.425	935.19
745.866	898.14
746.307	746.04
746.749	784.79
747.19	1121.39
747.632	2173.59
748.073	4035.29
748.514	5605.29
748.956	7407.29
749.397	8711.29
749.838	6064.94
750.279	5744.79
750.72	3004.34
751.162	1272.24
751.603	733.64
752.044	586.24
752.485	517.84
752.926	487.64
753.367	463.34
753.808	454.44
754.249	447.19
754.69	447.09
755.131	434.89
755.572	436.69
756.013	433.79
756.453	438.74
756.894	445.24
757.335	441.59
757.776	448.14
758.216	470.99
758.657	499.09
759.098	541.29
759.538	658.14
759.979	954.04
760.42	1909.49
760.86	4869.89
761.301	10093.14
761.741	11962.69
762.182	13747.34
762.622	8928.79
763.063	3176.99
763.503	1314.69
763.943	766.14
764.384	606.24
764.824	523.74
765.264	480.19
765.705	458.49
766.145	435.74
766.585	419.34
767.025	405.54
767.465	408.09
767.906	416.99
768.346	441.74
768.786	502.74
769.226	743.69
769.666	1493.24
770.106	3346.99
770.546	4793.44
770.986	5449.74
771.426	4129.64
771.866	1724.69
772.306	782.34
772.745	488.54
773.185	407.34
773.625	401.09
774.065	431.94
774.505	621.19
774.944	1119.54
775.384	1628.44
775.824	1848.44
776.263	1528.19
776.703	801.89
777.142	458.24
777.582	338.84
778.021	307.49
778.461	298.29
778.9	292.94
779.34	284.44
779.779	273.19
780.219	266.49
780.658	267.94
781.097	264.99
781.537	260.34
781.976	251.04
782.415	253.04
782.855	252.99
783.294	253.79
783.733	245.14
784.172	250.59
784.611	254.54
785.05	257.59
785.489	268.84
785.928	270.64
786.367	285.99
786.806	295.39
787.245	319.24
787.684	326.99
788.123	327.94
788.562	320.44
789.001	307.74
789.44	294.24
789.879	292.74
790.317	301.39
790.756	317.79
791.195	364.04
791.634	484.04
792.072	863.49
792.511	2113.94
792.95	3934.74
793.388	4772.09
793.827	3111.74
794.265	1420.94
794.704	688.94
795.142	421.89
795.581	344.94
796.019	320.84
796.458	314.74
796.896	324.94
797.334	372.74
797.773	495.84
798.211	933.84
798.649	1968.24
799.087	3306.64
799.526	4684.49
799.964	4833.94
800.402	3366.04
800.84	1505.84
801.278	739.04
801.716	455.44
802.154	368.79
802.592	345.19
803.03	348.44
803.468	349.19
803.906	353.69
804.344	346.84
804.782	339.04
805.22	338.89
805.658	348.69
806.096	374.49
806.533	421.99
806.971	535.49
807.409	774.69
807.847	1544.89
808.284	3926.34
808.722	6931.39
809.16	9735.09
809.597	13071.59
810.035	15533.29
810.472	10755.79
810.91	4548.19
811.347	2037.29
811.785	965.19
812.222	603.89
812.66	468.64
813.097	400.29
813.535	345.34
813.972	312.54
814.409	292.34
814.846	274.79
815.284	262.99
815.721	267.59
816.158	302.14
816.595	406.14
817.032	524.89
817.47	469.94
817.907	342.89
818.344	294.74
818.781	297.04
819.218	361.09
819.655	555.64
820.092	731.99
820.529	665.39
820.966	516.44
821.403	352.74
821.839	300.74
822.276	331.29
822.713	395.74
823.15	363.89
823.587	378.54
824.023	645.49
824.46	1606.99
824.897	2827.94
825.333	2220.14
825.77	1021.39
826.206	536.19
826.643	319.64
827.08	236.84
827.516	206.44
827.953	199.39
828.389	180.99
828.825	170.14
829.262	164.29
829.698	160.04
830.135	156.84
830.571	152.89
831.007	159.79
831.443	155.19
831.88	154.69
832.316	161.44
832.752	160.99
833.188	159.29
833.624	162.69
834.06	164.54
834.497	169.04
834.933	173.44
835.369	189.54
835.805	198.34
836.241	205.49
836.677	227.99
837.112	261.34
837.548	325.89
837.984	481.74
838.42	1020.74
838.856	2835.89
839.292	5622.44
839.727	4226.49
840.163	2809.19
840.599	4248.44
841.034	6523.94
841.47	3291.99
841.906	1591.09
842.341	855.64
842.777	645.19
843.212	665.04
843.648	417.49
844.083	277.29
844.519	215.84
844.954	179.99
845.39	152.44
845.825	152.84
846.261	144.64
846.696	140.29
847.131	137.39
847.566	137.34
848.002	136.79
848.437	151.54
848.872	155.54
849.307	198.84
849.742	352.19
850.177	916.89
850.613	1970.24
851.048	1430.54
851.483	659.99
851.918	365.69
852.353	203.39
852.788	144.39
853.223	130.54
853.657	119.34
854.092	116.24
854.527	117.84
854.962	122.84
855.397	136.94
855.832	117.79
856.266	105.04
856.701	104.74
857.136	107.64
857.57	133.04
858.005	169.14
858.44	137.84
858.874	124.99
859.309	127.74
859.743	124.99
860.178	120.09
860.612	137.29
861.047	187.34
861.481	266.74
861.915	187.29
862.35	136.49
862.784	111.44
863.218	97.14
863.653	109.74
864.087	136.74
864.521	164.89
864.955	270.69
865.39	469.49
865.824	366.29
866.258	480.49
866.692	753.39
867.126	549.89
867.56	290.24
867.994	183.19
868.428	159.84
868.862	195.49
869.296	178.69
869.73	219.44
870.164	183.69
870.598	168.79
871.031	123.69
871.465	104.49
871.899	80.24
872.333	73.99
872.766	79.04
873.2	76.64
873.634	71.14
874.067	76.94
874.501	73.49
874.935	76.34
875.368	82.29
875.802	70.34
876.235	70.84
876.669	66.69
877.102	63.24
877.535	58.64
877.969	57.29
878.402	64.44
878.836	64.24
879.269	61.24
879.702	60.99
880.135	61.59
880.569	63.04
881.002	56.09
881.435	60.39
881.868	56.74
882.301	52.49
882.734	52.34
883.167	56.19
883.601	52.59
884.034	52.39
884.467	49.79
884.899	51.09
885.332	48.54
885.765	53.29
886.198	52.79
886.631	54.04
887.064	48.69
887.497	47.39
887.929	46.39
888.362	44.59
888.795	47.84
889.228	50.14
889.66	49.99
890.093	44.14
890.526	49.74
890.958	49.99
891.391	46.14
891.823	44.39
892.256	43.69
892.688	46.84
893.121	40.44
893.553	47.39
893.985	42.89
894.418	40.29
894.85	47.79
895.282	45.34
895.715	43.34
896.147	39.69
896.579	38.74
897.011	40.09
897.444	39.34
897.876	42.04
898.308	41.64
898.74	42.89
899.172	42.04
899.604	45.99
900.036	44.24
900.468	43.19
900.9	46.59
901.332	53.84
901.764	63.14
902.196	54.09
902.628	59.94
903.06	88.09
903.491	101.49
903.923	81.09
904.355	79.49
904.787	79.19
905.218	67.69
905.65	59.14
906.082	57.74
906.513	53.69
906.945	53.99
907.376	48.29
907.808	52.74
908.239	57.34
908.671	62.94
909.102	65.49
909.534	94.69
909.965	177.09
910.397	464.64
910.828	1326.89
911.259	818.29
911.691	433.84
912.122	259.44
912.553	134.44
912.984	73.29
913.415	64.99
913.847	56.19
914.278	53.49
914.709	45.89
915.14	40.84
915.571	48.54
916.002	45.94
916.433	43.04
916.864	45.04
917.295	47.29
917.726	53.99
918.157	62.19
918.587	64.19
919.018	63.94
919.449	56.84
919.88	68.34
920.311	106.69
920.741	277.34
921.172	488.24
921.603	244.04
922.033	161.79
922.464	103.14
922.895	68.14
923.325	46.09
923.756	42.14
924.186	52.14
924.617	77.19
925.047	115.54
925.478	101.89
925.908	74.99
926.338	54.79
926.769	42.14
927.199	42.14
927.629	35.19
928.06	41.34
928.49	41.19
928.92	35.24
929.35	31.99
929.78	29.64
930.21	26.19
930.641	22.64
931.071	25.09
931.501	22.49
931.931	22.54
932.361	22.09
932.791	27.94
933.221	32.14
933.651	43.64
934.08	65.04
934.51	40.24
934.94	30.94
935.37	24.09
935.8	21.79
936.229	20.09
936.659	25.74
937.089	41.59
937.519	66.04
937.948	83.09
938.378	48.79
938.807	26.24
939.237	20.89
939.666	18.39
940.096	12.09
940.525	5.09
940.955	12.74
941.384	13.84
941.814	12.94
942.243	11.59
942.672	10.24
943.102	11.69
943.531	9.69
943.96	10.74
944.39	9.39
944.819	15.89
945.248	15.29
945.677	10.64
946.106	10.59
946.535	10.99
946.964	16.14
947.393	12.09
947.822	8.99
948.251	14.34
948.68	12.99
949.109	13.64
949.538	7.44
949.967	9.94
950.396	6.19
950.825	11.89
951.254	11.44
951.682	2.99
952.111	7.09
952.54	5.34
952.969	7.04
953.397	7.24
953.826	6.34
954.254	11.59
954.683	9.29
955.112	13.79
955.54	9.59
955.969	11.54
956.397	9.54
956.826	6.49
957.254	8.99
957.682	11.24
958.111	8.04
958.539	9.54
958.967	9.39
959.396	12.04
959.824	10.69
960.252	11.09
960.68	7.79
961.109	6.09
961.537	15.29
961.965	7.84
962.393	6.09
962.821	8.34
963.249	7.94
963.677	16.64
964.105	86.84
964.533	144.24
964.961	74.49
965.389	40.64
965.817	24.49
966.245	15.04
966.672	7.49
967.1	12.89
967.528	6.14
967.956	5.74
968.383	10.44
968.811	6.94
969.239	5.64
969.666	6.74
970.094	6.59
970.522	7.09
970.949	10.29
971.377	3.24
971.804	2.44
972.232	1.59
972.659	0.94
973.087	6.44
973.514	4.04
973.941	7.34
974.369	-2.51
974.796	4.74
975.223	4.74
975.651	4.09
976.078	11.64
976.505	13.04
976.932	31.39
977.359	42.84
977.786	25.54
978.214	23.04
978.641	6.74
979.068	6.39
979.495	4.39
979.922	9.74
980.349	6.74
980.776	5.89
981.202	7.54
981.629	11.09
982.056	6.24
982.483	-2.16
982.91	12.89
983.337	2.29
983.763	5.94
984.19	7.34
984.617	4.24
985.043	10.19
985.47	9.84
985.897	12.29
986.323	13.39
986.75	5.99
987.176	3.74
987.603	4.09
988.029	4.24
988.456	9.49
988.882	-0.66
989.308	-2.26
989.735	0.89
990.161	6.04
990.587	5.34
991.014	5.09
991.44	3.54
991.866	5.09
992.292	1.34
992.719	3.44
993.145	6.09
993.571	4.84
993.997	4.49
994.423	8.49
994.849	-0.41
995.275	2.14
995.701	1.24
996.127	-1.61
996.553	7.44
996.979	-1.96
997.405	7.64
997.83	4.14
998.256	3.74
998.682	3.64
999.108	4.79
999.534	-0.91
999.959	0.74
1000.385	10.34
1000.811	3.84
1001.236	2.29
1001.662	3.09
1002.087	11.54
1002.513	5.44
1002.938	2.59
1003.364	4.74
1003.789	4.54
1004.215	0.54
1004.64	2.39
1005.066	3.14
1005.491	10.14
1005.916	4.29
1006.342	8.24
1006.767	6.14
1007.192	3.54
1007.617	4.64
1008.042	2.89
1008.468	3.49
1008.893	7.69
1009.318	10.24
1009.743	18.99
1010.168	30.94
1010.593	27.29
1011.018	17.04
1011.443	7.04
1011.868	12.09
1012.293	7.44
1012.718	4.34
1013.143	3.24
1013.567	9.19
1013.992	4.34
1014.417	5.09
1014.842	3.19
1015.267	2.49
1015.691	2.44
1016.116	1.89
1016.541	2.64
1016.965	4.54
1017.39	-0.41
1017.814	-0.21
1018.239	0.69
1018.663	-4.01
1019.088	-1.76
1019.512	6.04
1019.937	1.09
1020.361	3.09
1020.785	-2.11
1021.21	-3.46
1021.634	1.24
1022.058	3.59
1022.483	-4.91
1022.907	-1.91
1023.331	0.09
1023.755	-2.91
1024.179	4.19
1024.604	1.54
1025.028	6.39
1025.452	4.89
1025.876	-0.11
1026.3	3.49
1026.724	-1.06
1027.148	4.89
1027.572	-0.66
1027.996	3.34
1028.42	3.59
1028.843	0.24
1029.267	0.09
1029.691	4.89
1030.115	0.79
1030.539	0.79
1030.962	-1.06
1031.386	1.24
1031.81	3.99
1032.233	-3.06
1032.657	-1.91
1033.08	0.09
1033.504	0.99
1033.927	3.64
1034.351	0.69
1034.774	1.44
1035.198	-3.81
1035.621	2.89
1036.045	4.54
1036.468	8.64
1036.891	4.99
1037.315	3.34
1037.738	2.39
1038.161	-0.81
1038.584	0.64
1039.008	-2.71
1039.431	-2.66
1039.854	-7.71
1040.277	5.49
1040.7	-0.01
1041.123	1.74
1041.546	-1.01
1041.969	0.79
1042.392	4.24
1042.815	-5.41
1043.238	-2.51
1043.661	-0.06
1044.084	-3.71
1044.507	0.54
1044.93	-1.91
1045.352	0.54
1045.775	0.09
1046.198	2.24
1046.621	5.49
1047.043	2.04
1047.466	3.64
1047.889	-1.11
1048.311	6.84
1048.734	2.04
1049.156	-0.96
1049.579	-5.91
1050.001	-0.71
1050.424	-0.31
1050.846	-2.01
1051.269	0.69
1051.691	1.14
1052.113	-2.01
1052.536	-2.66
1052.958	-3.11
1053.38	0.14
1053.802	3.64
1054.225	3.04
1054.647	2.49
1055.069	1.34
1055.491	-1.11
1055.913	4.99
1056.335	-8.06
1056.757	-2.06
1057.179	-2.61
1057.601	-1.66
1058.023	-0.01
1058.445	-4.61
1058.867	2.69
1059.289	-0.11
1059.711	-2.71
1060.133	-0.91
1060.555	0.99
1060.976	-0.56
1061.398	-0.86
1061.82	3.04
1062.241	-5.01
1062.663	-1.16
1063.085	1.94
1063.506	-4.61
1063.928	-2.71
1064.35	4.29
1064.771	-0.16
1065.193	2.69
1065.614	-3.76
1066.035	3.19
1066.457	3.69
1066.878	-1.26
1067.3	0.34
1067.721	0.89
1068.142	1.99
1068.564	1.69
1068.985	1.19
1069.406	-7.41
1069.827	-2.76
1070.248	-1.41
1070.67	-0.51
1071.091	-3.76
1071.512	-2.01
1071.933	-3.41
1072.354	-8.06
1072.775	-4.46
1073.196	-1.96
1073.617	-3.46
1074.038	0.24
1074.459	-3.36
1074.88	-0.41
1075.3	2.09
1075.721	-1.36
1076.142	-4.11
1076.563	-8.16
1076.983	1.59
1077.404	-4.91
1077.825	-2.66
1078.246	-3.81
1078.666	-2.96
1079.087	1.49
1079.507	-4.86
1079.928	-2.06
1080.348	1.84
1080.769	1.24
1081.189	-3.26
1081.61	-9.41
1082.03	1.49
1082.451	0.34
1082.871	-4.11
1083.291	-0.81
1083.711	-0.21
1084.132	-1.86
1084.552	-3.46
1084.972	-7.26
1085.392	-5.51
1085.813	1.29
1086.233	-2.26
1086.653	1.39
1087.073	-2.16
1087.493	-5.71
1087.913	-4.41
1088.333	-3.86
1088.753	-1.31
1089.173	2.49
1089.593	-0.76
1090.013	-0.11
1090.433	-6.71
1090.852	0.89
1091.272	-7.51
1091.692	4.34
1092.112	-0.16
1092.531	-3.01
1092.951	2.59
1093.371	0.29
1093.79	-3.81
1094.21	-1.11
1094.63	-0.81
1095.049	-2.66
1095.469	-4.91
1095.888	0.89
1096.308	-0.26
1096.727	-3.26
1097.146	-0.11
1097.566	-2.26
1097.985	-1.36
1098.405	0.59
1098.824	0.89
1099.243	-5.36
1099.662	-3.46
1100.082	-1.06
1100.501	-0.66
1100.92	1.14
1101.339	5.44
1101.758	3.44
