Data from MSPlasma+Separation6_Subt14_10-13-21-845.txt Node
Date: Fri Jul 21 10:13:21 EDT 2017
User: Ender
Spectrometer: HR+D1039
Trigger mode: 0
Integration Time (sec): 6.430000E-3
Scans to average: 20
Electric dark correction enabled: true
Nonlinearity correction enabled: false
Boxcar width: 0
XAxis mode: Wavelengths
Number of Pixels in Spectrum: 2048
>>>>>Begin Spectral Data<<<<<
187.836	5.03
188.309	5.03
188.782	5.03
189.255	1.48
189.728	-1.02
190.201	-3.02
190.674	0.88
191.147	-1.72
191.619	-3.57
192.092	0.63
192.565	-0.27
193.038	4.28
193.511	-1.17
193.984	-2.57
194.456	2.33
194.929	-0.42
195.402	1.98
195.874	-2.87
196.347	5.08
196.82	0.13
197.292	-1.52
197.765	0.33
198.237	1.13
198.71	-3.27
199.182	0.88
199.655	4.83
200.127	-1.87
200.6	-2.17
201.072	2.73
201.544	0.08
202.017	6.03
202.489	1.23
202.961	-0.47
203.433	-3.72
203.906	0.43
204.378	-0.62
204.85	0.63
205.322	-1.17
205.794	1.58
206.266	-0.22
206.739	5.53
207.211	0.98
207.683	-2.82
208.155	3.08
208.627	1.03
209.099	5.28
209.57	6.23
210.042	-1.12
210.514	-0.37
210.986	1.33
211.458	-2.27
211.93	-0.42
212.402	-1.52
212.873	0.33
213.345	-1.42
213.817	3.88
214.288	-2.07
214.76	3.68
215.232	-1.42
215.703	4.58
216.175	1.43
216.646	2.38
217.118	-0.47
217.589	-3.77
218.061	2.93
218.532	4.83
219.004	1.83
219.475	-1.37
219.946	2.68
220.418	8.93
220.889	1.88
221.36	5.73
221.832	8.08
222.303	4.78
222.774	5.13
223.245	-0.87
223.717	0.33
224.188	4.78
224.659	2.83
225.13	-0.52
225.601	2.13
226.072	1.68
226.543	4.28
227.014	0.43
227.485	1.48
227.956	2.98
228.427	9.08
228.898	4.73
229.369	3.93
229.839	5.48
230.31	9.03
230.781	6.88
231.252	10.28
231.722	10.03
232.193	3.03
232.664	9.58
233.135	5.73
233.605	7.78
234.076	9.63
234.546	8.53
235.017	6.38
235.487	7.68
235.958	6.68
236.428	8.93
236.899	7.48
237.369	14.68
237.84	14.93
238.31	7.38
238.78	5.73
239.251	3.03
239.721	9.23
240.191	8.73
240.662	10.38
241.132	8.23
241.602	8.13
242.072	10.93
242.542	10.33
243.013	13.03
243.483	16.28
243.953	8.53
244.423	13.63
244.893	13.73
245.363	15.43
245.833	13.78
246.303	18.33
246.773	18.98
247.243	11.58
247.712	15.33
248.182	17.03
248.652	18.18
249.122	13.33
249.592	20.43
250.061	15.63
250.531	20.78
251.001	21.08
251.471	17.48
251.94	19.98
252.41	15.78
252.879	18.13
253.349	22.23
253.818	20.68
254.288	24.28
254.757	22.88
255.227	27.13
255.696	28.03
256.166	27.28
256.635	24.13
257.105	20.88
257.574	23.33
258.043	27.48
258.513	29.53
258.982	23.48
259.451	27.13
259.92	25.73
260.389	29.08
260.859	28.13
261.328	30.68
261.797	29.38
262.266	31.63
262.735	30.53
263.204	27.88
263.673	27.43
264.142	25.13
264.611	29.93
265.08	29.68
265.549	29.78
266.018	30.08
266.487	32.38
266.955	30.93
267.424	35.83
267.893	37.68
268.362	34.28
268.83	32.33
269.299	31.93
269.768	35.98
270.236	33.43
270.705	41.03
271.174	35.53
271.642	37.08
272.111	35.78
272.579	34.63
273.048	37.23
273.516	37.93
273.985	37.58
274.453	39.78
274.922	37.48
275.39	38.28
275.858	39.03
276.327	42.13
276.795	39.73
277.263	41.83
277.731	40.98
278.2	44.88
278.668	41.03
279.136	47.58
279.604	43.18
280.072	43.98
280.54	45.33
281.008	53.83
281.477	50.43
281.945	48.43
282.413	53.63
282.881	47.63
283.348	49.43
283.816	48.88
284.284	52.98
284.752	54.18
285.22	53.98
285.688	47.58
286.156	51.03
286.623	51.83
287.091	54.78
287.559	57.53
288.026	57.28
288.494	56.18
288.962	63.08
289.429	61.33
289.897	58.28
290.364	56.78
290.832	60.23
291.3	59.08
291.767	60.33
292.234	63.43
292.702	63.23
293.169	61.88
293.637	61.78
294.104	69.43
294.571	67.08
295.039	70.08
295.506	60.98
295.973	61.18
296.44	63.63
296.908	70.83
297.375	74.28
297.842	71.58
298.309	75.18
298.776	73.53
299.243	74.03
299.71	76.43
300.177	77.18
300.644	74.88
301.111	74.03
301.578	74.38
302.045	74.03
302.512	81.13
302.979	82.13
303.446	86.13
303.913	82.73
304.379	86.83
304.846	85.28
305.313	93.43
305.78	93.08
306.246	91.98
306.713	92.03
307.18	90.18
307.646	94.38
308.113	96.83
308.579	96.33
309.046	100.68
309.512	96.43
309.979	106.48
310.445	96.08
310.912	102.93
311.378	107.18
311.845	105.88
312.311	103.93
312.777	103.93
313.244	109.68
313.71	104.18
314.176	110.08
314.642	108.68
315.109	117.63
315.575	107.83
316.041	117.53
316.507	107.73
316.973	121.13
317.439	121.98
317.905	118.13
318.371	118.98
318.837	116.93
319.303	118.03
319.769	120.38
320.235	122.98
320.701	127.58
321.167	122.08
321.633	121.33
322.099	122.58
322.564	132.58
323.03	128.93
323.496	132.98
323.962	133.88
324.427	137.63
324.893	131.38
325.359	138.88
325.824	140.58
326.29	139.48
326.755	136.73
327.221	142.43
327.686	153.08
328.152	143.28
328.617	158.43
329.083	150.68
329.548	156.58
330.014	157.88
330.479	160.23
330.944	160.88
331.41	160.13
331.875	151.13
332.34	152.23
332.805	160.98
333.271	158.23
333.736	163.88
334.201	163.93
334.666	175.98
335.131	179.53
335.596	176.53
336.061	171.63
336.526	172.23
336.991	166.18
337.456	166.93
337.921	163.43
338.386	163.38
338.851	167.13
339.316	168.78
339.781	165.23
340.246	176.13
340.711	173.13
341.175	179.78
341.64	183.18
342.105	181.43
342.569	199.48
343.034	187.08
343.499	190.88
343.963	196.63
344.428	199.38
344.893	197.98
345.357	204.98
345.822	205.08
346.286	210.98
346.751	213.53
347.215	213.08
347.679	223.83
348.144	231.93
348.608	235.93
349.073	233.28
349.537	240.78
350.001	239.98
350.465	239.68
350.93	239.78
351.394	243.13
351.858	240.68
352.322	252.93
352.786	253.88
353.25	251.18
353.715	252.13
354.179	266.18
354.643	264.38
355.107	276.23
355.571	269.88
356.035	272.88
356.498	272.43
356.962	271.68
357.426	262.38
357.89	267.63
358.354	265.38
358.818	262.33
359.281	268.98
359.745	267.48
360.209	268.03
360.673	270.48
361.136	266.18
361.6	269.33
362.064	278.68
362.527	287.73
362.991	277.63
363.454	283.63
363.918	289.53
364.381	293.93
364.845	289.28
365.308	288.98
365.772	297.43
366.235	292.83
366.698	293.83
367.162	290.58
367.625	293.98
368.088	304.93
368.552	303.93
369.015	295.78
369.478	309.58
369.941	311.08
370.404	315.18
370.867	310.78
371.331	315.13
371.794	326.83
372.257	317.83
372.72	319.03
373.183	327.18
373.646	330.08
374.109	325.88
374.572	326.68
375.035	335.63
375.497	331.88
375.96	344.88
376.423	348.98
376.886	358.88
377.349	358.48
377.811	354.53
378.274	356.43
378.737	355.88
379.199	356.83
379.662	365.33
380.125	370.03
380.587	371.88
381.05	375.93
381.512	383.43
381.975	394.13
382.437	393.13
382.9	393.48
383.362	393.08
383.825	398.98
384.287	402.53
384.75	404.48
385.212	403.48
385.674	411.78
386.136	414.73
386.599	411.78
387.061	406.23
387.523	415.38
387.985	415.13
388.447	421.63
388.91	416.43
389.372	423.08
389.834	428.38
390.296	420.88
390.758	427.83
391.22	431.08
391.682	431.63
392.144	431.68
392.606	427.98
393.068	440.88
393.529	464.38
393.991	466.73
394.453	451.28
394.915	438.93
395.377	436.73
395.838	437.48
396.3	440.08
396.762	448.28
397.224	436.98
397.685	441.43
398.147	453.28
398.608	450.98
399.07	466.88
399.531	466.53
399.993	481.38
400.454	481.88
400.916	478.93
401.377	491.58
401.839	494.43
402.3	494.13
402.762	515.13
403.223	552.63
403.684	547.68
404.145	530.28
404.607	524.08
405.068	512.18
405.529	520.23
405.99	528.03
406.451	538.43
406.913	532.78
407.374	531.58
407.835	529.78
408.296	550.13
408.757	550.73
409.218	552.73
409.679	563.23
410.14	568.28
410.601	588.28
411.062	589.23
411.522	598.43
411.983	589.58
412.444	602.73
412.905	608.28
413.366	636.88
413.826	657.88
414.287	728.63
414.748	855.03
415.208	872.43
415.669	744.43
416.13	683.08
416.59	665.63
417.051	684.48
417.511	709.23
417.972	761.23
418.432	804.78
418.893	872.43
419.353	840.68
419.814	671.18
420.274	612.78
420.734	602.38
421.195	629.53
421.655	631.03
422.115	641.83
422.576	635.43
423.036	637.58
423.496	661.53
423.956	688.08
424.416	725.43
424.876	804.23
425.336	798.63
425.797	792.53
426.257	786.53
426.717	749.58
427.177	712.58
427.637	722.73
428.097	753.58
428.556	766.98
429.016	825.98
429.476	835.33
429.936	820.63
430.396	827.38
430.856	850.43
431.315	868.93
431.775	913.63
432.235	971.03
432.694	983.18
433.154	932.88
433.614	901.58
434.073	875.63
434.533	796.88
434.993	769.48
435.452	770.98
435.912	752.83
436.371	746.23
436.83	744.18
437.29	721.68
437.749	708.53
438.209	705.48
438.668	713.08
439.127	719.63
439.587	711.53
440.046	687.73
440.505	705.13
440.964	700.98
441.424	734.28
441.883	737.08
442.342	697.08
442.801	668.78
443.26	682.98
443.719	674.63
444.178	671.28
444.637	686.73
445.096	684.78
445.555	696.88
446.014	694.93
446.473	686.43
446.932	695.08
447.391	701.28
447.849	712.13
448.308	696.73
448.767	706.78
449.226	711.03
449.685	716.58
450.143	751.83
450.602	743.23
451.061	708.28
451.519	708.18
451.978	700.63
452.436	702.13
452.895	706.68
453.353	707.93
453.812	699.58
454.27	702.33
454.729	709.88
455.187	705.23
455.646	718.93
456.104	717.63
456.562	727.38
457.021	728.63
457.479	704.63
457.937	728.38
458.395	745.48
458.854	741.38
459.312	730.43
459.77	739.23
460.228	747.88
460.686	752.58
461.144	764.63
461.602	752.68
462.06	749.03
462.518	771.83
462.976	777.48
463.434	782.38
463.892	787.18
464.35	795.18
464.808	814.53
465.266	825.73
465.724	841.03
466.181	845.58
466.639	835.83
467.097	870.98
467.555	895.23
468.012	891.23
468.47	900.98
468.928	929.78
469.385	953.03
469.843	965.83
470.3	964.78
470.758	989.98
471.215	998.98
471.673	1031.08
472.13	1057.73
472.588	1079.23
473.045	1079.08
473.503	1105.18
473.96	1146.83
474.417	1162.38
474.875	1209.03
475.332	1257.78
475.789	1293.23
476.246	1325.13
476.704	1391.18
477.161	1431.18
477.618	1487.88
478.075	1568.73
478.532	1697.13
478.989	1834.88
479.446	2029.38
479.903	2158.93
480.36	2358.58
480.817	2501.78
481.274	2674.33
481.731	2907.23
482.188	3107.48
482.645	3326.68
483.102	3496.03
483.558	3702.73
484.015	3823.08
484.472	3770.78
484.929	3655.33
485.385	3491.68
485.842	3393.43
486.299	3246.53
486.755	2984.63
487.212	2683.73
487.668	2420.83
488.125	2251.03
488.582	2090.88
489.038	1998.43
489.494	1937.98
489.951	1878.48
490.407	1824.93
490.864	1789.63
491.32	1751.83
491.776	1745.18
492.233	1741.43
492.689	1709.23
493.145	1676.38
493.602	1649.98
494.058	1679.08
494.514	1671.03
494.97	1658.58
495.426	1699.28
495.882	1693.68
496.338	1700.78
496.794	1697.48
497.251	1692.43
497.707	1715.93
498.163	1723.88
498.618	1714.83
499.074	1709.83
499.53	1727.98
499.986	1734.33
500.442	1721.48
500.898	1707.53
501.354	1723.68
501.809	1728.63
502.265	1723.83
502.721	1726.93
503.177	1736.43
503.632	1743.88
504.088	1752.93
504.543	1776.68
504.999	1774.58
505.455	1774.08
505.91	1766.08
506.366	1771.48
506.821	1772.53
507.277	1763.53
507.732	1771.08
508.187	1767.23
508.643	1787.48
509.098	1787.73
509.553	1797.73
510.009	1822.58
510.464	1855.18
510.919	1878.28
511.375	1899.38
511.83	1915.83
512.285	1942.98
512.74	1989.83
513.195	2018.08
513.65	2039.18
514.105	2058.68
514.56	2064.33
515.015	2098.73
515.47	2104.33
515.925	2081.28
516.38	2078.13
516.835	2084.13
517.29	2070.78
517.745	2069.73
518.2	2034.33
518.655	2008.73
519.109	1986.38
519.564	1960.88
520.019	1944.38
520.474	1929.93
520.928	1907.13
521.383	1901.23
521.838	1901.38
522.292	1883.73
522.747	1864.88
523.201	1863.13
523.656	1853.28
524.11	1843.93
524.565	1835.08
525.019	1838.13
525.474	1836.93
525.928	1833.98
526.382	1834.03
526.837	1825.28
527.291	1833.58
527.745	1828.38
528.2	1823.73
528.654	1807.38
529.108	1813.88
529.562	1816.48
530.016	1824.48
530.47	1816.13
530.925	1809.58
531.379	1817.48
531.833	1835.63
532.287	1826.48
532.741	1807.53
533.195	1810.33
533.649	1825.63
534.103	1820.68
534.556	1807.93
535.01	1828.33
535.464	1813.33
535.918	1812.88
536.372	1829.33
536.826	1824.98
537.279	1810.13
537.733	1810.43
538.187	1831.48
538.64	1821.68
539.094	1824.88
539.548	1860.48
540.001	1856.78
540.455	1864.53
540.908	1870.98
541.362	1900.48
541.815	1906.58
542.269	1943.28
542.722	1932.23
543.175	1953.18
543.629	1962.33
544.082	1979.63
544.536	2001.78
544.989	1993.53
545.442	2010.08
545.895	2016.88
546.349	2011.93
546.802	2020.78
547.255	2023.18
547.708	2026.43
548.161	2047.28
548.614	2042.73
549.067	2050.53
549.52	2034.88
549.973	2021.58
550.426	2019.98
550.879	2011.98
551.332	2012.43
551.785	2039.28
552.238	2050.98
552.691	2048.33
553.144	2093.33
553.596	2120.98
554.049	2136.33
554.502	2173.43
554.955	2194.08
555.407	2232.93
555.86	2213.53
556.313	2184.58
556.765	2175.18
557.218	2153.18
557.67	2137.73
558.123	2102.68
558.576	2104.88
559.028	2099.78
559.48	2107.03
559.933	2100.78
560.385	2035.93
560.838	1974.38
561.29	1921.28
561.742	1919.88
562.195	1879.08
562.647	1859.23
563.099	1855.38
563.551	1832.93
564.004	1843.58
564.456	1831.28
564.908	1796.33
565.36	1762.28
565.812	1728.68
566.264	1716.38
566.716	1693.08
567.168	1671.68
567.62	1658.83
568.072	1656.63
568.524	1637.83
568.976	1653.48
569.428	1628.83
569.88	1632.68
570.332	1645.13
570.784	1653.63
571.235	1632.08
571.687	1659.18
572.139	1650.03
572.59	1660.93
573.042	1668.43
573.494	1660.28
573.945	1650.13
574.397	1615.73
574.849	1609.43
575.3	1616.53
575.752	1597.23
576.203	1575.03
576.655	1591.83
577.106	1551.68
577.557	1551.88
578.009	1549.78
578.46	1553.78
578.912	1542.18
579.363	1553.98
579.814	1545.38
580.265	1545.88
580.717	1554.93
581.168	1546.08
581.619	1545.58
582.07	1560.83
582.521	1561.33
582.972	1545.38
583.423	1554.48
583.875	1572.48
584.326	1580.28
584.777	1617.13
585.227	1634.13
585.678	1658.58
586.129	1666.43
586.58	1690.18
587.031	1709.83
587.482	1744.28
587.933	1757.68
588.384	1764.23
588.834	1739.23
589.285	1733.88
589.736	1736.23
590.186	1735.78
590.637	1718.43
591.088	1678.73
591.538	1648.28
591.989	1628.13
592.439	1615.73
592.89	1593.93
593.34	1593.78
593.791	1581.83
594.241	1570.68
594.692	1562.88
595.142	1574.98
595.593	1568.83
596.043	1571.58
596.493	1599.98
596.943	1590.88
597.394	1628.03
597.844	1661.73
598.294	1697.38
598.744	1754.08
599.195	1842.48
599.645	1934.78
600.095	2032.98
600.545	2113.98
600.995	2209.68
601.445	2281.78
601.895	2371.78
602.345	2416.83
602.795	2387.18
603.245	2301.03
603.695	2169.63
604.145	2055.58
604.594	1959.33
605.044	1857.58
605.494	1756.68
605.944	1668.63
606.393	1639.33
606.843	1601.68
607.293	1599.18
607.743	1599.33
608.192	1604.28
608.642	1607.23
609.091	1594.68
609.541	1584.78
609.99	1602.68
610.44	1549.98
610.889	1548.88
611.339	1527.73
611.788	1508.68
612.238	1526.18
612.687	1527.78
613.136	1543.63
613.586	1548.68
614.035	1549.58
614.484	1554.83
614.933	1544.78
615.383	1517.13
615.832	1484.88
616.281	1463.38
616.73	1437.68
617.179	1400.18
617.628	1383.03
618.077	1356.58
618.526	1341.08
618.975	1328.63
619.424	1302.33
619.873	1311.83
620.322	1295.98
620.771	1290.93
621.22	1260.28
621.669	1249.48
622.118	1236.23
622.567	1229.23
623.015	1198.98
623.464	1198.18
623.913	1190.83
624.361	1193.88
624.81	1180.48
625.259	1188.68
625.707	1177.73
626.156	1185.98
626.604	1203.23
627.053	1215.48
627.501	1208.28
627.95	1221.58
628.398	1233.43
628.847	1210.78
629.295	1207.48
629.744	1196.58
630.192	1178.08
630.64	1162.98
631.089	1154.23
631.537	1117.13
631.985	1112.88
632.433	1115.78
632.881	1093.68
633.33	1106.38
633.778	1107.58
634.226	1121.23
634.674	1120.03
635.122	1130.68
635.57	1152.23
636.018	1170.58
636.466	1164.08
636.914	1162.23
637.362	1196.68
637.81	1213.33
638.258	1247.38
638.705	1269.28
639.153	1307.23
639.601	1317.03
640.049	1335.33
640.497	1363.78
640.944	1377.63
641.392	1339.33
641.84	1276.28
642.287	1221.93
642.735	1204.98
643.182	1193.43
643.63	1201.18
644.078	1211.03
644.525	1223.43
644.973	1275.38
645.42	1297.98
645.867	1323.98
646.315	1363.48
646.762	1420.83
647.21	1463.23
647.657	1549.38
648.104	1606.83
648.551	1668.08
648.999	1808.28
649.446	2019.08
649.893	2284.98
650.34	2708.63
650.787	3363.58
651.234	4390.63
651.682	6122.08
652.129	8714.68
652.576	12356.53
653.023	15444.43
653.47	15532.58
653.917	15532.63
654.363	15532.53
654.81	15529.53
655.257	15530.18
655.704	14109.18
656.151	8707.73
656.598	5736.83
657.044	4113.73
657.491	3219.13
657.938	2613.58
658.385	2203.13
658.831	1935.98
659.278	1732.58
659.724	1571.88
660.171	1465.93
660.618	1360.28
661.064	1284.33
661.511	1245.03
661.957	1199.08
662.404	1178.13
662.85	1163.13
663.296	1145.83
663.743	1104.58
664.189	1090.63
664.635	1083.98
665.082	1056.38
665.528	1038.38
665.974	1010.18
666.42	994.78
666.867	984.38
667.313	940.43
667.759	940.03
668.205	924.13
668.651	925.58
669.097	925.38
669.543	927.73
669.989	935.33
670.435	939.78
670.881	942.68
671.327	993.53
671.773	1060.63
672.219	1140.78
672.665	1203.88
673.11	1236.43
673.556	1232.13
674.002	1248.93
674.448	1251.43
674.893	1086.63
675.339	948.48
675.785	880.43
676.23	835.03
676.676	799.28
677.122	784.03
677.567	769.58
678.013	740.28
678.458	733.93
678.904	732.18
679.349	728.03
679.794	723.33
680.24	715.08
680.685	705.88
681.131	708.93
681.576	712.98
682.021	716.73
682.466	729.33
682.912	729.83
683.357	778.58
683.802	838.53
684.247	922.73
684.692	977.58
685.137	1006.28
685.583	1023.83
686.028	1052.93
686.473	1006.43
686.918	882.88
687.363	804.13
687.807	765.28
688.252	732.73
688.697	714.28
689.142	688.98
689.587	694.78
690.032	710.73
690.477	739.63
690.921	772.33
691.366	810.03
691.811	846.38
692.255	917.68
692.7	1120.73
693.145	1633.83
693.589	2514.08
694.034	2947.53
694.478	3055.03
694.923	2708.48
695.367	3601.43
695.812	2316.73
696.256	1020.33
696.701	756.68
697.145	698.78
697.59	672.03
698.034	660.33
698.478	664.73
698.922	670.38
699.367	681.63
699.811	715.43
700.255	781.53
700.699	842.68
701.143	917.33
701.588	970.18
702.032	996.43
702.476	1032.58
702.92	1115.83
703.364	1484.53
703.808	2288.33
704.252	2823.18
704.696	2883.53
705.14	2642.08
705.584	3438.83
706.027	2024.38
706.471	1037.68
706.915	786.23
707.359	697.13
707.803	651.73
708.246	634.13
708.69	634.63
709.134	630.58
709.577	615.38
710.021	626.18
710.465	626.78
710.908	614.83
711.352	649.18
711.795	716.93
712.239	772.73
712.682	780.48
713.126	756.88
713.569	826.13
714.012	696.18
714.456	604.58
714.899	578.93
715.342	550.28
715.786	531.73
716.229	514.03
716.672	504.73
717.115	507.58
717.558	506.33
718.002	527.53
718.445	548.73
718.888	577.18
719.331	587.13
719.774	599.28
720.217	586.48
720.66	556.33
721.103	526.88
721.546	495.53
721.989	490.03
722.432	481.08
722.874	481.98
723.317	489.43
723.76	522.58
724.203	663.83
724.645	885.88
725.088	1030.03
725.531	993.03
725.974	1041.38
726.416	943.58
726.859	605.03
727.301	500.63
727.744	476.93
728.187	477.23
728.629	489.63
729.071	512.63
729.514	535.88
729.956	556.48
730.399	565.13
730.841	565.43
731.283	552.48
731.726	541.58
732.168	560.23
732.61	581.43
733.053	630.43
733.495	686.08
733.937	765.13
734.379	906.28
734.821	1155.98
735.263	1861.83
735.705	3350.68
736.148	4798.83
736.59	4672.08
737.032	4766.88
737.474	3969.03
737.916	1629.43
738.357	864.88
738.799	663.88
739.241	610.88
739.683	627.93
740.125	644.68
740.567	648.88
741.008	682.38
741.45	727.88
741.892	767.98
742.334	767.68
742.775	749.33
743.217	714.68
743.658	623.48
744.1	654.23
744.542	752.73
744.983	779.03
745.425	792.43
745.866	766.48
746.307	647.83
746.749	695.33
747.19	1009.48
747.632	1965.33
748.073	3614.83
748.514	4913.28
748.956	6340.13
749.397	7322.23
749.838	5089.33
750.279	4577.98
750.72	2492.93
751.162	1089.83
751.603	636.73
752.044	506.73
752.485	456.83
752.926	423.83
753.367	407.08
753.808	398.78
754.249	392.18
754.69	389.33
755.131	384.48
755.572	381.33
756.013	380.43
756.453	386.83
756.894	389.28
757.335	398.03
757.776	397.83
758.216	412.53
758.657	432.18
759.098	485.08
759.538	586.38
759.979	851.58
760.42	1737.88
760.86	4431.93
761.301	8962.73
761.741	10239.78
762.182	10925.23
762.622	7277.03
763.063	2734.03
763.503	1135.03
763.943	662.08
764.384	525.33
764.824	452.28
765.264	417.78
765.705	397.08
766.145	370.88
766.585	364.98
767.025	351.73
767.465	353.43
767.906	359.13
768.346	388.33
768.786	448.73
769.226	663.98
769.666	1350.28
770.106	2971.08
770.546	4129.38
770.986	4370.03
771.426	3327.08
771.866	1466.73
772.306	675.08
772.745	422.33
773.185	355.48
773.625	344.88
774.065	379.33
774.505	556.08
774.944	1002.23
775.384	1408.53
775.824	1512.48
776.263	1236.13
776.703	683.48
777.142	393.98
777.582	289.93
778.021	264.28
778.461	257.93
778.9	252.23
779.34	245.33
779.779	239.63
780.219	234.98
780.658	221.73
781.097	227.78
781.537	219.98
781.976	220.18
782.415	218.23
782.855	216.53
783.294	211.43
783.733	210.48
784.172	215.18
784.611	217.28
785.05	222.73
785.489	227.08
785.928	234.63
786.367	242.43
786.806	260.33
787.245	277.33
787.684	277.58
788.123	281.08
788.562	274.03
789.001	261.33
789.44	260.53
789.879	256.58
790.317	261.43
790.756	273.03
791.195	311.38
791.634	431.33
792.072	771.73
792.511	1879.53
792.95	3383.98
793.388	3848.78
793.827	2534.53
794.265	1221.23
794.704	593.78
795.142	361.83
795.581	297.73
796.019	277.78
796.458	268.88
796.896	276.43
797.334	321.03
797.773	438.28
798.211	836.38
798.649	1720.63
799.087	2817.83
799.526	3946.93
799.964	3952.18
800.402	2708.03
800.84	1284.98
801.278	644.78
801.716	395.48
802.154	320.63
802.592	303.18
803.03	300.48
803.468	303.48
803.906	309.63
804.344	298.48
804.782	293.23
805.22	296.33
805.658	311.73
806.096	326.78
806.533	365.13
806.971	473.58
807.409	684.68
807.847	1376.23
808.284	3423.93
808.722	5888.98
809.16	8119.88
809.597	11285.53
810.035	13252.88
810.472	8629.33
810.91	3858.73
811.347	1768.33
811.785	836.83
812.222	519.98
812.66	400.68
813.097	346.43
813.535	293.53
813.972	264.78
814.409	250.23
814.846	238.48
815.284	226.98
815.721	231.58
816.158	253.88
816.595	350.53
817.032	442.53
817.47	391.58
817.907	292.73
818.344	256.23
818.781	249.68
819.218	316.73
819.655	471.58
820.092	608.18
820.529	537.53
820.966	431.38
821.403	298.28
821.839	255.18
822.276	282.88
822.713	337.08
823.15	305.78
823.587	325.93
824.023	574.53
824.46	1396.18
824.897	2340.33
825.333	1802.03
825.77	868.18
826.206	463.38
826.643	266.53
827.08	202.13
827.516	176.23
827.953	169.88
828.389	159.43
828.825	149.38
829.262	145.38
829.698	142.13
830.135	127.73
830.571	134.58
831.007	140.33
831.443	138.68
831.88	136.13
832.316	137.78
832.752	138.48
833.188	137.93
833.624	138.48
834.06	144.33
834.497	147.63
834.933	149.43
835.369	156.28
835.805	171.08
836.241	174.23
836.677	194.28
837.112	223.13
837.548	280.03
837.984	412.28
838.42	890.88
838.856	2423.83
839.292	4560.38
839.727	3426.88
840.163	2401.58
840.599	3601.53
841.034	5246.23
841.47	2714.13
841.906	1359.13
842.341	736.63
842.777	543.53
843.212	552.13
843.648	352.78
844.083	242.78
844.519	183.88
844.954	152.18
845.39	131.38
845.825	128.33
846.261	127.63
846.696	119.98
847.131	112.53
847.566	114.03
848.002	113.53
848.437	127.58
848.872	129.03
849.307	166.98
849.742	307.48
850.177	785.03
850.613	1616.98
851.048	1165.53
851.483	554.83
851.918	310.68
852.353	173.58
852.788	124.03
853.223	114.58
853.657	96.88
854.092	103.03
854.527	97.13
854.962	102.98
855.397	115.63
855.832	99.83
856.266	92.18
856.701	88.88
857.136	93.83
857.57	116.48
858.005	139.48
858.44	115.03
858.874	107.68
859.309	112.88
859.743	104.93
860.178	105.33
860.612	114.93
861.047	162.18
861.481	218.58
861.915	150.88
862.35	115.88
862.784	92.38
863.218	86.83
863.653	94.88
864.087	119.08
864.521	141.53
864.955	229.23
865.39	388.78
865.824	303.53
866.258	407.88
866.692	606.08
867.126	444.03
867.56	240.98
867.994	157.63
868.428	127.93
868.862	160.38
869.296	150.98
869.73	176.68
870.164	154.78
870.598	140.08
871.031	102.83
871.465	87.03
871.899	74.88
872.333	61.98
872.766	65.98
873.2	63.68
873.634	63.23
874.067	66.18
874.501	61.98
874.935	66.63
875.368	67.38
875.802	60.68
876.235	53.73
876.669	57.03
877.102	53.53
877.535	51.83
877.969	49.93
878.402	50.83
878.836	50.63
879.269	49.18
879.702	54.08
880.135	51.68
880.569	50.73
881.002	47.48
881.435	46.03
881.868	48.33
882.301	44.08
882.734	45.08
883.167	46.43
883.601	44.58
884.034	42.98
884.467	35.03
884.899	40.63
885.332	39.28
885.765	40.13
886.198	41.73
886.631	42.03
887.064	40.33
887.497	42.28
887.929	39.68
888.362	38.68
888.795	37.63
889.228	40.23
889.66	40.58
890.093	39.38
890.526	40.63
890.958	39.33
891.391	40.18
891.823	37.03
892.256	38.83
892.688	40.63
893.121	34.78
893.553	38.73
893.985	34.88
894.418	34.83
894.85	40.08
895.282	36.83
895.715	30.93
896.147	30.03
896.579	34.18
897.011	39.48
897.444	37.63
897.876	30.63
898.308	31.03
898.74	34.58
899.172	37.73
899.604	38.48
900.036	35.58
900.468	32.83
900.9	39.03
901.332	49.83
901.764	51.48
902.196	48.23
902.628	49.43
903.06	73.23
903.491	75.68
903.923	63.98
904.355	65.93
904.787	68.33
905.218	52.38
905.65	50.53
906.082	47.38
906.513	38.23
906.945	46.23
907.376	40.53
907.808	40.68
908.239	49.38
908.671	49.38
909.102	60.88
909.534	78.63
909.965	151.98
910.397	382.38
910.828	1046.78
911.259	665.93
911.691	374.48
912.122	215.13
912.553	106.93
912.984	62.88
913.415	54.28
913.847	50.28
914.278	41.73
914.709	36.83
915.14	40.93
915.571	41.13
916.002	39.73
916.433	31.93
916.864	33.88
917.295	39.78
917.726	47.53
918.157	54.38
918.587	53.48
919.018	48.68
919.449	45.93
919.88	57.23
920.311	82.98
920.741	221.88
921.172	390.08
921.603	202.58
922.033	131.83
922.464	87.73
922.895	54.38
923.325	38.63
923.756	37.98
924.186	42.73
924.617	63.43
925.047	91.38
925.478	79.68
925.908	61.73
926.338	47.43
926.769	35.33
927.199	36.48
927.629	28.58
928.06	34.98
928.49	36.78
928.92	25.68
929.35	29.88
929.78	20.43
930.21	24.23
930.641	18.13
931.071	18.93
931.501	20.88
931.931	13.03
932.361	18.58
932.791	23.83
933.221	23.48
933.651	39.03
934.08	51.18
934.51	29.48
934.94	30.48
935.37	19.03
935.8	23.23
936.229	13.28
936.659	16.73
937.089	31.83
937.519	48.13
937.948	66.43
938.378	42.23
938.807	28.68
939.237	17.43
939.666	13.63
940.096	10.88
940.525	7.03
940.955	11.83
941.384	10.73
941.814	9.98
942.243	13.93
942.672	9.53
943.102	7.93
943.531	8.88
943.96	4.98
944.39	12.23
944.819	11.43
945.248	7.78
945.677	10.68
946.106	13.13
946.535	9.68
946.964	6.88
947.393	7.28
947.822	6.08
948.251	10.28
948.68	13.48
949.109	6.78
949.538	5.68
949.967	11.28
950.396	8.28
950.825	7.93
951.254	6.43
951.682	4.38
952.111	4.53
952.54	4.03
952.969	7.73
953.397	1.43
953.826	3.33
954.254	10.68
954.683	10.53
955.112	7.98
955.54	8.13
955.969	3.13
956.397	8.23
956.826	5.23
957.254	3.58
957.682	2.83
958.111	8.68
958.539	8.03
958.967	4.58
959.396	11.68
959.824	8.08
960.252	8.33
960.68	6.08
961.109	5.68
961.537	9.33
961.965	5.73
962.393	7.93
962.821	6.83
963.249	5.53
963.677	10.88
964.105	60.08
964.533	115.53
964.961	58.58
965.389	36.63
965.817	16.78
966.245	10.28
966.672	8.03
967.1	5.58
967.528	4.13
967.956	1.53
968.383	5.78
968.811	3.93
969.239	2.38
969.666	7.18
970.094	6.13
970.522	4.53
970.949	5.13
971.377	-0.82
971.804	-1.37
972.232	3.48
972.659	1.08
973.087	6.88
973.514	-0.22
973.941	2.88
974.369	1.53
974.796	1.38
975.223	0.88
975.651	6.68
976.078	5.33
976.505	10.33
976.932	23.68
977.359	34.93
977.786	20.33
978.214	17.38
978.641	4.73
979.068	9.08
979.495	2.83
979.922	8.68
980.349	5.08
980.776	5.18
981.202	6.13
981.629	7.58
982.056	4.23
982.483	1.88
982.91	10.98
983.337	-0.02
983.763	6.33
984.19	6.43
984.617	1.93
985.043	5.78
985.47	3.03
985.897	3.43
986.323	6.78
986.75	5.38
987.176	0.93
987.603	5.78
988.029	4.43
988.456	7.88
988.882	0.98
989.308	0.48
989.735	2.68
990.161	0.98
990.587	3.48
991.014	3.18
991.44	6.28
991.866	8.08
992.292	0.73
992.719	3.18
993.145	5.78
993.571	7.23
993.997	4.63
994.423	10.38
994.849	1.53
995.275	4.58
995.701	5.78
996.127	1.43
996.553	1.78
996.979	1.08
997.405	10.73
997.83	1.73
998.256	4.08
998.682	1.43
999.108	5.63
999.534	0.03
999.959	1.83
1000.385	4.13
1000.811	-1.92
1001.236	-0.42
1001.662	-0.57
1002.087	3.78
1002.513	1.88
1002.938	0.33
1003.364	3.98
1003.789	1.53
1004.215	4.98
1004.64	0.98
1005.066	2.48
1005.491	6.93
1005.916	2.13
1006.342	0.43
1006.767	5.88
1007.192	6.93
1007.617	3.33
1008.042	2.48
1008.468	4.28
1008.893	3.73
1009.318	5.98
1009.743	15.23
1010.168	24.33
1010.593	22.48
1011.018	18.88
1011.443	6.13
1011.868	8.08
1012.293	5.48
1012.718	4.13
1013.143	3.23
1013.567	5.48
1013.992	3.98
1014.417	2.08
1014.842	5.13
1015.267	2.68
1015.691	6.98
1016.116	2.63
1016.541	7.68
1016.965	5.13
1017.39	3.48
1017.814	-2.82
1018.239	-1.17
1018.663	-2.87
1019.088	-4.07
1019.512	6.83
1019.937	-1.92
1020.361	3.08
1020.785	0.73
1021.21	-0.37
1021.634	-1.07
1022.058	5.33
1022.483	-4.87
1022.907	-2.22
1023.331	-2.77
1023.755	-1.87
1024.179	1.83
1024.604	-1.67
1025.028	1.43
1025.452	1.83
1025.876	7.23
1026.3	-2.37
1026.724	-5.52
1027.148	4.23
1027.572	-4.27
1027.996	1.28
1028.42	3.08
1028.843	1.38
1029.267	-0.22
1029.691	1.18
1030.115	-1.77
1030.539	-1.02
1030.962	-1.17
1031.386	2.88
1031.81	2.43
1032.233	-2.47
1032.657	-1.07
1033.08	-3.47
1033.504	1.48
1033.927	1.23
1034.351	-1.17
1034.774	-0.77
1035.198	-6.62
1035.621	-3.32
1036.045	-1.92
1036.468	2.58
1036.891	-2.57
1037.315	0.88
1037.738	2.08
1038.161	1.93
1038.584	1.88
1039.008	-2.02
1039.431	-1.37
1039.854	-6.12
1040.277	7.63
1040.7	-5.27
1041.123	-0.47
1041.546	-1.52
1041.969	-1.87
1042.392	0.98
1042.815	-7.32
1043.238	-2.27
1043.661	-1.92
1044.084	-5.07
1044.507	-5.32
1044.93	-2.52
1045.352	-0.27
1045.775	-0.72
1046.198	8.08
1046.621	2.78
1047.043	-2.32
1047.466	0.58
1047.889	0.98
1048.311	-0.42
1048.734	-1.37
1049.156	-0.67
1049.579	1.83
1050.001	-2.62
1050.424	-2.72
1050.846	-4.72
1051.269	-3.97
1051.691	-0.37
1052.113	-2.17
1052.536	-2.57
1052.958	-5.72
1053.38	-1.12
1053.802	0.43
1054.225	0.98
1054.647	0.78
1055.069	2.93
1055.491	0.88
1055.913	1.98
1056.335	-5.82
1056.757	-4.42
1057.179	-2.17
1057.601	-3.67
1058.023	1.33
1058.445	-1.72
1058.867	0.18
1059.289	0.88
1059.711	-1.62
1060.133	-2.62
1060.555	-2.27
1060.976	-2.47
1061.398	-4.32
1061.82	2.98
1062.241	-5.12
1062.663	-2.32
1063.085	-7.22
1063.506	-4.57
1063.928	0.88
1064.35	1.93
1064.771	-1.67
1065.193	-4.12
1065.614	-3.72
1066.035	1.98
1066.457	-0.27
1066.878	2.43
1067.3	2.63
1067.721	1.83
1068.142	1.03
1068.564	3.08
1068.985	-0.57
1069.406	-4.42
1069.827	1.48
1070.248	-2.37
1070.67	-4.12
1071.091	-5.62
1071.512	-2.82
1071.933	-2.87
1072.354	-7.02
1072.775	0.18
1073.196	3.18
1073.617	-1.47
1074.038	-3.27
1074.459	-4.42
1074.88	-0.37
1075.3	-1.37
1075.721	3.88
1076.142	-2.17
1076.563	-6.32
1076.983	2.58
1077.404	-2.82
1077.825	-2.92
1078.246	-2.47
1078.666	-0.27
1079.087	-2.32
1079.507	-4.17
1079.928	-1.97
1080.348	-1.77
1080.769	0.33
1081.189	0.53
1081.61	-2.82
1082.03	1.08
1082.451	1.18
1082.871	-2.47
1083.291	-3.27
1083.711	-2.87
1084.132	-5.17
1084.552	-6.77
1084.972	-4.57
1085.392	-3.72
1085.813	3.18
1086.233	1.83
1086.653	0.38
1087.073	-1.67
1087.493	-2.37
1087.913	-7.02
1088.333	-1.52
1088.753	-0.42
1089.173	2.13
1089.593	-4.22
1090.013	-0.42
1090.433	-2.12
1090.852	-1.77
1091.272	-4.57
1091.692	1.88
1092.112	-5.07
1092.531	-5.62
1092.951	-3.12
1093.371	-2.42
1093.79	-2.27
1094.21	-0.87
1094.63	-1.17
1095.049	1.33
1095.469	-6.27
1095.888	1.48
1096.308	-3.57
1096.727	-4.22
1097.146	-2.37
1097.566	-2.22
1097.985	-4.77
1098.405	1.43
1098.824	2.73
1099.243	0.08
1099.662	-2.42
1100.082	1.08
1100.501	-0.67
1100.92	0.38
1101.339	-1.27
1101.758	2.73
