Data from MSPlasma+Separation6_Subt14_10-13-52-706.txt Node
Date: Fri Jul 21 10:13:52 EDT 2017
User: Ender
Spectrometer: HR+D1039
Trigger mode: 0
Integration Time (sec): 6.430000E-3
Scans to average: 20
Electric dark correction enabled: true
Nonlinearity correction enabled: false
Boxcar width: 0
XAxis mode: Wavelengths
Number of Pixels in Spectrum: 2048
>>>>>Begin Spectral Data<<<<<
187.836	-1.84
188.309	-1.84
188.782	-1.84
189.255	-1.69
189.728	3.06
190.201	-0.49
190.674	-0.69
191.147	-2.19
191.619	-1.49
192.092	-3.04
192.565	1.31
193.038	5.66
193.511	2.61
193.984	1.46
194.456	0.41
194.929	-4.29
195.402	-0.69
195.874	1.86
196.347	3.11
196.82	-0.64
197.292	-6.24
197.765	-3.94
198.237	-2.39
198.71	-3.39
199.182	-3.79
199.655	1.36
200.127	0.96
200.6	-0.39
201.072	2.56
201.544	-0.64
202.017	2.06
202.489	-0.19
202.961	-0.14
203.433	-1.74
203.906	-1.69
204.378	0.36
204.85	-1.44
205.322	-2.79
205.794	-1.34
206.266	-4.34
206.739	1.01
207.211	-0.54
207.683	-2.44
208.155	-3.84
208.627	-0.14
209.099	2.46
209.57	-2.24
210.042	3.16
210.514	1.91
210.986	0.71
211.458	0.36
211.93	2.36
212.402	1.86
212.873	-1.54
213.345	-2.04
213.817	4.16
214.288	-3.74
214.76	3.71
215.232	-0.99
215.703	0.41
216.175	3.51
216.646	3.41
217.118	-0.24
217.589	-3.29
218.061	0.91
218.532	-3.89
219.004	5.41
219.475	1.66
219.946	3.21
220.418	8.06
220.889	5.61
221.36	7.71
221.832	5.96
222.303	4.31
222.774	6.21
223.245	1.41
223.717	1.61
224.188	4.36
224.659	2.01
225.13	1.66
225.601	-0.94
226.072	4.66
226.543	7.61
227.014	3.76
227.485	6.66
227.956	4.16
228.427	11.36
228.898	7.76
229.369	9.11
229.839	2.61
230.31	9.66
230.781	9.21
231.252	10.46
231.722	7.31
232.193	7.01
232.664	9.91
233.135	10.86
233.605	10.01
234.076	12.61
234.546	8.41
235.017	14.86
235.487	11.31
235.958	11.96
236.428	19.76
236.899	13.76
237.369	17.31
237.84	14.61
238.31	17.11
238.78	12.56
239.251	12.76
239.721	11.06
240.191	15.46
240.662	17.76
241.132	16.61
241.602	18.96
242.072	17.21
242.542	12.36
243.013	14.06
243.483	18.16
243.953	13.56
244.423	19.51
244.893	21.46
245.363	19.91
245.833	20.31
246.303	20.91
246.773	25.46
247.243	22.81
247.712	23.26
248.182	20.96
248.652	28.16
249.122	18.51
249.592	22.81
250.061	24.51
250.531	25.66
251.001	23.26
251.471	28.11
251.94	27.61
252.41	27.76
252.879	27.81
253.349	33.21
253.818	30.96
254.288	36.56
254.757	30.31
255.227	29.46
255.696	31.91
256.166	38.41
256.635	34.81
257.105	33.01
257.574	35.16
258.043	33.71
258.513	35.86
258.982	33.21
259.451	35.26
259.92	37.36
260.389	37.31
260.859	39.06
261.328	38.16
261.797	39.51
262.266	41.81
262.735	39.56
263.204	37.41
263.673	44.86
264.142	40.51
264.611	41.41
265.08	41.91
265.549	41.21
266.018	45.96
266.487	44.11
266.955	42.31
267.424	50.41
267.893	51.31
268.362	51.31
268.83	46.16
269.299	47.61
269.768	49.31
270.236	49.91
270.705	55.56
271.174	56.16
271.642	51.86
272.111	53.31
272.579	51.86
273.048	50.06
273.516	56.76
273.985	59.26
274.453	53.56
274.922	57.16
275.39	58.41
275.858	55.86
276.327	60.01
276.795	64.71
277.263	62.01
277.731	64.21
278.2	67.86
278.668	65.46
279.136	66.76
279.604	66.66
280.072	65.76
280.54	65.26
281.008	76.16
281.477	71.56
281.945	69.11
282.413	68.96
282.881	72.61
283.348	66.11
283.816	67.76
284.284	74.31
284.752	71.06
285.22	78.81
285.688	76.96
286.156	75.16
286.623	79.16
287.091	81.56
287.559	81.81
288.026	83.26
288.494	85.26
288.962	82.86
289.429	78.56
289.897	77.61
290.364	80.96
290.832	86.11
291.3	85.76
291.767	85.61
292.234	88.71
292.702	89.36
293.169	90.56
293.637	95.01
294.104	92.36
294.571	88.71
295.039	93.51
295.506	87.81
295.973	90.46
296.44	93.11
296.908	97.31
297.375	100.91
297.842	97.06
298.309	95.96
298.776	96.36
299.243	101.71
299.71	99.26
300.177	101.11
300.644	98.91
301.111	102.41
301.578	105.61
302.045	107.06
302.512	104.61
302.979	110.76
303.446	111.11
303.913	109.91
304.379	119.31
304.846	118.01
305.313	120.86
305.78	125.16
306.246	120.86
306.713	121.11
307.18	126.56
307.646	123.91
308.113	125.31
308.579	132.26
309.046	134.51
309.512	134.76
309.979	138.36
310.445	132.51
310.912	136.76
311.378	145.41
311.845	138.86
312.311	136.81
312.777	140.26
313.244	152.16
313.71	150.11
314.176	152.06
314.642	151.41
315.109	147.86
315.575	146.76
316.041	152.71
316.507	152.16
316.973	162.06
317.439	158.56
317.905	166.11
318.371	158.61
318.837	156.16
319.303	161.36
319.769	158.01
320.235	161.61
320.701	173.11
321.167	162.66
321.633	169.71
322.099	163.01
322.564	166.76
323.03	169.21
323.496	175.21
323.962	174.11
324.427	175.16
324.893	174.36
325.359	180.56
325.824	183.06
326.29	185.16
326.755	182.11
327.221	188.46
327.686	197.81
328.152	194.61
328.617	198.86
329.083	195.71
329.548	196.11
330.014	202.16
330.479	208.41
330.944	208.51
331.41	211.71
331.875	199.86
332.34	206.41
332.805	215.46
333.271	206.41
333.736	210.36
334.201	209.41
334.666	228.81
335.131	232.31
335.596	226.96
336.061	219.41
336.526	223.46
336.991	216.36
337.456	218.31
337.921	215.11
338.386	212.86
338.851	212.61
339.316	215.36
339.781	218.26
340.246	223.26
340.711	221.31
341.175	225.41
341.64	232.61
342.105	237.46
342.569	249.16
343.034	240.46
343.499	244.16
343.963	250.66
344.428	253.36
344.893	256.21
345.357	259.16
345.822	260.11
346.286	262.41
346.751	268.01
347.215	273.51
347.679	278.06
348.144	301.11
348.608	295.01
349.073	292.66
349.537	302.56
350.001	312.41
350.465	306.81
350.93	302.61
351.394	311.96
351.858	311.86
352.322	312.21
352.786	313.31
353.25	314.66
353.715	319.71
354.179	333.06
354.643	342.46
355.107	351.76
355.571	339.56
356.035	343.06
356.498	343.11
356.962	340.46
357.426	334.56
357.89	337.96
358.354	326.31
358.818	325.51
359.281	334.66
359.745	339.21
360.209	337.96
360.673	338.86
361.136	340.96
361.6	338.86
362.064	340.61
362.527	354.31
362.991	354.31
363.454	350.71
363.918	359.66
364.381	361.76
364.845	359.51
365.308	360.26
365.772	362.46
366.235	360.71
366.698	360.96
367.162	360.16
367.625	371.61
368.088	381.96
368.552	371.56
369.015	369.76
369.478	380.71
369.941	380.41
370.404	387.41
370.867	380.51
371.331	377.41
371.794	398.51
372.257	393.26
372.72	395.91
373.183	401.36
373.646	400.11
374.109	396.16
374.572	405.01
375.035	404.96
375.497	408.26
375.96	413.66
376.423	421.31
376.886	428.66
377.349	434.31
377.811	434.51
378.274	439.36
378.737	434.46
379.199	440.16
379.662	441.46
380.125	448.51
380.587	453.86
381.05	454.61
381.512	463.01
381.975	469.71
382.437	479.06
382.9	476.71
383.362	480.86
383.825	484.26
384.287	487.91
384.75	486.96
385.212	485.36
385.674	496.36
386.136	505.76
386.599	494.06
387.061	492.91
387.523	493.11
387.985	499.51
388.447	508.36
388.91	504.66
389.372	510.51
389.834	514.21
390.296	497.06
390.758	509.81
391.22	506.81
391.682	516.06
392.144	513.61
392.606	522.46
393.068	528.66
393.529	562.21
393.991	564.76
394.453	542.41
394.915	531.36
395.377	516.56
395.838	516.26
396.3	527.61
396.762	529.91
397.224	527.26
397.685	530.21
398.147	537.11
398.608	540.11
399.07	545.31
399.531	552.16
399.993	559.56
400.454	572.16
400.916	568.06
401.377	579.36
401.839	591.36
402.3	586.26
402.762	609.96
403.223	651.06
403.684	652.11
404.145	630.56
404.607	613.11
405.068	604.16
405.529	622.31
405.99	625.26
406.451	626.11
406.913	616.16
407.374	628.51
407.835	628.16
408.296	647.36
408.757	642.86
409.218	659.51
409.679	672.26
410.14	668.41
410.601	684.81
411.062	685.71
411.522	692.41
411.983	690.96
412.444	700.41
412.905	713.81
413.366	734.91
413.826	768.66
414.287	861.66
414.748	1028.16
415.208	1054.51
415.669	874.01
416.13	796.71
416.59	779.61
417.051	809.21
417.511	848.16
417.972	911.01
418.432	975.56
418.893	1083.11
419.353	1040.11
419.814	803.01
420.274	723.26
420.734	705.76
421.195	732.56
421.655	721.46
422.115	734.56
422.576	730.51
423.036	739.51
423.496	762.56
423.956	799.31
424.416	852.71
424.876	955.21
425.336	948.11
425.797	938.31
426.257	931.26
426.717	874.26
427.177	812.66
427.637	822.86
428.097	851.61
428.556	889.91
429.016	945.36
429.476	952.36
429.936	934.91
430.396	933.31
430.856	949.96
431.315	967.86
431.775	1046.46
432.235	1115.81
432.694	1131.81
433.154	1063.16
433.614	1043.66
434.073	1014.06
434.533	903.96
434.993	882.16
435.452	885.11
435.912	867.86
436.371	865.91
436.83	850.11
437.29	835.36
437.749	809.46
438.209	809.66
438.668	821.71
439.127	842.61
439.587	825.36
440.046	808.21
440.505	821.66
440.964	819.81
441.424	853.16
441.883	871.56
442.342	819.76
442.801	786.11
443.26	796.91
443.719	790.41
444.178	782.61
444.637	793.36
445.096	802.81
445.555	813.51
446.014	810.96
446.473	804.91
446.932	806.81
447.391	818.21
447.849	831.41
448.308	809.41
448.767	827.46
449.226	839.56
449.685	856.76
450.143	885.66
450.602	884.61
451.061	840.81
451.519	836.91
451.978	828.51
452.436	821.41
452.895	830.41
453.353	825.06
453.812	810.66
454.27	818.41
454.729	819.71
455.187	831.71
455.646	833.81
456.104	836.76
456.562	839.01
457.021	849.51
457.479	823.11
457.937	853.01
458.395	876.11
458.854	866.76
459.312	850.36
459.77	856.61
460.228	867.96
460.686	882.71
461.144	888.36
461.602	876.01
462.06	881.01
462.518	891.86
462.976	898.91
463.434	912.06
463.892	918.16
464.35	933.06
464.808	944.71
465.266	959.56
465.724	965.81
466.181	974.56
466.639	957.41
467.097	994.41
467.555	1040.86
468.012	1025.31
468.47	1045.81
468.928	1074.61
469.385	1104.06
469.843	1111.46
470.3	1106.96
470.758	1141.96
471.215	1163.26
471.673	1185.36
472.13	1210.51
472.588	1244.26
473.045	1239.11
473.503	1260.81
473.96	1310.71
474.417	1327.16
474.875	1385.71
475.332	1430.51
475.789	1460.06
476.246	1499.76
476.704	1548.71
477.161	1597.61
477.618	1637.36
478.075	1731.21
478.532	1854.96
478.989	1997.46
479.446	2186.61
479.903	2294.26
480.36	2482.36
480.817	2616.71
481.274	2781.31
481.731	3025.26
482.188	3245.06
482.645	3488.96
483.102	3657.36
483.558	3898.51
484.015	4081.91
484.472	4055.36
484.929	3931.11
485.385	3788.86
485.842	3714.36
486.299	3573.66
486.755	3299.61
487.212	2982.21
487.668	2686.51
488.125	2516.66
488.582	2342.61
489.038	2261.21
489.494	2197.56
489.951	2133.61
490.407	2068.81
490.864	2037.31
491.32	1992.36
491.776	1986.61
492.233	1990.46
492.689	1959.16
493.145	1924.86
493.602	1899.46
494.058	1924.21
494.514	1922.26
494.97	1926.11
495.426	1951.56
495.882	1951.11
496.338	1937.41
496.794	1964.81
497.251	1954.06
497.707	1982.71
498.163	1986.16
498.618	1975.66
499.074	1958.76
499.53	1995.61
499.986	2011.41
500.442	1991.96
500.898	1964.91
501.354	1984.36
501.809	1988.66
502.265	1993.61
502.721	2000.71
503.177	2007.86
503.632	2011.26
504.088	2016.81
504.543	2040.86
504.999	2063.76
505.455	2055.86
505.91	2039.36
506.366	2047.81
506.821	2050.11
507.277	2034.91
507.732	2041.66
508.187	2039.56
508.643	2044.66
509.098	2057.11
509.553	2096.21
510.009	2112.16
510.464	2151.71
510.919	2176.11
511.375	2199.96
511.83	2202.46
512.285	2245.71
512.74	2296.86
513.195	2321.86
513.65	2354.91
514.105	2391.61
514.56	2393.11
515.015	2430.61
515.47	2440.96
515.925	2410.71
516.38	2422.41
516.835	2429.16
517.29	2404.26
517.745	2396.46
518.2	2384.36
518.655	2316.36
519.109	2303.56
519.564	2268.01
520.019	2254.66
520.474	2238.86
520.928	2216.01
521.383	2207.06
521.838	2205.01
522.292	2174.76
522.747	2162.31
523.201	2152.71
523.656	2137.51
524.11	2128.76
524.565	2121.41
525.019	2125.16
525.474	2117.66
525.928	2115.56
526.382	2110.56
526.837	2109.16
527.291	2119.11
527.745	2100.91
528.2	2109.36
528.654	2080.31
529.108	2093.41
529.562	2089.41
530.016	2088.31
530.47	2104.26
530.925	2086.76
531.379	2086.31
531.833	2108.41
532.287	2098.01
532.741	2096.61
533.195	2095.81
533.649	2109.16
534.103	2097.06
534.556	2085.46
535.01	2100.96
535.464	2089.36
535.918	2094.61
536.372	2112.36
536.826	2097.41
537.279	2070.51
537.733	2083.16
538.187	2084.71
538.64	2089.86
539.094	2108.51
539.548	2137.46
540.001	2131.01
540.455	2143.81
540.908	2147.31
541.362	2164.46
541.815	2182.16
542.269	2229.96
542.722	2227.36
543.175	2250.21
543.629	2261.36
544.082	2279.51
544.536	2305.01
544.989	2307.21
545.442	2306.91
545.895	2320.01
546.349	2312.91
546.802	2320.26
547.255	2319.81
547.708	2325.36
548.161	2350.26
548.614	2356.96
549.067	2366.21
549.52	2349.26
549.973	2324.31
550.426	2323.01
550.879	2314.26
551.332	2319.86
551.785	2331.76
552.238	2353.76
552.691	2365.16
553.144	2387.86
553.596	2412.46
554.049	2450.81
554.502	2502.71
554.955	2534.51
555.407	2567.91
555.86	2572.26
556.313	2522.41
556.765	2501.16
557.218	2461.71
557.67	2456.46
558.123	2423.26
558.576	2411.91
559.028	2405.01
559.48	2441.36
559.933	2421.76
560.385	2357.76
560.838	2277.16
561.29	2216.51
561.742	2212.86
562.195	2150.76
562.647	2129.91
563.099	2127.56
563.551	2112.11
564.004	2120.31
564.456	2106.71
564.908	2064.71
565.36	2031.71
565.812	1982.06
566.264	1967.31
566.716	1946.31
567.168	1904.36
567.62	1913.26
568.072	1896.36
568.524	1892.11
568.976	1878.16
569.428	1862.21
569.88	1860.06
570.332	1872.76
570.784	1879.96
571.235	1866.71
571.687	1890.21
572.139	1890.71
572.59	1910.01
573.042	1918.31
573.494	1919.66
573.945	1873.86
574.397	1850.36
574.849	1842.21
575.3	1848.31
575.752	1814.96
576.203	1802.81
576.655	1813.31
577.106	1783.06
577.557	1769.81
578.009	1759.11
578.46	1776.36
578.912	1754.26
579.363	1767.66
579.814	1766.36
580.265	1760.01
580.717	1767.76
581.168	1754.51
581.619	1774.41
582.07	1798.76
582.521	1780.86
582.972	1769.51
583.423	1785.26
583.875	1781.36
584.326	1806.56
584.777	1840.46
585.227	1848.31
585.678	1876.06
586.129	1898.01
586.58	1912.36
587.031	1940.31
587.482	1988.81
587.933	2016.91
588.384	2010.56
588.834	1995.36
589.285	1985.41
589.736	1975.91
590.186	1986.26
590.637	1972.86
591.088	1918.66
591.538	1892.66
591.989	1859.81
592.439	1833.16
592.89	1808.31
593.34	1818.11
593.791	1800.36
594.241	1796.06
594.692	1782.26
595.142	1784.96
595.593	1777.06
596.043	1795.71
596.493	1805.11
596.943	1796.01
597.394	1854.71
597.844	1880.46
598.294	1921.76
598.744	1985.81
599.195	2073.26
599.645	2182.76
600.095	2306.96
600.545	2396.51
600.995	2505.16
601.445	2598.11
601.895	2702.56
602.345	2786.41
602.795	2763.81
603.245	2647.36
603.695	2505.16
604.145	2382.96
604.594	2279.81
605.044	2156.41
605.494	2022.46
605.944	1911.61
606.393	1866.26
606.843	1837.91
607.293	1828.71
607.743	1816.11
608.192	1822.96
608.642	1821.71
609.091	1826.81
609.541	1826.61
609.99	1814.81
610.44	1785.26
610.889	1770.96
611.339	1740.81
611.788	1708.81
612.238	1732.76
612.687	1734.66
613.136	1737.81
613.586	1763.66
614.035	1748.56
614.484	1762.31
614.933	1762.06
615.383	1737.46
615.832	1697.46
616.281	1673.11
616.73	1638.51
617.179	1594.96
617.628	1560.91
618.077	1548.26
618.526	1514.21
618.975	1512.16
619.424	1482.51
619.873	1477.76
620.322	1477.86
620.771	1468.36
621.22	1440.91
621.669	1419.01
622.118	1403.21
622.567	1391.91
623.015	1368.56
623.464	1363.76
623.913	1345.21
624.361	1354.26
624.81	1340.11
625.259	1347.71
625.707	1335.41
626.156	1343.46
626.604	1359.81
627.053	1370.71
627.501	1365.61
627.95	1373.51
628.398	1391.41
628.847	1382.26
629.295	1367.21
629.744	1354.41
630.192	1333.91
630.64	1315.81
631.089	1299.51
631.537	1265.16
631.985	1260.11
632.433	1261.46
632.881	1243.16
633.33	1250.51
633.778	1250.56
634.226	1254.36
634.674	1270.91
635.122	1275.76
635.57	1300.31
636.018	1313.86
636.466	1315.96
636.914	1316.81
637.362	1341.56
637.81	1360.01
638.258	1400.76
638.705	1420.56
639.153	1463.01
639.601	1479.41
640.049	1505.01
640.497	1547.11
640.944	1580.21
641.392	1518.16
641.84	1441.01
642.287	1376.46
642.735	1337.66
643.182	1331.51
643.63	1321.46
644.078	1336.76
644.525	1346.01
644.973	1395.06
645.42	1415.26
645.867	1449.46
646.315	1479.71
646.762	1538.26
647.21	1565.86
647.657	1647.81
648.104	1697.51
648.551	1746.51
648.999	1887.11
649.446	2052.36
649.893	2290.86
650.34	2653.21
650.787	3254.41
651.234	4174.86
651.682	5713.51
652.129	8034.91
652.576	11379.61
653.023	14876.11
653.47	15533.26
653.917	15533.31
654.363	15533.21
654.81	15530.21
655.257	15530.86
655.704	14643.86
656.151	8907.21
656.598	5870.16
657.044	4210.21
657.491	3309.06
657.938	2704.61
658.385	2300.91
658.831	2050.86
659.278	1845.51
659.724	1688.06
660.171	1577.51
660.618	1464.71
661.064	1380.56
661.511	1347.66
661.957	1302.31
662.404	1278.41
662.85	1271.66
663.296	1256.01
663.743	1227.26
664.189	1212.81
664.635	1204.16
665.082	1174.56
665.528	1156.91
665.974	1126.01
666.42	1104.26
666.867	1108.46
667.313	1040.36
667.759	1035.81
668.205	1024.06
668.651	1025.11
669.097	1031.06
669.543	1035.51
669.989	1046.91
670.435	1043.76
670.881	1060.01
671.327	1102.31
671.773	1173.56
672.219	1251.71
672.665	1350.71
673.11	1381.61
673.556	1407.71
674.002	1441.76
674.448	1449.01
674.893	1244.21
675.339	1079.16
675.785	993.76
676.23	942.61
676.676	913.96
677.122	885.66
677.567	859.46
678.013	833.61
678.458	830.66
678.904	828.56
679.349	811.16
679.794	813.76
680.24	808.21
680.685	809.06
681.131	808.46
681.576	809.96
682.021	820.66
682.466	823.71
682.912	826.86
683.357	867.71
683.802	943.31
684.247	1031.36
684.692	1089.16
685.137	1139.66
685.583	1163.01
686.028	1220.61
686.473	1167.56
686.918	1007.36
687.363	926.41
687.807	879.36
688.252	837.01
688.697	805.66
689.142	781.51
689.587	782.16
690.032	796.31
690.477	829.06
690.921	869.71
691.366	924.61
691.811	960.36
692.255	1037.56
692.7	1254.31
693.145	1790.31
693.589	2727.06
694.034	3268.41
694.478	3484.56
694.923	3199.06
695.367	4525.21
695.812	2766.81
696.256	1171.91
696.701	863.06
697.145	797.26
697.59	762.96
698.034	754.71
698.478	749.51
698.922	757.26
699.367	769.01
699.811	805.66
700.255	877.06
700.699	952.66
701.143	1028.31
701.588	1089.21
702.032	1133.96
702.476	1183.26
702.92	1261.21
703.364	1646.16
703.808	2495.91
704.252	3126.71
704.696	3300.56
705.14	3147.11
705.584	4298.76
706.027	2389.71
706.471	1202.16
706.915	896.56
707.359	810.36
707.803	744.26
708.246	722.66
708.69	717.11
709.134	703.56
709.577	704.36
710.021	707.56
710.465	704.66
710.908	704.06
711.352	731.51
711.795	807.86
712.239	870.26
712.682	887.06
713.126	882.66
713.569	972.41
714.012	805.01
714.456	702.56
714.899	664.51
715.342	633.31
715.786	608.66
716.229	595.11
716.672	577.31
717.115	576.71
717.558	585.66
718.002	600.91
718.445	627.71
718.888	655.61
719.331	671.56
719.774	686.26
720.217	677.36
720.66	638.86
721.103	606.96
721.546	579.01
721.989	560.71
722.432	549.16
722.874	548.96
723.317	561.01
723.76	599.41
724.203	739.76
724.645	976.21
725.088	1160.26
725.531	1132.21
725.974	1250.51
726.416	1116.46
726.859	694.06
727.301	566.61
727.744	544.21
728.187	543.16
728.629	553.66
729.071	584.11
729.514	608.91
729.956	632.66
730.399	645.01
730.841	645.26
731.283	629.61
731.726	616.16
732.168	631.36
732.61	654.16
733.053	701.31
733.495	780.31
733.937	863.26
734.379	1021.01
734.821	1294.91
735.263	2045.26
735.705	3685.71
736.148	5440.61
736.59	5498.26
737.032	5946.51
737.474	4907.61
737.916	1891.21
738.357	986.96
738.799	766.26
739.241	708.46
739.683	719.96
740.125	733.21
740.567	740.91
741.008	787.31
741.45	836.96
741.892	877.51
742.334	881.81
742.775	877.16
743.217	847.01
743.658	705.51
744.1	732.91
744.542	846.36
744.983	887.96
745.425	922.71
745.866	887.86
746.307	732.86
746.749	775.81
747.19	1126.01
747.632	2161.61
748.073	4035.56
748.514	5617.86
748.956	7400.36
749.397	8705.11
749.838	6052.06
750.279	5749.01
750.72	2977.11
751.162	1265.46
751.603	727.31
752.044	580.86
752.485	515.61
752.926	481.16
753.367	464.61
753.808	447.11
754.249	439.71
754.69	436.56
755.131	431.76
755.572	431.26
756.013	432.66
756.453	434.16
756.894	444.31
757.335	443.06
757.776	448.41
758.216	465.61
758.657	496.01
759.098	545.11
759.538	656.96
759.979	958.06
760.42	1901.66
760.86	4867.66
761.301	10075.41
761.741	11963.96
762.182	13690.41
762.622	8916.71
763.063	3188.31
763.503	1308.16
763.943	762.81
764.384	606.61
764.824	522.66
765.264	480.16
765.705	458.41
766.145	435.86
766.585	416.86
767.025	408.56
767.465	409.21
767.906	414.96
768.346	439.91
768.786	511.41
769.226	741.66
769.666	1489.86
770.106	3338.36
770.546	4786.41
770.986	5430.61
771.426	4123.86
771.866	1714.51
772.306	782.46
772.745	486.71
773.185	411.11
773.625	400.26
774.065	433.41
774.505	613.51
774.944	1113.31
775.384	1607.11
775.824	1822.96
776.263	1511.46
776.703	789.26
777.142	452.06
777.582	338.71
778.021	309.11
778.461	292.86
778.9	289.06
779.34	278.91
779.779	270.41
780.219	268.26
780.658	260.91
781.097	262.96
781.537	253.71
781.976	252.36
782.415	252.26
782.855	250.36
783.294	247.76
783.733	243.01
784.172	253.96
784.611	247.56
785.05	254.16
785.489	265.46
785.928	270.36
786.367	278.66
786.806	295.46
787.245	312.81
787.684	331.06
788.123	327.51
788.562	308.96
789.001	302.16
789.44	287.91
789.879	293.31
790.317	296.76
790.756	314.51
791.195	361.21
791.634	481.76
792.072	862.56
792.511	2113.56
792.95	3937.01
793.388	4759.11
793.827	3110.06
794.265	1417.56
794.704	677.51
795.142	422.46
795.581	347.01
796.019	315.11
796.458	311.81
796.896	317.66
797.334	365.81
797.773	494.11
798.211	936.21
798.649	1953.96
799.087	3303.96
799.526	4665.71
799.964	4860.26
800.402	3342.71
800.84	1508.26
801.278	732.76
801.716	448.86
802.154	363.01
802.592	350.46
803.03	341.71
803.468	349.51
803.906	351.11
804.344	347.61
804.782	344.36
805.22	334.51
805.658	354.21
806.096	372.31
806.533	420.46
806.971	540.91
807.409	773.41
807.847	1534.11
808.284	3929.51
808.722	6912.56
809.16	9703.61
809.597	13116.51
810.035	15529.81
810.472	10734.91
810.91	4538.51
811.347	2030.46
811.785	956.91
812.222	596.11
812.66	460.71
813.097	398.41
813.535	340.71
813.972	313.26
814.409	287.11
814.846	271.76
815.284	257.06
815.721	270.61
816.158	296.81
816.595	407.31
817.032	519.46
817.47	474.21
817.907	341.51
818.344	296.26
818.781	290.11
819.218	358.06
819.655	553.31
820.092	725.26
820.529	649.66
820.966	505.41
821.403	343.76
821.839	290.81
822.276	329.11
822.713	392.56
823.15	361.31
823.587	369.11
824.023	644.76
824.46	1611.96
824.897	2824.51
825.333	2222.81
825.77	1017.86
826.206	530.06
826.643	311.71
827.08	232.51
827.516	197.76
827.953	190.66
828.389	183.56
828.825	173.36
829.262	166.66
829.698	158.46
830.135	152.51
830.571	155.76
831.007	149.61
831.443	150.91
831.88	150.01
832.316	162.96
832.752	160.11
833.188	163.91
833.624	164.06
834.06	166.81
834.497	164.71
834.933	169.36
835.369	185.66
835.805	191.61
836.241	199.21
836.677	224.36
837.112	260.11
837.548	320.56
837.984	474.91
838.42	1014.01
838.856	2822.81
839.292	5587.06
839.727	4206.66
840.163	2788.81
840.599	4239.91
841.034	6525.61
841.47	3287.36
841.906	1592.01
842.341	853.56
842.777	637.71
843.212	663.56
843.648	418.76
844.083	279.81
844.519	211.31
844.954	171.01
845.39	158.51
845.825	151.31
846.261	145.71
846.696	143.71
847.131	131.31
847.566	133.26
848.002	139.36
848.437	147.01
848.872	149.51
849.307	192.81
849.742	350.56
850.177	914.31
850.613	1970.71
851.048	1439.36
851.483	654.51
851.918	366.81
852.353	199.46
852.788	145.21
853.223	136.66
853.657	117.61
854.092	114.51
854.527	114.26
854.962	121.36
855.397	138.46
855.832	120.46
856.266	106.01
856.701	105.11
857.136	108.01
857.57	133.81
858.005	163.26
858.44	138.96
858.874	130.81
859.309	127.96
859.743	125.96
860.178	127.41
860.612	131.01
861.047	185.11
861.481	265.11
861.915	184.31
862.35	136.36
862.784	110.01
863.218	103.46
863.653	109.61
864.087	136.56
864.521	166.21
864.955	266.36
865.39	462.71
865.824	360.06
866.258	474.36
866.692	735.66
867.126	531.01
867.56	285.01
867.994	184.56
868.428	157.81
868.862	188.96
869.296	175.01
869.73	214.31
870.164	184.26
870.598	164.56
871.031	114.21
871.465	103.61
871.899	80.26
872.333	68.71
872.766	76.81
873.2	72.21
873.634	73.71
874.067	74.36
874.501	79.01
874.935	74.51
875.368	78.46
875.802	64.61
876.235	67.96
876.669	62.26
877.102	55.21
877.535	63.06
877.969	55.56
878.402	62.66
878.836	58.61
879.269	57.11
879.702	55.86
880.135	59.01
880.569	62.01
881.002	51.16
881.435	58.96
881.868	55.41
882.301	50.66
882.734	52.66
883.167	56.16
883.601	52.56
884.034	52.66
884.467	49.71
884.899	52.46
885.332	48.51
885.765	46.11
886.198	46.66
886.631	49.91
887.064	47.86
887.497	46.66
887.929	47.01
888.362	45.26
888.795	47.11
889.228	48.66
889.66	44.66
890.093	43.51
890.526	45.71
890.958	45.71
891.391	42.16
891.823	43.41
892.256	48.11
892.688	48.11
893.121	40.41
893.553	45.91
893.985	44.11
894.418	41.81
894.85	46.56
895.282	44.81
895.715	38.21
896.147	37.41
896.579	37.21
897.011	40.71
897.444	39.51
897.876	36.56
898.308	38.81
898.74	39.91
899.172	40.66
899.604	42.01
900.036	44.26
900.468	40.26
900.9	46.41
901.332	51.16
901.764	58.51
902.196	57.51
902.628	60.01
903.06	88.46
903.491	93.01
903.923	74.16
904.355	71.31
904.787	81.61
905.218	65.66
905.65	58.06
906.082	53.46
906.513	49.36
906.945	46.81
907.376	46.16
907.808	50.06
908.239	52.16
908.671	61.31
909.102	60.11
909.534	93.11
909.965	180.11
910.397	459.26
910.828	1317.56
911.259	819.06
911.691	437.06
912.122	252.41
912.553	129.41
912.984	77.01
913.415	65.21
913.847	57.66
914.278	47.71
914.709	47.96
915.14	46.46
915.571	42.36
916.002	44.31
916.433	46.61
916.864	45.06
917.295	45.56
917.726	48.61
918.157	64.81
918.587	61.56
919.018	60.26
919.449	51.81
919.88	65.86
920.311	101.81
920.741	273.46
921.172	487.06
921.603	246.51
922.033	160.31
922.464	98.26
922.895	62.51
923.325	43.81
923.756	41.36
924.186	55.26
924.617	75.26
925.047	114.91
925.478	98.61
925.908	75.56
926.338	56.66
926.769	39.41
927.199	39.91
927.629	33.96
928.06	37.56
928.49	39.46
928.92	31.96
929.35	32.56
929.78	21.41
930.21	28.46
930.641	20.51
931.071	22.01
931.501	23.11
931.931	22.91
932.361	21.31
932.791	25.91
933.221	25.06
933.651	38.91
934.08	61.01
934.51	36.26
934.94	35.81
935.37	24.36
935.8	17.96
936.229	16.51
936.659	24.51
937.089	36.46
937.519	60.26
937.948	87.31
938.378	51.71
938.807	34.61
939.237	21.21
939.666	16.81
940.096	10.66
940.525	5.21
940.955	12.36
941.384	13.91
941.814	10.76
942.243	10.76
942.672	11.31
943.102	6.36
943.531	5.81
943.96	7.26
944.39	7.36
944.819	12.21
945.248	10.01
945.677	13.81
946.106	8.46
946.535	11.51
946.964	7.96
947.393	9.86
947.822	6.06
948.251	11.91
948.68	9.36
949.109	8.51
949.538	5.46
949.967	10.81
950.396	9.61
950.825	11.06
951.254	9.96
951.682	4.86
952.111	5.11
952.54	6.26
952.969	2.06
953.397	2.76
953.826	2.81
954.254	6.46
954.683	10.76
955.112	13.01
955.54	6.26
955.969	6.81
956.397	9.26
956.826	3.51
957.254	9.31
957.682	5.01
958.111	9.06
958.539	7.66
958.967	4.31
959.396	8.46
959.824	10.51
960.252	6.01
960.68	5.11
961.109	7.21
961.537	12.56
961.965	2.71
962.393	3.56
962.821	9.56
963.249	11.06
963.677	15.51
964.105	81.66
964.533	143.51
964.961	66.91
965.389	36.51
965.817	20.86
966.245	13.01
966.672	5.76
967.1	9.16
967.528	4.46
967.956	6.86
968.383	9.51
968.811	7.56
969.239	2.01
969.666	2.96
970.094	8.96
970.522	4.06
970.949	6.96
971.377	0.21
971.804	4.51
972.232	2.01
972.659	4.86
973.087	2.26
973.514	2.66
973.941	0.81
974.369	3.06
974.796	2.21
975.223	0.26
975.651	8.01
976.078	4.56
976.505	9.96
976.932	33.71
977.359	39.76
977.786	21.21
978.214	20.26
978.641	9.66
979.068	4.11
979.495	4.76
979.922	4.41
980.349	10.51
980.776	10.06
981.202	7.36
981.629	8.61
982.056	1.31
982.483	0.81
982.91	5.96
983.337	-1.59
983.763	5.06
984.19	6.91
984.617	0.11
985.043	5.06
985.47	5.76
985.897	9.26
986.323	7.36
986.75	0.11
987.176	1.46
987.603	1.51
988.029	4.56
988.456	5.26
988.882	1.06
989.308	0.26
989.735	1.06
990.161	5.16
990.587	4.26
991.014	2.71
991.44	6.81
991.866	3.26
992.292	-0.24
992.719	-0.04
993.145	2.96
993.571	2.66
993.997	8.26
994.423	5.21
994.849	0.61
995.275	3.31
995.701	3.21
996.127	-3.44
996.553	1.81
996.979	3.26
997.405	7.91
997.83	4.01
998.256	2.61
998.682	0.06
999.108	4.61
999.534	-6.44
999.959	0.06
1000.385	5.26
1000.811	-2.04
1001.236	1.31
1001.662	1.21
1002.087	6.51
1002.513	2.31
1002.938	1.06
1003.364	0.71
1003.789	7.76
1004.215	-2.29
1004.64	5.11
1005.066	3.86
1005.491	4.41
1005.916	3.86
1006.342	7.01
1006.767	3.71
1007.192	5.26
1007.617	5.96
1008.042	3.66
1008.468	7.56
1008.893	6.96
1009.318	12.16
1009.743	14.66
1010.168	28.66
1010.593	30.56
1011.018	18.11
1011.443	6.91
1011.868	6.71
1012.293	3.71
1012.718	1.46
1013.143	3.71
1013.567	8.56
1013.992	5.76
1014.417	-0.54
1014.842	-1.64
1015.267	1.96
1015.691	3.66
1016.116	2.26
1016.541	4.71
1016.965	1.96
1017.39	-0.64
1017.814	-6.14
1018.239	-4.14
1018.663	-5.99
1019.088	-2.39
1019.512	6.71
1019.937	-2.94
1020.361	0.86
1020.785	-1.34
1021.21	-3.39
1021.634	-0.94
1022.058	1.56
1022.483	-3.89
1022.907	-1.49
1023.331	-3.04
1023.755	-1.84
1024.179	-2.49
1024.604	-2.19
1025.028	1.26
1025.452	3.06
1025.876	4.36
1026.3	1.96
1026.724	-2.94
1027.148	4.81
1027.572	-0.24
1027.996	0.11
1028.42	0.36
1028.843	1.06
1029.267	-0.69
1029.691	5.06
1030.115	0.06
1030.539	-3.14
1030.962	-4.19
1031.386	0.11
1031.81	-3.39
1032.233	-5.64
1032.657	-10.59
1033.08	2.86
1033.504	-4.94
1033.927	-3.39
1034.351	1.31
1034.774	-3.14
1035.198	-1.14
1035.621	-1.44
1036.045	-0.49
1036.468	4.96
1036.891	-0.99
1037.315	7.31
1037.738	-0.29
1038.161	-1.39
1038.584	-5.44
1039.008	-2.84
1039.431	-3.09
1039.854	-6.29
1040.277	-2.04
1040.7	-1.34
1041.123	-1.24
1041.546	0.26
1041.969	-2.44
1042.392	1.46
1042.815	-6.44
1043.238	-1.49
1043.661	-0.49
1044.084	0.31
1044.507	0.06
1044.93	-0.84
1045.352	-5.79
1045.775	2.06
1046.198	0.56
1046.621	1.31
1047.043	-3.69
1047.466	3.91
1047.889	-1.09
1048.311	6.11
1048.734	0.96
1049.156	-6.24
1049.579	0.51
1050.001	-4.19
1050.424	-2.14
1050.846	-1.34
1051.269	-3.24
1051.691	1.86
1052.113	6.01
1052.536	-4.59
1052.958	-4.44
1053.38	0.06
1053.802	3.01
1054.225	0.81
1054.647	2.41
1055.069	-0.94
1055.491	-0.24
1055.913	1.81
1056.335	-9.29
1056.757	-5.39
1057.179	-5.59
1057.601	-3.19
1058.023	-0.99
1058.445	-3.34
1058.867	2.36
1059.289	2.41
1059.711	-0.59
1060.133	2.56
1060.555	-2.79
1060.976	3.86
1061.398	-5.09
1061.82	-1.29
1062.241	-1.39
1062.663	-2.39
1063.085	-5.89
1063.506	-6.14
1063.928	-7.79
1064.35	-3.24
1064.771	-6.44
1065.193	-1.94
1065.614	-4.39
1066.035	-0.39
1066.457	-0.89
1066.878	-2.49
1067.3	-3.14
1067.721	-0.89
1068.142	1.41
1068.564	1.76
1068.985	-1.94
1069.406	-3.89
1069.827	-2.94
1070.248	-5.94
1070.67	-6.64
1071.091	-6.69
1071.512	-3.64
1071.933	-2.19
1072.354	-7.69
1072.775	-0.84
1073.196	-0.49
1073.617	-6.39
1074.038	1.76
1074.459	-5.34
1074.88	-4.44
1075.3	-3.04
1075.721	1.91
1076.142	-3.24
1076.563	-8.24
1076.983	0.96
1077.404	-6.19
1077.825	-2.39
1078.246	-3.64
1078.666	-9.39
1079.087	-2.44
1079.507	-2.79
1079.928	-2.49
1080.348	-4.64
1080.769	-0.89
1081.189	-2.19
1081.61	-11.04
1082.03	1.26
1082.451	-3.94
1082.871	-4.69
1083.291	-4.19
1083.711	-2.89
1084.132	-4.39
1084.552	-7.29
1084.972	-7.44
1085.392	-2.54
1085.813	0.51
1086.233	-3.49
1086.653	-0.49
1087.073	-3.19
1087.493	-4.99
1087.913	-2.09
1088.333	-2.34
1088.753	-2.89
1089.173	2.01
1089.593	-0.74
1090.013	-4.94
1090.433	-3.64
1090.852	-1.94
1091.272	-9.19
1091.692	-0.64
1092.112	-1.89
1092.531	-7.19
1092.951	-2.49
1093.371	-3.44
1093.79	-1.84
1094.21	-5.74
1094.63	-6.44
1095.049	-5.99
1095.469	-8.74
1095.888	-2.59
1096.308	1.21
1096.727	-5.44
1097.146	-7.59
1097.566	-3.59
1097.985	-1.39
1098.405	-4.74
1098.824	-1.64
1099.243	-4.54
1099.662	-1.69
1100.082	-4.24
1100.501	-6.29
1100.92	2.61
1101.339	3.51
1101.758	3.36
