Data from MSPlasma+Separation6_Subt14_10-13-20-816.txt Node
Date: Fri Jul 21 10:13:20 EDT 2017
User: Ender
Spectrometer: HR+D1039
Trigger mode: 0
Integration Time (sec): 6.430000E-3
Scans to average: 20
Electric dark correction enabled: true
Nonlinearity correction enabled: false
Boxcar width: 0
XAxis mode: Wavelengths
Number of Pixels in Spectrum: 2048
>>>>>Begin Spectral Data<<<<<
187.836	2.26
188.309	2.26
188.782	2.26
189.255	2.16
189.728	0.41
190.201	0.86
190.674	1.01
191.147	-4.74
191.619	1.71
192.092	-3.34
192.565	2.61
193.038	2.41
193.511	1.66
193.984	0.46
194.456	-3.29
194.929	-1.59
195.402	-1.99
195.874	-0.54
196.347	0.61
196.82	1.36
197.292	-2.09
197.765	-2.84
198.237	-3.19
198.71	-3.39
199.182	5.71
199.655	2.41
200.127	-0.59
200.6	-3.74
201.072	1.46
201.544	3.06
202.017	3.91
202.489	0.61
202.961	-4.59
203.433	-4.14
203.906	-2.24
204.378	-1.99
204.85	1.66
205.322	-0.69
205.794	-0.04
206.266	-4.74
206.739	-1.34
207.211	-2.59
207.683	-2.34
208.155	-0.99
208.627	0.56
209.099	0.81
209.57	1.71
210.042	2.51
210.514	-2.34
210.986	-0.94
211.458	-4.89
211.93	3.41
212.402	0.81
212.873	-5.49
213.345	-3.94
213.817	6.26
214.288	-3.34
214.76	0.26
215.232	-1.79
215.703	0.96
216.175	0.41
216.646	1.36
217.118	-0.94
217.589	-5.74
218.061	3.11
218.532	-3.09
219.004	2.56
219.475	-0.19
219.946	-0.29
220.418	5.61
220.889	2.31
221.36	4.31
221.832	4.96
222.303	-1.54
222.774	-1.79
223.245	-1.99
223.717	-1.44
224.188	1.31
224.659	0.46
225.13	1.21
225.601	-0.59
226.072	6.26
226.543	3.76
227.014	2.61
227.485	4.26
227.956	3.61
228.427	11.81
228.898	2.51
229.369	7.11
229.839	5.26
230.31	4.26
230.781	3.96
231.252	9.21
231.722	8.01
232.193	0.61
232.664	6.36
233.135	-1.44
233.605	5.81
234.076	11.01
234.546	9.36
235.017	5.61
235.487	6.86
235.958	6.76
236.428	12.96
236.899	0.76
237.369	9.11
237.84	12.16
238.31	9.46
238.78	8.36
239.251	11.71
239.721	5.16
240.191	6.76
240.662	10.51
241.132	9.96
241.602	9.26
242.072	11.41
242.542	8.06
243.013	8.61
243.483	10.01
243.953	11.56
244.423	10.71
244.893	10.01
245.363	11.91
245.833	14.26
246.303	13.51
246.773	18.26
247.243	14.66
247.712	12.86
248.182	17.96
248.652	19.66
249.122	13.51
249.592	22.31
250.061	17.66
250.531	15.36
251.001	12.96
251.471	18.96
251.94	17.66
252.41	16.91
252.879	18.51
253.349	23.71
253.818	19.06
254.288	21.06
254.757	20.91
255.227	25.36
255.696	22.51
256.166	24.56
256.635	22.06
257.105	25.11
257.574	23.26
258.043	24.56
258.513	21.46
258.982	20.56
259.451	24.36
259.92	20.46
260.389	28.26
260.859	26.71
261.328	29.76
261.797	23.31
262.266	30.51
262.735	29.76
263.204	25.41
263.673	33.11
264.142	25.26
264.611	29.66
265.08	27.16
265.549	26.86
266.018	27.71
266.487	30.26
266.955	29.81
267.424	33.91
267.893	33.76
268.362	32.51
268.83	28.11
269.299	33.21
269.768	36.96
270.236	36.01
270.705	36.26
271.174	34.61
271.642	34.91
272.111	36.11
272.579	37.21
273.048	36.56
273.516	39.96
273.985	36.31
274.453	38.01
274.922	38.41
275.39	34.96
275.858	39.91
276.327	37.21
276.795	46.46
277.263	44.81
277.731	45.26
278.2	46.71
278.668	40.76
279.136	45.86
279.604	44.66
280.072	43.91
280.54	43.46
281.008	48.21
281.477	50.96
281.945	46.31
282.413	46.76
282.881	47.11
283.348	49.36
283.816	47.51
284.284	50.21
284.752	49.21
285.22	51.66
285.688	56.61
286.156	52.81
286.623	54.51
287.091	52.41
287.559	56.31
288.026	55.66
288.494	56.71
288.962	58.26
289.429	52.21
289.897	56.61
290.364	51.51
290.832	61.16
291.3	56.91
291.767	62.61
292.234	65.61
292.702	59.81
293.169	60.71
293.637	60.56
294.104	64.21
294.571	63.56
295.039	65.46
295.506	57.61
295.973	63.81
296.44	63.36
296.908	72.31
297.375	66.56
297.842	69.66
298.309	66.96
298.776	72.11
299.243	72.46
299.71	70.11
300.177	70.16
300.644	66.41
301.111	73.86
301.578	74.01
302.045	73.26
302.512	72.56
302.979	77.11
303.446	78.31
303.913	81.01
304.379	85.31
304.846	83.81
305.313	90.51
305.78	87.71
306.246	88.36
306.713	91.16
307.18	91.31
307.646	96.01
308.113	95.06
308.579	95.91
309.046	97.51
309.512	95.66
309.979	102.76
310.445	94.21
310.912	98.96
311.378	111.06
311.845	106.01
312.311	92.76
312.777	103.06
313.244	106.96
313.71	105.86
314.176	110.41
314.642	109.06
315.109	110.41
315.575	106.91
316.041	105.51
316.507	112.16
316.973	119.51
317.439	109.96
317.905	119.86
318.371	114.11
318.837	112.71
319.303	119.21
319.769	114.96
320.235	128.21
320.701	121.01
321.167	122.16
321.633	120.66
322.099	122.71
322.564	125.61
323.03	124.96
323.496	129.56
323.962	131.96
324.427	133.61
324.893	126.96
325.359	137.71
325.824	135.96
326.29	141.36
326.755	140.71
327.221	140.41
327.686	148.86
328.152	142.86
328.617	147.31
329.083	145.81
329.548	149.56
330.014	150.41
330.479	157.56
330.944	154.46
331.41	156.91
331.875	150.31
332.34	157.81
332.805	157.01
333.271	156.91
333.736	161.26
334.201	160.06
334.666	173.86
335.131	173.56
335.596	170.66
336.061	168.21
336.526	166.11
336.991	167.96
337.456	167.56
337.921	164.86
338.386	163.76
338.851	164.11
339.316	164.81
339.781	172.81
340.246	176.31
340.711	175.96
341.175	175.01
341.64	182.36
342.105	183.61
342.569	195.11
343.034	182.41
343.499	184.21
343.963	192.16
344.428	195.71
344.893	199.46
345.357	205.26
345.822	204.76
346.286	203.71
346.751	207.06
347.215	213.16
347.679	217.26
348.144	224.76
348.608	225.56
349.073	236.26
349.537	243.56
350.001	241.06
350.465	241.91
350.93	240.56
351.394	246.81
351.858	245.46
352.322	249.41
352.786	249.51
353.25	256.01
353.715	255.96
354.179	262.61
354.643	270.01
355.107	270.76
355.571	263.31
356.035	264.46
356.498	265.91
356.962	265.41
357.426	267.91
357.89	268.16
358.354	259.91
358.818	258.71
359.281	262.86
359.745	268.86
360.209	265.46
360.673	273.51
361.136	270.41
361.6	267.11
362.064	279.76
362.527	281.36
362.991	284.41
363.454	283.51
363.918	285.21
364.381	286.81
364.845	283.86
365.308	286.46
365.772	291.21
366.235	298.01
366.698	292.56
367.162	294.51
367.625	293.86
368.088	307.86
368.552	298.36
369.015	301.06
369.478	303.51
369.941	313.91
370.404	316.51
370.867	311.26
371.331	313.41
371.794	321.16
372.257	323.36
372.72	327.41
373.183	325.51
373.646	323.51
374.109	328.71
374.572	335.81
375.035	334.01
375.497	340.76
375.96	344.41
376.423	357.21
376.886	359.61
377.349	360.71
377.811	355.81
378.274	362.06
378.737	359.31
379.199	363.46
379.662	374.01
380.125	372.11
380.587	380.26
381.05	380.96
381.512	385.91
381.975	395.61
382.437	404.26
382.9	399.86
383.362	397.56
383.825	402.91
384.287	408.76
384.75	409.36
385.212	406.41
385.674	413.11
386.136	416.21
386.599	415.11
387.061	416.86
387.523	419.71
387.985	422.51
388.447	430.61
388.91	423.66
389.372	432.16
389.834	433.96
390.296	427.41
390.758	429.86
391.22	430.56
391.682	438.96
392.144	435.11
392.606	438.26
393.068	454.51
393.529	468.66
393.991	473.91
394.453	453.16
394.915	447.86
395.377	435.61
395.838	443.91
396.3	449.96
396.762	452.71
397.224	442.41
397.685	446.81
398.147	460.86
398.608	465.56
399.07	465.01
399.531	469.46
399.993	482.91
400.454	488.61
400.916	482.26
401.377	498.71
401.839	498.61
402.3	490.81
402.762	522.21
403.223	557.46
403.684	551.41
404.145	529.36
404.607	531.31
405.068	518.26
405.529	525.96
405.99	536.91
406.451	546.86
406.913	538.56
407.374	542.61
407.835	539.36
408.296	552.96
408.757	554.46
409.218	575.66
409.679	577.11
410.14	578.96
410.601	599.66
411.062	601.86
411.522	606.11
411.983	601.31
412.444	607.31
412.905	619.66
413.366	646.01
413.826	669.86
414.287	745.16
414.748	859.51
415.208	874.41
415.669	741.46
416.13	689.11
416.59	674.36
417.051	691.96
417.511	713.31
417.972	761.51
418.432	810.36
418.893	882.81
419.353	846.21
419.814	675.11
420.274	615.36
420.734	611.56
421.195	634.86
421.655	634.31
422.115	645.96
422.576	642.51
423.036	651.31
423.496	665.66
423.956	697.06
424.416	734.21
424.876	808.86
425.336	811.21
425.797	802.66
426.257	794.61
426.717	767.31
427.177	725.31
427.637	737.71
428.097	766.91
428.556	790.96
429.016	844.51
429.476	856.81
429.936	845.76
430.396	842.76
430.856	864.71
431.315	882.26
431.775	938.16
432.235	989.41
432.694	992.11
433.154	947.76
433.614	919.41
434.073	898.06
434.533	806.16
434.993	784.36
435.452	781.61
435.912	762.36
436.371	767.06
436.83	744.01
437.29	733.76
437.749	720.01
438.209	715.81
438.668	725.71
439.127	732.56
439.587	726.66
440.046	695.46
440.505	708.41
440.964	720.21
441.424	738.96
441.883	750.76
442.342	708.01
442.801	676.61
443.26	686.46
443.719	679.21
444.178	678.01
444.637	688.61
445.096	693.96
445.555	706.01
446.014	701.46
446.473	694.46
446.932	699.01
447.391	710.46
447.849	725.81
448.308	702.56
448.767	706.46
449.226	722.81
449.685	724.41
450.143	755.21
450.602	752.46
451.061	720.86
451.519	717.91
451.978	713.66
452.436	712.06
452.895	716.91
453.353	708.66
453.812	708.21
454.27	705.86
454.729	716.56
455.187	724.36
455.646	718.41
456.104	721.81
456.562	732.71
457.021	747.96
457.479	711.46
457.937	734.51
458.395	755.61
458.854	741.91
459.312	735.96
459.77	742.16
460.228	761.06
460.686	765.76
461.144	770.16
461.602	757.81
462.06	772.06
462.518	776.61
462.976	779.81
463.434	795.21
463.892	799.11
464.35	807.31
464.808	823.36
465.266	833.36
465.724	846.66
466.181	842.61
466.639	839.96
467.097	882.46
467.555	912.66
468.012	908.51
468.47	917.46
468.928	944.11
469.385	962.71
469.843	973.66
470.3	970.81
470.758	1008.61
471.215	1021.86
471.673	1050.51
472.13	1071.56
472.588	1091.41
473.045	1099.86
473.503	1116.11
473.96	1167.21
474.417	1174.11
474.875	1227.41
475.332	1277.21
475.789	1313.76
476.246	1359.41
476.704	1418.06
477.161	1469.26
477.618	1507.31
478.075	1608.56
478.532	1733.46
478.989	1893.21
479.446	2086.36
479.903	2214.76
480.36	2435.06
480.817	2605.36
481.274	2769.91
481.731	3026.06
482.188	3244.61
482.645	3466.01
483.102	3623.01
483.558	3827.66
484.015	3949.21
484.472	3888.86
484.929	3760.86
485.385	3585.66
485.842	3498.06
486.299	3332.16
486.755	3056.01
487.212	2758.31
487.668	2485.26
488.125	2312.91
488.582	2127.46
489.038	2047.96
489.494	1976.26
489.951	1909.46
490.407	1852.16
490.864	1814.66
491.32	1782.86
491.776	1767.86
492.233	1764.81
492.689	1741.01
493.145	1704.61
493.602	1684.11
494.058	1698.96
494.514	1701.91
494.97	1689.06
495.426	1714.81
495.882	1724.86
496.338	1713.81
496.794	1723.56
497.251	1709.86
497.707	1726.76
498.163	1724.26
498.618	1740.61
499.074	1726.56
499.53	1744.56
499.986	1758.91
500.442	1735.56
500.898	1733.86
501.354	1737.56
501.809	1738.36
502.265	1750.51
502.721	1758.21
503.177	1749.11
503.632	1767.21
504.088	1775.71
504.543	1781.66
504.999	1801.11
505.455	1796.26
505.91	1774.41
506.366	1786.41
506.821	1798.06
507.277	1775.26
507.732	1785.91
508.187	1793.46
508.643	1808.61
509.098	1804.01
509.553	1832.91
510.009	1846.31
510.464	1897.46
510.919	1905.81
511.375	1918.81
511.83	1941.81
512.285	1970.11
512.74	2007.21
513.195	2031.31
513.65	2049.81
514.105	2087.81
514.56	2083.21
515.015	2113.26
515.47	2122.21
515.925	2102.26
516.38	2107.11
516.835	2115.96
517.29	2090.51
517.745	2083.86
518.2	2055.21
518.655	2017.66
519.109	2002.01
519.564	1978.06
520.019	1974.11
520.474	1940.51
520.928	1934.76
521.383	1924.71
521.838	1913.76
522.292	1903.11
522.747	1891.71
523.201	1888.91
523.656	1870.01
524.11	1859.96
524.565	1859.41
525.019	1867.11
525.474	1859.51
525.928	1851.11
526.382	1856.71
526.837	1853.01
527.291	1853.46
527.745	1847.26
528.2	1846.76
528.654	1828.81
529.108	1833.96
529.562	1832.96
530.016	1833.56
530.47	1830.36
530.925	1839.26
531.379	1835.36
531.833	1855.86
532.287	1836.61
532.741	1832.71
533.195	1843.36
533.649	1845.76
534.103	1846.96
534.556	1830.91
535.01	1843.61
535.464	1828.36
535.918	1830.16
536.372	1860.41
536.826	1835.71
537.279	1823.91
537.733	1838.61
538.187	1844.91
538.64	1835.31
539.094	1839.71
539.548	1869.76
540.001	1878.56
540.455	1878.91
540.908	1893.21
541.362	1910.46
541.815	1929.96
542.269	1967.21
542.722	1972.91
543.175	1975.31
543.629	1983.56
544.082	2002.81
544.536	2022.26
544.989	2006.71
545.442	2029.41
545.895	2027.61
546.349	2031.86
546.802	2037.11
547.255	2036.71
547.708	2052.41
548.161	2068.11
548.614	2061.81
549.067	2075.81
549.52	2051.91
549.973	2033.76
550.426	2036.51
550.879	2042.21
551.332	2040.76
551.785	2067.01
552.238	2074.51
552.691	2085.06
553.144	2119.96
553.596	2135.66
554.049	2164.41
554.502	2204.51
554.955	2220.81
555.407	2241.76
555.86	2235.46
556.313	2196.26
556.765	2186.26
557.218	2164.21
557.67	2161.36
558.123	2129.21
558.576	2120.31
559.028	2106.86
559.48	2134.16
559.933	2115.56
560.385	2052.21
560.838	2002.31
561.29	1947.51
561.742	1934.16
562.195	1899.96
562.647	1879.16
563.099	1868.56
563.551	1854.86
564.004	1866.46
564.456	1851.41
564.908	1810.61
565.36	1781.76
565.812	1748.26
566.264	1742.71
566.716	1714.46
567.168	1695.01
567.62	1686.86
568.072	1684.26
568.524	1658.06
568.976	1658.76
569.428	1655.11
569.88	1651.56
570.332	1655.91
570.784	1656.36
571.235	1653.11
571.687	1672.21
572.139	1669.41
572.59	1687.16
573.042	1693.51
573.494	1684.21
573.945	1662.01
574.397	1631.06
574.849	1624.36
575.3	1630.16
575.752	1616.06
576.203	1596.26
576.655	1599.26
577.106	1568.41
577.557	1565.16
578.009	1568.21
578.46	1567.61
578.912	1553.91
579.363	1569.46
579.814	1564.81
580.265	1564.76
580.717	1567.46
581.168	1561.11
581.619	1568.81
582.07	1588.51
582.521	1575.76
582.972	1565.51
583.423	1580.86
583.875	1579.16
584.326	1596.06
584.777	1625.31
585.227	1648.91
585.678	1679.31
586.129	1683.76
586.58	1698.06
587.031	1724.16
587.482	1773.91
587.933	1790.16
588.384	1781.36
588.834	1755.46
589.285	1749.16
589.736	1753.91
590.186	1751.91
590.637	1725.01
591.088	1689.26
591.538	1672.66
591.989	1648.61
592.439	1636.16
592.89	1612.76
593.34	1612.11
593.791	1594.61
594.241	1590.06
594.692	1585.11
595.142	1582.51
595.593	1593.11
596.043	1598.21
596.493	1609.16
596.943	1600.91
597.394	1657.51
597.844	1677.71
598.294	1717.31
598.744	1775.11
599.195	1851.76
599.645	1963.06
600.095	2061.26
600.545	2149.96
600.995	2234.41
601.445	2304.06
601.895	2391.56
602.345	2443.61
602.795	2398.41
603.245	2305.21
603.695	2181.26
604.145	2069.41
604.594	1976.26
605.044	1878.01
605.494	1773.91
605.944	1691.76
606.393	1651.31
606.843	1615.31
607.293	1626.66
607.743	1610.86
608.192	1612.11
608.642	1614.41
609.091	1607.01
609.541	1603.71
609.99	1606.16
610.44	1587.06
610.889	1563.21
611.339	1537.91
611.788	1523.01
612.238	1541.96
612.687	1542.41
613.136	1548.76
613.586	1572.01
614.035	1553.56
614.484	1563.11
614.933	1567.61
615.383	1538.56
615.832	1502.76
616.281	1470.86
616.73	1444.01
617.179	1414.26
617.628	1388.31
618.077	1369.01
618.526	1351.66
618.975	1343.01
619.424	1315.66
619.873	1322.96
620.322	1312.81
620.771	1302.61
621.22	1285.81
621.669	1262.21
622.118	1250.76
622.567	1231.41
623.015	1213.66
623.464	1219.41
623.913	1204.46
624.361	1204.31
624.81	1190.16
625.259	1202.36
625.707	1194.86
626.156	1211.11
626.604	1217.51
627.053	1228.06
627.501	1220.91
627.95	1220.26
628.398	1238.11
628.847	1229.21
629.295	1216.01
629.744	1201.56
630.192	1192.76
630.64	1170.66
631.089	1156.81
631.537	1128.66
631.985	1121.41
632.433	1124.91
632.881	1109.16
633.33	1119.21
633.778	1114.81
634.226	1124.26
634.674	1142.96
635.122	1150.66
635.57	1168.36
636.018	1188.96
636.466	1177.66
636.914	1187.06
637.362	1195.21
637.81	1225.66
638.258	1267.96
638.705	1282.61
639.153	1329.01
639.601	1332.66
640.049	1359.86
640.497	1384.46
640.944	1402.96
641.392	1363.11
641.84	1285.01
642.287	1242.51
642.735	1228.66
643.182	1217.71
643.63	1227.11
644.078	1229.31
644.525	1252.26
644.973	1286.31
645.42	1328.66
645.867	1356.71
646.315	1395.31
646.762	1455.66
647.21	1496.41
647.657	1582.11
648.104	1655.76
648.551	1713.71
648.999	1870.96
649.446	2089.56
649.893	2368.91
650.34	2818.36
650.787	3510.26
651.234	4615.81
651.682	6447.41
652.129	9202.46
652.576	13045.16
653.023	15528.06
653.47	15531.26
653.917	15531.31
654.363	15531.21
654.81	15528.21
655.257	15528.86
655.704	14727.16
656.151	9044.81
656.598	5970.21
657.044	4267.76
657.491	3334.36
657.938	2703.21
658.385	2270.96
658.831	2002.91
659.278	1785.71
659.724	1615.66
660.171	1507.66
660.618	1397.46
661.064	1325.46
661.511	1270.71
661.957	1226.41
662.404	1196.76
662.85	1175.01
663.296	1155.71
663.743	1129.46
664.189	1117.21
664.635	1098.46
665.082	1070.36
665.528	1057.16
665.974	1023.36
666.42	1007.86
666.867	996.81
667.313	954.31
667.759	946.66
668.205	936.51
668.651	936.86
669.097	935.31
669.543	946.51
669.989	949.26
670.435	956.36
670.881	968.21
671.327	1001.76
671.773	1067.46
672.219	1150.96
672.665	1218.96
673.11	1252.01
673.556	1246.51
674.002	1259.81
674.448	1258.61
674.893	1088.06
675.339	960.36
675.785	891.41
676.23	845.31
676.676	812.56
677.122	795.21
677.567	774.81
678.013	745.66
678.458	748.96
678.904	745.21
679.349	726.01
679.794	722.31
680.24	732.61
680.685	716.56
681.131	722.11
681.576	724.36
682.021	725.66
682.466	735.16
682.912	743.41
683.357	783.51
683.802	845.16
684.247	929.46
684.692	989.06
685.137	1021.21
685.583	1025.26
686.028	1060.51
686.473	1016.81
686.918	891.56
687.363	816.16
687.807	776.01
688.252	733.86
688.697	713.51
689.142	697.36
689.587	704.21
690.032	718.96
690.477	746.86
690.921	782.16
691.366	823.91
691.811	856.61
692.255	924.31
692.7	1129.86
693.145	1655.71
693.589	2551.61
694.034	2996.81
694.478	3076.91
694.923	2707.46
695.367	3590.81
695.812	2319.86
696.256	1033.01
696.701	756.96
697.145	702.66
697.59	677.06
698.034	673.86
698.478	680.71
698.922	676.26
699.367	689.46
699.811	721.96
700.255	782.76
700.699	860.41
701.143	931.81
701.588	973.61
702.032	1014.26
702.476	1038.81
702.92	1131.16
703.364	1502.36
703.808	2327.51
704.252	2868.86
704.696	2905.81
705.14	2647.71
705.584	3414.21
706.027	2026.61
706.471	1049.91
706.915	781.76
707.359	708.01
707.803	659.06
708.246	640.51
708.69	637.46
709.134	628.91
709.577	629.61
710.021	628.46
710.465	632.21
710.908	621.56
711.352	650.41
711.795	722.11
712.239	781.16
712.682	783.51
713.126	763.41
713.569	832.96
714.012	700.91
714.456	617.71
714.899	581.56
715.342	555.06
715.786	532.31
716.229	523.61
716.672	510.76
717.115	512.16
717.558	520.41
718.002	535.71
718.445	558.66
718.888	588.31
719.331	591.91
719.774	603.21
720.217	589.56
720.66	559.96
721.103	538.36
721.546	506.71
721.989	491.41
722.432	481.61
722.874	489.36
723.317	487.11
723.76	540.46
724.203	669.56
724.645	891.81
725.088	1032.96
725.531	987.51
725.974	1033.01
726.416	949.61
726.859	611.21
727.301	500.36
727.744	479.16
728.187	480.81
728.629	492.41
729.071	515.71
729.514	530.66
729.956	561.41
730.399	577.66
730.841	571.56
731.283	560.31
731.726	538.26
732.168	551.81
732.61	584.21
733.053	627.56
733.495	697.46
733.937	770.91
734.379	910.21
734.821	1176.26
735.263	1890.91
735.705	3389.71
736.148	4862.26
736.59	4706.66
737.032	4749.26
737.474	3974.16
737.916	1639.71
738.357	871.61
738.799	667.46
739.241	624.01
739.683	627.16
740.125	646.56
740.567	655.81
741.008	688.86
741.45	735.11
741.892	774.91
742.334	768.46
742.775	752.11
743.217	721.36
743.658	621.36
744.1	658.46
744.542	754.66
744.983	767.81
745.425	780.96
745.866	761.81
746.307	653.11
746.749	699.31
747.19	1023.21
747.632	2006.01
748.073	3677.61
748.514	4949.06
748.956	6380.81
749.397	7336.66
749.838	5098.61
750.279	4553.96
750.72	2512.01
751.162	1101.91
751.603	642.06
752.044	507.61
752.485	454.11
752.926	427.51
753.367	414.26
753.808	396.21
754.249	393.46
754.69	388.26
755.131	385.61
755.572	379.76
756.013	380.76
756.453	384.81
756.894	387.86
757.335	394.46
757.776	404.26
758.216	413.96
758.657	439.26
759.098	484.86
759.538	597.26
759.979	859.91
760.42	1760.51
760.86	4504.01
761.301	9055.51
761.741	10317.31
762.182	10856.61
762.622	7258.71
763.063	2757.56
763.503	1134.41
763.943	661.91
764.384	531.81
764.824	457.16
765.264	422.56
765.705	402.41
766.145	379.51
766.585	368.76
767.025	358.81
767.465	359.11
767.906	368.71
768.346	391.16
768.786	449.91
769.226	674.81
769.666	1363.91
770.106	3015.46
770.546	4148.26
770.986	4360.06
771.426	3305.26
771.866	1481.46
772.306	683.91
772.745	421.86
773.185	359.96
773.625	349.66
774.065	383.21
774.505	560.11
774.944	1013.91
775.384	1420.86
775.824	1500.76
776.263	1221.76
776.703	679.16
777.142	395.36
777.582	289.26
778.021	265.86
778.461	256.91
778.9	254.31
779.34	244.46
779.779	242.46
780.219	235.96
780.658	230.06
781.097	226.26
781.537	221.26
781.976	215.71
782.415	216.71
782.855	214.36
783.294	214.46
783.733	208.56
784.172	217.01
784.611	218.71
785.05	222.81
785.489	228.26
785.928	233.41
786.367	245.51
786.806	257.81
787.245	279.01
787.684	286.51
788.123	277.56
788.562	273.71
789.001	261.16
789.44	259.91
789.879	259.76
790.317	256.11
790.756	274.31
791.195	313.51
791.634	429.81
792.072	775.56
792.511	1904.76
792.95	3402.56
793.388	3816.16
793.827	2529.71
794.265	1219.21
794.704	594.56
795.142	366.61
795.581	296.76
796.019	269.86
796.458	276.01
796.896	282.56
797.334	320.16
797.773	440.41
798.211	843.21
798.649	1729.46
799.087	2822.21
799.526	3947.31
799.964	3958.11
800.402	2693.36
800.84	1300.86
801.278	650.26
801.716	391.86
802.154	320.41
802.592	298.26
803.03	297.96
803.468	303.61
803.906	308.71
804.344	305.16
804.782	294.71
805.22	303.31
805.658	304.61
806.096	329.61
806.533	372.16
806.971	477.21
807.409	696.41
807.847	1380.76
808.284	3468.66
808.722	5884.71
809.16	8127.26
809.597	11351.01
810.035	13204.66
810.472	8589.66
810.91	3866.41
811.347	1780.46
811.785	838.86
812.222	516.71
812.66	402.31
813.097	337.16
813.535	299.36
813.972	272.86
814.409	248.91
814.846	239.06
815.284	230.31
815.721	227.01
816.158	261.26
816.595	356.91
817.032	441.66
817.47	399.01
817.907	294.41
818.344	251.01
818.781	255.56
819.218	310.76
819.655	475.21
820.092	608.91
820.529	539.96
820.966	430.01
821.403	299.46
821.839	251.96
822.276	285.11
822.713	337.41
823.15	309.26
823.587	331.11
824.023	573.66
824.46	1407.66
824.897	2319.86
825.333	1786.81
825.77	868.11
826.206	469.46
826.643	275.91
827.08	206.26
827.516	180.06
827.953	167.66
828.389	160.71
828.825	150.31
829.262	146.11
829.698	141.16
830.135	133.66
830.571	134.46
831.007	133.91
831.443	135.81
831.88	133.76
832.316	139.01
832.752	139.31
833.188	141.21
833.624	145.91
834.06	145.41
834.497	143.51
834.933	145.76
835.369	162.26
835.805	166.01
836.241	174.16
836.677	193.96
837.112	226.11
837.548	282.31
837.984	425.71
838.42	889.66
838.856	2443.56
839.292	4545.36
839.727	3415.81
840.163	2434.86
840.599	3623.31
841.034	5220.51
841.47	2698.56
841.906	1362.06
842.341	735.46
842.777	552.66
843.212	548.26
843.648	348.36
844.083	243.56
844.519	176.91
844.954	148.61
845.39	136.21
845.825	129.41
846.261	125.81
846.696	122.16
847.131	112.46
847.566	113.81
848.002	122.21
848.437	127.51
848.872	135.01
849.307	170.61
849.742	308.76
850.177	798.76
850.613	1601.51
851.048	1160.76
851.483	558.26
851.918	320.46
852.353	175.31
852.788	123.51
853.223	109.91
853.657	105.31
854.092	101.71
854.527	96.61
854.962	105.16
855.397	115.46
855.832	99.46
856.266	89.81
856.701	88.71
857.136	92.61
857.57	116.51
858.005	137.66
858.44	117.66
858.874	111.16
859.309	109.71
859.743	105.31
860.178	103.36
860.612	115.56
861.047	161.41
861.481	216.71
861.915	152.41
862.35	114.66
862.784	89.56
863.218	89.06
863.653	90.41
864.087	114.81
864.521	139.81
864.955	231.91
865.39	380.61
865.824	303.66
866.258	404.66
866.692	598.16
867.126	440.46
867.56	246.36
867.994	154.56
868.428	129.96
868.862	154.66
869.296	144.41
869.73	178.66
870.164	154.41
870.598	133.41
871.031	98.36
871.465	87.46
871.899	70.21
872.333	61.41
872.766	64.81
873.2	67.61
873.634	63.46
874.067	66.16
874.501	62.41
874.935	62.31
875.368	66.46
875.802	57.71
876.235	56.06
876.669	56.01
877.102	48.61
877.535	52.36
877.969	49.46
878.402	50.51
878.836	44.41
879.269	51.11
879.702	50.16
880.135	53.31
880.569	55.61
881.002	42.31
881.435	49.56
881.868	47.66
882.301	43.66
882.734	43.61
883.167	44.01
883.601	46.36
884.034	44.56
884.467	42.06
884.899	43.96
885.332	36.56
885.765	40.66
886.198	38.66
886.631	43.01
887.064	38.96
887.497	38.06
887.929	38.51
888.362	39.46
888.795	39.26
889.228	42.11
889.66	36.51
890.093	35.36
890.526	37.26
890.958	40.31
891.391	40.36
891.823	35.21
892.256	37.26
892.688	37.91
893.121	32.81
893.553	38.21
893.985	31.11
894.418	29.81
894.85	41.21
895.282	35.86
895.715	31.61
896.147	30.96
896.579	28.86
897.011	37.71
897.444	35.21
897.876	26.21
898.308	33.26
898.74	37.81
899.172	38.36
899.604	34.26
900.036	34.86
900.468	36.26
900.9	41.26
901.332	48.76
901.764	51.81
902.196	44.91
902.628	47.71
903.06	69.06
903.491	75.86
903.923	63.81
904.355	65.16
904.787	62.91
905.218	50.41
905.65	50.51
906.082	47.81
906.513	43.26
906.945	46.71
907.376	44.66
907.808	46.01
908.239	49.46
908.671	50.06
909.102	59.41
909.534	76.46
909.965	145.86
910.397	383.91
910.828	1035.96
911.259	670.56
911.691	374.81
912.122	219.91
912.553	111.01
912.984	64.06
913.415	51.96
913.847	48.41
914.278	46.26
914.709	40.36
915.14	35.91
915.571	36.86
916.002	37.61
916.433	36.51
916.864	32.51
917.295	36.06
917.726	45.36
918.157	50.56
918.587	50.41
919.018	51.86
919.449	47.26
919.88	56.96
920.311	83.36
920.741	224.46
921.172	387.41
921.603	202.16
922.033	129.61
922.464	85.26
922.895	53.71
923.325	37.71
923.756	35.26
924.186	42.81
924.617	66.71
925.047	88.41
925.478	80.71
925.908	65.51
926.338	44.56
926.769	37.16
927.199	32.81
927.629	33.61
928.06	35.81
928.49	37.81
928.92	31.81
929.35	29.26
929.78	21.56
930.21	22.56
930.641	18.41
931.071	16.41
931.501	15.01
931.931	15.16
932.361	15.11
932.791	21.06
933.221	22.91
933.651	33.11
934.08	51.41
934.51	29.81
934.94	29.11
935.37	22.06
935.8	21.06
936.229	17.81
936.659	19.01
937.089	30.41
937.519	50.06
937.948	65.81
938.378	39.81
938.807	23.31
939.237	18.66
939.666	16.36
940.096	9.61
940.525	6.16
940.955	10.96
941.384	9.16
941.814	8.41
942.243	9.66
942.672	7.61
943.102	4.46
943.531	3.51
943.96	6.41
944.39	8.86
944.819	11.36
945.248	5.81
945.677	5.36
946.106	8.81
946.535	12.06
946.964	8.61
947.393	7.11
947.822	4.86
948.251	6.76
948.68	10.46
949.109	6.61
949.538	7.66
949.967	6.06
950.396	8.06
950.825	8.46
951.254	6.81
951.682	0.71
952.111	1.66
952.54	6.96
952.969	4.31
953.397	2.26
953.826	5.16
954.254	8.26
954.683	5.16
955.112	10.51
955.54	3.06
955.969	5.56
956.397	10.06
956.826	3.96
957.254	6.41
957.682	6.86
958.111	3.51
958.539	7.41
958.967	4.01
959.396	12.81
959.824	5.26
960.252	0.96
960.68	9.46
961.109	9.01
961.537	8.61
961.965	2.01
962.393	10.76
962.821	7.61
963.249	8.01
963.677	11.26
964.105	66.36
964.533	108.61
964.961	59.26
965.389	32.21
965.817	16.31
966.245	13.06
966.672	8.46
967.1	6.76
967.528	-0.04
967.956	2.66
968.383	7.31
968.811	2.16
969.239	3.06
969.666	3.31
970.094	0.76
970.522	2.21
970.949	6.26
971.377	-4.59
971.804	-0.39
972.232	2.06
972.659	-1.29
973.087	4.86
973.514	2.51
973.941	-0.04
974.369	-2.24
974.796	1.21
975.223	-0.64
975.651	5.01
976.078	7.36
976.505	8.26
976.932	23.96
977.359	36.51
977.786	20.71
978.214	14.56
978.641	2.41
979.068	5.41
979.495	4.86
979.922	4.31
980.349	7.26
980.776	6.31
981.202	3.46
981.629	6.91
982.056	0.41
982.483	1.21
982.91	7.91
983.337	0.51
983.763	3.96
984.19	3.91
984.617	-0.69
985.043	3.26
985.47	8.46
985.897	4.81
986.323	9.01
986.75	-3.69
987.176	4.71
987.603	5.16
988.029	2.91
988.456	5.66
988.882	0.56
989.308	0.26
989.735	3.16
990.161	1.06
990.587	2.76
991.014	4.06
991.44	1.46
991.866	5.36
992.292	1.96
992.719	3.66
993.145	3.01
993.571	-0.99
993.997	3.26
994.423	2.56
994.849	-1.54
995.275	3.81
995.701	2.26
996.127	-1.94
996.553	-1.14
996.979	-0.59
997.405	5.46
997.83	2.06
998.256	6.21
998.682	2.11
999.108	-0.39
999.534	-4.44
999.959	-4.49
1000.385	6.26
1000.811	-3.34
1001.236	-2.89
1001.662	0.66
1002.087	1.46
1002.513	0.11
1002.938	-2.14
1003.364	0.91
1003.789	1.76
1004.215	0.36
1004.64	1.86
1005.066	8.06
1005.491	4.06
1005.916	2.46
1006.342	0.96
1006.767	3.11
1007.192	5.56
1007.617	6.16
1008.042	1.96
1008.468	5.46
1008.893	1.56
1009.318	5.01
1009.743	12.51
1010.168	26.21
1010.593	22.21
1011.018	13.66
1011.443	8.11
1011.868	4.86
1012.293	4.56
1012.718	0.41
1013.143	0.61
1013.567	6.06
1013.992	0.26
1014.417	0.61
1014.842	-3.44
1015.267	1.16
1015.691	3.91
1016.116	0.46
1016.541	4.06
1016.965	2.96
1017.39	5.66
1017.814	-2.89
1018.239	-3.64
1018.663	-5.94
1019.088	-6.24
1019.512	6.71
1019.937	-6.09
1020.361	-0.64
1020.785	-3.94
1021.21	-4.24
1021.634	1.41
1022.058	2.36
1022.483	-5.99
1022.907	-0.24
1023.331	-4.29
1023.755	-2.69
1024.179	-0.29
1024.604	-2.89
1025.028	2.36
1025.452	-1.64
1025.876	3.81
1026.3	-0.99
1026.724	-1.14
1027.148	3.16
1027.572	1.71
1027.996	-0.89
1028.42	-0.89
1028.843	0.06
1029.267	-4.34
1029.691	-1.44
1030.115	-4.04
1030.539	0.06
1030.962	-1.59
1031.386	-4.34
1031.81	-4.79
1032.233	-3.44
1032.657	-6.19
1033.08	2.56
1033.504	-0.24
1033.927	-0.74
1034.351	-0.34
1034.774	2.06
1035.198	-6.29
1035.621	3.66
1036.045	0.76
1036.468	0.36
1036.891	-1.89
1037.315	3.86
1037.738	-3.79
1038.161	0.11
1038.584	-3.84
1039.008	-6.39
1039.431	-2.09
1039.854	-5.54
1040.277	1.56
1040.7	-4.99
1041.123	-1.89
1041.546	-1.29
1041.969	1.46
1042.392	1.76
1042.815	-8.04
1043.238	-3.24
1043.661	-0.34
1044.084	-4.09
1044.507	-3.44
1044.93	0.46
1045.352	-1.59
1045.775	2.31
1046.198	5.96
1046.621	2.51
1047.043	1.56
1047.466	-1.44
1047.889	-3.14
1048.311	0.81
1048.734	-2.54
1049.156	-3.84
1049.579	-1.19
1050.001	-3.94
1050.424	-1.29
1050.846	1.16
1051.269	-4.24
1051.691	-1.99
1052.113	-2.14
1052.536	-4.14
1052.958	-6.64
1053.38	-3.09
1053.802	-3.19
1054.225	0.51
1054.647	1.76
1055.069	0.21
1055.491	-0.79
1055.913	0.46
1056.335	-8.34
1056.757	-7.04
1057.179	-1.79
1057.601	0.21
1058.023	2.11
1058.445	-5.79
1058.867	-0.29
1059.289	-0.64
1059.711	-3.59
1060.133	1.46
1060.555	-5.04
1060.976	-2.19
1061.398	-3.99
1061.82	-0.74
1062.241	-5.84
1062.663	-6.89
1063.085	-6.19
1063.506	-4.84
1063.928	-5.09
1064.35	-3.44
1064.771	-0.19
1065.193	-2.74
1065.614	-3.59
1066.035	-1.99
1066.457	3.26
1066.878	-0.49
1067.3	-2.19
1067.721	0.21
1068.142	0.81
1068.564	2.01
1068.985	1.36
1069.406	-8.89
1069.827	-4.24
1070.248	-3.89
1070.67	-6.79
1071.091	-4.89
1071.512	-3.14
1071.933	-5.44
1072.354	-7.79
1072.775	-2.54
1073.196	-2.24
1073.617	-5.24
1074.038	-4.54
1074.459	-9.84
1074.88	-1.94
1075.3	0.56
1075.721	-1.59
1076.142	-1.69
1076.563	-5.39
1076.983	0.11
1077.404	-6.94
1077.825	-1.44
1078.246	-6.44
1078.666	-3.94
1079.087	-3.84
1079.507	-4.39
1079.928	-0.14
1080.348	-2.29
1080.769	-3.59
1081.189	-2.74
1081.61	-9.54
1082.03	1.06
1082.451	-1.14
1082.871	-6.74
1083.291	-4.84
1083.711	-6.19
1084.132	-1.44
1084.552	-4.64
1084.972	-5.39
1085.392	-3.44
1085.813	2.16
1086.233	-2.34
1086.653	0.26
1087.073	0.86
1087.493	-3.69
1087.913	-5.79
1088.333	-0.94
1088.753	-0.64
1089.173	1.11
1089.593	-1.69
1090.013	1.11
1090.433	-9.49
1090.852	0.26
1091.272	-7.64
1091.692	-2.04
1092.112	0.36
1092.531	-5.94
1092.951	-4.54
1093.371	-1.94
1093.79	-5.09
1094.21	-2.84
1094.63	-3.39
1095.049	-2.69
1095.469	-8.64
1095.888	-3.94
1096.308	-1.29
1096.727	-2.99
1097.146	-3.54
1097.566	-2.99
1097.985	-2.74
1098.405	-2.74
1098.824	0.26
1099.243	-4.44
1099.662	-1.19
1100.082	-6.74
1100.501	-3.34
1100.92	1.76
1101.339	-1.54
1101.758	4.36
