Data from MSPlasma+Separation6_Subt14_10-13-14-644.txt Node
Date: Fri Jul 21 10:13:14 EDT 2017
User: Ender
Spectrometer: HR+D1039
Trigger mode: 0
Integration Time (sec): 6.430000E-3
Scans to average: 20
Electric dark correction enabled: true
Nonlinearity correction enabled: false
Boxcar width: 0
XAxis mode: Wavelengths
Number of Pixels in Spectrum: 2048
>>>>>Begin Spectral Data<<<<<
187.836	0.37
188.309	0.37
188.782	0.37
189.255	-0.73
189.728	2.42
190.201	0.97
190.674	-2.38
191.147	-0.73
191.619	2.17
192.092	0.92
192.565	-0.68
193.038	1.12
193.511	1.52
193.984	1.02
194.456	0.52
194.929	-2.38
195.402	-5.68
195.874	1.62
196.347	1.97
196.82	2.37
197.292	-0.43
197.765	0.22
198.237	-3.18
198.71	-8.68
199.182	-3.33
199.655	4.62
200.127	8.92
200.6	3.37
201.072	7.37
201.544	2.17
202.017	4.42
202.489	2.97
202.961	2.47
203.433	0.92
203.906	2.52
204.378	1.57
204.85	1.62
205.322	3.37
205.794	7.97
206.266	5.82
206.739	6.02
207.211	-0.03
207.683	5.87
208.155	4.02
208.627	4.97
209.099	9.62
209.57	6.82
210.042	7.52
210.514	7.97
210.986	4.67
211.458	3.32
211.93	6.47
212.402	4.32
212.873	4.02
213.345	-2.13
213.817	6.87
214.288	2.17
214.76	5.72
215.232	4.07
215.703	4.27
216.175	6.92
216.646	9.42
217.118	7.92
217.589	4.42
218.061	6.77
218.532	2.17
219.004	10.12
219.475	8.42
219.946	13.22
220.418	14.37
220.889	7.32
221.36	14.92
221.832	11.52
222.303	9.57
222.774	11.67
223.245	9.42
223.717	10.12
224.188	13.27
224.659	8.52
225.13	6.27
225.601	5.97
226.072	12.12
226.543	17.42
227.014	14.07
227.485	18.77
227.956	19.52
228.427	18.37
228.898	14.72
229.369	18.92
229.839	20.12
230.31	21.67
230.781	23.32
231.252	25.32
231.722	23.72
232.193	21.62
232.664	21.37
233.135	19.12
233.605	22.22
234.076	35.02
234.546	24.22
235.017	24.17
235.487	27.22
235.958	26.17
236.428	35.22
236.899	26.92
237.369	35.92
237.84	33.37
238.31	36.47
238.78	30.82
239.251	32.97
239.721	32.52
240.191	31.72
240.662	34.72
241.132	35.22
241.602	39.52
242.072	38.67
242.542	34.27
243.013	42.37
243.483	46.57
243.953	39.67
244.423	42.97
244.893	43.27
245.363	47.97
245.833	45.32
246.303	44.07
246.773	50.12
247.243	48.97
247.712	48.62
248.182	52.42
248.652	53.12
249.122	55.57
249.592	51.22
250.061	55.82
250.531	58.57
251.001	59.47
251.471	57.32
251.94	64.27
252.41	61.87
252.879	58.47
253.349	67.97
253.818	60.22
254.288	71.47
254.757	66.67
255.227	68.42
255.696	73.37
256.166	71.17
256.635	72.37
257.105	71.77
257.574	72.62
258.043	76.37
258.513	79.67
258.982	75.17
259.451	80.17
259.92	73.12
260.389	80.02
260.859	82.92
261.328	85.77
261.797	78.37
262.266	84.77
262.735	90.27
263.204	82.52
263.673	92.37
264.142	88.72
264.611	87.32
265.08	93.37
265.549	89.12
266.018	92.67
266.487	100.02
266.955	93.77
267.424	99.02
267.893	100.07
268.362	97.02
268.83	99.87
269.299	96.07
269.768	98.77
270.236	102.17
270.705	107.52
271.174	104.32
271.642	103.22
272.111	108.27
272.579	108.97
273.048	111.52
273.516	113.67
273.985	114.12
274.453	112.27
274.922	119.32
275.39	119.47
275.858	117.67
276.327	120.07
276.795	121.17
277.263	122.27
277.731	124.72
278.2	130.72
278.668	131.17
279.136	134.22
279.604	133.12
280.072	131.87
280.54	135.17
281.008	141.17
281.477	138.32
281.945	136.72
282.413	139.52
282.881	143.82
283.348	141.57
283.816	145.27
284.284	152.52
284.752	149.72
285.22	148.22
285.688	149.27
286.156	150.07
286.623	156.47
287.091	151.47
287.559	155.27
288.026	159.32
288.494	164.07
288.962	158.92
289.429	159.22
289.897	162.07
290.364	164.77
290.832	170.42
291.3	168.52
291.767	164.22
292.234	167.67
292.702	172.82
293.169	176.47
293.637	173.47
294.104	177.47
294.571	182.12
295.039	182.32
295.506	174.27
295.973	184.47
296.44	182.42
296.908	186.17
297.375	189.02
297.842	190.37
298.309	186.77
298.776	192.87
299.243	195.52
299.71	198.22
300.177	195.62
300.644	197.72
301.111	203.27
301.578	209.82
302.045	202.42
302.512	207.82
302.979	217.97
303.446	218.57
303.913	224.37
304.379	226.57
304.846	228.37
305.313	237.02
305.78	238.12
306.246	237.12
306.713	239.97
307.18	243.22
307.646	243.32
308.113	247.22
308.579	259.07
309.046	254.32
309.512	254.07
309.979	262.17
310.445	262.87
310.912	266.17
311.378	271.47
311.845	272.62
312.311	267.47
312.777	275.17
313.244	283.52
313.71	286.47
314.176	287.17
314.642	289.87
315.109	297.67
315.575	291.62
316.041	297.22
316.507	293.02
316.973	302.12
317.439	298.77
317.905	303.47
318.371	308.87
318.837	303.92
319.303	317.42
319.769	317.37
320.235	321.27
320.701	324.37
321.167	318.12
321.633	324.92
322.099	318.22
322.564	333.62
323.03	325.42
323.496	337.87
323.962	342.67
324.427	346.12
324.893	344.17
325.359	354.07
325.824	355.17
326.29	353.87
326.755	360.22
327.221	356.37
327.686	374.92
328.152	371.57
328.617	380.22
329.083	377.17
329.548	384.02
330.014	390.22
330.479	391.77
330.944	392.02
331.41	406.72
331.875	390.32
332.34	390.82
332.805	404.27
333.271	402.37
333.736	406.77
334.201	412.67
334.666	432.57
335.131	442.27
335.596	435.02
336.061	424.37
336.526	419.42
336.991	417.47
337.456	415.82
337.921	414.12
338.386	413.92
338.851	414.72
339.316	418.82
339.781	423.72
340.246	426.37
340.711	431.97
341.175	443.87
341.64	458.22
342.105	458.77
342.569	468.82
343.034	466.22
343.499	465.02
343.963	484.02
344.428	478.27
344.893	478.87
345.357	495.77
345.822	492.67
346.286	504.47
346.751	513.92
347.215	515.12
347.679	535.57
348.144	555.92
348.608	562.02
349.073	564.82
349.537	573.77
350.001	580.02
350.465	575.97
350.93	574.22
351.394	588.92
351.858	587.27
352.322	590.42
352.786	595.97
353.25	600.37
353.715	607.02
354.179	631.47
354.643	652.02
355.107	652.37
355.571	648.82
356.035	645.82
356.498	631.27
356.962	640.47
357.426	640.87
357.89	644.82
358.354	630.82
358.818	617.47
359.281	635.72
359.745	641.72
360.209	640.27
360.673	637.72
361.136	638.12
361.6	651.32
362.064	658.02
362.527	677.02
362.991	679.07
363.454	665.82
363.918	678.12
364.381	681.12
364.845	681.02
365.308	684.02
365.772	693.57
366.235	688.52
366.698	696.72
367.162	685.57
367.625	697.07
368.088	711.82
368.552	710.67
369.015	710.82
369.478	709.17
369.941	716.27
370.404	728.77
370.867	722.67
371.331	726.77
371.794	748.37
372.257	752.22
372.72	751.52
373.183	755.92
373.646	752.87
374.109	757.97
374.572	758.82
375.035	770.92
375.497	774.07
375.96	786.82
376.423	797.02
376.886	806.77
377.349	815.97
377.811	814.67
378.274	816.92
378.737	820.92
379.199	835.62
379.662	834.32
380.125	849.57
380.587	856.17
381.05	860.72
381.512	861.67
381.975	894.22
382.437	902.52
382.9	893.57
383.362	901.77
383.825	909.32
384.287	923.92
384.75	911.77
385.212	912.37
385.674	927.37
386.136	940.92
386.599	921.17
387.061	938.97
387.523	942.42
387.985	939.22
388.447	955.87
388.91	947.97
389.372	967.97
389.834	967.57
390.296	956.72
390.758	965.32
391.22	964.62
391.682	977.07
392.144	990.22
392.606	987.37
393.068	997.27
393.529	1055.92
393.991	1075.37
394.453	1025.02
394.915	1000.37
395.377	981.77
395.838	994.62
396.3	995.47
396.762	1002.52
397.224	997.32
397.685	986.62
398.147	1001.02
398.608	1013.92
399.07	1031.82
399.531	1029.32
399.993	1045.02
400.454	1073.67
400.916	1070.17
401.377	1090.12
401.839	1095.67
402.3	1108.37
402.762	1145.82
403.223	1220.12
403.684	1237.57
404.145	1187.67
404.607	1169.62
405.068	1151.27
405.529	1167.27
405.99	1194.97
406.451	1202.32
406.913	1191.07
407.374	1192.62
407.835	1200.17
408.296	1225.77
408.757	1224.02
409.218	1248.02
409.679	1268.17
410.14	1267.67
410.601	1289.52
411.062	1288.57
411.522	1286.27
411.983	1276.42
412.444	1297.22
412.905	1304.97
413.366	1339.12
413.826	1400.72
414.287	1567.62
414.748	1849.77
415.208	1892.27
415.669	1589.27
416.13	1445.22
416.59	1414.17
417.051	1461.92
417.511	1544.47
417.972	1653.17
418.432	1765.77
418.893	1962.22
419.353	1884.62
419.814	1450.57
420.274	1300.97
420.734	1282.17
421.195	1321.87
421.655	1319.37
422.115	1334.97
422.576	1340.37
423.036	1355.67
423.496	1394.57
423.956	1452.62
424.416	1550.47
424.876	1742.97
425.336	1756.62
425.797	1740.42
426.257	1723.47
426.717	1645.62
427.177	1544.67
427.637	1570.52
428.097	1632.97
428.556	1707.17
429.016	1836.12
429.476	1855.52
429.936	1838.82
430.396	1846.77
430.856	1914.97
431.315	1950.62
431.775	2089.37
432.235	2236.17
432.694	2275.32
433.154	2154.62
433.614	2105.17
434.073	2027.52
434.533	1812.92
434.993	1739.72
435.452	1728.82
435.912	1690.02
436.371	1664.47
436.83	1614.02
437.29	1575.37
437.749	1524.97
438.209	1504.42
438.668	1518.77
439.127	1539.82
439.587	1506.37
440.046	1463.77
440.505	1485.92
440.964	1492.32
441.424	1539.17
441.883	1562.72
442.342	1476.12
442.801	1411.32
443.26	1413.72
443.719	1414.12
444.178	1402.52
444.637	1424.32
445.096	1428.27
445.555	1449.27
446.014	1432.82
446.473	1413.92
446.932	1429.52
447.391	1439.32
447.849	1469.12
448.308	1432.77
448.767	1454.62
449.226	1480.57
449.685	1482.32
450.143	1548.57
450.602	1554.87
451.061	1464.87
451.519	1471.87
451.978	1448.32
452.436	1446.07
452.895	1458.62
453.353	1455.32
453.812	1430.02
454.27	1445.97
454.729	1438.07
455.187	1459.92
455.646	1456.02
456.104	1465.97
456.562	1480.17
457.021	1494.87
457.479	1448.77
457.937	1489.67
458.395	1538.97
458.854	1512.72
459.312	1488.27
459.77	1507.52
460.228	1528.02
460.686	1536.47
461.144	1540.12
461.602	1532.52
462.06	1539.22
462.518	1564.92
462.976	1574.02
463.434	1586.87
463.892	1599.62
464.35	1628.77
464.808	1666.22
465.266	1671.52
465.724	1699.37
466.181	1705.62
466.639	1702.37
467.097	1771.57
467.555	1825.72
468.012	1816.02
468.47	1831.27
468.928	1893.72
469.385	1940.67
469.843	1963.72
470.3	1945.02
470.758	2018.97
471.215	2046.72
471.673	2112.57
472.13	2167.42
472.588	2209.02
473.045	2215.27
473.503	2262.22
473.96	2343.22
474.417	2396.42
474.875	2505.62
475.332	2611.82
475.789	2679.17
476.246	2763.67
476.704	2911.32
477.161	3020.37
477.618	3141.52
478.075	3365.17
478.532	3647.92
478.989	3987.57
479.446	4476.32
479.903	4800.67
480.36	5316.02
480.817	5707.22
481.274	6188.52
481.731	6840.92
482.188	7372.27
482.645	8046.87
483.102	8577.22
483.558	9255.02
484.015	9702.42
484.472	9665.97
484.929	9295.57
485.385	8865.22
485.842	8690.67
486.299	8279.02
486.755	7511.97
487.212	6668.27
487.668	5925.47
488.125	5372.57
488.582	4864.77
489.038	4585.57
489.494	4382.42
489.951	4158.52
490.407	4007.52
490.864	3882.32
491.32	3766.52
491.776	3707.52
492.233	3683.07
492.689	3617.22
493.145	3518.72
493.602	3437.82
494.058	3480.27
494.514	3461.17
494.97	3456.22
495.426	3494.82
495.882	3479.87
496.338	3460.07
496.794	3488.22
497.251	3464.17
497.707	3509.07
498.163	3495.57
498.618	3479.62
499.074	3469.67
499.53	3516.67
499.986	3539.37
500.442	3499.12
500.898	3470.02
501.354	3484.57
501.809	3501.07
502.265	3494.67
502.721	3514.77
503.177	3503.67
503.632	3507.92
504.088	3526.22
504.543	3573.62
504.999	3630.67
505.455	3593.57
505.91	3559.37
506.366	3553.22
506.821	3562.87
507.277	3551.62
507.732	3579.22
508.187	3569.57
508.643	3592.37
509.098	3598.32
509.553	3639.87
510.009	3685.67
510.464	3742.47
510.919	3760.02
511.375	3796.72
511.83	3825.17
512.285	3880.97
512.74	3960.32
513.195	4015.87
513.65	4091.62
514.105	4130.57
514.56	4133.87
515.015	4196.52
515.47	4214.52
515.925	4176.92
516.38	4205.42
516.835	4207.87
517.29	4165.27
517.745	4169.47
518.2	4120.37
518.655	4040.87
519.109	3992.82
519.564	3934.87
520.019	3916.77
520.474	3870.77
520.928	3852.67
521.383	3799.12
521.838	3799.62
522.292	3767.57
522.747	3751.47
523.201	3734.77
523.656	3697.17
524.11	3687.07
524.565	3665.82
525.019	3681.37
525.474	3660.27
525.928	3655.17
526.382	3660.02
526.837	3656.17
527.291	3675.27
527.745	3631.07
528.2	3648.47
528.654	3593.67
529.108	3612.52
529.562	3612.62
530.016	3608.77
530.47	3602.72
530.925	3588.52
531.379	3614.67
531.833	3648.62
532.287	3620.62
532.741	3608.07
533.195	3608.27
533.649	3628.87
534.103	3622.17
534.556	3594.02
535.01	3636.12
535.464	3603.17
535.918	3608.92
536.372	3636.62
536.826	3615.62
537.279	3576.97
537.733	3604.12
538.187	3607.42
538.64	3589.22
539.094	3631.32
539.548	3684.52
540.001	3671.77
540.455	3703.27
540.908	3698.97
541.362	3737.02
541.815	3759.97
542.269	3846.27
542.722	3826.97
543.175	3871.12
543.629	3888.12
544.082	3908.92
544.536	3952.72
544.989	3946.17
545.442	3960.87
545.895	3965.77
546.349	3967.42
546.802	3963.27
547.255	3984.22
547.708	4004.72
548.161	4035.47
548.614	4038.72
549.067	4064.47
549.52	4032.27
549.973	3973.12
550.426	3990.62
550.879	3975.07
551.332	3968.27
551.785	4005.02
552.238	4024.57
552.691	4033.62
553.144	4097.12
553.596	4155.92
554.049	4190.37
554.502	4290.92
554.955	4360.07
555.407	4404.32
555.86	4367.32
556.313	4309.07
556.765	4285.82
557.218	4228.87
557.67	4213.12
558.123	4160.72
558.576	4153.82
559.028	4147.22
559.48	4178.72
559.933	4144.52
560.385	4055.97
560.838	3905.22
561.29	3789.82
561.742	3770.27
562.195	3689.92
562.647	3663.62
563.099	3642.77
563.551	3608.72
564.004	3661.02
564.456	3622.17
564.908	3554.07
565.36	3474.72
565.812	3391.42
566.264	3363.47
566.716	3322.57
567.168	3269.02
567.62	3287.42
568.072	3252.12
568.524	3244.77
568.976	3227.07
569.428	3181.92
569.88	3184.32
570.332	3197.52
570.784	3215.82
571.235	3190.42
571.687	3214.92
572.139	3222.82
572.59	3250.67
573.042	3264.02
573.494	3276.07
573.945	3214.62
574.397	3146.97
574.849	3138.82
575.3	3147.57
575.752	3101.52
576.203	3067.17
576.655	3081.37
577.106	3051.47
577.557	3029.62
578.009	3012.87
578.46	3023.17
578.912	2992.87
579.363	3032.12
579.814	3003.52
580.265	3005.57
580.717	3009.12
581.168	3014.82
581.619	3021.32
582.07	3048.97
582.521	3033.37
582.972	3007.57
583.423	3029.12
583.875	3038.27
584.326	3068.32
584.777	3112.32
585.227	3190.47
585.678	3228.07
586.129	3254.37
586.58	3293.72
587.031	3341.67
587.482	3425.07
587.933	3516.52
588.384	3478.52
588.834	3419.12
589.285	3385.07
589.736	3368.07
590.186	3383.97
590.637	3357.27
591.088	3279.67
591.538	3225.12
591.989	3173.17
592.439	3138.47
592.89	3101.17
593.34	3103.37
593.791	3080.52
594.241	3049.67
594.692	3044.62
595.142	3045.22
595.593	3031.42
596.043	3047.22
596.493	3084.52
596.943	3060.72
597.394	3137.22
597.844	3180.92
598.294	3252.62
598.744	3356.57
599.195	3509.67
599.645	3686.67
600.095	3867.57
600.545	4038.12
600.995	4200.57
601.445	4365.32
601.895	4582.27
602.345	4723.42
602.795	4672.07
603.245	4505.82
603.695	4262.17
604.145	4044.97
604.594	3843.87
605.044	3663.37
605.494	3436.07
605.944	3258.32
606.393	3165.97
606.843	3113.62
607.293	3108.87
607.743	3087.77
608.192	3102.97
608.642	3084.72
609.091	3092.72
609.541	3091.52
609.99	3091.12
610.44	3022.12
610.889	2991.47
611.339	2956.02
611.788	2920.27
612.238	2936.17
612.687	2937.97
613.136	2964.47
613.586	2991.12
614.035	2979.07
614.484	2986.67
614.933	3001.42
615.383	2934.72
615.832	2862.42
616.281	2827.37
616.73	2771.52
617.179	2721.77
617.628	2663.62
618.077	2622.22
618.526	2593.77
618.975	2565.02
619.424	2518.12
619.873	2519.47
620.322	2506.47
620.771	2508.77
621.22	2458.02
621.669	2405.67
622.118	2391.07
622.567	2362.47
623.015	2328.82
623.464	2331.27
623.913	2294.17
624.361	2306.27
624.81	2286.07
625.259	2308.67
625.707	2276.67
626.156	2298.02
626.604	2322.92
627.053	2328.32
627.501	2327.72
627.95	2338.02
628.398	2370.22
628.847	2335.82
629.295	2327.77
629.744	2317.17
630.192	2265.87
630.64	2249.32
631.089	2214.47
631.537	2176.72
631.985	2157.42
632.433	2136.67
632.881	2128.52
633.33	2141.57
633.778	2136.37
634.226	2144.87
634.674	2181.97
635.122	2193.82
635.57	2224.37
636.018	2258.92
636.466	2259.92
636.914	2260.37
637.362	2307.22
637.81	2345.22
638.258	2413.72
638.705	2439.27
639.153	2508.52
639.601	2549.12
640.049	2598.62
640.497	2678.32
640.944	2748.47
641.392	2660.92
641.84	2534.72
642.287	2423.02
642.735	2395.32
643.182	2384.12
643.63	2397.37
644.078	2418.32
644.525	2452.82
644.973	2546.82
645.42	2610.22
645.867	2692.72
646.315	2783.82
646.762	2926.62
647.21	3041.52
647.657	3247.57
648.104	3437.97
648.551	3614.37
648.999	3998.62
649.446	4505.72
649.893	5178.57
650.34	6193.47
650.787	7753.72
651.234	10204.42
651.682	13998.47
652.129	15529.62
652.576	15528.97
653.023	15528.32
653.47	15531.52
653.917	15531.57
654.363	15531.47
654.81	15528.47
655.257	15529.12
655.704	15532.92
656.151	15526.92
656.598	15111.87
657.044	10800.37
657.491	8253.42
657.938	6548.77
658.385	5380.22
658.831	4618.77
659.278	4018.57
659.724	3589.97
660.171	3271.27
660.618	2984.37
661.064	2778.77
661.511	2644.07
661.957	2521.42
662.404	2424.32
662.85	2373.52
663.296	2326.07
663.743	2252.12
664.189	2199.82
664.635	2175.42
665.082	2110.62
665.528	2074.62
665.974	2009.27
666.42	1974.47
666.867	1943.42
667.313	1854.77
667.759	1827.57
668.205	1811.77
668.651	1817.92
669.097	1800.77
669.543	1808.37
669.989	1814.47
670.435	1811.07
670.881	1838.22
671.327	1894.12
671.773	2013.77
672.219	2152.97
672.665	2271.42
673.11	2365.62
673.556	2389.02
674.002	2453.12
674.448	2483.22
674.893	2119.72
675.339	1850.77
675.785	1714.57
676.23	1628.02
676.676	1544.47
677.122	1516.57
677.567	1469.22
678.013	1423.22
678.458	1418.92
678.904	1410.17
679.349	1394.47
679.794	1380.17
680.24	1376.72
680.685	1358.22
681.131	1362.47
681.576	1368.32
682.021	1378.32
682.466	1377.42
682.912	1398.27
683.357	1461.37
683.802	1574.17
684.247	1720.92
684.692	1825.37
685.137	1910.07
685.583	1957.37
686.028	2055.57
686.473	1959.37
686.918	1709.22
687.363	1558.67
687.807	1481.42
688.252	1413.12
688.697	1362.47
689.142	1326.02
689.587	1327.12
690.032	1341.82
690.477	1392.27
690.921	1460.57
691.366	1526.27
691.811	1590.72
692.255	1721.12
692.7	2063.47
693.145	2921.87
693.589	4462.72
694.034	5387.07
694.478	5839.12
694.923	5415.42
695.367	7720.22
695.812	4697.47
696.256	1946.27
696.701	1447.32
697.145	1341.97
697.59	1284.42
698.034	1273.32
698.478	1263.87
698.922	1270.22
699.367	1291.72
699.811	1352.22
700.255	1455.92
700.699	1578.87
701.143	1719.52
701.588	1816.17
702.032	1895.52
702.476	1960.07
702.92	2092.17
703.364	2690.82
703.808	4095.22
704.252	5163.27
704.696	5518.57
705.14	5295.62
705.584	7313.22
706.027	4005.67
706.471	2000.02
706.915	1518.37
707.359	1358.42
707.803	1249.57
708.246	1209.87
708.69	1204.12
709.134	1185.47
709.577	1178.02
710.021	1189.47
710.465	1180.77
710.908	1176.77
711.352	1215.97
711.795	1340.47
712.239	1439.52
712.682	1482.02
713.126	1469.52
713.569	1635.82
714.012	1339.82
714.456	1180.57
714.899	1107.77
715.342	1051.27
715.786	1012.17
716.229	996.52
716.672	980.97
717.115	977.22
717.558	977.42
718.002	1012.42
718.445	1039.97
718.888	1088.52
719.331	1123.82
719.774	1151.47
720.217	1126.22
720.66	1077.37
721.103	1017.42
721.546	963.72
721.989	935.72
722.432	928.52
722.874	926.52
723.317	927.32
723.76	1000.92
724.203	1213.02
724.645	1607.57
725.088	1904.57
725.531	1893.32
725.974	2093.57
726.416	1884.97
726.859	1152.97
727.301	953.62
727.744	910.52
728.187	912.52
728.629	932.42
729.071	972.82
729.514	1011.62
729.956	1052.32
730.399	1074.92
730.841	1088.12
731.283	1059.77
731.726	1036.72
732.168	1041.02
732.61	1094.27
733.053	1183.37
733.495	1286.67
733.937	1439.77
734.379	1674.27
734.821	2120.82
735.263	3343.12
735.705	6040.67
736.148	8892.82
736.59	9123.97
737.032	10097.52
737.474	8320.87
737.916	3078.52
738.357	1646.57
738.799	1265.17
739.241	1175.87
739.683	1192.32
740.125	1214.97
740.567	1222.02
741.008	1300.52
741.45	1359.67
741.892	1419.87
742.334	1446.17
742.775	1447.67
743.217	1395.27
743.658	1159.52
744.1	1187.77
744.542	1374.62
744.983	1433.42
745.425	1505.32
745.866	1461.22
746.307	1207.02
746.749	1272.42
747.19	1807.57
747.632	3498.62
748.073	6569.57
748.514	9151.62
748.956	12301.22
749.397	14385.82
749.838	10078.22
750.279	9763.02
750.72	5006.32
751.162	2073.42
751.603	1205.37
752.044	971.77
752.485	862.12
752.926	805.97
753.367	771.72
753.808	753.32
754.249	735.02
754.69	729.32
755.131	722.97
755.572	721.27
756.013	720.47
756.453	719.77
756.894	738.27
757.335	736.12
757.776	747.92
758.216	775.32
758.657	817.32
759.098	903.52
759.538	1079.47
759.979	1528.72
760.42	3051.82
760.86	7749.32
761.301	15438.32
761.741	15527.77
762.182	15529.72
762.622	14826.02
763.063	5219.72
763.503	2121.47
763.943	1265.72
764.384	1012.42
764.824	892.02
765.264	813.82
765.705	767.97
766.145	727.27
766.585	697.72
767.025	677.52
767.465	679.42
767.906	686.17
768.346	734.67
768.786	843.22
769.226	1201.37
769.666	2386.47
770.106	5469.92
770.546	7929.47
770.986	9156.67
771.426	7012.62
771.866	2807.67
772.306	1275.87
772.745	797.32
773.185	684.57
773.625	655.87
774.065	710.67
774.505	998.32
774.944	1789.27
775.384	2638.57
775.824	3031.42
776.263	2502.87
776.703	1296.17
777.142	738.02
777.582	555.72
778.021	513.12
778.461	492.77
778.9	483.82
779.34	469.67
779.779	460.67
780.219	451.77
780.658	444.37
781.097	435.82
781.537	434.97
781.976	425.97
782.415	422.12
782.855	424.52
783.294	424.87
783.733	414.22
784.172	423.47
784.611	427.07
785.05	439.27
785.489	442.02
785.928	465.02
786.367	470.62
786.806	498.47
787.245	529.57
787.684	548.52
788.123	547.47
788.562	523.87
789.001	499.27
789.44	495.92
789.879	482.97
790.317	496.77
790.756	527.67
791.195	593.02
791.634	789.17
792.072	1389.92
792.511	3419.02
792.95	6500.62
793.388	8051.57
793.827	5283.02
794.265	2313.12
794.704	1116.57
795.142	694.42
795.581	578.67
796.019	527.07
796.458	510.62
796.896	533.67
797.334	611.22
797.773	802.07
798.211	1502.92
798.649	3211.97
799.087	5500.32
799.526	7739.62
799.964	8085.92
800.402	5705.82
800.84	2465.77
801.278	1207.72
801.716	743.32
802.154	609.07
802.592	573.37
803.03	567.57
803.468	584.52
803.906	582.97
804.344	568.17
804.782	557.87
805.22	559.47
805.658	585.22
806.096	614.02
806.533	684.72
806.971	876.42
807.409	1250.87
807.847	2483.07
808.284	6420.17
808.722	11375.57
809.16	15392.62
809.597	15527.87
810.035	15533.47
810.472	15528.42
810.91	7432.72
811.347	3278.67
811.785	1572.62
812.222	996.67
812.66	772.82
813.097	657.42
813.535	569.27
813.972	517.12
814.409	478.67
814.846	456.72
815.284	430.32
815.721	446.77
816.158	483.27
816.595	654.72
817.032	835.32
817.47	762.22
817.907	547.92
818.344	480.47
818.781	477.92
819.218	573.32
819.655	868.97
820.092	1155.42
820.529	1034.52
820.966	823.92
821.403	561.37
821.839	480.02
822.276	528.47
822.713	638.22
823.15	598.67
823.587	611.92
824.023	1038.77
824.46	2623.37
824.897	4784.67
825.333	3777.22
825.77	1668.52
826.206	871.42
826.643	513.72
827.08	391.17
827.516	343.12
827.953	328.37
828.389	305.97
828.825	290.42
829.262	280.77
829.698	269.92
830.135	260.97
830.571	261.62
831.007	259.72
831.443	260.62
831.88	258.82
832.316	263.67
832.752	271.92
833.188	273.97
833.624	272.42
834.06	280.07
834.497	280.42
834.933	284.27
835.369	309.82
835.805	318.12
836.241	334.22
836.677	369.72
837.112	432.77
837.548	531.42
837.984	774.12
838.42	1634.37
838.856	4655.62
839.292	9362.17
839.727	7127.22
840.163	4592.22
840.599	6971.27
841.034	10903.07
841.47	5535.77
841.906	2556.22
842.341	1377.82
842.777	1035.12
843.212	1092.17
843.648	682.17
844.083	460.17
844.519	351.82
844.954	292.97
845.39	266.62
845.825	258.57
846.261	242.37
846.696	233.02
847.131	226.97
847.566	225.97
848.002	231.32
848.437	246.92
848.872	258.32
849.307	325.32
849.742	573.52
850.177	1495.02
850.613	3306.72
851.048	2412.07
851.483	1072.27
851.918	599.07
852.353	331.42
852.788	239.12
853.223	217.02
853.657	197.92
854.092	191.52
854.527	188.72
854.962	206.82
855.397	221.27
855.832	189.57
856.266	178.07
856.701	178.62
857.136	183.02
857.57	220.77
858.005	272.57
858.44	229.32
858.874	214.47
859.309	213.57
859.743	216.72
860.178	207.32
860.612	226.67
861.047	304.22
861.481	433.42
861.915	301.12
862.35	221.97
862.784	185.47
863.218	175.17
863.653	186.82
864.087	222.67
864.521	270.87
864.955	444.37
865.39	771.92
865.824	591.97
866.258	757.12
866.692	1172.47
867.126	852.82
867.56	453.77
867.994	289.62
868.428	246.92
868.862	309.17
869.296	283.52
869.73	350.22
870.164	300.67
870.598	271.37
871.031	185.72
871.465	164.87
871.899	143.77
872.333	124.32
872.766	126.07
873.2	126.52
873.634	119.22
874.067	128.27
874.501	133.32
874.935	133.62
875.368	131.07
875.802	123.77
876.235	119.57
876.669	110.17
877.102	101.17
877.535	107.42
877.969	98.77
878.402	107.92
878.836	105.82
879.269	104.42
879.702	93.82
880.135	100.62
880.569	113.77
881.002	98.12
881.435	98.82
881.868	99.27
882.301	98.57
882.734	95.02
883.167	99.07
883.601	94.77
884.034	94.17
884.467	89.22
884.899	88.42
885.332	86.97
885.765	84.22
886.198	86.42
886.631	84.07
887.064	83.32
887.497	83.77
887.929	82.37
888.362	87.72
888.795	83.42
889.228	89.22
889.66	82.62
890.093	78.17
890.526	83.32
890.958	81.32
891.391	79.22
891.823	79.12
892.256	78.67
892.688	81.07
893.121	75.52
893.553	81.47
893.985	77.77
894.418	72.97
894.85	83.67
895.282	80.47
895.715	77.77
896.147	76.47
896.579	72.47
897.011	78.87
897.444	83.32
897.876	66.42
898.308	69.32
898.74	73.87
899.172	74.72
899.604	78.72
900.036	78.32
900.468	72.27
900.9	85.42
901.332	98.27
901.764	101.92
902.196	95.92
902.628	100.02
903.06	146.17
903.491	160.32
903.923	126.92
904.355	122.37
904.787	134.72
905.218	109.12
905.65	107.17
906.082	90.97
906.513	87.57
906.945	85.77
907.376	82.22
907.808	89.82
908.239	91.52
908.671	105.52
909.102	116.37
909.534	157.97
909.965	301.82
910.397	752.67
910.828	2212.12
911.259	1350.22
911.691	712.42
912.122	415.17
912.553	212.87
912.984	126.67
913.415	110.67
913.847	102.47
914.278	96.02
914.709	78.32
915.14	81.62
915.571	79.87
916.002	77.07
916.433	73.52
916.864	73.17
917.295	79.17
917.726	93.77
918.157	107.62
918.587	112.97
919.018	99.57
919.449	98.92
919.88	110.72
920.311	173.37
920.741	452.32
921.172	820.72
921.603	413.37
922.033	261.22
922.464	166.47
922.895	106.57
923.325	78.87
923.756	75.57
924.186	94.02
924.617	130.67
925.047	191.82
925.478	175.02
925.908	123.97
926.338	90.37
926.769	76.42
927.199	67.72
927.629	70.02
928.06	74.07
928.49	68.82
928.92	58.92
929.35	52.07
929.78	47.27
930.21	44.92
930.641	41.77
931.071	40.92
931.501	37.32
931.931	39.42
932.361	43.82
932.791	49.02
933.221	51.57
933.651	68.82
934.08	113.32
934.51	70.52
934.94	58.97
935.37	42.12
935.8	44.12
936.229	38.17
936.659	37.92
937.089	68.72
937.519	102.07
937.948	135.07
938.378	82.97
938.807	49.42
939.237	36.57
939.666	32.22
940.096	23.02
940.525	19.52
940.955	25.92
941.384	21.67
941.814	24.27
942.243	20.42
942.672	20.72
943.102	20.57
943.531	11.22
943.96	18.57
944.39	21.67
944.819	26.82
945.248	18.32
945.677	19.67
946.106	24.37
946.535	21.27
946.964	20.17
947.393	20.72
947.822	18.47
948.251	17.97
948.68	17.42
949.109	19.67
949.538	19.52
949.967	21.47
950.396	20.57
950.825	22.17
951.254	20.77
951.682	17.37
952.111	14.42
952.54	15.67
952.969	16.52
953.397	13.32
953.826	14.92
954.254	19.47
954.683	14.32
955.112	18.47
955.54	19.07
955.969	18.47
956.397	14.72
956.826	14.77
957.254	15.92
957.682	15.47
958.111	15.92
958.539	19.17
958.967	15.87
959.396	14.92
959.824	16.92
960.252	16.62
960.68	14.32
961.109	15.02
961.537	22.47
961.965	10.32
962.393	15.37
962.821	16.97
963.249	17.92
963.677	30.62
964.105	140.87
964.533	242.47
964.961	118.57
965.389	73.17
965.817	36.72
966.245	25.92
966.672	16.87
967.1	20.72
967.528	8.37
967.956	8.42
968.383	16.02
968.811	12.32
969.239	12.67
969.666	12.12
970.094	15.17
970.522	11.12
970.949	11.37
971.377	3.52
971.804	11.37
972.232	13.27
972.659	11.62
973.087	11.92
973.514	7.07
973.941	4.82
974.369	3.67
974.796	5.47
975.223	13.27
975.651	12.52
976.078	13.82
976.505	21.87
976.932	59.42
977.359	77.62
977.786	46.22
978.214	30.77
978.641	19.92
979.068	17.07
979.495	6.02
979.922	11.92
980.349	15.42
980.776	13.52
981.202	11.57
981.629	16.92
982.056	11.67
982.483	5.37
982.91	10.92
983.337	9.27
983.763	11.87
984.19	11.22
984.617	10.72
985.043	15.27
985.47	14.77
985.897	12.67
986.323	10.42
986.75	3.47
987.176	7.22
987.603	9.42
988.029	13.62
988.456	11.62
988.882	8.42
989.308	4.97
989.735	5.37
990.161	7.77
990.587	9.72
991.014	11.57
991.44	10.02
991.866	9.92
992.292	4.57
992.719	5.77
993.145	7.27
993.571	9.22
993.997	12.92
994.423	9.72
994.849	2.42
995.275	3.12
995.701	9.22
996.127	0.52
996.553	8.42
996.979	4.82
997.405	12.32
997.83	5.07
998.256	11.52
998.682	8.97
999.108	9.97
999.534	1.92
999.959	5.72
1000.385	10.62
1000.811	5.47
1001.236	3.12
1001.662	8.32
1002.087	14.37
1002.513	7.12
1002.938	5.17
1003.364	5.17
1003.789	11.07
1004.215	8.17
1004.64	6.57
1005.066	10.37
1005.491	8.67
1005.916	12.52
1006.342	10.57
1006.767	7.87
1007.192	10.42
1007.617	10.02
1008.042	4.22
1008.468	7.62
1008.893	15.42
1009.318	21.47
1009.743	32.37
1010.168	51.37
1010.593	46.77
1011.018	28.92
1011.443	17.62
1011.868	14.32
1012.293	11.92
1012.718	9.87
1013.143	8.77
1013.567	10.77
1013.992	11.97
1014.417	6.37
1014.842	7.37
1015.267	8.17
1015.691	9.37
1016.116	7.47
1016.541	13.62
1016.965	6.67
1017.39	9.27
1017.814	2.87
1018.239	2.47
1018.663	1.17
1019.088	-1.88
1019.512	9.07
1019.937	1.12
1020.361	2.77
1020.785	0.77
1021.21	1.47
1021.634	3.27
1022.058	8.12
1022.483	2.57
1022.907	0.97
1023.331	2.97
1023.755	2.77
1024.179	5.42
1024.604	4.97
1025.028	0.17
1025.452	3.32
1025.876	7.87
1026.3	5.17
1026.724	2.47
1027.148	5.17
1027.572	4.62
1027.996	8.47
1028.42	2.92
1028.843	4.17
1029.267	2.97
1029.691	4.52
1030.115	2.12
1030.539	2.77
1030.962	-1.73
1031.386	2.17
1031.81	2.47
1032.233	0.32
1032.657	-0.93
1033.08	3.77
1033.504	0.92
1033.927	4.82
1034.351	-0.08
1034.774	5.72
1035.198	1.82
1035.621	2.12
1036.045	-1.98
1036.468	10.52
1036.891	3.97
1037.315	4.42
1037.738	2.77
1038.161	2.27
1038.584	2.77
1039.008	-1.88
1039.431	-1.53
1039.854	-4.33
1040.277	5.02
1040.7	-1.03
1041.123	-0.83
1041.546	1.47
1041.969	2.82
1042.392	5.77
1042.815	-1.28
1043.238	0.77
1043.661	1.72
1044.084	-3.18
1044.507	-0.38
1044.93	1.07
1045.352	-2.73
1045.775	3.22
1046.198	10.02
1046.621	8.52
1047.043	3.07
1047.466	4.87
1047.889	2.42
1048.311	4.52
1048.734	0.67
1049.156	-0.53
1049.579	-0.08
1050.001	2.32
1050.424	-0.58
1050.846	1.22
1051.269	-2.83
1051.691	-2.98
1052.113	3.47
1052.536	-1.03
1052.958	-0.63
1053.38	3.37
1053.802	0.42
1054.225	4.87
1054.647	1.77
1055.069	-2.43
1055.491	0.67
1055.913	0.62
1056.335	-6.13
1056.757	-6.28
1057.179	2.57
1057.601	1.07
1058.023	2.27
1058.445	-3.53
1058.867	7.07
1059.289	3.32
1059.711	-0.53
1060.133	2.82
1060.555	3.02
1060.976	2.32
1061.398	-3.08
1061.82	5.57
1062.241	-0.58
1062.663	-0.28
1063.085	-4.33
1063.506	-0.83
1063.928	-1.58
1064.35	6.67
1064.771	-1.63
1065.193	-1.58
1065.614	1.62
1066.035	5.82
1066.457	6.87
1066.878	0.97
1067.3	4.12
1067.721	7.32
1068.142	4.47
1068.564	4.42
1068.985	3.02
1069.406	-3.43
1069.827	1.22
1070.248	-4.38
1070.67	-3.83
1071.091	-6.58
1071.512	-1.63
1071.933	-1.08
1072.354	-5.83
1072.775	-1.38
1073.196	1.27
1073.617	-4.73
1074.038	-0.38
1074.459	-1.53
1074.88	-2.88
1075.3	-3.38
1075.721	-0.03
1076.142	-1.08
1076.563	-4.78
1076.983	3.47
1077.404	-3.18
1077.825	2.87
1078.246	-3.03
1078.666	-1.18
1079.087	3.37
1079.507	-3.48
1079.928	0.17
1080.348	-2.18
1080.769	1.92
1081.189	0.82
1081.61	-4.23
1082.03	6.47
1082.451	-0.53
1082.871	-2.78
1083.291	-1.28
1083.711	-2.43
1084.132	-6.38
1084.552	-5.28
1084.972	-5.83
1085.392	-0.08
1085.813	1.37
1086.233	-1.33
1086.653	0.17
1087.073	-7.03
1087.493	-0.13
1087.913	-5.23
1088.333	-3.73
1088.753	2.42
1089.173	3.22
1089.593	0.32
1090.013	-3.68
1090.433	-1.68
1090.852	0.97
1091.272	-2.98
1091.692	1.37
1092.112	-1.93
1092.531	1.32
1092.951	1.97
1093.371	1.17
1093.79	-3.88
1094.21	-3.38
1094.63	-0.93
1095.049	-0.33
1095.469	-5.58
1095.888	1.57
1096.308	3.57
1096.727	-3.88
1097.146	-1.18
1097.566	1.37
1097.985	0.32
1098.405	1.82
1098.824	2.57
1099.243	1.72
1099.662	-3.43
1100.082	-3.43
1100.501	0.67
1100.92	2.07
1101.339	2.37
1101.758	0.77
