Data from MSPlasma+Separation6_Subt14_10-14-21-695.txt Node
Date: Fri Jul 21 10:14:21 EDT 2017
User: Ender
Spectrometer: HR+D1039
Trigger mode: 0
Integration Time (sec): 6.430000E-3
Scans to average: 20
Electric dark correction enabled: true
Nonlinearity correction enabled: false
Boxcar width: 0
XAxis mode: Wavelengths
Number of Pixels in Spectrum: 2048
>>>>>Begin Spectral Data<<<<<
187.836	-0.58
188.309	-0.58
188.782	-0.58
189.255	1.92
189.728	4.07
190.201	-1.28
190.674	-0.28
191.147	-0.88
191.619	1.77
192.092	-1.98
192.565	-6.08
193.038	3.52
193.511	2.57
193.984	-0.78
194.456	1.07
194.929	1.27
195.402	-2.33
195.874	-1.93
196.347	2.12
196.82	1.22
197.292	-1.43
197.765	-0.88
198.237	-1.88
198.71	-4.38
199.182	-0.83
199.655	3.82
200.127	-1.03
200.6	3.37
201.072	6.32
201.544	1.82
202.017	2.82
202.489	0.02
202.961	-1.13
203.433	-1.33
203.906	2.07
204.378	0.72
204.85	0.67
205.322	1.92
205.794	4.27
206.266	-2.68
206.739	2.82
207.211	-1.18
207.683	-2.58
208.155	5.47
208.627	1.37
209.099	5.47
209.57	3.87
210.042	3.07
210.514	-0.98
210.986	1.92
211.458	0.07
211.93	-0.23
212.402	-0.23
212.873	0.77
213.345	-4.68
213.817	4.27
214.288	-0.43
214.76	0.82
215.232	-0.43
215.703	2.87
216.175	2.02
216.646	2.32
217.118	1.27
217.589	4.87
218.061	-2.03
218.532	-1.43
219.004	4.22
219.475	2.42
219.946	0.77
220.418	4.37
220.889	4.22
221.36	7.17
221.832	6.22
222.303	4.87
222.774	4.12
223.245	1.57
223.717	-0.48
224.188	8.82
224.659	2.92
225.13	7.57
225.601	1.77
226.072	2.27
226.543	10.42
227.014	6.37
227.485	8.77
227.956	8.82
228.427	10.12
228.898	7.52
229.369	6.32
229.839	6.72
230.31	10.82
230.781	12.57
231.252	10.67
231.722	9.82
232.193	8.92
232.664	13.37
233.135	9.32
233.605	11.37
234.076	16.17
234.546	12.77
235.017	17.07
235.487	14.02
235.958	13.07
236.428	14.67
236.899	11.27
237.369	18.97
237.84	16.27
238.31	15.87
238.78	13.77
239.251	15.17
239.721	10.22
240.191	11.22
240.662	14.82
241.132	14.22
241.602	16.27
242.072	18.47
242.542	16.57
243.013	15.67
243.483	25.07
243.953	17.82
244.423	23.87
244.893	14.47
245.363	29.82
245.833	22.82
246.303	25.37
246.773	26.62
247.243	17.62
247.712	24.47
248.182	24.12
248.652	24.87
249.122	26.52
249.592	28.02
250.061	23.47
250.531	30.12
251.001	26.67
251.471	29.42
251.94	27.82
252.41	31.17
252.879	32.97
253.349	32.37
253.818	30.67
254.288	36.07
254.757	33.77
255.227	32.67
255.696	31.37
256.166	39.22
256.635	36.47
257.105	37.52
257.574	33.17
258.043	35.82
258.513	35.62
258.982	32.82
259.451	42.27
259.92	34.17
260.389	35.02
260.859	40.22
261.328	41.87
261.797	38.47
262.266	42.22
262.735	45.97
263.204	39.37
263.673	39.87
264.142	35.67
264.611	44.42
265.08	46.37
265.549	48.02
266.018	44.42
266.487	49.92
266.955	43.87
267.424	53.07
267.893	51.27
268.362	56.42
268.83	49.27
269.299	50.17
269.768	55.62
270.236	49.52
270.705	56.72
271.174	52.87
271.642	48.42
272.111	50.47
272.579	53.97
273.048	61.92
273.516	62.62
273.985	58.37
274.453	54.12
274.922	56.52
275.39	55.22
275.858	62.57
276.327	61.77
276.795	63.02
277.263	64.32
277.731	60.77
278.2	67.72
278.668	64.22
279.136	67.87
279.604	67.72
280.072	66.62
280.54	71.17
281.008	75.62
281.477	71.02
281.945	67.77
282.413	73.57
282.881	70.52
283.348	72.97
283.816	75.87
284.284	75.27
284.752	77.42
285.22	80.27
285.688	78.62
286.156	76.57
286.623	85.47
287.091	78.07
287.559	85.82
288.026	88.57
288.494	87.47
288.962	87.72
289.429	83.07
289.897	86.67
290.364	79.77
290.832	89.37
291.3	83.22
291.767	85.62
292.234	88.92
292.702	94.42
293.169	94.97
293.637	94.97
294.104	96.87
294.571	93.32
295.039	99.67
295.506	90.47
295.973	96.57
296.44	94.12
296.908	97.37
297.375	98.67
297.842	95.67
298.309	102.17
298.776	102.07
299.243	104.17
299.71	101.52
300.177	106.37
300.644	109.17
301.111	105.02
301.578	111.17
302.045	100.57
302.512	110.47
302.979	112.67
303.446	115.87
303.913	115.72
304.379	118.97
304.846	121.62
305.313	128.37
305.78	125.72
306.246	126.42
306.713	132.12
307.18	133.47
307.646	135.47
308.113	129.52
308.579	133.22
309.046	139.82
309.512	135.22
309.979	142.52
310.445	136.22
310.912	140.07
311.378	148.77
311.845	143.22
312.311	141.72
312.777	141.62
313.244	146.57
313.71	146.17
314.176	153.72
314.642	155.37
315.109	158.42
315.575	148.92
316.041	158.07
316.507	155.57
316.973	163.07
317.439	163.02
317.905	159.57
318.371	159.72
318.837	155.52
319.303	167.97
319.769	158.72
320.235	171.02
320.701	171.52
321.167	167.97
321.633	168.67
322.099	171.12
322.564	174.42
323.03	173.27
323.496	172.92
323.962	177.32
324.427	181.92
324.893	185.12
325.359	186.17
325.824	185.62
326.29	191.32
326.755	186.87
327.221	184.77
327.686	200.07
328.152	196.52
328.617	201.67
329.083	198.17
329.548	203.62
330.014	203.02
330.479	202.67
330.944	208.97
331.41	217.47
331.875	206.12
332.34	207.57
332.805	207.67
333.271	209.12
333.736	208.47
334.201	216.27
334.666	228.32
335.131	234.42
335.596	231.92
336.061	222.77
336.526	223.62
336.991	217.77
337.456	217.27
337.921	213.37
338.386	214.47
338.851	215.67
339.316	220.47
339.781	216.17
340.246	220.57
340.711	226.17
341.175	229.92
341.64	239.77
342.105	233.32
342.569	251.47
343.034	243.57
343.499	248.82
343.963	253.47
344.428	259.72
344.893	255.92
345.357	261.62
345.822	264.42
346.286	260.87
346.751	269.07
347.215	273.82
347.679	286.22
348.144	297.37
348.608	292.92
349.073	299.52
349.537	304.12
350.001	301.82
350.465	303.87
350.93	310.07
351.394	312.17
351.858	308.87
352.322	323.37
352.786	319.67
353.25	313.97
353.715	325.67
354.179	339.12
354.643	342.27
355.107	351.87
355.571	340.07
356.035	340.37
356.498	340.12
356.962	340.22
357.426	338.22
357.89	332.32
358.354	332.92
358.818	325.02
359.281	340.87
359.745	338.47
360.209	332.27
360.673	333.02
361.136	335.02
361.6	344.27
362.064	344.82
362.527	356.62
362.991	352.57
363.454	348.12
363.918	359.62
364.381	361.57
364.845	361.02
365.308	356.27
365.772	366.02
366.235	365.42
366.698	367.12
367.162	361.12
367.625	369.87
368.088	380.47
368.552	374.42
369.015	377.92
369.478	379.22
369.941	377.57
370.404	388.27
370.867	377.07
371.331	391.32
371.794	395.47
372.257	391.12
372.72	391.52
373.183	398.02
373.646	403.12
374.109	400.57
374.572	403.12
375.035	409.42
375.497	410.07
375.96	420.02
376.423	421.62
376.886	430.47
377.349	430.17
377.811	430.62
378.274	435.42
378.737	430.92
379.199	439.67
379.662	437.32
380.125	447.62
380.587	453.92
381.05	458.07
381.512	460.62
381.975	472.82
382.437	480.87
382.9	473.42
383.362	482.27
383.825	484.77
384.287	493.67
384.75	479.17
385.212	491.32
385.674	490.82
386.136	497.92
386.599	490.22
387.061	488.87
387.523	501.07
387.985	503.42
388.447	507.97
388.91	505.52
389.372	508.82
389.834	512.72
390.296	500.57
390.758	508.87
391.22	509.47
391.682	513.57
392.144	508.02
392.606	516.77
393.068	525.42
393.529	552.02
393.991	567.92
394.453	537.42
394.915	520.67
395.377	519.72
395.838	517.17
396.3	521.02
396.762	524.32
397.224	525.17
397.685	525.92
398.147	535.62
398.608	538.27
399.07	542.77
399.531	546.02
399.993	559.72
400.454	565.37
400.916	563.37
401.377	581.67
401.839	588.02
402.3	588.62
402.762	611.97
403.223	658.77
403.684	644.97
404.145	631.82
404.607	608.77
405.068	601.92
405.529	616.57
405.99	625.72
406.451	634.27
406.913	620.42
407.374	628.17
407.835	619.12
408.296	641.17
408.757	650.77
409.218	658.12
409.679	663.17
410.14	665.82
410.601	678.22
411.062	685.02
411.522	687.37
411.983	684.67
412.444	695.17
412.905	703.97
413.366	726.32
413.826	764.27
414.287	859.92
414.748	1019.62
415.208	1040.57
415.669	880.67
416.13	797.87
416.59	768.92
417.051	800.77
417.511	835.67
417.972	896.82
418.432	967.62
418.893	1074.22
419.353	1023.47
419.814	802.32
420.274	714.97
420.734	700.77
421.195	731.87
421.655	723.97
422.115	739.67
422.576	726.22
423.036	740.82
423.496	761.77
423.956	799.57
424.416	847.32
424.876	949.92
425.336	952.97
425.797	936.67
426.257	915.52
426.717	870.02
427.177	813.67
427.637	824.67
428.097	855.02
428.556	891.22
429.016	957.12
429.476	956.32
429.936	937.57
430.396	938.47
430.856	960.47
431.315	983.37
431.775	1051.87
432.235	1122.42
432.694	1141.17
433.154	1069.67
433.614	1046.42
434.073	1014.27
434.533	917.17
434.993	887.52
435.452	889.82
435.912	866.82
436.371	860.77
436.83	847.62
437.29	840.77
437.749	813.27
438.209	810.27
438.668	815.62
439.127	832.17
439.587	822.57
440.046	794.67
440.505	811.87
440.964	819.12
441.424	849.37
441.883	865.17
442.342	818.02
442.801	781.72
443.26	788.67
443.719	785.07
444.178	775.27
444.637	786.62
445.096	800.37
445.555	803.07
446.014	804.27
446.473	795.17
446.932	801.92
447.391	806.97
447.849	826.87
448.308	809.37
448.767	816.52
449.226	831.47
449.685	839.12
450.143	870.17
450.602	870.82
451.061	831.52
451.519	830.42
451.978	820.27
452.436	815.47
452.895	821.87
453.353	813.32
453.812	803.92
454.27	818.02
454.729	821.27
455.187	825.17
455.646	836.02
456.104	826.82
456.562	834.57
457.021	848.87
457.479	822.32
457.937	840.42
458.395	866.22
458.854	854.42
459.312	847.07
459.77	851.12
460.228	864.47
460.686	873.57
461.144	875.12
461.602	867.32
462.06	866.07
462.518	886.87
462.976	886.97
463.434	897.22
463.892	901.62
464.35	925.22
464.808	940.87
465.266	947.77
465.724	964.17
466.181	961.02
466.639	961.07
467.097	992.52
467.555	1033.07
468.012	1017.77
468.47	1036.72
468.928	1071.42
469.385	1098.67
469.843	1109.22
470.3	1095.92
470.758	1132.37
471.215	1145.82
471.673	1180.32
472.13	1213.47
472.588	1234.52
473.045	1228.42
473.503	1250.17
473.96	1313.62
474.417	1320.77
474.875	1375.12
475.332	1427.37
475.789	1448.07
476.246	1495.52
476.704	1561.37
477.161	1596.42
477.618	1653.87
478.075	1736.92
478.532	1867.17
478.989	2005.47
479.446	2205.77
479.903	2316.92
480.36	2530.87
480.817	2671.92
481.274	2846.87
481.731	3105.02
482.188	3337.17
482.645	3585.07
483.102	3795.27
483.558	4058.12
484.015	4221.82
484.472	4200.27
484.929	4067.02
485.385	3897.67
485.842	3840.77
486.299	3683.67
486.755	3391.57
487.212	3045.37
487.668	2745.87
488.125	2553.72
488.582	2377.97
489.038	2286.12
489.494	2225.12
489.951	2147.22
490.407	2084.32
490.864	2040.87
491.32	2007.07
491.776	1980.42
492.233	1986.07
492.689	1952.32
493.145	1920.67
493.602	1894.02
494.058	1915.32
494.514	1916.47
494.97	1927.27
495.426	1940.92
495.882	1947.32
496.338	1938.32
496.794	1956.27
497.251	1945.22
497.707	1964.02
498.163	1974.12
498.618	1979.92
499.074	1964.47
499.53	1997.77
499.986	1999.17
500.442	1986.97
500.898	1961.97
501.354	1978.17
501.809	1983.27
502.265	1978.47
502.721	1988.47
503.177	1994.82
503.632	2006.67
504.088	2004.22
504.543	2040.22
504.999	2063.57
505.455	2040.67
505.91	2031.17
506.366	2038.97
506.821	2032.02
507.277	2019.87
507.732	2040.67
508.187	2034.07
508.643	2048.27
509.098	2063.27
509.553	2078.77
510.009	2103.62
510.464	2141.67
510.919	2153.72
511.375	2173.82
511.83	2198.07
512.285	2229.77
512.74	2275.67
513.195	2310.77
513.65	2351.87
514.105	2378.17
514.56	2386.37
515.015	2423.62
515.47	2439.27
515.925	2405.52
516.38	2415.32
516.835	2412.72
517.29	2398.37
517.745	2402.27
518.2	2354.52
518.655	2321.32
519.109	2293.02
519.564	2268.42
520.019	2247.37
520.474	2223.87
520.928	2217.37
521.383	2192.52
521.838	2179.17
522.292	2162.57
522.747	2157.07
523.201	2142.92
523.656	2117.62
524.11	2129.52
524.565	2109.62
525.019	2112.37
525.474	2110.27
525.928	2101.37
526.382	2103.17
526.837	2095.32
527.291	2123.02
527.745	2110.17
528.2	2102.57
528.654	2075.77
529.108	2080.97
529.562	2081.27
530.016	2084.47
530.47	2090.57
530.925	2074.42
531.379	2087.57
531.833	2098.77
532.287	2102.12
532.741	2087.02
533.195	2089.37
533.649	2093.52
534.103	2098.67
534.556	2092.22
535.01	2092.27
535.464	2093.37
535.918	2091.42
536.372	2106.32
536.826	2100.22
537.279	2078.17
537.733	2089.27
538.187	2097.67
538.64	2076.37
539.094	2104.22
539.548	2132.62
540.001	2117.47
540.455	2139.12
540.908	2135.72
541.362	2177.82
541.815	2168.92
542.269	2227.02
542.722	2217.87
543.175	2238.27
543.629	2246.97
544.082	2276.72
544.536	2297.72
544.989	2298.02
545.442	2306.42
545.895	2300.97
546.349	2299.72
546.802	2311.27
547.255	2302.57
547.708	2327.47
548.161	2352.77
548.614	2342.82
549.067	2351.57
549.52	2351.22
549.973	2320.22
550.426	2318.07
550.879	2309.52
551.332	2311.72
551.785	2328.12
552.238	2353.42
552.691	2349.32
553.144	2382.32
553.596	2405.77
554.049	2451.17
554.502	2504.47
554.955	2535.72
555.407	2572.37
555.86	2544.22
556.313	2516.02
556.765	2482.67
557.218	2457.02
557.67	2457.77
558.123	2426.17
558.576	2427.07
559.028	2404.47
559.48	2430.37
559.933	2426.57
560.385	2357.47
560.838	2273.27
561.29	2209.67
561.742	2194.62
562.195	2146.82
562.647	2133.37
563.099	2131.82
563.551	2112.77
564.004	2131.52
564.456	2101.17
564.908	2057.17
565.36	2027.72
565.812	1974.82
566.264	1969.57
566.716	1940.02
567.168	1913.32
567.62	1913.27
568.072	1898.57
568.524	1884.07
568.976	1877.82
569.428	1855.77
569.88	1854.17
570.332	1860.12
570.784	1873.32
571.235	1861.47
571.687	1884.72
572.139	1883.42
572.59	1906.72
573.042	1912.02
573.494	1908.67
573.945	1881.47
574.397	1848.97
574.849	1845.12
575.3	1851.92
575.752	1815.42
576.203	1799.92
576.655	1809.52
577.106	1783.02
577.557	1776.82
578.009	1774.22
578.46	1768.52
578.912	1755.52
579.363	1770.07
579.814	1761.17
580.265	1756.07
580.717	1773.32
581.168	1766.27
581.619	1781.27
582.07	1779.12
582.521	1767.22
582.972	1765.92
583.423	1772.12
583.875	1789.17
584.326	1797.37
584.777	1818.97
585.227	1853.42
585.678	1876.87
586.129	1891.77
586.58	1907.72
587.031	1941.77
587.482	1985.47
587.933	2006.47
588.384	2001.47
588.834	1986.47
589.285	1982.37
589.736	1972.17
590.186	1982.12
590.637	1967.77
591.088	1925.92
591.538	1896.97
591.989	1859.62
592.439	1847.77
592.89	1819.77
593.34	1825.02
593.791	1808.37
594.241	1785.07
594.692	1778.32
595.142	1784.72
595.593	1770.92
596.043	1790.77
596.493	1807.02
596.943	1810.37
597.394	1857.02
597.844	1880.27
598.294	1919.92
598.744	1984.47
599.195	2074.42
599.645	2184.87
600.095	2286.17
600.545	2394.12
600.995	2485.62
601.445	2587.07
601.895	2709.82
602.345	2781.42
602.795	2755.62
603.245	2638.87
603.695	2506.92
604.145	2385.52
604.594	2259.92
605.044	2147.62
605.494	2008.82
605.944	1914.97
606.393	1863.32
606.843	1832.17
607.293	1824.42
607.743	1817.52
608.192	1820.22
608.642	1830.82
609.091	1819.47
609.541	1818.42
609.99	1824.42
610.44	1781.07
610.889	1768.42
611.339	1739.32
611.788	1722.02
612.238	1734.22
612.687	1735.87
613.136	1749.57
613.586	1764.87
614.035	1753.52
614.484	1769.92
614.933	1768.52
615.383	1741.77
615.832	1699.67
616.281	1679.62
616.73	1630.67
617.179	1604.42
617.628	1572.97
618.077	1538.57
618.526	1513.62
618.975	1512.82
619.424	1481.72
619.873	1476.77
620.322	1470.52
620.771	1475.02
621.22	1456.82
621.669	1419.97
622.118	1409.42
622.567	1389.27
623.015	1367.82
623.464	1374.07
623.913	1346.02
624.361	1353.57
624.81	1355.32
625.259	1346.87
625.707	1342.82
626.156	1351.87
626.604	1374.52
627.053	1373.97
627.501	1369.17
627.95	1377.22
628.398	1390.37
628.847	1370.72
629.295	1378.92
629.744	1364.97
630.192	1346.47
630.64	1319.82
631.089	1313.67
631.537	1276.77
631.985	1252.32
632.433	1253.37
632.881	1249.72
633.33	1252.47
633.778	1251.72
634.226	1263.87
634.674	1286.17
635.122	1280.87
635.57	1302.62
636.018	1321.92
636.466	1314.52
636.914	1319.77
637.362	1341.42
637.81	1372.42
638.258	1413.37
638.705	1422.12
639.153	1459.57
639.601	1475.97
640.049	1507.22
640.497	1551.17
640.944	1588.92
641.392	1527.62
641.84	1448.22
642.287	1383.72
642.735	1343.32
643.182	1341.87
643.63	1336.67
644.078	1346.22
644.525	1366.97
644.973	1399.97
645.42	1438.22
645.867	1471.02
646.315	1495.62
646.762	1566.12
647.21	1609.07
647.657	1698.87
648.104	1744.07
648.551	1802.87
648.999	1941.52
649.446	2117.02
649.893	2367.62
650.34	2773.87
650.787	3423.77
651.234	4392.67
651.682	6044.07
652.129	8516.52
652.576	12061.22
653.023	15515.27
653.47	15536.37
653.917	15536.42
654.363	15536.32
654.81	15533.32
655.257	15533.97
655.704	15498.02
656.151	9537.17
656.598	6270.97
657.044	4485.52
657.491	3499.07
657.938	2838.12
658.385	2403.47
658.831	2130.12
659.278	1906.42
659.724	1740.92
660.171	1618.62
660.618	1496.02
661.064	1422.42
661.511	1384.22
661.957	1329.07
662.404	1303.32
662.85	1290.62
663.296	1267.87
663.743	1236.87
664.189	1219.17
664.635	1214.12
665.082	1186.52
665.528	1174.77
665.974	1141.32
666.42	1114.57
666.867	1101.72
667.313	1056.22
667.759	1043.72
668.205	1031.82
668.651	1033.47
669.097	1035.27
669.543	1040.92
669.989	1051.47
670.435	1055.72
670.881	1066.77
671.327	1105.87
671.773	1177.92
672.219	1255.52
672.665	1346.42
673.11	1392.57
673.556	1407.52
674.002	1437.22
674.448	1455.02
674.893	1258.72
675.339	1093.37
675.785	1006.42
676.23	954.77
676.676	916.22
677.122	897.42
677.567	863.02
678.013	844.07
678.458	837.67
678.904	840.47
679.349	821.27
679.794	818.47
680.24	815.32
680.685	803.97
681.131	804.87
681.576	816.12
682.021	816.92
682.466	829.57
682.912	832.02
683.357	867.97
683.802	946.77
684.247	1030.72
684.692	1095.42
685.137	1145.07
685.583	1163.57
686.028	1223.12
686.473	1169.27
686.918	1018.52
687.363	927.52
687.807	883.77
688.252	839.22
688.697	810.17
689.142	783.37
689.587	791.92
690.032	808.72
690.477	830.32
690.921	875.67
691.366	918.42
691.811	952.92
692.255	1040.07
692.7	1254.87
693.145	1793.67
693.589	2723.62
694.034	3250.27
694.478	3486.52
694.923	3186.77
695.367	4516.72
695.812	2781.57
696.256	1183.97
696.701	859.07
697.145	797.02
697.59	762.87
698.034	755.87
698.478	756.57
698.922	757.77
699.367	780.12
699.811	806.27
700.255	877.87
700.699	950.57
701.143	1036.17
701.588	1100.42
702.032	1138.72
702.476	1179.22
702.92	1260.27
703.364	1640.42
703.808	2505.87
704.252	3116.57
704.696	3302.72
705.14	3127.97
705.584	4298.37
706.027	2404.07
706.471	1208.37
706.915	906.12
707.359	804.77
707.803	751.12
708.246	722.32
708.69	719.22
709.134	716.17
709.577	702.47
710.021	719.82
710.465	706.62
710.908	698.97
711.352	735.77
711.795	809.27
712.239	868.57
712.682	884.77
713.126	886.27
713.569	968.87
714.012	803.22
714.456	699.82
714.899	666.22
715.342	636.87
715.786	611.47
716.229	593.77
716.672	580.82
717.115	583.22
717.558	585.12
718.002	597.82
718.445	624.17
718.888	660.47
719.331	673.47
719.774	689.37
720.217	676.62
720.66	644.77
721.103	607.02
721.546	571.77
721.989	554.47
722.432	546.22
722.874	548.42
723.317	553.27
723.76	605.72
724.203	728.52
724.645	980.22
725.088	1157.87
725.531	1131.47
725.974	1241.87
726.416	1120.87
726.859	694.17
727.301	575.17
727.744	546.62
728.187	541.17
728.629	558.32
729.071	585.32
729.514	614.02
729.956	640.57
730.399	646.72
730.841	648.52
731.283	627.57
731.726	615.07
732.168	626.37
732.61	659.42
733.053	712.02
733.495	782.22
733.937	872.57
734.379	1022.17
734.821	1294.97
735.263	2052.37
735.705	3690.02
736.148	5415.32
736.59	5452.42
737.032	5944.37
737.474	4900.77
737.916	1898.67
738.357	994.62
738.799	772.92
739.241	712.27
739.683	714.17
740.125	742.62
740.567	741.42
741.008	790.72
741.45	841.12
741.892	876.92
742.334	887.27
742.775	882.02
743.217	848.77
743.658	711.27
744.1	739.22
744.542	853.42
744.983	890.82
745.425	929.92
745.866	903.32
746.307	739.42
746.749	769.07
747.19	1117.82
747.632	2170.17
748.073	4029.97
748.514	5592.52
748.956	7410.22
749.397	8688.02
749.838	6038.27
750.279	5743.27
750.72	2993.47
751.162	1273.67
751.603	728.67
752.044	584.52
752.485	518.27
752.926	482.62
753.367	466.37
753.808	450.47
754.249	445.82
754.69	444.07
755.131	437.22
755.572	434.02
756.013	436.27
756.453	431.92
756.894	444.57
757.335	445.87
757.776	451.97
758.216	466.22
758.657	489.17
759.098	541.82
759.538	660.52
759.979	943.47
760.42	1906.92
760.86	4862.72
761.301	10061.77
761.741	11915.32
762.182	13676.67
762.622	8923.82
763.063	3183.72
763.503	1307.07
763.943	767.17
764.384	595.42
764.824	522.72
765.264	483.97
765.705	459.22
766.145	435.72
766.585	422.12
767.025	402.97
767.465	404.47
767.906	411.22
768.346	439.52
768.786	506.02
769.226	740.47
769.666	1494.17
770.106	3331.27
770.546	4773.27
770.986	5437.02
771.426	4129.52
771.866	1719.27
772.306	773.67
772.745	486.42
773.185	408.67
773.625	398.32
774.065	435.87
774.505	623.82
774.944	1118.77
775.384	1627.02
775.824	1834.12
776.263	1524.12
776.703	795.87
777.142	454.27
777.582	336.12
778.021	307.77
778.461	295.47
778.9	290.97
779.34	280.72
779.779	274.47
780.219	268.97
780.658	268.42
781.097	262.97
781.537	253.17
781.976	257.17
782.415	250.57
782.855	252.07
783.294	248.42
783.733	248.07
784.172	253.17
784.611	250.12
785.05	253.72
785.489	263.37
785.928	276.07
786.367	284.42
786.806	299.62
787.245	319.67
787.684	328.62
788.123	322.97
788.562	315.62
789.001	303.97
789.44	294.17
789.879	295.82
790.317	300.07
790.756	312.67
791.195	355.67
791.634	483.62
792.072	869.62
792.511	2116.47
792.95	3916.92
793.388	4750.17
793.827	3110.12
794.265	1419.77
794.704	692.62
795.142	421.27
795.581	348.22
796.019	311.72
796.458	313.17
796.896	325.92
797.334	373.72
797.773	497.22
798.211	942.92
798.649	1961.82
799.087	3318.92
799.526	4685.67
799.964	4827.67
800.402	3322.12
800.84	1507.87
801.278	739.27
801.716	447.82
802.154	367.32
802.592	348.42
803.03	342.97
803.468	353.57
803.906	351.52
804.344	345.07
804.782	339.07
805.22	340.02
805.658	352.57
806.096	377.57
806.533	424.07
806.971	532.92
807.409	783.72
807.847	1548.82
808.284	3929.82
808.722	6914.42
809.16	9727.47
809.597	13113.72
810.035	15529.57
810.472	10737.97
810.91	4538.32
811.347	2022.97
811.785	953.37
812.222	600.62
812.66	465.32
813.097	394.87
813.535	347.77
813.972	311.77
814.409	290.42
814.846	277.77
815.284	262.52
815.721	268.52
816.158	296.52
816.595	409.22
817.032	529.07
817.47	474.07
817.907	340.47
818.344	301.47
818.781	291.42
819.218	369.97
819.655	550.97
820.092	725.27
820.529	656.47
820.966	511.37
821.403	346.72
821.839	295.82
822.276	330.12
822.713	393.62
823.15	370.07
823.587	377.12
824.023	658.02
824.46	1606.32
824.897	2824.97
825.333	2216.22
825.77	1007.62
826.206	533.77
826.643	311.92
827.08	234.12
827.516	207.22
827.953	194.17
828.389	184.77
828.825	172.77
829.262	171.12
829.698	155.72
830.135	154.82
830.571	156.17
831.007	159.12
831.443	159.42
831.88	155.92
832.316	160.67
832.752	159.42
833.188	163.07
833.624	163.32
834.06	169.02
834.497	165.17
834.933	172.22
835.369	181.27
835.805	191.22
836.241	203.57
836.677	228.52
837.112	266.62
837.548	324.62
837.984	480.97
838.42	1022.12
838.856	2839.02
839.292	5629.97
839.727	4200.37
840.163	2808.67
840.599	4257.62
841.034	6492.12
841.47	3292.87
841.906	1585.47
842.341	848.12
842.777	635.57
843.212	666.62
843.648	418.02
844.083	282.07
844.519	206.32
844.954	181.67
845.39	157.22
845.825	152.47
846.261	143.72
846.696	138.37
847.131	136.62
847.566	136.97
848.002	139.97
848.437	146.47
848.872	149.92
849.307	200.87
849.742	354.42
850.177	922.27
850.613	1967.92
851.048	1438.62
851.483	649.02
851.918	361.72
852.353	201.07
852.788	145.87
853.223	127.27
853.657	115.37
854.092	115.32
854.527	113.57
854.962	120.87
855.397	139.67
855.832	119.17
856.266	109.07
856.701	107.22
857.136	105.72
857.57	134.27
858.005	170.07
858.44	142.62
858.874	135.97
859.309	130.72
859.743	128.17
860.178	123.52
860.612	138.82
861.047	186.97
861.481	270.92
861.915	182.92
862.35	134.87
862.784	112.77
863.218	103.32
863.653	109.82
864.087	136.57
864.521	166.12
864.955	272.32
865.39	466.27
865.824	364.42
866.258	486.52
866.692	751.47
867.126	538.72
867.56	287.02
867.994	177.22
868.428	153.42
868.862	189.02
869.296	178.47
869.73	221.37
870.164	185.22
870.598	165.27
871.031	118.52
871.465	108.67
871.899	84.27
872.333	72.32
872.766	73.77
873.2	74.92
873.634	72.97
874.067	77.87
874.501	78.67
874.935	77.27
875.368	77.37
875.802	74.97
876.235	67.67
876.669	69.77
877.102	59.52
877.535	63.52
877.969	58.37
878.402	60.27
878.836	60.42
879.269	61.87
879.702	62.62
880.135	61.37
880.569	65.02
881.002	53.32
881.435	55.77
881.868	57.37
882.301	55.47
882.734	53.07
883.167	55.17
883.601	55.87
884.034	53.87
884.467	48.67
884.899	49.87
885.332	46.97
885.765	46.02
886.198	49.22
886.631	48.82
887.064	50.12
887.497	48.42
887.929	53.07
888.362	44.82
888.795	44.12
889.228	48.82
889.66	48.27
890.093	46.12
890.526	46.57
890.958	42.52
891.391	48.77
891.823	45.77
892.256	49.07
892.688	48.87
893.121	41.17
893.553	44.92
893.985	41.47
894.418	39.47
894.85	46.22
895.282	46.22
895.715	39.47
896.147	39.97
896.579	35.97
897.011	47.32
897.444	43.42
897.876	37.52
898.308	37.57
898.74	41.92
899.172	44.57
899.604	43.17
900.036	46.22
900.468	39.27
900.9	46.22
901.332	52.32
901.764	58.92
902.196	55.32
902.628	63.32
903.06	89.92
903.491	95.32
903.923	79.22
904.355	76.12
904.787	81.47
905.218	59.52
905.65	57.82
906.082	49.47
906.513	48.97
906.945	52.72
907.376	48.42
907.808	50.42
908.239	55.72
908.671	62.62
909.102	69.62
909.534	98.47
909.965	182.82
910.397	464.02
910.828	1338.87
911.259	810.72
911.691	432.32
912.122	253.27
912.553	131.97
912.984	70.42
913.415	63.97
913.847	60.27
914.278	53.17
914.709	48.47
915.14	45.27
915.571	46.27
916.002	47.82
916.433	41.12
916.864	39.42
917.295	45.82
917.726	50.27
918.157	62.37
918.587	67.12
919.018	60.27
919.449	55.57
919.88	67.52
920.311	100.32
920.741	274.72
921.172	490.07
921.603	247.57
922.033	157.52
922.464	102.52
922.895	66.52
923.325	48.12
923.756	45.87
924.186	58.02
924.617	80.47
925.047	111.67
925.478	105.77
925.908	72.67
926.338	57.72
926.769	42.67
927.199	39.47
927.629	34.92
928.06	44.42
928.49	34.87
928.92	35.12
929.35	33.07
929.78	26.42
930.21	26.17
930.641	21.37
931.071	28.72
931.501	20.57
931.931	21.27
932.361	20.52
932.791	27.22
933.221	23.17
933.651	39.67
934.08	70.92
934.51	42.47
934.94	34.72
935.37	27.47
935.8	21.67
936.229	23.12
936.659	25.37
937.089	42.32
937.519	66.92
937.948	90.22
938.378	52.32
938.807	32.32
939.237	17.72
939.666	19.52
940.096	13.72
940.525	8.52
940.955	17.17
941.384	10.92
941.814	10.87
942.243	11.92
942.672	12.57
943.102	9.87
943.531	13.67
943.96	12.27
944.39	14.07
944.819	16.57
945.248	9.17
945.677	10.62
946.106	7.42
946.535	11.12
946.964	11.77
947.393	7.72
947.822	4.17
948.251	13.72
948.68	12.47
949.109	10.22
949.538	6.97
949.967	11.47
950.396	5.92
950.825	6.87
951.254	6.02
951.682	5.02
952.111	4.37
952.54	7.87
952.969	4.62
953.397	3.47
953.826	1.97
954.254	13.97
954.683	5.37
955.112	11.82
955.54	8.52
955.969	4.52
956.397	11.92
956.826	4.97
957.254	8.82
957.682	6.62
958.111	6.77
958.539	7.87
958.967	9.12
959.396	8.67
959.824	9.12
960.252	10.02
960.68	8.12
961.109	10.57
961.537	13.62
961.965	4.47
962.393	6.62
962.821	6.82
963.249	8.97
963.677	16.62
964.105	82.27
964.533	141.37
964.961	72.02
965.389	36.07
965.817	24.02
966.245	14.92
966.672	7.87
967.1	14.72
967.528	4.92
967.956	4.97
968.383	8.77
968.811	7.57
969.239	5.02
969.666	6.92
970.094	6.82
970.522	1.37
970.949	2.77
971.377	1.02
971.804	5.87
972.232	4.87
972.659	6.22
973.087	4.77
973.514	2.57
973.941	-0.43
974.369	3.82
974.796	5.12
975.223	5.52
975.651	7.57
976.078	5.82
976.505	14.22
976.932	29.07
977.359	40.47
977.786	25.87
978.214	19.22
978.641	8.22
979.068	6.22
979.495	6.67
979.922	6.42
980.349	9.47
980.776	5.67
981.202	4.77
981.629	10.07
982.056	2.97
982.483	0.27
982.91	9.17
983.337	2.07
983.763	2.82
984.19	8.87
984.617	6.32
985.043	2.97
985.47	9.42
985.897	5.82
986.323	7.87
986.75	4.17
987.176	4.42
987.603	4.92
988.029	9.97
988.456	9.77
988.882	2.42
989.308	3.52
989.735	-0.13
990.161	-1.23
990.587	3.07
991.014	4.07
991.44	5.67
991.866	3.12
992.292	2.42
992.719	5.47
993.145	5.92
993.571	1.77
993.997	9.37
994.423	5.02
994.849	-4.73
995.275	4.67
995.701	7.77
996.127	-0.53
996.553	-0.63
996.979	2.37
997.405	5.82
997.83	4.07
998.256	1.67
998.682	5.22
999.108	4.92
999.534	-1.28
999.959	1.02
1000.385	4.72
1000.811	1.07
1001.236	-7.13
1001.662	2.37
1002.087	7.67
1002.513	3.72
1002.938	-0.38
1003.364	1.52
1003.789	4.12
1004.215	3.77
1004.64	6.87
1005.066	4.02
1005.491	9.02
1005.916	5.37
1006.342	3.87
1006.767	1.42
1007.192	7.32
1007.617	5.42
1008.042	1.17
1008.468	4.82
1008.893	8.32
1009.318	11.52
1009.743	16.47
1010.168	34.97
1010.593	25.42
1011.018	17.57
1011.443	11.22
1011.868	11.07
1012.293	9.07
1012.718	2.42
1013.143	7.92
1013.567	11.07
1013.992	5.57
1014.417	2.47
1014.842	0.37
1015.267	4.22
1015.691	7.77
1016.116	4.22
1016.541	3.62
1016.965	4.37
1017.39	5.27
1017.814	1.57
1018.239	4.47
1018.663	-1.28
1019.088	0.47
1019.512	7.47
1019.937	2.17
1020.361	-4.98
1020.785	-1.78
1021.21	-2.63
1021.634	1.62
1022.058	5.52
1022.483	-5.88
1022.907	2.17
1023.331	0.77
1023.755	-1.03
1024.179	-1.68
1024.604	2.32
1025.028	1.12
1025.452	3.67
1025.876	4.77
1026.3	0.37
1026.724	-4.33
1027.148	0.32
1027.572	-1.43
1027.996	1.22
1028.42	3.17
1028.843	-3.78
1029.267	-0.53
1029.691	3.87
1030.115	-4.93
1030.539	-2.18
1030.962	-0.33
1031.386	0.97
1031.81	-0.63
1032.233	2.97
1032.657	-10.03
1033.08	-2.73
1033.504	1.32
1033.927	0.22
1034.351	-2.28
1034.774	0.22
1035.198	-0.13
1035.621	-0.23
1036.045	-1.03
1036.468	5.57
1036.891	2.97
1037.315	4.02
1037.738	-1.98
1038.161	-0.78
1038.584	-1.18
1039.008	-3.08
1039.431	-5.88
1039.854	-6.43
1040.277	3.82
1040.7	0.17
1041.123	-0.83
1041.546	-2.13
1041.969	1.77
1042.392	0.57
1042.815	-3.48
1043.238	-3.13
1043.661	-3.93
1044.084	0.22
1044.507	-3.98
1044.93	-2.63
1045.352	-0.48
1045.775	5.72
1046.198	-2.48
1046.621	4.07
1047.043	-1.83
1047.466	5.32
1047.889	1.22
1048.311	1.87
1048.734	-1.73
1049.156	-2.98
1049.579	2.12
1050.001	-0.38
1050.424	2.82
1050.846	-2.48
1051.269	-1.68
1051.691	-2.03
1052.113	-2.03
1052.536	-4.18
1052.958	-8.33
1053.38	4.97
1053.802	1.87
1054.225	3.72
1054.647	2.57
1055.069	-0.88
1055.491	-0.13
1055.913	-0.78
1056.335	-6.53
1056.757	-4.08
1057.179	-0.13
1057.601	-4.88
1058.023	0.07
1058.445	-3.53
1058.867	1.77
1059.289	-1.23
1059.711	-1.48
1060.133	0.42
1060.555	-5.88
1060.976	3.17
1061.398	-5.18
1061.82	0.17
1062.241	-0.88
1062.663	-4.38
1063.085	-5.03
1063.506	-7.03
1063.928	-0.53
1064.35	-2.93
1064.771	-0.78
1065.193	-2.68
1065.614	-1.43
1066.035	4.62
1066.457	1.32
1066.878	2.67
1067.3	1.37
1067.721	2.97
1068.142	1.97
1068.564	0.32
1068.985	-2.03
1069.406	-8.33
1069.827	-1.48
1070.248	0.12
1070.67	-1.63
1071.091	-6.03
1071.512	0.97
1071.933	-2.83
1072.354	-1.23
1072.775	-1.88
1073.196	3.12
1073.617	-0.93
1074.038	-3.93
1074.459	-2.58
1074.88	-4.33
1075.3	1.97
1075.721	5.02
1076.142	-1.73
1076.563	-2.43
1076.983	3.07
1077.404	-2.93
1077.825	1.27
1078.246	-5.38
1078.666	-1.03
1079.087	-1.73
1079.507	-0.63
1079.928	3.67
1080.348	-1.08
1080.769	-0.48
1081.189	-2.28
1081.61	-5.68
1082.03	1.37
1082.451	-1.88
1082.871	-5.43
1083.291	-7.68
1083.711	-2.38
1084.132	-4.78
1084.552	-4.88
1084.972	-8.13
1085.392	-5.13
1085.813	-0.58
1086.233	-4.58
1086.653	-0.88
1087.073	-2.23
1087.493	1.87
1087.913	-6.63
1088.333	0.97
1088.753	-3.63
1089.173	-1.08
1089.593	0.87
1090.013	-1.83
1090.433	-6.48
1090.852	1.12
1091.272	-5.98
1091.692	-3.28
1092.112	-5.03
1092.531	-3.63
1092.951	-1.23
1093.371	0.77
1093.79	-4.18
1094.21	-0.13
1094.63	-0.03
1095.049	0.87
1095.469	-5.28
1095.888	0.67
1096.308	0.87
1096.727	-8.73
1097.146	-4.83
1097.566	-2.78
1097.985	1.27
1098.405	0.62
1098.824	-1.08
1099.243	-5.98
1099.662	-7.58
1100.082	-3.18
1100.501	-0.98
1100.92	1.17
1101.339	-0.33
1101.758	1.07
