Data from MSPlasma+Separation6_Subt14_10-14-16-552.txt Node
Date: Fri Jul 21 10:14:16 EDT 2017
User: Ender
Spectrometer: HR+D1039
Trigger mode: 0
Integration Time (sec): 6.430000E-3
Scans to average: 20
Electric dark correction enabled: true
Nonlinearity correction enabled: false
Boxcar width: 0
XAxis mode: Wavelengths
Number of Pixels in Spectrum: 2048
>>>>>Begin Spectral Data<<<<<
187.836	0.64
188.309	0.64
188.782	0.64
189.255	0.99
189.728	6.04
190.201	-3.16
190.674	2.64
191.147	-0.96
191.619	-1.61
192.092	0.64
192.565	-2.51
193.038	3.99
193.511	0.59
193.984	0.29
194.456	-2.06
194.929	-3.16
195.402	-2.61
195.874	0.19
196.347	2.54
196.82	0.44
197.292	-0.01
197.765	-0.11
198.237	-3.66
198.71	-2.66
199.182	4.34
199.655	0.39
200.127	0.24
200.6	-2.16
201.072	1.94
201.544	0.49
202.017	-0.76
202.489	1.74
202.961	0.39
203.433	-2.56
203.906	-2.81
204.378	-2.51
204.85	-0.56
205.322	4.34
205.794	2.94
206.266	-3.81
206.739	3.19
207.211	-2.71
207.683	2.94
208.155	2.04
208.627	-1.81
209.099	2.19
209.57	1.74
210.042	1.89
210.514	-0.01
210.986	-0.31
211.458	-0.01
211.93	3.34
212.402	1.29
212.873	-2.76
213.345	-5.56
213.817	2.74
214.288	-2.26
214.76	1.19
215.232	-1.01
215.703	-1.61
216.175	1.29
216.646	3.79
217.118	4.74
217.589	-3.76
218.061	0.94
218.532	-4.91
219.004	4.14
219.475	3.79
219.946	4.54
220.418	2.64
220.889	2.69
221.36	6.84
221.832	3.64
222.303	6.79
222.774	2.79
223.245	3.89
223.717	1.99
224.188	3.94
224.659	-1.56
225.13	0.89
225.601	-0.11
226.072	5.24
226.543	6.24
227.014	1.74
227.485	6.69
227.956	6.39
228.427	13.24
228.898	5.99
229.369	6.94
229.839	3.34
230.31	10.69
230.781	9.84
231.252	11.64
231.722	9.34
232.193	9.84
232.664	12.24
233.135	12.04
233.605	7.04
234.076	12.29
234.546	9.09
235.017	12.64
235.487	14.14
235.958	7.84
236.428	17.19
236.899	13.99
237.369	19.39
237.84	14.39
238.31	15.79
238.78	9.89
239.251	14.84
239.721	14.24
240.191	12.94
240.662	19.34
241.132	18.99
241.602	20.24
242.072	16.59
242.542	16.74
243.013	14.94
243.483	15.29
243.953	14.59
244.423	19.14
244.893	17.54
245.363	21.69
245.833	18.69
246.303	20.24
246.773	24.84
247.243	23.99
247.712	25.74
248.182	22.94
248.652	24.94
249.122	22.54
249.592	28.89
250.061	24.04
250.531	26.54
251.001	26.84
251.471	27.09
251.94	28.19
252.41	28.19
252.879	27.19
253.349	34.04
253.818	27.69
254.288	34.04
254.757	31.29
255.227	37.19
255.696	34.64
256.166	34.14
256.635	39.09
257.105	33.34
257.574	34.74
258.043	37.34
258.513	40.19
258.982	35.04
259.451	43.14
259.92	36.39
260.389	42.94
260.859	37.74
261.328	41.54
261.797	40.49
262.266	43.39
262.735	43.14
263.204	37.89
263.673	44.09
264.142	39.24
264.611	41.34
265.08	41.69
265.549	41.89
266.018	43.19
266.487	48.69
266.955	42.79
267.424	48.29
267.893	49.39
268.362	49.59
268.83	47.54
269.299	49.99
269.768	50.54
270.236	53.69
270.705	55.49
271.174	52.39
271.642	52.19
272.111	54.89
272.579	51.44
273.048	53.29
273.516	60.49
273.985	57.74
274.453	59.04
274.922	59.89
275.39	58.29
275.858	62.64
276.327	61.54
276.795	61.64
277.263	62.14
277.731	63.94
278.2	69.39
278.668	69.49
279.136	64.54
279.604	65.64
280.072	64.99
280.54	68.84
281.008	75.94
281.477	71.84
281.945	68.69
282.413	70.04
282.881	75.69
283.348	71.04
283.816	75.19
284.284	70.54
284.752	78.14
285.22	81.99
285.688	80.44
286.156	81.14
286.623	80.89
287.091	74.74
287.559	79.64
288.026	85.69
288.494	84.14
288.962	85.39
289.429	79.09
289.897	80.39
290.364	79.19
290.832	84.84
291.3	87.34
291.767	88.09
292.234	94.44
292.702	86.09
293.169	87.84
293.637	90.59
294.104	94.99
294.571	87.74
295.039	96.14
295.506	91.94
295.973	97.09
296.44	94.99
296.908	98.34
297.375	97.94
297.842	101.39
298.309	97.09
298.776	98.74
299.243	112.54
299.71	99.59
300.177	104.24
300.644	100.84
301.111	105.14
301.578	109.74
302.045	103.24
302.512	106.64
302.979	112.89
303.446	115.19
303.913	113.29
304.379	119.79
304.846	120.74
305.313	124.09
305.78	133.14
306.246	123.24
306.713	127.99
307.18	130.04
307.646	130.49
308.113	127.19
308.579	132.14
309.046	132.64
309.512	133.14
309.979	140.44
310.445	137.19
310.912	140.04
311.378	146.49
311.845	143.34
312.311	143.09
312.777	141.34
313.244	151.24
313.71	148.79
314.176	146.74
314.642	148.64
315.109	149.89
315.575	145.59
316.041	159.04
316.507	151.69
316.973	161.94
317.439	160.84
317.905	161.09
318.371	158.89
318.837	160.39
319.303	163.29
319.769	161.29
320.235	166.94
320.701	168.94
321.167	169.24
321.633	169.44
322.099	165.09
322.564	168.74
323.03	174.34
323.496	175.74
323.962	176.24
324.427	182.39
324.893	185.24
325.359	184.84
325.824	186.29
326.29	189.89
326.755	182.64
327.221	187.94
327.686	192.34
328.152	194.39
328.617	201.59
329.083	201.84
329.548	204.74
330.014	204.04
330.479	212.04
330.944	209.64
331.41	213.14
331.875	204.94
332.34	208.09
332.805	210.74
333.271	215.79
333.736	212.39
334.201	214.89
334.666	233.24
335.131	233.79
335.596	230.34
336.061	225.74
336.526	225.59
336.991	218.69
337.456	220.24
337.921	217.29
338.386	216.39
338.851	213.09
339.316	215.49
339.781	214.49
340.246	227.29
340.711	225.24
341.175	227.69
341.64	236.94
342.105	234.79
342.569	255.54
343.034	246.44
343.499	251.34
343.963	249.14
344.428	251.29
344.893	255.29
345.357	263.64
345.822	267.54
346.286	265.84
346.751	271.44
347.215	269.94
347.679	281.74
348.144	297.29
348.608	296.99
349.073	304.34
349.537	308.54
350.001	306.59
350.465	304.34
350.93	307.39
351.394	310.24
351.858	311.29
352.322	323.34
352.786	315.84
353.25	322.54
353.715	326.29
354.179	341.69
354.643	353.89
355.107	355.14
355.571	340.04
356.035	341.69
356.498	341.94
356.962	334.59
357.426	338.09
357.89	342.49
358.354	339.69
358.818	332.54
359.281	343.89
359.745	341.79
360.209	337.59
360.673	336.99
361.136	335.69
361.6	340.79
362.064	349.24
362.527	359.14
362.991	363.59
363.454	354.74
363.918	362.09
364.381	363.14
364.845	359.89
365.308	366.24
365.772	365.99
366.235	369.69
366.698	365.44
367.162	359.99
367.625	371.84
368.088	383.94
368.552	378.29
369.015	378.44
369.478	383.04
369.941	383.04
370.404	391.79
370.867	382.84
371.331	392.84
371.794	396.94
372.257	398.69
372.72	395.44
373.183	401.34
373.646	401.94
374.109	401.44
374.572	406.49
375.035	411.69
375.497	410.39
375.96	418.99
376.423	429.99
376.886	434.24
377.349	441.29
377.811	438.44
378.274	441.84
378.737	435.69
379.199	440.49
379.662	440.09
380.125	453.54
380.587	457.59
381.05	459.24
381.512	468.29
381.975	476.74
382.437	481.09
382.9	484.39
383.362	485.74
383.825	486.69
384.287	487.34
384.75	488.59
385.212	493.24
385.674	499.74
386.136	503.39
386.599	497.19
387.061	494.94
387.523	502.94
387.985	505.74
388.447	510.09
388.91	506.99
389.372	516.54
389.834	520.74
390.296	507.59
390.758	521.29
391.22	509.84
391.682	516.59
392.144	517.84
392.606	525.69
393.068	536.89
393.529	563.59
393.991	577.54
394.453	541.69
394.915	536.04
395.377	521.74
395.838	528.34
396.3	526.64
396.762	534.79
397.224	529.74
397.685	535.09
398.147	543.49
398.608	546.94
399.07	547.69
399.531	550.24
399.993	568.69
400.454	572.69
400.916	568.44
401.377	595.89
401.839	594.24
402.3	589.74
402.762	615.89
403.223	661.39
403.684	662.79
404.145	631.39
404.607	624.39
405.068	610.54
405.529	615.24
405.99	624.14
406.451	636.24
406.913	624.69
407.374	632.19
407.835	633.79
408.296	649.44
408.757	652.79
409.218	665.44
409.679	679.74
410.14	676.74
410.601	688.19
411.062	696.59
411.522	700.74
411.983	696.04
412.444	703.54
412.905	720.54
413.366	744.69
413.826	772.94
414.287	869.14
414.748	1037.39
415.208	1056.79
415.669	876.69
416.13	795.69
416.59	785.64
417.051	814.19
417.511	845.04
417.972	912.34
418.432	980.69
418.893	1090.54
419.353	1039.44
419.814	801.64
420.274	723.24
420.734	706.79
421.195	732.44
421.655	726.84
422.115	742.89
422.576	736.39
423.036	752.14
423.496	773.39
423.956	804.59
424.416	854.39
424.876	964.49
425.336	957.04
425.797	939.29
426.257	928.89
426.717	890.69
427.177	821.89
427.637	824.84
428.097	872.69
428.556	896.89
429.016	960.64
429.476	973.54
429.936	946.79
430.396	953.44
430.856	972.04
431.315	993.39
431.775	1070.14
432.235	1142.24
432.694	1159.34
433.154	1097.09
433.614	1065.44
434.073	1033.99
434.533	931.99
434.993	900.64
435.452	900.79
435.912	894.89
436.371	883.09
436.83	868.74
437.29	846.44
437.749	818.19
438.209	813.24
438.668	831.89
439.127	846.59
439.587	824.99
440.046	801.89
440.505	816.14
440.964	827.14
441.424	854.49
441.883	877.59
442.342	821.79
442.801	779.24
443.26	797.29
443.719	790.79
444.178	791.74
444.637	799.14
445.096	804.69
445.555	807.54
446.014	807.09
446.473	801.24
446.932	808.04
447.391	814.39
447.849	830.64
448.308	818.69
448.767	824.94
449.226	840.74
449.685	845.04
450.143	888.99
450.602	878.34
451.061	839.14
451.519	838.34
451.978	819.49
452.436	816.59
452.895	828.14
453.353	823.34
453.812	818.74
454.27	822.24
454.729	822.54
455.187	831.59
455.646	831.49
456.104	832.84
456.562	849.54
457.021	855.89
457.479	820.94
457.937	849.04
458.395	874.94
458.854	861.54
459.312	850.44
459.77	861.79
460.228	861.49
460.686	879.34
461.144	892.09
461.602	871.09
462.06	880.44
462.518	898.79
462.976	892.09
463.434	907.84
463.892	920.59
464.35	929.94
464.808	947.44
465.266	953.34
465.724	966.14
466.181	969.54
466.639	958.14
467.097	1002.69
467.555	1034.09
468.012	1030.39
468.47	1048.04
468.928	1075.29
469.385	1097.49
469.843	1111.94
470.3	1107.04
470.758	1145.89
471.215	1161.14
471.673	1183.49
472.13	1222.49
472.588	1240.24
473.045	1244.59
473.503	1256.84
473.96	1318.39
474.417	1321.14
474.875	1380.39
475.332	1447.74
475.789	1467.84
476.246	1505.89
476.704	1571.14
477.161	1623.39
477.618	1665.94
478.075	1751.59
478.532	1886.89
478.989	2035.89
479.446	2233.79
479.903	2352.94
480.36	2558.84
480.817	2734.04
481.274	2897.19
481.731	3162.79
482.188	3403.64
482.645	3651.04
483.102	3869.79
483.558	4124.04
484.015	4297.44
484.472	4286.39
484.929	4159.34
485.385	3992.54
485.842	3893.64
486.299	3740.44
486.755	3427.54
487.212	3093.09
487.668	2790.09
488.125	2595.09
488.582	2401.04
489.038	2305.79
489.494	2238.89
489.951	2154.19
490.407	2095.84
490.864	2059.84
491.32	2013.99
491.776	2004.34
492.233	2009.39
492.689	1971.84
493.145	1928.69
493.602	1903.54
494.058	1932.49
494.514	1931.39
494.97	1929.29
495.426	1963.59
495.882	1943.44
496.338	1957.74
496.794	1965.49
497.251	1957.19
497.707	1984.74
498.163	1968.79
498.618	1978.34
499.074	1966.34
499.53	1985.24
499.986	2006.49
500.442	1988.94
500.898	1965.84
501.354	1986.54
501.809	1993.89
502.265	1987.09
502.721	1998.84
503.177	2011.64
503.632	2007.69
504.088	2016.99
504.543	2038.59
504.999	2058.99
505.455	2055.94
505.91	2028.19
506.366	2035.19
506.821	2043.69
507.277	2025.04
507.732	2041.44
508.187	2036.19
508.643	2045.39
509.098	2062.24
509.553	2069.99
510.009	2103.74
510.464	2141.84
510.919	2154.99
511.375	2176.34
511.83	2200.19
512.285	2245.69
512.74	2283.94
513.195	2318.99
513.65	2345.84
514.105	2388.09
514.56	2383.59
515.015	2424.99
515.47	2432.89
515.925	2407.89
516.38	2409.79
516.835	2418.44
517.29	2404.19
517.745	2406.64
518.2	2367.19
518.655	2314.59
519.109	2289.19
519.564	2267.04
520.019	2240.49
520.474	2218.34
520.928	2225.29
521.383	2205.59
521.838	2193.19
522.292	2169.49
522.747	2158.14
523.201	2158.09
523.656	2130.44
524.11	2128.44
524.565	2120.24
525.019	2116.09
525.474	2118.39
525.928	2100.24
526.382	2113.79
526.837	2103.09
527.291	2117.14
527.745	2099.64
528.2	2096.59
528.654	2070.54
529.108	2074.69
529.562	2081.54
530.016	2082.54
530.47	2090.74
530.925	2075.19
531.379	2071.39
531.833	2108.04
532.287	2105.69
532.741	2076.59
533.195	2084.69
533.649	2097.09
534.103	2105.04
534.556	2083.04
535.01	2099.34
535.464	2084.89
535.918	2093.89
536.372	2100.74
536.826	2086.44
537.279	2077.74
537.733	2090.74
538.187	2087.84
538.64	2088.84
539.094	2105.54
539.548	2126.64
540.001	2110.39
540.455	2133.14
540.908	2136.59
541.362	2162.84
541.815	2185.34
542.269	2225.49
542.722	2218.64
543.175	2240.39
543.629	2242.09
544.082	2265.64
544.536	2299.54
544.989	2303.64
545.442	2319.39
545.895	2308.84
546.349	2307.54
546.802	2309.84
547.255	2309.04
547.708	2325.09
548.161	2348.39
548.614	2351.34
549.067	2345.49
549.52	2349.99
549.973	2305.94
550.426	2312.14
550.879	2322.99
551.332	2308.19
551.785	2320.39
552.238	2351.99
552.691	2350.99
553.144	2382.49
553.596	2427.89
554.049	2443.39
554.502	2484.89
554.955	2529.99
555.407	2561.34
555.86	2550.64
556.313	2530.89
556.765	2488.99
557.218	2462.29
557.67	2451.19
558.123	2415.69
558.576	2413.59
559.028	2413.64
559.48	2437.84
559.933	2426.19
560.385	2343.59
560.838	2280.04
561.29	2213.69
561.742	2199.59
562.195	2153.74
562.647	2138.69
563.099	2127.14
563.551	2115.84
564.004	2126.84
564.456	2101.84
564.908	2055.94
565.36	2022.84
565.812	1979.34
566.264	1967.84
566.716	1934.79
567.168	1908.49
567.62	1917.24
568.072	1903.59
568.524	1887.64
568.976	1870.79
569.428	1862.44
569.88	1851.44
570.332	1868.74
570.784	1872.39
571.235	1861.19
571.687	1882.79
572.139	1881.24
572.59	1900.29
573.042	1901.49
573.494	1900.44
573.945	1887.14
574.397	1843.64
574.849	1834.54
575.3	1845.39
575.752	1814.24
576.203	1786.54
576.655	1798.44
577.106	1786.24
577.557	1776.09
578.009	1765.99
578.46	1767.54
578.912	1745.74
579.363	1759.14
579.814	1751.69
580.265	1762.79
580.717	1761.09
581.168	1754.69
581.619	1769.79
582.07	1786.14
582.521	1771.89
582.972	1754.29
583.423	1771.19
583.875	1775.74
584.326	1788.69
584.777	1816.74
585.227	1850.49
585.678	1865.49
586.129	1890.94
586.58	1909.74
587.031	1928.14
587.482	1979.49
587.933	2002.79
588.384	2005.34
588.834	1988.89
589.285	1982.69
589.736	1976.94
590.186	1981.84
590.637	1962.04
591.088	1916.39
591.538	1884.19
591.989	1855.79
592.439	1838.09
592.89	1818.79
593.34	1803.19
593.791	1809.44
594.241	1777.39
594.692	1784.14
595.142	1783.29
595.593	1779.14
596.043	1786.69
596.493	1806.54
596.943	1797.19
597.394	1864.04
597.844	1876.99
598.294	1920.89
598.744	1984.59
599.195	2065.14
599.645	2189.84
600.095	2287.59
600.545	2392.19
600.995	2489.44
601.445	2578.64
601.895	2695.89
602.345	2773.04
602.795	2754.54
603.245	2649.54
603.695	2510.59
604.145	2380.29
604.594	2267.54
605.044	2141.64
605.494	2009.19
605.944	1898.74
606.393	1855.34
606.843	1814.54
607.293	1822.74
607.743	1807.89
608.192	1818.39
608.642	1826.59
609.091	1812.69
609.541	1818.04
609.99	1824.29
610.44	1782.84
610.889	1756.79
611.339	1744.94
611.788	1722.69
612.238	1736.84
612.687	1735.74
613.136	1735.99
613.586	1755.64
614.035	1748.44
614.484	1769.34
614.933	1763.84
615.383	1730.69
615.832	1692.49
616.281	1669.64
616.73	1634.29
617.179	1587.04
617.628	1556.24
618.077	1542.49
618.526	1517.69
618.975	1506.54
619.424	1485.49
619.873	1490.14
620.322	1468.04
620.771	1463.09
621.22	1443.89
621.669	1426.04
622.118	1409.94
622.567	1388.79
623.015	1378.49
623.464	1364.99
623.913	1350.84
624.361	1352.04
624.81	1340.39
625.259	1357.29
625.707	1330.29
626.156	1346.14
626.604	1367.24
627.053	1377.59
627.501	1362.74
627.95	1376.84
628.398	1401.24
628.847	1378.94
629.295	1374.24
629.744	1360.14
630.192	1332.24
630.64	1320.79
631.089	1295.99
631.537	1265.24
631.985	1248.99
632.433	1253.29
632.881	1238.09
633.33	1252.24
633.778	1253.09
634.226	1247.69
634.674	1266.59
635.122	1282.64
635.57	1301.64
636.018	1322.74
636.466	1322.74
636.914	1312.14
637.362	1337.59
637.81	1370.04
638.258	1410.94
638.705	1416.74
639.153	1462.44
639.601	1487.84
640.049	1501.59
640.497	1549.24
640.944	1584.24
641.392	1524.39
641.84	1444.84
642.287	1386.94
642.735	1353.79
643.182	1345.54
643.63	1345.89
644.078	1348.44
644.525	1373.09
644.973	1403.34
645.42	1437.29
645.867	1477.64
646.315	1503.79
646.762	1557.89
647.21	1605.29
647.657	1690.44
648.104	1756.64
648.551	1804.99
648.999	1949.49
649.446	2134.34
649.893	2394.54
650.34	2799.34
650.787	3460.39
651.234	4456.54
651.682	6141.54
652.129	8671.04
652.576	12302.49
653.023	15532.49
653.47	15535.69
653.917	15535.74
654.363	15535.64
654.81	15532.64
655.257	15533.29
655.704	15537.09
656.151	9689.69
656.598	6365.59
657.044	4547.74
657.491	3549.89
657.938	2887.24
658.385	2433.44
658.831	2146.34
659.278	1911.09
659.724	1750.69
660.171	1631.64
660.618	1512.34
661.064	1428.69
661.511	1383.04
661.957	1333.64
662.404	1306.44
662.85	1291.34
663.296	1278.74
663.743	1238.74
664.189	1219.74
664.635	1210.44
665.082	1189.29
665.528	1171.09
665.974	1129.09
666.42	1111.14
666.867	1106.24
667.313	1057.14
667.759	1040.79
668.205	1030.59
668.651	1035.44
669.097	1043.39
669.543	1036.64
669.989	1042.94
670.435	1051.04
670.881	1062.19
671.327	1109.99
671.773	1177.79
672.219	1262.84
672.665	1332.09
673.11	1383.79
673.556	1399.44
674.002	1432.09
674.448	1453.19
674.893	1244.04
675.339	1085.14
675.785	997.54
676.23	946.99
676.676	913.39
677.122	882.24
677.567	865.24
678.013	835.39
678.458	835.64
678.904	830.84
679.349	814.84
679.794	821.04
680.24	809.64
680.685	807.39
681.131	803.94
681.576	806.44
682.021	819.14
682.466	819.04
682.912	829.24
683.357	873.94
683.802	939.84
684.247	1030.04
684.692	1092.84
685.137	1137.34
685.583	1160.29
686.028	1220.04
686.473	1156.29
686.918	1010.39
687.363	927.84
687.807	869.74
688.252	835.69
688.697	802.34
689.142	783.04
689.587	791.49
690.032	806.14
690.477	827.14
690.921	871.39
691.366	913.64
691.811	957.64
692.255	1029.14
692.7	1244.29
693.145	1789.39
693.589	2722.79
694.034	3250.79
694.478	3481.99
694.923	3186.79
695.367	4518.74
695.812	2767.34
696.256	1178.99
696.701	866.59
697.145	797.69
697.59	764.89
698.034	753.49
698.478	747.89
698.922	755.54
699.367	772.59
699.811	803.64
700.255	870.54
700.699	953.74
701.143	1038.59
701.588	1085.09
702.032	1141.79
702.476	1177.04
702.92	1263.79
703.364	1637.94
703.808	2494.49
704.252	3108.59
704.696	3281.69
705.14	3111.89
705.584	4273.99
706.027	2398.74
706.471	1207.59
706.915	902.34
707.359	802.39
707.803	752.94
708.246	721.69
708.69	720.14
709.134	708.39
709.577	706.34
710.021	714.09
710.465	707.54
710.908	700.94
711.352	727.49
711.795	812.74
712.239	863.69
712.682	884.59
713.126	880.74
713.569	971.44
714.012	808.74
714.456	700.69
714.899	659.34
715.342	630.79
715.786	609.04
716.229	597.19
716.672	577.44
717.115	572.54
717.558	579.64
718.002	597.09
718.445	625.24
718.888	661.14
719.331	671.09
719.774	689.74
720.217	677.64
720.66	637.49
721.103	607.39
721.546	569.49
721.989	557.84
722.432	550.89
722.874	548.24
723.317	554.54
723.76	603.24
724.203	739.59
724.645	980.34
725.088	1150.74
725.531	1142.94
725.974	1241.19
726.416	1109.49
726.859	695.84
727.301	573.39
727.744	544.14
728.187	539.19
728.629	553.84
729.071	583.79
729.514	602.79
729.956	640.09
730.399	650.19
730.841	641.49
731.283	636.59
731.726	619.19
732.168	625.04
732.61	657.84
733.053	707.54
733.495	773.84
733.937	876.49
734.379	1026.04
734.821	1295.19
735.263	2064.29
735.705	3691.44
736.148	5417.39
736.59	5443.09
737.032	5938.34
737.474	4903.09
737.916	1882.34
738.357	996.89
738.799	762.49
739.241	709.04
739.683	716.29
740.125	732.34
740.567	743.64
741.008	784.49
741.45	828.69
741.892	876.39
742.334	881.59
742.775	878.29
743.217	843.54
743.658	705.64
744.1	730.99
744.542	848.74
744.983	876.14
745.425	917.99
745.866	889.44
746.307	742.74
746.749	771.79
747.19	1107.84
747.632	2162.74
748.073	4035.74
748.514	5584.39
748.956	7402.24
749.397	8687.64
749.838	6023.09
750.279	5723.39
750.72	2983.89
751.162	1265.49
751.603	729.54
752.044	582.49
752.485	518.49
752.926	489.39
753.367	465.94
753.808	450.34
754.249	448.19
754.69	437.54
755.131	438.24
755.572	432.74
756.013	430.29
756.453	430.44
756.894	436.89
757.335	441.39
757.776	450.69
758.216	463.84
758.657	491.49
759.098	540.44
759.538	657.09
759.979	948.54
760.42	1902.64
760.86	4849.64
761.301	10078.09
761.741	11900.19
762.182	13685.54
762.622	8893.04
763.063	3177.54
763.503	1298.34
763.943	762.04
764.384	600.69
764.824	518.49
765.264	482.59
765.705	452.44
766.145	427.64
766.585	420.49
767.025	402.64
767.465	407.34
767.906	416.04
768.346	441.19
768.786	503.14
769.226	739.34
769.666	1486.89
770.106	3347.04
770.546	4794.64
770.986	5410.59
771.426	4120.59
771.866	1712.64
772.306	770.14
772.745	483.44
773.185	411.94
773.625	397.44
774.065	431.94
774.505	615.19
774.944	1109.69
775.384	1607.19
775.824	1811.24
776.263	1505.44
776.703	789.94
777.142	452.89
777.582	332.14
778.021	309.39
778.461	295.44
778.9	292.54
779.34	278.69
779.779	276.09
780.219	275.69
780.658	264.34
781.097	262.39
781.537	248.89
781.976	252.04
782.415	248.54
782.855	249.14
783.294	250.19
783.733	243.49
784.172	245.74
784.611	250.14
785.05	256.24
785.489	266.14
785.928	272.79
786.367	279.79
786.806	298.29
787.245	315.59
787.684	328.79
788.123	321.34
788.562	314.74
789.001	301.19
789.44	294.74
789.879	288.54
790.317	294.59
790.756	311.99
791.195	352.69
791.634	482.09
792.072	859.64
792.511	2120.49
792.95	3923.24
793.388	4766.44
793.827	3113.19
794.265	1414.19
794.704	683.79
795.142	420.09
795.581	341.09
796.019	310.74
796.458	314.14
796.896	324.14
797.334	367.59
797.773	500.54
798.211	938.04
798.649	1948.84
799.087	3291.34
799.526	4659.04
799.964	4818.64
800.402	3343.69
800.84	1505.79
801.278	736.94
801.716	451.74
802.154	363.79
802.592	342.34
803.03	344.79
803.468	355.59
803.906	354.89
804.344	339.14
804.782	340.19
805.22	339.24
805.658	347.39
806.096	373.04
806.533	420.94
806.971	535.64
807.409	774.79
807.847	1548.04
808.284	3920.29
808.722	6928.34
809.16	9702.64
809.597	13056.49
810.035	15533.49
810.472	10716.49
810.91	4525.99
811.347	2026.64
811.785	967.09
812.222	607.69
812.66	463.79
813.097	398.99
813.535	343.09
813.972	312.39
814.409	292.79
814.846	276.29
815.284	259.59
815.721	269.69
816.158	301.69
816.595	409.04
817.032	523.49
817.47	469.84
817.907	337.64
818.344	292.99
818.781	289.44
819.218	357.99
819.655	543.79
820.092	721.74
820.529	651.14
820.966	507.44
821.403	346.74
821.839	295.74
822.276	329.69
822.713	396.84
823.15	360.29
823.587	376.14
824.023	651.69
824.46	1607.39
824.897	2811.14
825.333	2218.69
825.77	1010.34
826.206	530.79
826.643	311.59
827.08	232.99
827.516	204.29
827.953	191.24
828.389	188.44
828.825	171.64
829.262	166.29
829.698	152.64
830.135	153.89
830.571	152.24
831.007	158.24
831.443	151.34
831.88	155.19
832.316	159.09
832.752	160.04
833.188	164.09
833.624	162.94
834.06	162.39
834.497	168.04
834.933	170.19
835.369	182.14
835.805	192.39
836.241	202.19
836.677	225.19
837.112	255.89
837.548	324.54
837.984	474.74
838.42	1017.04
838.856	2829.34
839.292	5601.59
839.727	4195.64
840.163	2801.14
840.599	4227.14
841.034	6523.24
841.47	3288.49
841.906	1575.99
842.341	845.39
842.777	625.79
843.212	664.44
843.648	407.59
844.083	279.19
844.519	207.89
844.954	175.09
845.39	151.89
845.825	151.09
846.261	148.64
846.696	140.14
847.131	133.79
847.566	130.44
848.002	143.14
848.437	144.79
848.872	156.09
849.307	196.99
849.742	352.74
850.177	915.74
850.613	1963.14
851.048	1431.29
851.483	653.44
851.918	363.39
852.353	200.39
852.788	142.69
853.223	130.34
853.657	118.09
854.092	113.04
854.527	110.84
854.962	124.34
855.397	139.29
855.832	117.09
856.266	105.49
856.701	106.04
857.136	111.69
857.57	136.54
858.005	166.54
858.44	139.14
858.874	127.69
859.309	128.14
859.743	126.64
860.178	116.29
860.612	134.84
861.047	183.89
861.481	264.39
861.915	184.99
862.35	129.79
862.784	111.99
863.218	100.39
863.653	113.59
864.087	133.99
864.521	163.14
864.955	265.59
865.39	465.39
865.824	360.44
866.258	479.44
866.692	740.64
867.126	540.04
867.56	287.29
867.994	181.04
868.428	155.99
868.862	191.64
869.296	177.69
869.73	215.34
870.164	180.74
870.598	163.59
871.031	117.79
871.465	97.49
871.899	79.34
872.333	75.04
872.766	74.19
873.2	77.64
873.634	73.34
874.067	80.94
874.501	80.74
874.935	80.49
875.368	81.44
875.802	75.29
876.235	66.09
876.669	64.89
877.102	59.19
877.535	62.29
877.969	58.69
878.402	64.79
878.836	56.54
879.269	60.84
879.702	54.24
880.135	60.89
880.569	67.39
881.002	52.34
881.435	60.19
881.868	55.89
882.301	55.79
882.734	51.54
883.167	52.79
883.601	54.04
884.034	50.54
884.467	48.34
884.899	50.79
885.332	47.09
885.765	49.14
886.198	42.69
886.631	46.29
887.064	50.84
887.497	47.99
887.929	48.49
888.362	44.19
888.795	46.94
889.228	51.44
889.66	44.34
890.093	42.74
890.526	48.14
890.958	44.49
891.391	47.19
891.823	45.64
892.256	43.34
892.688	47.24
893.121	40.84
893.553	50.49
893.985	40.24
894.418	39.84
894.85	46.19
895.282	44.49
895.715	42.84
896.147	40.79
896.579	36.29
897.011	41.69
897.444	44.24
897.876	38.09
898.308	35.09
898.74	41.39
899.172	44.04
899.604	49.64
900.036	44.39
900.468	42.24
900.9	47.64
901.332	57.74
901.764	57.19
902.196	53.84
902.628	55.94
903.06	87.44
903.491	97.69
903.923	74.94
904.355	72.89
904.787	80.89
905.218	65.29
905.65	60.34
906.082	54.39
906.513	51.74
906.945	50.14
907.376	50.24
907.808	49.54
908.239	52.94
908.671	58.74
909.102	66.74
909.534	95.64
909.965	178.14
910.397	460.79
910.828	1325.04
911.259	807.04
911.691	440.39
912.122	252.34
912.553	130.09
912.984	73.39
913.415	65.29
913.847	55.29
914.278	56.74
914.709	44.94
915.14	44.19
915.571	43.19
916.002	41.84
916.433	39.74
916.864	43.34
917.295	43.64
917.726	57.09
918.157	66.54
918.587	66.29
919.018	60.09
919.449	56.04
919.88	63.44
920.311	103.94
920.741	275.84
921.172	489.94
921.603	244.04
922.033	153.04
922.464	97.14
922.895	65.34
923.325	48.19
923.756	40.24
924.186	49.79
924.617	77.49
925.047	110.09
925.478	105.54
925.908	74.44
926.338	54.94
926.769	46.44
927.199	42.39
927.629	38.19
928.06	39.54
928.49	38.64
928.92	33.44
929.35	28.69
929.78	28.89
930.21	27.49
930.641	21.04
931.071	25.79
931.501	21.69
931.931	24.14
932.361	19.64
932.791	26.64
933.221	28.69
933.651	36.14
934.08	57.74
934.51	37.74
934.94	33.64
935.37	27.99
935.8	20.89
936.229	19.74
936.659	22.64
937.089	39.74
937.519	59.94
937.948	83.34
938.378	46.29
938.807	29.24
939.237	19.44
939.666	17.69
940.096	15.14
940.525	5.84
940.955	18.84
941.384	7.39
941.814	12.14
942.243	10.79
942.672	9.19
943.102	12.59
943.531	6.34
943.96	7.84
944.39	9.04
944.819	20.49
945.248	11.09
945.677	12.94
946.106	11.49
946.535	12.99
946.964	13.14
947.393	9.64
947.822	8.74
948.251	11.69
948.68	14.79
949.109	12.44
949.538	7.79
949.967	10.19
950.396	7.19
950.825	13.09
951.254	10.64
951.682	5.94
952.111	8.09
952.54	7.64
952.969	10.09
953.397	6.44
953.826	5.24
954.254	6.34
954.683	8.19
955.112	8.94
955.54	9.44
955.969	2.69
956.397	10.19
956.826	5.79
957.254	8.24
957.682	6.99
958.111	10.69
958.539	9.89
958.967	9.89
959.396	12.14
959.824	7.34
960.252	9.74
960.68	7.99
961.109	9.89
961.537	11.69
961.965	7.09
962.393	10.84
962.821	6.04
963.249	8.79
963.677	18.34
964.105	77.14
964.533	138.39
964.961	67.34
965.389	40.34
965.817	23.09
966.245	12.19
966.672	5.44
967.1	3.64
967.528	5.14
967.956	1.29
968.383	4.79
968.811	5.09
969.239	7.39
969.666	8.84
970.094	7.69
970.522	1.69
970.949	7.49
971.377	-2.81
971.804	3.89
972.232	2.74
972.659	7.44
973.087	3.94
973.514	0.29
973.941	-0.76
974.369	1.64
974.796	3.49
975.223	4.74
975.651	4.69
976.078	5.54
976.505	13.29
976.932	34.49
977.359	37.59
977.786	23.89
978.214	18.64
978.641	7.49
979.068	3.39
979.495	7.04
979.922	5.69
980.349	9.59
980.776	7.64
981.202	6.69
981.629	4.74
982.056	4.34
982.483	0.14
982.91	8.34
983.337	6.59
983.763	4.09
984.19	5.59
984.617	4.29
985.043	6.64
985.47	11.74
985.897	7.84
986.323	7.34
986.75	4.79
987.176	4.04
987.603	2.74
988.029	6.59
988.456	3.54
988.882	0.94
989.308	-0.86
989.735	0.09
990.161	7.49
990.587	3.14
991.014	4.49
991.44	8.44
991.866	3.79
992.292	0.54
992.719	1.94
993.145	8.04
993.571	2.04
993.997	4.99
994.423	4.39
994.849	-0.01
995.275	3.89
995.701	2.29
996.127	-0.31
996.553	6.94
996.979	-2.41
997.405	1.34
997.83	5.24
998.256	2.64
998.682	2.04
999.108	2.84
999.534	-4.01
999.959	-1.91
1000.385	6.99
1000.811	-0.21
1001.236	-1.86
1001.662	3.14
1002.087	7.29
1002.513	3.54
1002.938	-0.01
1003.364	4.59
1003.789	6.94
1004.215	-1.66
1004.64	0.74
1005.066	4.79
1005.491	4.44
1005.916	5.59
1006.342	6.34
1006.767	5.49
1007.192	4.24
1007.617	3.94
1008.042	0.89
1008.468	3.44
1008.893	4.44
1009.318	12.54
1009.743	17.19
1010.168	31.29
1010.593	26.94
1011.018	15.19
1011.443	11.69
1011.868	9.54
1012.293	7.79
1012.718	3.44
1013.143	2.54
1013.567	2.74
1013.992	6.49
1014.417	7.59
1014.842	1.74
1015.267	0.79
1015.691	3.89
1016.116	4.19
1016.541	3.49
1016.965	1.74
1017.39	1.49
1017.814	-2.51
1018.239	-2.56
1018.663	-7.51
1019.088	1.39
1019.512	8.14
1019.937	-0.91
1020.361	-1.26
1020.785	-0.36
1021.21	-6.16
1021.634	-5.41
1022.058	0.54
1022.483	-1.31
1022.907	-4.26
1023.331	-0.61
1023.755	1.14
1024.179	-4.96
1024.604	0.49
1025.028	-1.81
1025.452	4.44
1025.876	-0.16
1026.3	0.24
1026.724	-4.86
1027.148	-0.06
1027.572	-0.06
1027.996	2.34
1028.42	-0.81
1028.843	1.54
1029.267	-0.96
1029.691	4.74
1030.115	-1.96
1030.539	-1.26
1030.962	-6.51
1031.386	-0.16
1031.81	0.04
1032.233	-6.01
1032.657	-4.41
1033.08	3.54
1033.504	-2.36
1033.927	1.44
1034.351	-2.16
1034.774	-5.31
1035.198	-1.96
1035.621	1.69
1036.045	0.89
1036.468	5.59
1036.891	3.34
1037.315	2.49
1037.738	0.09
1038.161	-0.11
1038.584	-2.11
1039.008	-3.96
1039.431	-0.01
1039.854	-6.01
1040.277	-1.31
1040.7	-3.31
1041.123	2.89
1041.546	1.44
1041.969	-0.31
1042.392	5.14
1042.815	-7.11
1043.238	-1.41
1043.661	-2.61
1044.084	-5.76
1044.507	-0.91
1044.93	1.04
1045.352	-0.61
1045.775	-1.26
1046.198	3.99
1046.621	3.59
1047.043	-3.11
1047.466	-0.31
1047.889	-3.56
1048.311	5.49
1048.734	0.74
1049.156	-3.36
1049.579	-2.86
1050.001	-2.86
1050.424	-0.21
1050.846	-2.56
1051.269	-4.41
1051.691	0.54
1052.113	-0.01
1052.536	-2.51
1052.958	-2.51
1053.38	-0.51
1053.802	0.59
1054.225	-0.06
1054.647	2.89
1055.069	-2.61
1055.491	-0.66
1055.913	-1.46
1056.335	-9.51
1056.757	-3.86
1057.179	-1.86
1057.601	-3.81
1058.023	4.04
1058.445	-5.31
1058.867	6.24
1059.289	0.49
1059.711	-4.16
1060.133	-0.16
1060.555	-8.26
1060.976	3.69
1061.398	-4.96
1061.82	-2.36
1062.241	-2.76
1062.663	-3.31
1063.085	-0.76
1063.506	-9.91
1063.928	-2.86
1064.35	1.09
1064.771	1.39
1065.193	-3.81
1065.614	-0.36
1066.035	2.84
1066.457	2.09
1066.878	-2.31
1067.3	-3.86
1067.721	0.04
1068.142	2.24
1068.564	-0.16
1068.985	-2.81
1069.406	-8.61
1069.827	-4.26
1070.248	-8.16
1070.67	-5.01
1071.091	-12.26
1071.512	-5.81
1071.933	-3.81
1072.354	-6.51
1072.775	-5.01
1073.196	1.24
1073.617	-5.56
1074.038	-3.31
1074.459	-2.96
1074.88	1.04
1075.3	-1.16
1075.721	-0.51
1076.142	-1.11
1076.563	-5.71
1076.983	-2.46
1077.404	-8.01
1077.825	-3.46
1078.246	-4.96
1078.666	-0.31
1079.087	-1.86
1079.507	-3.41
1079.928	-1.41
1080.348	-3.71
1080.769	1.04
1081.189	-4.81
1081.61	-9.86
1082.03	-0.81
1082.451	-1.46
1082.871	-3.11
1083.291	-4.01
1083.711	-2.11
1084.132	-2.41
1084.552	-4.61
1084.972	-3.31
1085.392	-7.51
1085.813	-0.36
1086.233	-4.11
1086.653	-3.56
1087.073	-8.46
1087.493	-3.81
1087.913	-2.16
1088.333	0.74
1088.753	-3.96
1089.173	-1.76
1089.593	0.99
1090.013	-1.41
1090.433	-7.56
1090.852	0.14
1091.272	-4.71
1091.692	-1.21
1092.112	-5.66
1092.531	-2.86
1092.951	-2.41
1093.371	0.24
1093.79	-1.81
1094.21	-2.96
1094.63	-1.36
1095.049	-1.61
1095.469	-8.06
1095.888	-2.81
1096.308	-5.01
1096.727	-3.46
1097.146	-5.36
1097.566	-2.66
1097.985	0.54
1098.405	-1.31
1098.824	-1.61
1099.243	-3.36
1099.662	-2.86
1100.082	-4.06
1100.501	-3.91
1100.92	4.29
1101.339	1.54
1101.758	5.69
