Data from MSPlasma+Separation6_Subt14_10-14-04-022.txt Node
Date: Fri Jul 21 10:14:04 EDT 2017
User: Ender
Spectrometer: HR+D1039
Trigger mode: 0
Integration Time (sec): 6.430000E-3
Scans to average: 20
Electric dark correction enabled: true
Nonlinearity correction enabled: false
Boxcar width: 0
XAxis mode: Wavelengths
Number of Pixels in Spectrum: 2048
>>>>>Begin Spectral Data<<<<<
187.836	-3.72
188.309	-3.72
188.782	-3.72
189.255	0.53
189.728	-0.88
190.201	-2.72
190.674	-1.87
191.147	0.73
191.619	1.88
192.092	1.73
192.565	-4.22
193.038	0.98
193.511	4.18
193.984	0.33
194.456	0.53
194.929	1.93
195.402	-0.88
195.874	1.53
196.347	-0.62
196.82	3.83
197.292	-3.97
197.765	-1.22
198.237	-3.88
198.71	-5.22
199.182	1.23
199.655	5.73
200.127	0.03
200.6	-0.47
201.072	4.98
201.544	-1.57
202.017	-0.17
202.489	2.53
202.961	-2.17
203.433	-2.22
203.906	-0.07
204.378	0.38
204.85	1.58
205.322	-0.32
205.794	3.88
206.266	-1.02
206.739	2.43
207.211	-3.77
207.683	0.38
208.155	4.28
208.627	0.08
209.099	2.33
209.57	1.93
210.042	6.28
210.514	3.08
210.986	0.33
211.458	2.23
211.93	2.18
212.402	-1.82
212.873	0.38
213.345	0.98
213.817	1.58
214.288	-2.37
214.76	1.23
215.232	-2.42
215.703	-0.27
216.175	4.28
216.646	3.28
217.118	2.88
217.589	1.03
218.061	3.73
218.532	-0.07
219.004	8.03
219.475	5.78
219.946	5.98
220.418	5.73
220.889	6.13
221.36	3.88
221.832	5.43
222.303	6.73
222.774	7.43
223.245	-0.42
223.717	0.63
224.188	-0.27
224.659	3.08
225.13	-2.02
225.601	4.93
226.072	5.33
226.543	9.08
227.014	4.62
227.485	9.38
227.956	6.88
228.427	16.43
228.898	11.13
229.369	6.83
229.839	10.28
230.31	13.83
230.781	12.63
231.252	11.18
231.722	9.73
232.193	2.83
232.664	10.18
233.135	9.28
233.605	10.28
234.076	14.88
234.546	8.73
235.017	13.33
235.487	14.93
235.958	10.08
236.428	15.38
236.899	11.28
237.369	19.43
237.84	12.28
238.31	20.03
238.78	14.28
239.251	18.43
239.721	10.28
240.191	17.43
240.662	21.28
241.132	16.48
241.602	19.53
242.072	17.08
242.542	15.68
243.013	17.98
243.483	23.23
243.953	19.58
244.423	21.58
244.893	18.28
245.363	25.08
245.833	17.93
246.303	20.28
246.773	26.68
247.243	23.43
247.712	26.13
248.182	22.08
248.652	23.93
249.122	24.03
249.592	29.58
250.061	20.58
250.531	29.13
251.001	30.23
251.471	31.98
251.94	29.98
252.41	27.03
252.879	33.48
253.349	37.93
253.818	28.33
254.288	37.13
254.757	29.13
255.227	37.83
255.696	36.08
256.166	37.03
256.635	37.38
257.105	32.98
257.574	36.78
258.043	36.13
258.513	37.88
258.982	38.88
259.451	44.93
259.92	39.43
260.389	40.03
260.859	39.78
261.328	44.78
261.797	40.78
262.266	42.38
262.735	43.62
263.204	38.78
263.673	47.43
264.142	41.08
264.611	45.73
265.08	48.23
265.549	44.88
266.018	46.93
266.487	49.38
266.955	44.63
267.424	53.28
267.893	57.23
268.362	51.13
268.83	52.23
269.299	53.23
269.768	53.53
270.236	52.98
270.705	58.28
271.174	57.58
271.642	51.53
272.111	54.23
272.579	56.58
273.048	59.73
273.516	58.98
273.985	62.33
274.453	60.23
274.922	58.33
275.39	59.83
275.858	64.48
276.327	66.83
276.795	64.28
277.263	65.63
277.731	58.43
278.2	72.78
278.668	68.38
279.136	66.38
279.604	66.58
280.072	63.23
280.54	71.48
281.008	70.23
281.477	76.78
281.945	73.68
282.413	72.23
282.881	71.33
283.348	75.53
283.816	77.18
284.284	76.18
284.752	78.93
285.22	81.08
285.688	83.43
286.156	81.28
286.623	80.88
287.091	78.83
287.559	84.83
288.026	83.38
288.494	87.98
288.962	88.58
289.429	90.03
289.897	85.23
290.364	84.18
290.832	87.63
291.3	90.08
291.767	86.23
292.234	86.98
292.702	90.78
293.169	93.83
293.637	92.78
294.104	97.33
294.571	91.83
295.039	95.78
295.506	92.68
295.973	95.63
296.44	96.13
296.908	97.83
297.375	103.68
297.842	102.58
298.309	96.63
298.776	102.48
299.243	104.43
299.71	105.63
300.177	105.88
300.644	104.28
301.111	105.68
301.578	111.38
302.045	106.83
302.512	113.03
302.979	114.98
303.446	115.93
303.913	119.12
304.379	123.53
304.846	122.08
305.313	128.98
305.78	130.48
306.246	128.13
306.713	128.33
307.18	127.38
307.646	130.08
308.113	130.38
308.579	132.83
309.046	137.43
309.512	137.63
309.979	144.28
310.445	139.28
310.912	142.28
311.378	147.48
311.845	145.98
312.311	140.18
312.777	145.88
313.244	155.43
313.71	151.83
314.176	156.43
314.642	150.93
315.109	157.78
315.575	157.38
316.041	158.98
316.507	153.83
316.973	158.93
317.439	161.38
317.905	162.62
318.371	161.98
318.837	162.83
319.303	172.53
319.769	171.38
320.235	176.08
320.701	175.92
321.167	170.33
321.633	175.63
322.099	170.28
322.564	177.33
323.03	173.38
323.496	179.53
323.962	180.93
324.427	184.38
324.893	181.73
325.359	188.23
325.824	188.98
326.29	192.67
326.755	185.73
327.221	184.53
327.686	197.93
328.152	200.67
328.617	204.28
329.083	203.68
329.548	206.58
330.014	205.73
330.479	207.83
330.944	210.43
331.41	215.62
331.875	204.48
332.34	210.03
332.805	214.12
333.271	211.38
333.736	210.62
334.201	218.08
334.666	230.93
335.131	236.98
335.596	229.33
336.061	229.73
336.526	226.23
336.991	222.58
337.456	223.93
337.921	219.53
338.386	217.98
338.851	222.33
339.316	214.63
339.781	221.08
340.246	222.33
340.711	222.77
341.175	233.58
341.64	240.13
342.105	236.68
342.569	255.38
343.034	246.73
343.499	247.98
343.963	257.18
344.428	249.38
344.893	260.98
345.357	261.03
345.822	264.38
346.286	266.93
346.751	272.18
347.215	279.03
347.679	281.13
348.144	301.88
348.608	303.23
349.073	308.73
349.537	310.38
350.001	311.98
350.465	308.73
350.93	308.03
351.394	310.13
351.858	315.03
352.322	320.93
352.786	324.63
353.25	324.78
353.715	327.93
354.179	345.62
354.643	346.33
355.107	357.88
355.571	338.58
356.035	340.98
356.498	344.38
356.962	341.23
357.426	338.27
357.89	340.83
358.354	335.33
358.818	337.63
359.281	342.53
359.745	340.48
360.209	339.23
360.673	340.67
361.136	335.53
361.6	344.08
362.064	344.28
362.527	359.63
362.991	353.83
363.454	352.18
363.918	362.73
364.381	360.38
364.845	368.68
365.308	364.43
365.772	371.23
366.235	372.98
366.698	368.02
367.162	363.53
367.625	367.03
368.088	380.18
368.552	375.08
369.015	377.58
369.478	383.88
369.941	384.23
370.404	390.83
370.867	382.28
371.331	389.67
371.794	404.28
372.257	403.03
372.72	399.53
373.183	401.93
373.646	410.03
374.109	405.38
374.572	405.68
375.035	409.33
375.497	412.98
375.96	417.03
376.423	428.33
376.886	431.73
377.349	444.62
377.811	436.48
378.274	444.68
378.737	433.28
379.199	444.88
379.662	442.93
380.125	452.77
380.587	461.03
381.05	458.83
381.512	468.28
381.975	470.43
382.437	486.78
382.9	480.68
383.362	481.12
383.825	491.63
384.287	497.38
384.75	488.63
385.212	491.93
385.674	500.08
386.136	503.67
386.599	493.17
387.061	497.93
387.523	508.88
387.985	506.38
388.447	519.43
388.91	510.08
389.372	513.58
389.834	520.27
390.296	504.58
390.758	517.67
391.22	511.48
391.682	518.23
392.144	518.53
392.606	520.78
393.068	536.83
393.529	562.02
393.991	576.43
394.453	549.18
394.915	529.08
395.377	520.88
395.838	526.53
396.3	528.88
396.762	534.68
397.224	531.53
397.685	527.68
398.147	546.28
398.608	538.63
399.07	547.98
399.531	553.93
399.993	563.83
400.454	581.53
400.916	571.98
401.377	587.38
401.839	592.77
402.3	591.93
402.762	618.13
403.223	663.83
403.684	653.38
404.145	628.83
404.607	631.93
405.068	611.48
405.529	621.28
405.99	626.88
406.451	640.18
406.913	623.62
407.374	630.38
407.835	630.28
408.296	645.23
408.757	651.28
409.218	666.68
409.679	671.43
410.14	673.13
410.601	693.73
411.062	694.23
411.522	695.53
411.983	701.02
412.444	699.43
412.905	720.02
413.366	745.73
413.826	780.03
414.287	873.48
414.748	1050.58
415.208	1056.43
415.669	884.48
416.13	808.53
416.59	785.03
417.051	814.68
417.511	855.78
417.972	923.52
418.432	987.27
418.893	1093.08
419.353	1053.08
419.814	809.43
420.274	727.18
420.734	715.18
421.195	739.52
421.655	727.23
422.115	747.88
422.576	739.33
423.036	754.28
423.496	769.43
423.956	803.58
424.416	861.33
424.876	961.43
425.336	968.08
425.797	943.02
426.257	933.43
426.717	885.98
427.177	819.48
427.637	828.08
428.097	862.58
428.556	897.93
429.016	957.67
429.476	964.98
429.936	941.93
430.396	936.48
430.856	965.68
431.315	976.03
431.775	1053.58
432.235	1133.12
432.694	1139.97
433.154	1077.43
433.614	1053.43
434.073	1014.78
434.533	924.73
434.993	885.38
435.452	885.48
435.912	869.93
436.371	872.03
436.83	864.93
437.29	838.48
437.749	816.18
438.209	815.38
438.668	832.62
439.127	844.83
439.587	821.73
440.046	810.62
440.505	827.78
440.964	830.38
441.424	862.58
441.883	883.12
442.342	822.53
442.801	794.73
443.26	795.03
443.719	794.43
444.178	795.23
444.637	803.48
445.096	805.93
445.555	818.33
446.014	822.63
446.473	808.78
446.932	806.98
447.391	826.43
447.849	843.18
448.308	821.28
448.767	832.17
449.226	847.98
449.685	859.93
450.143	899.23
450.602	889.98
451.061	850.52
451.519	843.52
451.978	831.03
452.436	828.18
452.895	841.13
453.353	834.23
453.812	825.03
454.27	825.08
454.729	823.93
455.187	840.53
455.646	838.78
456.104	845.83
456.562	851.88
457.021	866.43
457.479	837.33
457.937	862.03
458.395	885.33
458.854	871.08
459.312	858.98
459.77	864.03
460.228	882.62
460.686	893.48
461.144	896.18
461.602	879.38
462.06	883.03
462.518	904.53
462.976	909.23
463.434	914.88
463.892	921.53
464.35	945.03
464.808	963.63
465.266	968.23
465.724	979.68
466.181	975.68
466.639	978.58
467.097	1012.58
467.555	1047.43
468.012	1042.83
468.47	1050.78
468.928	1087.22
469.385	1116.93
469.843	1129.68
470.3	1121.23
470.758	1162.38
471.215	1174.13
471.673	1195.88
472.13	1230.08
472.588	1257.32
473.045	1249.42
473.503	1271.28
473.96	1333.12
474.417	1344.28
474.875	1394.17
475.332	1445.88
475.789	1466.42
476.246	1503.93
476.704	1569.72
477.161	1614.53
477.618	1667.22
478.075	1754.93
478.532	1882.33
478.989	2014.98
479.446	2208.88
479.903	2307.03
480.36	2505.57
480.817	2658.62
481.274	2838.57
481.731	3085.43
482.188	3293.22
482.645	3536.07
483.102	3733.03
483.558	3989.48
484.015	4143.43
484.472	4135.98
484.929	3998.72
485.385	3846.47
485.842	3772.38
486.299	3627.82
486.755	3358.82
487.212	3025.23
487.668	2731.68
488.125	2554.38
488.582	2371.53
489.038	2288.28
489.494	2237.18
489.951	2162.38
490.407	2102.52
490.864	2065.68
491.32	2019.47
491.776	2008.53
492.233	2020.12
492.689	1989.88
493.145	1943.92
493.602	1907.53
494.058	1943.28
494.514	1949.33
494.97	1949.28
495.426	1977.48
495.882	1970.33
496.338	1969.92
496.794	1991.23
497.251	1986.72
497.707	2005.13
498.163	2017.13
498.618	2006.03
499.074	2000.12
499.53	2024.03
499.986	2040.07
500.442	2020.12
500.898	2003.68
501.354	2012.98
501.809	2010.73
502.265	2015.67
502.721	2033.22
503.177	2027.97
503.632	2041.12
504.088	2061.48
504.543	2064.47
504.999	2092.33
505.455	2077.58
505.91	2063.58
506.366	2061.57
506.821	2074.48
507.277	2054.48
507.732	2078.28
508.187	2076.93
508.643	2092.38
509.098	2091.43
509.553	2120.78
510.009	2139.53
510.464	2187.68
510.919	2205.02
511.375	2225.98
511.83	2233.18
512.285	2266.82
512.74	2317.62
513.195	2362.62
513.65	2395.93
514.105	2422.48
514.56	2420.68
515.015	2463.18
515.47	2472.88
515.925	2455.28
516.38	2446.53
516.835	2470.03
517.29	2456.68
517.745	2435.23
518.2	2403.62
518.655	2364.03
519.109	2330.12
519.564	2303.28
520.019	2293.47
520.474	2274.73
520.928	2251.18
521.383	2230.83
521.838	2234.72
522.292	2213.53
522.747	2196.02
523.201	2194.97
523.656	2166.77
524.11	2157.68
524.565	2141.78
525.019	2158.12
525.474	2152.18
525.928	2131.47
526.382	2141.48
526.837	2138.28
527.291	2152.73
527.745	2145.02
528.2	2130.93
528.654	2108.68
529.108	2112.23
529.562	2115.12
530.016	2119.62
530.47	2126.62
530.925	2115.43
531.379	2115.93
531.833	2145.47
532.287	2139.02
532.741	2135.88
533.195	2131.38
533.649	2140.28
534.103	2133.28
534.556	2113.77
535.01	2135.47
535.464	2121.53
535.918	2119.08
536.372	2138.08
536.826	2141.12
537.279	2117.68
537.733	2128.38
538.187	2137.68
538.64	2129.72
539.094	2135.83
539.548	2168.78
540.001	2167.68
540.455	2182.78
540.908	2175.53
541.362	2209.38
541.815	2230.68
542.269	2259.82
542.722	2257.32
543.175	2279.53
543.629	2285.72
544.082	2312.48
544.536	2333.62
544.989	2325.38
545.442	2352.23
545.895	2367.33
546.349	2351.38
546.802	2347.53
547.255	2359.18
547.708	2367.82
548.161	2385.18
548.614	2397.32
549.067	2409.93
549.52	2399.68
549.973	2372.33
550.426	2369.32
550.879	2348.68
551.332	2354.98
551.785	2377.43
552.238	2387.68
552.691	2386.07
553.144	2425.07
553.596	2457.78
554.049	2493.07
554.502	2539.98
554.955	2586.88
555.407	2622.57
555.86	2589.62
556.313	2563.12
556.765	2544.18
557.218	2512.58
557.67	2510.08
558.123	2470.68
558.576	2457.78
559.028	2445.73
559.48	2474.78
559.933	2472.62
560.385	2398.73
560.838	2307.73
561.29	2256.38
561.742	2248.28
562.195	2194.38
562.647	2161.52
563.099	2170.07
563.551	2151.82
564.004	2168.03
564.456	2149.73
564.908	2091.88
565.36	2055.43
565.812	2015.28
566.264	1995.62
566.716	1961.58
567.168	1942.08
567.62	1948.62
568.072	1940.68
568.524	1921.27
568.976	1918.57
569.428	1901.53
569.88	1882.38
570.332	1908.88
570.784	1909.23
571.235	1903.68
571.687	1925.03
572.139	1927.02
572.59	1945.58
573.042	1939.52
573.494	1955.93
573.945	1922.98
574.397	1892.23
574.849	1874.28
575.3	1886.42
575.752	1848.93
576.203	1837.88
576.655	1841.77
577.106	1813.38
577.557	1809.48
578.009	1791.93
578.46	1810.33
578.912	1784.72
579.363	1790.83
579.814	1797.47
580.265	1791.48
580.717	1809.78
581.168	1792.93
581.619	1802.38
582.07	1823.03
582.521	1807.13
582.972	1790.28
583.423	1804.02
583.875	1815.58
584.326	1827.47
584.777	1863.08
585.227	1883.83
585.678	1917.28
586.129	1925.12
586.58	1948.88
587.031	1967.83
587.482	2025.08
587.933	2049.73
588.384	2038.93
588.834	2028.47
589.285	2005.93
589.736	2020.23
590.186	2015.28
590.637	2001.18
591.088	1950.53
591.538	1923.52
591.989	1893.43
592.439	1867.12
592.89	1852.03
593.34	1841.28
593.791	1835.73
594.241	1808.92
594.692	1818.12
595.142	1826.78
595.593	1807.83
596.043	1830.77
596.493	1838.73
596.943	1839.68
597.394	1878.08
597.844	1908.22
598.294	1957.42
598.744	2017.27
599.195	2117.12
599.645	2222.07
600.095	2345.23
600.545	2437.43
600.995	2552.78
601.445	2639.28
601.895	2760.38
602.345	2845.88
602.795	2825.73
603.245	2704.33
603.695	2556.38
604.145	2421.07
604.594	2311.12
605.044	2204.43
605.494	2062.38
605.944	1946.78
606.393	1901.62
606.843	1860.88
607.293	1854.13
607.743	1836.08
608.192	1858.78
608.642	1852.97
609.091	1845.32
609.541	1851.58
609.99	1850.38
610.44	1802.33
610.889	1794.98
611.339	1766.17
611.788	1751.63
612.238	1756.73
612.687	1757.33
613.136	1768.78
613.586	1792.13
614.035	1786.03
614.484	1797.23
614.933	1797.67
615.383	1766.72
615.832	1715.88
616.281	1695.18
616.73	1662.67
617.179	1628.38
617.628	1591.38
618.077	1566.73
618.526	1542.58
618.975	1547.73
619.424	1509.97
619.873	1511.97
620.322	1506.73
620.771	1490.47
621.22	1468.67
621.669	1444.83
622.118	1428.43
622.567	1422.38
623.015	1396.53
623.464	1393.88
623.913	1366.63
624.361	1375.63
624.81	1362.28
625.259	1376.03
625.707	1368.88
626.156	1377.83
626.604	1395.17
627.053	1393.62
627.501	1385.82
627.95	1394.33
628.398	1421.48
628.847	1404.93
629.295	1400.38
629.744	1389.58
630.192	1368.28
630.64	1343.88
631.089	1322.17
631.537	1293.67
631.985	1267.42
632.433	1275.02
632.881	1256.73
633.33	1273.68
633.778	1268.12
634.226	1279.62
634.674	1289.67
635.122	1294.97
635.57	1315.58
636.018	1344.18
636.466	1343.97
636.914	1332.13
637.362	1365.02
637.81	1390.38
638.258	1427.68
638.705	1449.22
639.153	1484.32
639.601	1507.58
640.049	1538.62
640.497	1576.08
640.944	1618.53
641.392	1547.57
641.84	1464.42
642.287	1396.28
642.735	1359.88
643.182	1352.42
643.63	1360.73
644.078	1358.68
644.525	1376.23
644.973	1415.93
645.42	1449.38
645.867	1482.88
646.315	1504.63
646.762	1572.12
647.21	1610.48
647.657	1687.33
648.104	1734.62
648.551	1788.12
648.999	1921.88
649.446	2092.22
649.893	2336.58
650.34	2716.43
650.787	3318.53
651.234	4258.17
651.682	5819.43
652.129	8191.53
652.576	11616.08
653.023	15145.92
653.47	15535.08
653.917	15535.12
654.363	15535.03
654.81	15532.03
655.257	15532.68
655.704	15049.27
656.151	9140.62
656.598	6038.53
657.044	4337.52
657.491	3413.12
657.938	2780.68
658.385	2362.93
658.831	2089.93
659.278	1885.07
659.724	1725.58
660.171	1608.73
660.618	1498.42
661.064	1410.57
661.511	1372.08
661.957	1335.88
662.404	1305.62
662.85	1292.28
663.296	1273.68
663.743	1255.38
664.189	1230.03
664.635	1222.78
665.082	1195.33
665.528	1175.08
665.974	1150.23
666.42	1134.53
666.867	1120.33
667.313	1073.18
667.759	1050.88
668.205	1048.03
668.651	1045.53
669.097	1051.68
669.543	1061.53
669.989	1058.93
670.435	1072.67
670.881	1083.88
671.327	1124.98
671.773	1202.48
672.219	1284.03
672.665	1366.83
673.11	1422.48
673.556	1437.28
674.002	1464.63
674.448	1474.28
674.893	1271.02
675.339	1105.33
675.785	1020.88
676.23	963.93
676.676	928.43
677.122	906.03
677.567	877.28
678.013	857.93
678.458	849.08
678.904	846.83
679.349	834.43
679.794	828.78
680.24	830.52
680.685	817.03
681.131	823.53
681.576	823.48
682.021	820.68
682.466	830.12
682.912	848.73
683.357	887.52
683.802	955.63
684.247	1052.73
684.692	1118.38
685.137	1160.83
685.583	1192.68
686.028	1256.78
686.473	1187.58
686.918	1025.22
687.363	941.18
687.807	895.98
688.252	858.13
688.697	822.48
689.142	804.08
689.587	808.28
690.032	820.13
690.477	852.53
690.921	885.98
691.366	934.33
691.811	975.33
692.255	1050.83
692.7	1270.73
693.145	1830.38
693.589	2798.38
694.034	3328.77
694.478	3559.58
694.923	3269.93
695.367	4648.38
695.812	2847.48
696.256	1199.12
696.701	874.33
697.145	810.93
697.59	779.23
698.034	762.77
698.478	767.68
698.922	768.17
699.367	788.28
699.811	830.43
700.255	889.73
700.699	972.63
701.143	1055.38
701.588	1120.58
702.032	1165.08
702.476	1204.03
702.92	1283.92
703.364	1686.38
703.808	2543.48
704.252	3191.23
704.696	3372.72
705.14	3183.28
705.584	4395.03
706.027	2444.03
706.471	1230.22
706.915	927.58
707.359	814.53
707.803	759.48
708.246	735.53
708.69	735.33
709.134	716.88
709.577	718.53
710.021	718.68
710.465	718.18
710.908	718.83
711.352	741.63
711.795	827.83
712.239	878.83
712.682	903.53
713.126	892.68
713.569	987.98
714.012	817.08
714.456	713.43
714.899	676.38
715.342	632.53
715.786	619.43
716.229	606.88
716.672	592.33
717.115	591.53
717.558	594.18
718.002	609.08
718.445	634.63
718.888	676.53
719.331	682.12
719.774	696.48
720.217	685.03
720.66	654.83
721.103	613.83
721.546	582.83
721.989	567.43
722.432	557.98
722.874	555.73
723.317	564.48
723.76	616.78
724.203	747.23
724.645	1000.58
725.088	1183.03
725.531	1155.28
725.974	1267.88
726.416	1145.12
726.859	712.42
727.301	592.73
727.744	556.33
728.187	555.73
728.629	572.63
729.071	594.98
729.514	617.78
729.956	646.23
730.399	654.28
730.841	658.38
731.283	643.98
731.726	630.53
732.168	637.63
732.61	671.58
733.053	723.93
733.495	799.53
733.937	888.33
734.379	1037.28
734.821	1329.28
735.263	2100.97
735.705	3768.13
736.148	5550.33
736.59	5624.68
737.032	6071.38
737.474	5050.28
737.916	1928.92
738.357	1018.43
738.799	783.18
739.241	720.62
739.683	724.33
740.125	756.53
740.567	751.17
741.008	801.48
741.45	850.43
741.892	886.98
742.334	895.58
742.775	888.08
743.217	863.48
743.658	718.83
744.1	740.63
744.542	865.23
744.983	900.73
745.425	933.98
745.866	910.78
746.307	744.98
746.749	788.17
747.19	1141.62
747.632	2209.07
748.073	4118.62
748.514	5712.38
748.956	7581.88
749.397	8893.73
749.838	6200.62
750.279	5900.98
750.72	3049.43
751.162	1293.67
751.603	748.48
752.044	598.03
752.485	533.88
752.926	500.58
753.367	471.73
753.808	460.23
754.249	457.08
754.69	448.33
755.131	440.77
755.572	437.18
756.013	443.18
756.453	435.03
756.894	447.18
757.335	452.03
757.776	455.43
758.216	477.12
758.657	506.53
759.098	553.78
759.538	674.23
759.979	962.73
760.42	1937.28
760.86	4967.08
761.301	10283.08
761.741	12202.33
762.182	14010.58
762.622	9122.08
763.063	3249.48
763.503	1336.93
763.943	778.67
764.384	613.23
764.824	531.38
765.264	489.88
765.705	468.48
766.145	446.17
766.585	435.13
767.025	410.73
767.465	413.33
767.906	425.23
768.346	445.78
768.786	513.38
769.226	758.03
769.666	1513.53
770.106	3421.92
770.546	4919.07
770.986	5575.08
771.426	4216.18
771.866	1749.73
772.306	795.12
772.745	493.93
773.185	411.93
773.625	406.53
774.065	434.98
774.505	628.38
774.944	1130.73
775.384	1636.88
775.824	1842.98
776.263	1526.23
776.703	802.13
777.142	464.62
777.582	344.13
778.021	315.53
778.461	301.48
778.9	297.38
779.34	284.08
779.779	279.83
780.219	278.83
780.658	265.08
781.097	266.48
781.537	256.12
781.976	256.42
782.415	254.33
782.855	251.93
783.294	252.58
783.733	246.28
784.172	259.08
784.611	251.98
785.05	263.67
785.489	269.73
785.928	278.88
786.367	284.83
786.806	300.83
787.245	322.03
787.684	338.67
788.123	328.23
788.562	324.03
789.001	306.98
789.44	300.08
789.879	297.48
790.317	306.17
790.756	318.88
791.195	361.68
791.634	489.78
792.072	886.13
792.511	2159.43
792.95	4025.23
793.388	4884.32
793.827	3177.72
794.265	1442.53
794.704	696.78
795.142	431.03
795.581	351.68
796.019	321.58
796.458	321.28
796.896	334.28
797.334	380.33
797.773	508.33
798.211	958.93
798.649	2001.18
799.087	3373.98
799.526	4790.62
799.964	4951.18
800.402	3438.93
800.84	1543.97
801.278	751.08
801.716	458.48
802.154	374.58
802.592	352.23
803.03	352.12
803.468	361.53
803.906	362.68
804.344	351.23
804.782	345.83
805.22	348.48
805.658	354.77
806.096	385.53
806.533	429.98
806.971	544.83
807.409	790.73
807.847	1578.12
808.284	4003.07
808.722	7059.58
809.16	9951.12
809.597	13368.43
810.035	15537.03
810.472	10975.48
810.91	4653.38
811.347	2077.02
811.785	982.58
812.222	620.78
812.66	469.73
813.097	406.18
813.535	353.33
813.972	318.38
814.409	293.98
814.846	276.33
815.284	263.38
815.721	275.12
816.158	303.98
816.595	410.02
817.032	529.18
817.47	480.18
817.907	340.98
818.344	296.43
818.781	295.38
819.218	366.18
819.655	559.38
820.092	732.12
820.529	660.88
820.966	522.33
821.403	358.08
821.839	300.33
822.276	334.33
822.713	400.02
823.15	365.28
823.587	380.58
824.023	653.93
824.46	1644.38
824.897	2886.53
825.333	2280.93
825.77	1033.03
826.206	541.53
826.643	315.63
827.08	238.48
827.516	210.58
827.953	196.38
828.389	184.23
828.825	179.38
829.262	167.93
829.698	163.13
830.135	158.18
830.571	158.33
831.007	160.03
831.443	163.03
831.88	155.18
832.316	161.98
832.752	161.38
833.188	165.43
833.624	171.68
834.06	168.38
834.497	169.38
834.933	176.48
835.369	189.98
835.805	201.48
836.241	210.33
836.677	227.28
837.112	267.68
837.548	332.28
837.984	489.52
838.42	1037.98
838.856	2896.23
839.292	5762.28
839.727	4321.08
840.163	2863.78
840.599	4338.73
841.034	6682.88
841.47	3374.08
841.906	1612.78
842.341	865.23
842.777	646.98
843.212	674.43
843.648	419.63
844.083	281.28
844.519	215.13
844.954	177.03
845.39	161.13
845.825	155.68
846.261	146.88
846.696	142.13
847.131	137.98
847.566	137.13
848.002	143.98
848.437	150.88
848.872	155.78
849.307	200.43
849.742	360.58
850.177	940.33
850.613	2014.03
851.048	1462.18
851.483	673.78
851.918	370.98
852.353	203.88
852.788	148.28
853.223	133.03
853.657	122.68
854.092	118.88
854.527	117.18
854.962	125.48
855.397	140.73
855.832	116.38
856.266	104.98
856.701	105.08
857.136	108.33
857.57	134.73
858.005	165.08
858.44	138.58
858.874	138.93
859.309	131.88
859.743	126.33
860.178	123.78
860.612	140.88
861.047	195.63
861.481	274.38
861.915	187.62
862.35	136.68
862.784	111.48
863.218	97.38
863.653	113.43
864.087	134.88
864.521	168.58
864.955	275.53
865.39	474.78
865.824	371.83
866.258	489.77
866.692	753.28
867.126	548.38
867.56	295.83
867.994	179.98
868.428	156.83
868.862	196.93
869.296	175.88
869.73	217.48
870.164	188.17
870.598	172.23
871.031	122.08
871.465	107.88
871.899	85.58
872.333	73.48
872.766	73.58
873.2	77.28
873.634	75.68
874.067	79.13
874.501	78.88
874.935	81.03
875.368	78.13
875.802	71.43
876.235	72.93
876.669	66.18
877.102	62.33
877.535	59.08
877.969	62.18
878.402	65.93
878.836	61.88
879.269	62.38
879.702	60.98
880.135	60.48
880.569	68.88
881.002	56.98
881.435	62.98
881.868	56.08
882.301	56.13
882.734	55.38
883.167	57.08
883.601	52.03
884.034	48.93
884.467	47.68
884.899	56.13
885.332	47.83
885.765	52.68
886.198	45.78
886.631	51.38
887.064	47.48
887.497	44.38
887.929	48.93
888.362	48.73
888.795	48.43
889.228	53.83
889.66	42.78
890.093	46.83
890.526	47.33
890.958	49.73
891.391	52.48
891.823	44.43
892.256	42.88
892.688	43.48
893.121	42.08
893.553	48.08
893.985	44.48
894.418	39.48
894.85	48.63
895.282	47.48
895.715	39.13
896.147	39.98
896.579	37.73
897.011	47.78
897.444	44.78
897.876	38.38
898.308	35.73
898.74	45.98
899.172	47.83
899.604	44.28
900.036	43.78
900.468	39.43
900.9	49.13
901.332	60.33
901.764	56.73
902.196	59.13
902.628	61.58
903.06	87.58
903.491	100.38
903.923	78.43
904.355	75.73
904.787	82.58
905.218	67.13
905.65	60.88
906.082	61.53
906.513	50.48
906.945	48.48
907.376	48.78
907.808	52.03
908.239	53.08
908.671	62.13
909.102	70.03
909.534	95.08
909.965	182.98
910.397	471.68
910.828	1352.42
911.259	833.83
911.691	450.53
912.122	258.73
912.553	133.63
912.984	78.33
913.415	63.13
913.847	59.18
914.278	56.18
914.709	47.48
915.14	43.38
915.571	45.08
916.002	41.78
916.433	43.58
916.864	46.53
917.295	49.83
917.726	55.53
918.157	69.08
918.587	66.83
919.018	60.43
919.449	59.03
919.88	70.28
920.311	103.98
920.741	276.98
921.172	501.62
921.603	256.33
922.033	166.23
922.464	107.63
922.895	66.62
923.325	47.08
923.756	45.43
924.186	56.28
924.617	85.08
925.047	117.83
925.478	107.18
925.908	78.53
926.338	58.53
926.769	41.13
927.199	37.78
927.629	34.98
928.06	38.43
928.49	38.53
928.92	35.73
929.35	35.18
929.78	29.13
930.21	28.03
930.641	22.38
931.071	25.58
931.501	24.78
931.931	24.73
932.361	23.33
932.791	28.48
933.221	29.08
933.651	35.53
934.08	63.43
934.51	42.48
934.94	29.53
935.37	23.43
935.8	21.78
936.229	21.88
936.659	20.28
937.089	42.28
937.519	65.68
937.948	85.68
938.378	46.88
938.807	28.88
939.237	20.03
939.666	15.33
940.096	9.93
940.525	9.43
940.955	17.03
941.384	11.48
941.814	11.38
942.243	7.68
942.672	13.03
943.102	8.33
943.531	10.33
943.96	8.63
944.39	13.33
944.819	13.58
945.248	15.33
945.677	10.73
946.106	11.78
946.535	14.48
946.964	11.33
947.393	6.43
947.822	11.83
948.251	13.33
948.68	12.68
949.109	10.88
949.538	7.33
949.967	11.68
950.396	9.78
950.825	11.33
951.254	11.98
951.682	3.68
952.111	8.83
952.54	5.23
952.969	2.83
953.397	4.33
953.826	3.68
954.254	7.33
954.683	9.23
955.112	8.78
955.54	6.23
955.969	6.03
956.397	6.53
956.826	6.03
957.254	10.28
957.682	12.08
958.111	9.08
958.539	9.58
958.967	7.68
959.396	11.88
959.824	7.83
960.252	6.23
960.68	8.98
961.109	10.68
961.537	12.78
961.965	0.28
962.393	9.62
962.821	6.58
963.249	9.28
963.677	14.88
964.105	84.93
964.533	142.78
964.961	71.38
965.389	42.88
965.817	20.73
966.245	8.78
966.672	7.98
967.1	9.98
967.528	6.53
967.956	7.73
968.383	5.18
968.811	7.18
969.239	8.08
969.666	6.03
970.094	5.78
970.522	3.98
970.949	7.18
971.377	0.03
971.804	6.93
972.232	3.83
972.659	12.08
973.087	6.88
973.514	-0.12
973.941	3.78
974.369	0.88
974.796	7.73
975.223	7.13
975.651	7.88
976.078	9.33
976.505	14.03
976.932	30.28
977.359	42.28
977.786	28.48
978.214	18.33
978.641	8.28
979.068	5.78
979.495	2.93
979.922	4.58
980.349	3.38
980.776	5.23
981.202	7.13
981.629	8.53
982.056	5.03
982.483	-3.97
982.91	9.03
983.337	-0.57
983.763	7.83
984.19	8.03
984.617	1.43
985.043	3.13
985.47	9.08
985.897	8.18
986.323	8.88
986.75	5.28
987.176	4.48
987.603	3.28
988.029	3.73
988.456	5.98
988.882	2.28
989.308	1.03
989.735	0.33
990.161	4.18
990.587	2.33
991.014	8.58
991.44	7.28
991.866	5.68
992.292	5.48
992.719	0.53
993.145	7.68
993.571	8.78
993.997	11.18
994.423	3.98
994.849	-3.37
995.275	5.48
995.701	5.58
996.127	-1.57
996.553	2.98
996.979	-1.72
997.405	6.98
997.83	1.83
998.256	6.28
998.682	2.18
999.108	4.08
999.534	0.23
999.959	2.08
1000.385	5.98
1000.811	2.78
1001.236	0.88
1001.662	1.08
1002.087	4.38
1002.513	3.88
1002.938	0.38
1003.364	4.48
1003.789	5.98
1004.215	5.08
1004.64	1.43
1005.066	4.83
1005.491	6.63
1005.916	4.18
1006.342	4.93
1006.767	4.93
1007.192	3.63
1007.617	0.08
1008.042	-0.42
1008.468	6.73
1008.893	8.98
1009.318	13.28
1009.743	17.53
1010.168	33.43
1010.593	27.23
1011.018	18.78
1011.443	10.78
1011.868	11.03
1012.293	8.48
1012.718	0.73
1013.143	1.88
1013.567	8.23
1013.992	4.93
1014.417	3.38
1014.842	4.78
1015.267	0.98
1015.691	6.68
1016.116	6.33
1016.541	4.18
1016.965	2.78
1017.39	8.03
1017.814	0.13
1018.239	-1.72
1018.663	-1.42
1019.088	-2.97
1019.512	3.88
1019.937	3.23
1020.361	-0.32
1020.785	-0.67
1021.21	-0.17
1021.634	-0.77
1022.058	-0.32
1022.483	-4.57
1022.907	-4.07
1023.331	-2.67
1023.755	0.38
1024.179	1.73
1024.604	2.73
1025.028	0.33
1025.452	1.48
1025.876	5.53
1026.3	0.33
1026.724	0.08
1027.148	4.28
1027.572	-1.67
1027.996	6.03
1028.42	0.48
1028.843	3.58
1029.267	0.18
1029.691	4.13
1030.115	3.88
1030.539	-0.37
1030.962	-2.87
1031.386	0.68
1031.81	-0.37
1032.233	-0.47
1032.657	-4.37
1033.08	-1.37
1033.504	-0.92
1033.927	-1.47
1034.351	-6.52
1034.774	-4.22
1035.198	-2.92
1035.621	-2.72
1036.045	-3.07
1036.468	4.93
1036.891	2.78
1037.315	2.03
1037.738	-1.02
1038.161	3.93
1038.584	-1.02
1039.008	-2.88
1039.431	-3.12
1039.854	-5.12
1040.277	0.53
1040.7	-2.12
1041.123	-2.07
1041.546	-3.12
1041.969	0.53
1042.392	1.73
1042.815	-2.27
1043.238	-1.22
1043.661	-1.92
1044.084	-0.22
1044.507	-2.22
1044.93	0.18
1045.352	0.48
1045.775	4.43
1046.198	1.93
1046.621	1.58
1047.043	-2.67
1047.466	-0.42
1047.889	0.93
1048.311	2.23
1048.734	1.13
1049.156	1.98
1049.579	1.88
1050.001	1.53
1050.424	-0.52
1050.846	0.28
1051.269	-2.47
1051.691	3.03
1052.113	2.23
1052.536	-1.32
1052.958	-6.32
1053.38	3.08
1053.802	-0.22
1054.225	0.83
1054.647	2.73
1055.069	-2.57
1055.491	2.33
1055.913	1.38
1056.335	-9.02
1056.757	-4.92
1057.179	2.58
1057.601	1.78
1058.023	-0.17
1058.445	-1.27
1058.867	4.73
1059.289	0.93
1059.711	1.83
1060.133	-0.42
1060.555	-6.17
1060.976	-0.92
1061.398	-5.32
1061.82	1.18
1062.241	-1.12
1062.663	-3.67
1063.085	-5.82
1063.506	-5.82
1063.928	-1.52
1064.35	3.13
1064.771	2.98
1065.193	-4.27
1065.614	-5.77
1066.035	4.23
1066.457	3.78
1066.878	-0.72
1067.3	-1.02
1067.721	3.13
1068.142	2.98
1068.564	3.68
1068.985	0.23
1069.406	-5.27
1069.827	-0.47
1070.248	-2.57
1070.67	-0.72
1071.091	-6.67
1071.512	-3.57
1071.933	-3.67
1072.354	-3.32
1072.775	-3.77
1073.196	0.83
1073.617	-7.72
1074.038	-3.22
1074.459	-3.22
1074.88	-4.17
1075.3	0.13
1075.721	-1.92
1076.142	-3.62
1076.563	-10.22
1076.983	-0.82
1077.404	-5.12
1077.825	0.33
1078.246	-4.97
1078.666	-4.38
1079.087	-3.57
1079.507	-2.97
1079.928	-0.17
1080.348	-2.67
1080.769	-1.37
1081.189	0.28
1081.61	-9.02
1082.03	-3.02
1082.451	-7.02
1082.871	-5.32
1083.291	-3.67
1083.711	-1.77
1084.132	-4.32
1084.552	-3.97
1084.972	-4.42
1085.392	-3.22
1085.813	0.78
1086.233	-4.57
1086.653	-4.22
1087.073	-3.82
1087.493	-1.72
1087.913	-6.97
1088.333	-2.92
1088.753	-0.52
1089.173	0.53
1089.593	0.18
1090.013	0.73
1090.433	-6.87
1090.852	0.13
1091.272	-6.67
1091.692	-3.82
1092.112	-7.52
1092.531	-4.88
1092.951	-2.02
1093.371	-0.57
1093.79	-3.67
1094.21	-1.12
1094.63	-1.07
1095.049	-1.77
1095.469	-8.67
1095.888	2.23
1096.308	0.63
1096.727	-0.62
1097.146	-5.57
1097.566	-5.32
1097.985	-3.27
1098.405	0.28
1098.824	2.98
1099.243	-1.47
1099.662	0.08
1100.082	-6.02
1100.501	-0.67
1100.92	3.48
1101.339	2.28
1101.758	3.73
