Data from MSPlasma+Separation6_Subt14_10-13-42-419.txt Node
Date: Fri Jul 21 10:13:42 EDT 2017
User: Ender
Spectrometer: HR+D1039
Trigger mode: 0
Integration Time (sec): 6.430000E-3
Scans to average: 20
Electric dark correction enabled: true
Nonlinearity correction enabled: false
Boxcar width: 0
XAxis mode: Wavelengths
Number of Pixels in Spectrum: 2048
>>>>>Begin Spectral Data<<<<<
187.836	-0.78
188.309	-0.78
188.782	-0.78
189.255	-1.48
189.728	1.17
190.201	1.42
190.674	-1.68
191.147	-3.28
191.619	0.27
192.092	-3.33
192.565	-1.28
193.038	3.57
193.511	-0.08
193.984	-0.38
194.456	1.42
194.929	4.42
195.402	-0.48
195.874	0.52
196.347	2.97
196.82	0.52
197.292	-0.78
197.765	-1.93
198.237	-2.88
198.71	-1.33
199.182	0.07
199.655	3.87
200.127	-0.03
200.6	1.22
201.072	0.12
201.544	-5.08
202.017	-0.13
202.489	1.97
202.961	2.47
203.433	-2.63
203.906	0.92
204.378	6.27
204.85	-0.33
205.322	2.27
205.794	4.47
206.266	-1.93
206.739	1.17
207.211	2.17
207.683	2.12
208.155	2.67
208.627	2.02
209.099	5.52
209.57	4.02
210.042	5.57
210.514	3.67
210.986	-3.78
211.458	1.52
211.93	3.07
212.402	1.07
212.873	-3.58
213.345	-1.13
213.817	7.12
214.288	-2.98
214.76	0.07
215.232	4.12
215.703	3.17
216.175	1.17
216.646	5.87
217.118	2.32
217.589	-1.78
218.061	0.72
218.532	-3.28
219.004	0.92
219.475	3.92
219.946	3.87
220.418	7.72
220.889	5.97
221.36	6.12
221.832	5.72
222.303	4.22
222.774	3.17
223.245	3.82
223.717	0.92
224.188	6.07
224.659	5.87
225.13	3.77
225.601	2.02
226.072	8.17
226.543	8.77
227.014	3.87
227.485	8.92
227.956	14.07
228.427	12.57
228.898	8.32
229.369	6.82
229.839	10.82
230.31	15.42
230.781	8.42
231.252	12.57
231.722	9.62
232.193	8.57
232.664	12.37
233.135	8.42
233.605	11.27
234.076	15.47
234.546	13.87
235.017	12.12
235.487	10.92
235.958	11.82
236.428	17.62
236.899	14.27
237.369	22.27
237.84	19.92
238.31	18.07
238.78	14.57
239.251	14.47
239.721	10.97
240.191	11.57
240.662	18.82
241.132	12.82
241.602	20.47
242.072	20.77
242.542	15.82
243.013	17.57
243.483	27.32
243.953	16.92
244.423	21.92
244.893	19.87
245.363	21.87
245.833	19.87
246.303	23.62
246.773	28.02
247.243	26.47
247.712	30.07
248.182	25.32
248.652	27.87
249.122	25.72
249.592	25.67
250.061	24.57
250.531	28.92
251.001	26.27
251.471	34.12
251.94	30.42
252.41	29.72
252.879	30.77
253.349	34.42
253.818	35.32
254.288	37.27
254.757	31.37
255.227	37.12
255.696	38.77
256.166	38.07
256.635	38.42
257.105	34.67
257.574	41.47
258.043	35.52
258.513	43.87
258.982	36.97
259.451	42.57
259.92	33.62
260.389	46.47
260.859	38.87
261.328	42.32
261.797	37.87
262.266	46.17
262.735	46.62
263.204	37.42
263.673	49.62
264.142	46.87
264.611	48.77
265.08	46.62
265.549	44.32
266.018	47.27
266.487	47.07
266.955	49.07
267.424	48.92
267.893	53.02
268.362	51.42
268.83	49.57
269.299	52.22
269.768	55.27
270.236	54.77
270.705	59.77
271.174	51.82
271.642	50.72
272.111	60.32
272.579	55.07
273.048	56.22
273.516	62.57
273.985	59.62
274.453	58.92
274.922	54.17
275.39	58.02
275.858	61.52
276.327	61.37
276.795	62.12
277.263	65.22
277.731	65.27
278.2	67.82
278.668	65.87
279.136	69.22
279.604	69.02
280.072	70.77
280.54	69.57
281.008	77.52
281.477	72.97
281.945	75.72
282.413	70.42
282.881	75.87
283.348	72.57
283.816	75.37
284.284	79.32
284.752	77.67
285.22	79.27
285.688	75.97
286.156	80.92
286.623	84.72
287.091	83.02
287.559	85.37
288.026	82.72
288.494	83.57
288.962	85.72
289.429	82.37
289.897	83.87
290.364	81.77
290.832	86.12
291.3	89.17
291.767	86.77
292.234	88.32
292.702	93.12
293.169	95.92
293.637	94.62
294.104	93.37
294.571	94.57
295.039	97.47
295.506	92.47
295.973	98.22
296.44	95.72
296.908	100.27
297.375	100.32
297.842	101.72
298.309	99.47
298.776	95.97
299.243	104.12
299.71	106.27
300.177	103.32
300.644	107.32
301.111	105.27
301.578	112.67
302.045	103.97
302.512	108.87
302.979	111.22
303.446	117.42
303.913	117.42
304.379	126.37
304.846	122.42
305.313	128.17
305.78	131.87
306.246	129.77
306.713	130.32
307.18	127.92
307.646	130.07
308.113	131.42
308.579	135.17
309.046	139.07
309.512	138.87
309.979	142.17
310.445	141.57
310.912	143.37
311.378	144.37
311.845	147.62
312.311	143.22
312.777	145.12
313.244	147.62
313.71	151.57
314.176	155.27
314.642	157.92
315.109	152.62
315.575	156.02
316.041	155.42
316.507	157.27
316.973	162.82
317.439	161.62
317.905	165.57
318.371	157.37
318.837	159.07
319.303	161.32
319.769	161.12
320.235	172.12
320.701	173.07
321.167	169.77
321.633	175.32
322.099	165.47
322.564	179.12
323.03	173.27
323.496	173.77
323.962	181.37
324.427	185.67
324.893	179.42
325.359	187.47
325.824	188.72
326.29	192.52
326.755	187.42
327.221	188.47
327.686	202.72
328.152	203.27
328.617	206.72
329.083	203.22
329.548	203.97
330.014	208.52
330.479	211.57
330.944	213.42
331.41	222.32
331.875	204.47
332.34	206.67
332.805	216.67
333.271	211.47
333.736	218.77
334.201	224.32
334.666	240.42
335.131	235.82
335.596	235.02
336.061	227.87
336.526	229.72
336.991	216.67
337.456	219.57
337.921	217.72
338.386	219.47
338.851	218.32
339.316	225.07
339.781	222.72
340.246	230.77
340.711	224.17
341.175	235.62
341.64	242.32
342.105	243.37
342.569	253.77
343.034	247.22
343.499	247.52
343.963	258.82
344.428	255.37
344.893	258.87
345.357	260.27
345.822	267.27
346.286	272.52
346.751	278.77
347.215	277.07
347.679	286.02
348.144	299.47
348.608	302.07
349.073	302.42
349.537	312.17
350.001	313.32
350.465	313.22
350.93	308.62
351.394	322.07
351.858	314.12
352.322	325.02
352.786	326.17
353.25	326.37
353.715	333.32
354.179	343.17
354.643	351.47
355.107	359.72
355.571	349.47
356.035	346.82
356.498	344.27
356.962	344.37
357.426	341.32
357.89	346.67
358.354	341.07
358.818	331.02
359.281	334.47
359.745	343.87
360.209	346.82
360.673	341.57
361.136	343.87
361.6	348.72
362.064	352.47
362.527	362.02
362.991	363.12
363.454	358.07
363.918	363.32
364.381	367.72
364.845	365.52
365.308	365.32
365.772	372.72
366.235	372.07
366.698	369.87
367.162	371.42
367.625	372.67
368.088	386.67
368.552	380.82
369.015	386.22
369.478	384.67
369.941	387.27
370.404	393.72
370.867	384.12
371.331	393.42
371.794	407.12
372.257	398.97
372.72	400.52
373.183	408.32
373.646	409.02
374.109	408.27
374.572	408.57
375.035	410.37
375.497	418.92
375.96	428.12
376.423	429.37
376.886	433.62
377.349	443.32
377.811	445.52
378.274	444.57
378.737	439.42
379.199	446.92
379.662	450.42
380.125	455.77
380.587	459.62
381.05	465.37
381.512	467.52
381.975	483.82
382.437	492.02
382.9	489.32
383.362	491.92
383.825	492.22
384.287	501.82
384.75	488.77
385.212	499.67
385.674	503.87
386.136	499.32
386.599	504.97
387.061	503.52
387.523	504.47
387.985	508.22
388.447	517.27
388.91	513.72
389.372	517.92
389.834	519.47
390.296	511.67
390.758	521.97
391.22	518.87
391.682	518.42
392.144	512.12
392.606	520.27
393.068	541.27
393.529	567.72
393.991	577.47
394.453	553.32
394.915	545.42
395.377	524.27
395.838	533.97
396.3	533.97
396.762	546.12
397.224	539.47
397.685	538.92
398.147	539.47
398.608	553.27
399.07	561.12
399.531	557.07
399.993	568.37
400.454	578.82
400.916	574.47
401.377	589.32
401.839	593.27
402.3	601.92
402.762	623.67
403.223	666.52
403.684	661.47
404.145	641.92
404.607	628.62
405.068	610.07
405.529	625.12
405.99	629.17
406.451	645.82
406.913	635.17
407.374	634.42
407.835	633.02
408.296	648.97
408.757	651.52
409.218	674.32
409.679	681.62
410.14	686.02
410.601	703.47
411.062	699.92
411.522	705.57
411.983	703.67
412.444	712.92
412.905	721.82
413.366	756.42
413.826	785.77
414.287	880.17
414.748	1039.27
415.208	1065.02
415.669	892.82
416.13	819.07
416.59	790.57
417.051	821.37
417.511	867.62
417.972	931.27
418.432	996.17
418.893	1101.87
419.353	1054.92
419.814	818.72
420.274	729.57
420.734	719.62
421.195	738.72
421.655	742.57
422.115	758.82
422.576	746.67
423.036	757.92
423.496	783.82
423.956	809.47
424.416	870.92
424.876	977.92
425.336	970.72
425.797	954.12
426.257	946.12
426.717	891.02
427.177	827.02
427.637	837.07
428.097	865.72
428.556	900.27
429.016	958.57
429.476	963.57
429.936	944.82
430.396	935.32
430.856	962.17
431.315	982.87
431.775	1054.12
432.235	1130.92
432.694	1141.92
433.154	1073.67
433.614	1057.77
434.073	1019.62
434.533	923.22
434.993	897.72
435.452	894.92
435.912	878.57
436.371	883.67
436.83	867.27
437.29	848.02
437.749	829.17
438.209	827.57
438.668	841.22
439.127	854.17
439.587	841.02
440.046	817.37
440.505	835.27
440.964	843.32
441.424	865.57
441.883	888.72
442.342	835.02
442.801	793.22
443.26	819.77
443.719	803.77
444.178	798.47
444.637	810.47
445.096	820.57
445.555	837.77
446.014	827.47
446.473	820.77
446.932	822.37
447.391	829.27
447.849	841.72
448.308	832.27
448.767	836.17
449.226	853.82
449.685	871.17
450.143	901.17
450.602	904.92
451.061	857.67
451.519	853.32
451.978	844.57
452.436	840.57
452.895	850.72
453.353	842.77
453.812	832.82
454.27	831.67
454.729	839.87
455.187	850.37
455.646	850.12
456.104	851.47
456.562	860.02
457.021	871.47
457.479	846.27
457.937	877.52
458.395	893.17
458.854	876.37
459.312	865.62
459.77	872.17
460.228	888.17
460.686	897.42
461.144	895.97
461.602	885.17
462.06	896.72
462.518	913.92
462.976	911.52
463.434	931.02
463.892	936.92
464.35	950.32
464.808	957.92
465.266	973.62
465.724	981.47
466.181	997.12
466.639	984.87
467.097	1029.27
467.555	1051.82
468.012	1052.42
468.47	1059.97
468.928	1095.92
469.385	1125.82
469.843	1136.92
470.3	1127.42
470.758	1166.57
471.215	1177.62
471.673	1206.72
472.13	1240.12
472.588	1264.57
473.045	1254.47
473.503	1278.92
473.96	1339.47
474.417	1343.52
474.875	1398.32
475.332	1455.52
475.789	1477.57
476.246	1514.77
476.704	1584.72
477.161	1631.67
477.618	1664.67
478.075	1747.82
478.532	1878.92
478.989	2007.42
479.446	2203.02
479.903	2306.62
480.36	2492.02
480.817	2613.67
481.274	2796.27
481.731	3023.97
482.188	3237.07
482.645	3456.37
483.102	3661.22
483.558	3903.52
484.015	4074.97
484.472	4046.62
484.929	3926.32
485.385	3751.82
485.842	3689.47
486.299	3552.72
486.755	3292.42
487.212	2996.27
487.668	2703.82
488.125	2532.17
488.582	2357.37
489.038	2280.47
489.494	2224.17
489.951	2155.87
490.407	2110.12
490.864	2076.27
491.32	2033.07
491.776	2008.42
492.233	2020.22
492.689	1989.87
493.145	1961.22
493.602	1927.72
494.058	1947.67
494.514	1963.32
494.97	1959.77
495.426	1997.62
495.882	1980.12
496.338	1983.77
496.794	1993.37
497.251	1990.97
497.707	2008.97
498.163	2016.12
498.618	2011.12
499.074	2006.97
499.53	2033.47
499.986	2045.77
500.442	2030.67
500.898	2010.22
501.354	2020.17
501.809	2027.42
502.265	2027.42
502.721	2037.12
503.177	2040.77
503.632	2048.72
504.088	2061.67
504.543	2087.17
504.999	2108.27
505.455	2103.82
505.91	2074.72
506.366	2070.82
506.821	2096.47
507.277	2067.82
507.732	2069.67
508.187	2080.57
508.643	2104.62
509.098	2109.57
509.553	2123.42
510.009	2146.07
510.464	2200.52
510.919	2197.12
511.375	2227.12
511.83	2239.12
512.285	2287.67
512.74	2335.57
513.195	2362.17
513.65	2393.37
514.105	2432.22
514.56	2436.87
515.015	2487.47
515.47	2482.42
515.925	2458.32
516.38	2455.32
516.835	2467.02
517.29	2453.82
517.745	2452.67
518.2	2423.32
518.655	2367.97
519.109	2345.67
519.564	2310.57
520.019	2285.17
520.474	2277.97
520.928	2264.97
521.383	2243.72
521.838	2242.77
522.292	2215.97
522.747	2205.52
523.201	2190.52
523.656	2176.72
524.11	2177.37
524.565	2171.07
525.019	2168.22
525.474	2158.22
525.928	2140.27
526.382	2153.72
526.837	2152.62
527.291	2165.67
527.745	2151.82
528.2	2151.82
528.654	2113.97
529.108	2135.87
529.562	2126.77
530.016	2143.52
530.47	2131.62
530.925	2110.72
531.379	2126.02
531.833	2162.62
532.287	2140.47
532.741	2136.57
533.195	2133.57
533.649	2151.27
534.103	2146.32
534.556	2134.17
535.01	2139.42
535.464	2136.42
535.918	2132.27
536.372	2146.82
536.826	2136.17
537.279	2117.82
537.733	2128.87
538.187	2131.27
538.64	2136.27
539.094	2142.22
539.548	2173.37
540.001	2172.42
540.455	2187.32
540.908	2201.67
541.362	2210.97
541.815	2224.37
542.269	2275.57
542.722	2258.02
543.175	2287.82
543.629	2296.57
544.082	2319.32
544.536	2337.97
544.989	2347.57
545.442	2359.57
545.895	2361.27
546.349	2348.57
546.802	2364.17
547.255	2355.17
547.708	2383.17
548.161	2409.02
548.614	2407.12
549.067	2414.57
549.52	2396.62
549.973	2373.22
550.426	2366.02
550.879	2357.27
551.332	2355.52
551.785	2371.27
552.238	2394.77
552.691	2395.82
553.144	2434.17
553.596	2476.22
554.049	2500.17
554.502	2553.82
554.955	2588.27
555.407	2622.17
555.86	2599.32
556.313	2567.27
556.765	2549.57
557.218	2499.97
557.67	2507.12
558.123	2468.97
558.576	2466.47
559.028	2444.57
559.48	2494.57
559.933	2466.22
560.385	2398.67
560.838	2318.77
561.29	2274.97
561.742	2241.07
562.195	2194.47
562.647	2179.92
563.099	2175.52
563.551	2152.72
564.004	2180.02
564.456	2152.02
564.908	2114.17
565.36	2074.92
565.812	2019.17
566.264	2010.62
566.716	1980.62
567.168	1952.72
567.62	1943.32
568.072	1928.47
568.524	1913.57
568.976	1922.92
569.428	1897.22
569.88	1898.77
570.332	1909.02
570.784	1916.67
571.235	1906.27
571.687	1926.52
572.139	1920.77
572.59	1923.42
573.042	1941.77
573.494	1948.37
573.945	1919.67
574.397	1880.97
574.849	1882.32
575.3	1893.27
575.752	1852.37
576.203	1841.57
576.655	1842.12
577.106	1817.57
577.557	1809.82
578.009	1807.07
578.46	1811.47
578.912	1779.92
579.363	1815.67
579.814	1793.47
580.265	1790.12
580.717	1791.07
581.168	1793.62
581.619	1796.22
582.07	1826.42
582.521	1814.37
582.972	1801.17
583.423	1810.42
583.875	1820.12
584.326	1827.87
584.777	1866.32
585.227	1900.17
585.678	1921.82
586.129	1927.87
586.58	1957.32
587.031	1973.97
587.482	2036.37
587.933	2051.52
588.384	2059.32
588.834	2032.67
589.285	2016.97
589.736	2016.32
590.186	2026.17
590.637	1998.52
591.088	1967.42
591.538	1925.87
591.989	1898.07
592.439	1875.37
592.89	1864.77
593.34	1851.77
593.791	1836.87
594.241	1825.67
594.692	1825.12
595.142	1820.12
595.593	1822.97
596.043	1827.47
596.493	1843.82
596.943	1852.12
597.394	1886.37
597.844	1911.17
598.294	1963.27
598.744	2021.32
599.195	2110.22
599.645	2224.82
600.095	2341.07
600.545	2455.02
600.995	2542.32
601.445	2631.82
601.895	2770.77
602.345	2844.62
602.795	2811.87
603.245	2709.47
603.695	2555.77
604.145	2431.32
604.594	2315.82
605.044	2194.12
605.494	2067.62
605.944	1943.27
606.393	1895.62
606.843	1868.22
607.293	1867.22
607.743	1849.17
608.192	1857.57
608.642	1861.32
609.091	1848.97
609.541	1849.72
609.99	1852.92
610.44	1813.72
610.889	1794.92
611.339	1766.52
611.788	1751.67
612.238	1767.42
612.687	1765.12
613.136	1777.57
613.586	1789.47
614.035	1781.42
614.484	1798.77
614.933	1795.92
615.383	1770.42
615.832	1719.47
616.281	1706.07
616.73	1663.77
617.179	1632.57
617.628	1595.82
618.077	1574.07
618.526	1541.57
618.975	1536.72
619.424	1504.92
619.873	1515.67
620.322	1495.67
620.771	1494.32
621.22	1477.97
621.669	1449.82
622.118	1424.72
622.567	1420.47
623.015	1398.52
623.464	1394.02
623.913	1375.82
624.361	1382.32
624.81	1376.72
625.259	1370.62
625.707	1363.52
626.156	1374.37
626.604	1394.37
627.053	1395.77
627.501	1389.32
627.95	1401.27
628.398	1417.87
628.847	1398.62
629.295	1392.27
629.744	1383.12
630.192	1360.62
630.64	1343.52
631.089	1327.77
631.537	1293.77
631.985	1272.77
632.433	1269.42
632.881	1265.27
633.33	1275.07
633.778	1274.42
634.226	1285.27
634.674	1291.37
635.122	1294.72
635.57	1318.87
636.018	1342.12
636.466	1332.22
636.914	1345.12
637.362	1374.92
637.81	1376.72
638.258	1413.77
638.705	1442.77
639.153	1485.92
639.601	1495.82
640.049	1526.52
640.497	1573.52
640.944	1605.57
641.392	1542.72
641.84	1459.47
642.287	1398.82
642.735	1371.72
643.182	1346.37
643.63	1356.57
644.078	1360.27
644.525	1378.92
644.973	1408.62
645.42	1435.57
645.867	1458.02
646.315	1500.92
646.762	1550.57
647.21	1581.77
647.657	1666.27
648.104	1717.97
648.551	1760.12
648.999	1873.77
649.446	2044.02
649.893	2286.57
650.34	2634.57
650.787	3229.22
651.234	4121.47
651.682	5622.82
652.129	7870.82
652.576	11118.22
653.023	14586.77
653.47	15533.82
653.917	15533.87
654.363	15533.77
654.81	15530.77
655.257	15531.42
655.704	14369.02
656.151	8736.17
656.598	5789.02
657.044	4185.52
657.491	3297.12
657.938	2703.12
658.385	2310.32
658.831	2053.92
659.278	1850.02
659.724	1700.12
660.171	1586.02
660.618	1477.92
661.064	1396.57
661.511	1359.22
661.957	1319.92
662.404	1302.12
662.85	1282.72
663.296	1269.27
663.743	1244.62
664.189	1231.87
664.635	1209.32
665.082	1189.82
665.528	1169.62
665.974	1143.77
666.42	1127.87
666.867	1119.72
667.313	1069.47
667.759	1049.12
668.205	1043.62
668.651	1051.12
669.097	1055.42
669.543	1053.47
669.989	1062.82
670.435	1067.37
670.881	1074.97
671.327	1116.52
671.773	1198.22
672.219	1276.52
672.665	1370.72
673.11	1408.02
673.556	1426.92
674.002	1451.27
674.448	1472.27
674.893	1257.22
675.339	1098.82
675.785	1012.07
676.23	969.47
676.676	925.77
677.122	903.82
677.567	878.72
678.013	850.17
678.458	840.37
678.904	842.77
679.349	834.37
679.794	837.62
680.24	828.62
680.685	820.92
681.131	819.92
681.576	824.47
682.021	829.27
682.466	833.17
682.912	845.97
683.357	889.67
683.802	966.17
684.247	1051.47
684.692	1121.92
685.137	1167.82
685.583	1185.72
686.028	1253.67
686.473	1193.62
686.918	1032.97
687.363	940.07
687.807	890.47
688.252	849.32
688.697	830.32
689.142	795.72
689.587	806.32
690.032	817.22
690.477	850.42
690.921	886.82
691.366	939.57
691.811	969.67
692.255	1060.27
692.7	1272.87
693.145	1822.62
693.589	2777.47
694.034	3330.42
694.478	3560.02
694.923	3275.17
695.367	4626.17
695.812	2836.52
696.256	1202.67
696.701	879.37
697.145	813.62
697.59	783.17
698.034	768.12
698.478	763.87
698.922	774.87
699.367	779.47
699.811	829.37
700.255	891.12
700.699	970.17
701.143	1054.12
701.588	1124.77
702.032	1173.52
702.476	1208.97
702.92	1286.87
703.364	1670.67
703.808	2557.12
704.252	3189.32
704.696	3389.87
705.14	3194.22
705.584	4382.22
706.027	2442.52
706.471	1227.62
706.915	920.17
707.359	816.47
707.803	767.27
708.246	737.62
708.69	733.57
709.134	719.57
709.577	721.97
710.021	722.32
710.465	727.57
710.908	713.87
711.352	749.27
711.795	824.62
712.239	888.92
712.682	904.07
713.126	896.72
713.569	999.62
714.012	826.42
714.456	716.37
714.899	675.77
715.342	640.17
715.786	619.82
716.229	609.57
716.672	587.97
717.115	592.72
717.558	600.77
718.002	614.67
718.445	636.82
718.888	665.42
719.331	687.07
719.774	690.62
720.217	688.17
720.66	647.97
721.103	620.42
721.546	584.17
721.989	568.92
722.432	555.42
722.874	559.02
723.317	572.72
723.76	608.02
724.203	747.32
724.645	1005.87
725.088	1182.37
725.531	1167.32
725.974	1268.82
726.416	1145.07
726.859	705.82
727.301	577.82
727.744	548.82
728.187	560.87
728.629	570.47
729.071	594.67
729.514	621.97
729.956	653.02
730.399	661.02
730.841	656.92
731.283	647.87
731.726	628.62
732.168	636.22
732.61	665.47
733.053	720.97
733.495	797.07
733.937	887.12
734.379	1043.42
734.821	1322.87
735.263	2090.82
735.705	3775.02
736.148	5544.62
736.59	5611.42
737.032	6071.47
737.474	5018.57
737.916	1936.62
738.357	1005.82
738.799	778.52
739.241	724.42
739.683	732.42
740.125	753.67
740.567	763.97
741.008	808.37
741.45	846.77
741.892	887.87
742.334	900.57
742.775	891.67
743.217	862.42
743.658	725.82
744.1	747.72
744.542	862.72
744.983	889.77
745.425	935.57
745.866	912.77
746.307	751.92
746.749	789.77
747.19	1134.72
747.632	2202.72
748.073	4093.32
748.514	5686.07
748.956	7563.52
749.397	8873.97
749.838	6176.52
750.279	5868.47
750.72	3040.67
751.162	1285.72
751.603	743.97
752.044	595.27
752.485	532.57
752.926	494.52
753.367	476.82
753.808	459.22
754.249	451.87
754.69	449.92
755.131	436.92
755.572	444.37
756.013	448.62
756.453	443.97
756.894	454.17
757.335	454.27
757.776	454.12
758.216	475.52
758.657	506.77
759.098	556.17
759.538	665.27
759.979	958.62
760.42	1940.32
760.86	4935.42
761.301	10239.42
761.741	12178.27
762.182	13924.47
762.622	9110.52
763.063	3231.22
763.503	1323.07
763.943	781.67
764.384	623.77
764.824	534.57
765.264	493.27
765.705	462.42
766.145	439.42
766.585	424.02
767.025	410.77
767.465	412.42
767.906	424.07
768.346	450.37
768.786	522.32
769.226	758.27
769.666	1504.57
770.106	3408.42
770.546	4896.02
770.986	5561.17
771.426	4215.97
771.866	1753.82
772.306	796.52
772.745	496.12
773.185	417.72
773.625	406.17
774.065	440.77
774.505	622.57
774.944	1126.57
775.384	1635.82
775.824	1843.67
776.263	1526.82
776.703	803.92
777.142	460.77
777.582	346.87
778.021	312.07
778.461	297.27
778.9	301.27
779.34	285.47
779.779	283.27
780.219	272.02
780.658	271.42
781.097	265.22
781.537	257.32
781.976	258.97
782.415	256.07
782.855	260.82
783.294	253.02
783.733	251.82
784.172	257.82
784.611	256.77
785.05	261.22
785.489	271.12
785.928	274.97
786.367	288.07
786.806	303.12
787.245	330.22
787.684	337.37
788.123	332.07
788.562	322.72
789.001	304.12
789.44	302.32
789.879	297.92
790.317	305.22
790.756	324.87
791.195	363.42
791.634	490.97
792.072	877.87
792.511	2154.42
792.95	3993.92
793.388	4871.82
793.827	3177.17
794.265	1446.62
794.704	701.02
795.142	431.67
795.581	355.77
796.019	319.97
796.458	321.92
796.896	328.82
797.334	374.12
797.773	507.32
798.211	955.92
798.649	1989.97
799.087	3350.97
799.526	4774.72
799.964	4928.52
800.402	3417.02
800.84	1542.62
801.278	751.07
801.716	460.32
802.154	373.62
802.592	353.37
803.03	346.37
803.468	359.52
803.906	360.87
804.344	352.57
804.782	349.37
805.22	348.47
805.658	364.77
806.096	383.17
806.533	423.57
806.971	548.52
807.409	789.37
807.847	1568.27
808.284	3998.27
808.722	7052.67
809.16	9873.67
809.597	13317.97
810.035	15535.77
810.472	10926.47
810.91	4617.67
811.347	2066.57
811.785	979.92
812.222	614.97
812.66	474.47
813.097	406.32
813.535	352.77
813.972	315.37
814.409	294.62
814.846	278.92
815.284	266.62
815.721	273.22
816.158	310.42
816.595	416.47
817.032	526.67
817.47	481.07
817.907	346.17
818.344	300.87
818.781	297.37
819.218	362.32
819.655	551.92
820.092	736.47
820.529	661.22
820.966	521.52
821.403	355.42
821.839	302.27
822.276	338.97
822.713	396.62
823.15	371.17
823.587	385.67
824.023	658.97
824.46	1632.02
824.897	2893.62
825.333	2267.12
825.77	1038.02
826.206	540.52
826.643	323.12
827.08	237.02
827.516	209.07
827.953	194.72
828.389	186.42
828.825	176.72
829.262	168.82
829.698	162.37
830.135	150.47
830.571	151.02
831.007	162.97
831.443	158.57
831.88	158.97
832.316	166.72
832.752	162.47
833.188	169.77
833.624	172.52
834.06	175.97
834.497	168.22
834.933	169.67
835.369	188.37
835.805	204.62
836.241	204.37
836.677	233.27
837.112	262.47
837.548	328.82
837.984	482.62
838.42	1031.87
838.856	2872.72
839.292	5720.57
839.727	4303.72
840.163	2855.22
840.599	4314.92
841.034	6636.92
841.47	3363.42
841.906	1604.67
842.341	872.07
842.777	645.72
843.212	682.67
843.648	425.72
844.083	279.82
844.519	215.37
844.954	179.97
845.39	160.97
845.825	157.77
846.261	148.82
846.696	142.32
847.131	137.82
847.566	140.32
848.002	141.02
848.437	150.47
848.872	155.52
849.307	196.42
849.742	359.27
850.177	933.47
850.613	2021.02
851.048	1469.42
851.483	672.87
851.918	369.02
852.353	203.07
852.788	149.02
853.223	136.72
853.657	119.12
854.092	121.27
854.527	118.57
854.962	126.37
855.397	136.97
855.832	119.02
856.266	111.27
856.701	106.42
857.136	116.22
857.57	137.42
858.005	164.37
858.44	140.72
858.874	132.97
859.309	132.02
859.743	130.47
860.178	120.82
860.612	139.87
861.047	189.22
861.481	267.07
861.915	183.97
862.35	136.37
862.784	108.32
863.218	109.92
863.653	109.57
864.087	137.72
864.521	167.42
864.955	274.07
865.39	478.12
865.824	369.72
866.258	489.87
866.692	749.62
867.126	541.82
867.56	290.17
867.994	182.47
868.428	157.12
868.862	192.47
869.296	180.27
869.73	218.67
870.164	185.32
870.598	171.17
871.031	116.27
871.465	103.27
871.899	85.37
872.333	70.32
872.766	76.17
873.2	79.52
873.634	74.17
874.067	79.27
874.501	77.97
874.935	77.07
875.368	74.97
875.802	75.77
876.235	71.62
876.669	68.42
877.102	65.82
877.535	62.52
877.969	61.02
878.402	64.67
878.836	59.87
879.269	60.57
879.702	59.77
880.135	64.22
880.569	65.37
881.002	57.12
881.435	58.97
881.868	59.02
882.301	55.07
882.734	52.67
883.167	62.72
883.601	55.27
884.034	57.62
884.467	51.92
884.899	55.62
885.332	50.77
885.765	48.07
886.198	50.97
886.631	43.47
887.064	50.87
887.497	47.62
887.929	49.07
888.362	46.52
888.795	48.22
889.228	53.72
889.66	47.17
890.093	46.27
890.526	46.92
890.958	48.67
891.391	44.42
891.823	43.47
892.256	46.42
892.688	44.52
893.121	41.32
893.553	50.72
893.985	40.87
894.418	38.77
894.85	48.52
895.282	43.37
895.715	44.12
896.147	42.52
896.579	41.72
897.011	46.62
897.444	43.97
897.876	43.07
898.308	42.77
898.74	46.42
899.172	45.07
899.604	43.02
900.036	45.02
900.468	39.42
900.9	48.02
901.332	56.62
901.764	62.67
902.196	57.82
902.628	60.22
903.06	91.37
903.491	98.12
903.923	77.87
904.355	75.47
904.787	80.12
905.218	66.12
905.65	59.12
906.082	53.37
906.513	53.22
906.945	51.07
907.376	50.02
907.808	52.67
908.239	54.52
908.671	63.37
909.102	71.72
909.534	95.52
909.965	180.72
910.397	467.32
910.828	1341.27
911.259	835.47
911.691	448.27
912.122	255.82
912.553	131.47
912.984	74.72
913.415	70.42
913.847	61.12
914.278	51.27
914.709	52.57
915.14	47.12
915.571	50.07
916.002	43.17
916.433	44.57
916.864	42.17
917.295	44.02
917.726	52.32
918.157	66.12
918.587	65.62
919.018	61.87
919.449	54.67
919.88	66.27
920.311	106.67
920.741	282.47
921.172	497.07
921.603	249.87
922.033	158.67
922.464	100.97
922.895	63.52
923.325	45.37
923.756	42.02
924.186	60.02
924.617	78.77
925.047	120.02
925.478	106.42
925.908	76.97
926.338	56.02
926.769	42.02
927.199	42.47
927.629	38.07
928.06	40.47
928.49	37.12
928.92	35.47
929.35	31.42
929.78	24.37
930.21	29.82
930.641	24.07
931.071	24.92
931.501	22.57
931.931	25.27
932.361	26.07
932.791	29.87
933.221	26.22
933.651	45.27
934.08	66.77
934.51	37.92
934.94	29.07
935.37	27.02
935.8	23.47
936.229	19.82
936.659	21.87
937.089	43.47
937.519	64.67
937.948	87.07
938.378	53.02
938.807	29.17
939.237	17.67
939.666	16.62
940.096	16.92
940.525	6.67
940.955	18.12
941.384	11.67
941.814	12.72
942.243	10.42
942.672	11.07
943.102	10.17
943.531	8.57
943.96	10.47
944.39	13.67
944.819	13.07
945.248	13.02
945.677	13.52
946.106	10.67
946.535	9.37
946.964	9.82
947.393	9.92
947.822	7.37
948.251	15.72
948.68	10.97
949.109	9.42
949.538	9.42
949.967	7.02
950.396	12.67
950.825	11.17
951.254	12.77
951.682	3.82
952.111	3.67
952.54	8.92
952.969	8.22
953.397	6.12
953.826	9.22
954.254	14.07
954.683	12.92
955.112	14.02
955.54	7.77
955.969	10.37
956.397	10.22
956.826	8.87
957.254	6.67
957.682	7.97
958.111	8.27
958.539	10.47
958.967	12.67
959.396	13.37
959.824	8.47
960.252	11.22
960.68	11.17
961.109	10.32
961.537	15.22
961.965	5.62
962.393	8.67
962.821	13.67
963.249	11.82
963.677	21.42
964.105	84.57
964.533	146.22
964.961	73.32
965.389	40.22
965.817	26.22
966.245	14.72
966.672	10.12
967.1	6.57
967.528	2.52
967.956	7.27
968.383	6.02
968.811	2.02
969.239	6.57
969.666	8.42
970.094	2.52
970.522	1.22
970.949	2.92
971.377	1.27
971.804	4.32
972.232	6.17
972.659	3.47
973.087	6.12
973.514	-0.33
973.941	3.72
974.369	2.87
974.796	8.27
975.223	1.62
975.651	5.67
976.078	6.12
976.505	13.07
976.932	33.72
977.359	41.87
977.786	25.27
978.214	20.22
978.641	7.07
979.068	7.52
979.495	6.27
979.922	5.42
980.349	5.77
980.776	3.97
981.202	6.37
981.629	9.12
982.056	6.37
982.483	-3.03
982.91	11.12
983.337	2.82
983.763	2.67
984.19	6.57
984.617	4.62
985.043	8.67
985.47	8.47
985.897	5.52
986.323	8.62
986.75	3.67
987.176	4.52
987.603	1.97
988.029	6.32
988.456	12.42
988.882	2.32
989.308	1.62
989.735	-0.83
990.161	2.82
990.587	3.62
991.014	3.52
991.44	3.97
991.866	6.57
992.292	2.87
992.719	6.77
993.145	3.67
993.571	8.67
993.997	8.72
994.423	6.42
994.849	3.27
995.275	3.37
995.701	6.12
996.127	-1.68
996.553	3.17
996.979	-0.38
997.405	9.72
997.83	8.02
998.256	5.27
998.682	3.47
999.108	5.52
999.534	-2.78
999.959	0.47
1000.385	7.07
1000.811	2.77
1001.236	-1.28
1001.662	0.87
1002.087	6.57
1002.513	4.02
1002.938	-2.08
1003.364	5.57
1003.789	3.12
1004.215	1.42
1004.64	4.87
1005.066	5.87
1005.491	8.77
1005.916	5.67
1006.342	6.27
1006.767	5.72
1007.192	7.47
1007.617	3.67
1008.042	4.02
1008.468	2.07
1008.893	7.02
1009.318	6.62
1009.743	20.57
1010.168	32.82
1010.593	25.07
1011.018	18.37
1011.443	10.22
1011.868	10.27
1012.293	5.12
1012.718	0.62
1013.143	6.27
1013.567	6.07
1013.992	5.12
1014.417	4.92
1014.842	3.92
1015.267	-0.58
1015.691	6.82
1016.116	3.02
1016.541	5.47
1016.965	4.62
1017.39	2.87
1017.814	-1.78
1018.239	-5.23
1018.663	-1.53
1019.088	1.27
1019.512	7.62
1019.937	0.77
1020.361	1.97
1020.785	1.17
1021.21	2.92
1021.634	3.62
1022.058	7.02
1022.483	-4.88
1022.907	-6.03
1023.331	-4.03
1023.755	-4.23
1024.179	-1.03
1024.604	2.87
1025.028	0.62
1025.452	3.07
1025.876	6.07
1026.3	0.87
1026.724	-1.13
1027.148	3.17
1027.572	3.17
1027.996	6.57
1028.42	1.72
1028.843	5.32
1029.267	-3.73
1029.691	2.87
1030.115	-0.63
1030.539	1.22
1030.962	-2.33
1031.386	1.37
1031.81	1.42
1032.233	-3.58
1032.657	-5.63
1033.08	-0.28
1033.504	-3.53
1033.927	4.72
1034.351	-3.03
1034.774	-1.68
1035.198	-2.23
1035.621	2.42
1036.045	0.47
1036.468	5.72
1036.891	1.92
1037.315	6.37
1037.738	2.17
1038.161	-1.18
1038.584	0.27
1039.008	2.62
1039.431	-2.03
1039.854	-5.63
1040.277	3.02
1040.7	2.52
1041.123	1.42
1041.546	-3.13
1041.969	3.02
1042.392	5.57
1042.815	-5.98
1043.238	2.97
1043.661	-1.48
1044.084	-4.08
1044.507	4.37
1044.93	1.02
1045.352	4.17
1045.775	3.82
1046.198	3.67
1046.621	5.22
1047.043	-0.08
1047.466	4.52
1047.889	-3.23
1048.311	6.92
1048.734	-0.98
1049.156	-2.13
1049.579	-3.33
1050.001	0.22
1050.424	0.37
1050.846	0.62
1051.269	-4.83
1051.691	0.92
1052.113	2.12
1052.536	3.47
1052.958	-0.33
1053.38	1.42
1053.802	2.62
1054.225	4.32
1054.647	1.67
1055.069	-3.03
1055.491	4.52
1055.913	2.32
1056.335	-4.43
1056.757	-4.38
1057.179	-3.98
1057.601	-1.13
1058.023	1.12
1058.445	-2.98
1058.867	2.62
1059.289	-0.78
1059.711	-4.23
1060.133	-1.33
1060.555	-1.98
1060.976	0.67
1061.398	1.42
1061.82	4.77
1062.241	-4.53
1062.663	1.52
1063.085	-4.63
1063.506	-4.83
1063.928	-4.43
1064.35	-2.83
1064.771	1.72
1065.193	-2.13
1065.614	-2.33
1066.035	5.42
1066.457	4.47
1066.878	4.47
1067.3	2.87
1067.721	1.97
1068.142	3.07
1068.564	-0.43
1068.985	3.27
1069.406	-2.93
1069.827	-2.78
1070.248	-1.63
1070.67	-6.28
1071.091	0.57
1071.512	-4.08
1071.933	-3.18
1072.354	-9.68
1072.775	-3.78
1073.196	-0.93
1073.617	-9.18
1074.038	1.57
1074.459	-4.28
1074.88	-2.63
1075.3	-3.63
1075.721	2.62
1076.142	1.62
1076.563	-3.38
1076.983	3.17
1077.404	-5.18
1077.825	-0.73
1078.246	-5.03
1078.666	-2.23
1079.087	-1.83
1079.507	-3.48
1079.928	-2.13
1080.348	-1.03
1080.769	0.22
1081.189	-3.38
1081.61	-6.78
1082.03	2.07
1082.451	4.12
1082.871	-4.83
1083.291	-3.23
1083.711	-3.73
1084.132	-4.63
1084.552	-4.28
1084.972	-3.43
1085.392	-6.48
1085.813	4.17
1086.233	-0.38
1086.653	2.72
1087.073	-0.58
1087.493	-1.53
1087.913	-2.98
1088.333	2.32
1088.753	0.12
1089.173	6.57
1089.593	1.52
1090.013	-3.73
1090.433	-5.88
1090.852	-0.78
1091.272	-7.28
1091.692	1.07
1092.112	-1.93
1092.531	-7.93
1092.951	0.42
1093.371	-2.28
1093.79	-4.28
1094.21	-6.68
1094.63	-2.43
1095.049	-0.03
1095.469	-6.18
1095.888	0.07
1096.308	-2.03
1096.727	-2.23
1097.146	-3.28
1097.566	-2.28
1097.985	-1.13
1098.405	-0.18
1098.824	3.02
1099.243	-3.98
1099.662	-0.83
1100.082	1.32
1100.501	4.62
1100.92	2.17
1101.339	1.07
1101.758	3.17
