Data from MSPlasma+Separation6_Subt14_10-13-26-989.txt Node
Date: Fri Jul 21 10:13:26 EDT 2017
User: Ender
Spectrometer: HR+D1039
Trigger mode: 0
Integration Time (sec): 6.430000E-3
Scans to average: 20
Electric dark correction enabled: true
Nonlinearity correction enabled: false
Boxcar width: 0
XAxis mode: Wavelengths
Number of Pixels in Spectrum: 2048
>>>>>Begin Spectral Data<<<<<
187.836	2.67
188.309	2.67
188.782	2.67
189.255	0.02
189.728	3.47
190.201	-1.28
190.674	-5.88
191.147	-2.63
191.619	-1.58
192.092	0.52
192.565	0.07
193.038	0.42
193.511	5.67
193.984	0.97
194.456	0.62
194.929	-1.63
195.402	-0.43
195.874	-0.93
196.347	5.52
196.82	2.52
197.292	-1.63
197.765	-1.08
198.237	0.77
198.71	-2.53
199.182	2.27
199.655	4.27
200.127	2.57
200.6	1.87
201.072	2.62
201.544	-4.18
202.017	-0.88
202.489	5.37
202.961	1.62
203.433	0.82
203.906	-0.38
204.378	2.47
204.85	2.07
205.322	-0.93
205.794	4.67
206.266	-2.23
206.739	2.87
207.211	-0.23
207.683	2.27
208.155	1.17
208.627	1.42
209.099	1.57
209.57	5.32
210.042	6.12
210.514	2.97
210.986	-1.58
211.458	-1.43
211.93	-0.88
212.402	3.02
212.873	0.97
213.345	0.47
213.817	3.17
214.288	-1.88
214.76	3.92
215.232	1.72
215.703	1.92
216.175	2.27
216.646	3.07
217.118	2.82
217.589	-1.23
218.061	2.17
218.532	1.67
219.004	5.92
219.475	2.82
219.946	2.92
220.418	5.27
220.889	3.37
221.36	4.92
221.832	5.02
222.303	6.67
222.774	4.47
223.245	3.42
223.717	1.02
224.188	2.62
224.659	5.72
225.13	2.27
225.601	4.02
226.072	5.72
226.543	4.12
227.014	4.82
227.485	7.17
227.956	6.07
228.427	11.17
228.898	8.77
229.369	5.47
229.839	6.57
230.31	8.22
230.781	9.07
231.252	7.22
231.722	9.62
232.193	7.02
232.664	10.72
233.135	11.17
233.605	7.82
234.076	16.77
234.546	11.97
235.017	12.47
235.487	13.37
235.958	9.42
236.428	12.47
236.899	10.27
237.369	15.87
237.84	14.77
238.31	16.52
238.78	8.37
239.251	11.12
239.721	7.42
240.191	15.02
240.662	15.07
241.132	14.32
241.602	15.77
242.072	15.97
242.542	14.12
243.013	16.07
243.483	16.02
243.953	14.97
244.423	19.17
244.893	17.07
245.363	20.07
245.833	16.42
246.303	17.77
246.773	21.12
247.243	20.27
247.712	21.57
248.182	23.82
248.652	24.72
249.122	21.57
249.592	22.87
250.061	24.27
250.531	22.92
251.001	21.52
251.471	26.37
251.94	29.47
252.41	22.17
252.879	28.22
253.349	29.37
253.818	24.82
254.288	29.67
254.757	23.92
255.227	31.72
255.696	30.02
256.166	33.92
256.635	33.42
257.105	31.97
257.574	30.42
258.043	28.67
258.513	34.57
258.982	32.82
259.451	38.62
259.92	28.32
260.389	33.27
260.859	36.12
261.328	37.27
261.797	36.52
262.266	39.32
262.735	36.32
263.204	34.82
263.673	41.52
264.142	33.12
264.611	40.67
265.08	40.82
265.549	35.62
266.018	39.92
266.487	44.47
266.955	37.77
267.424	40.67
267.893	43.97
268.362	47.02
268.83	39.92
269.299	41.72
269.768	46.57
270.236	40.72
270.705	46.92
271.174	46.22
271.642	47.22
272.111	44.57
272.579	49.47
273.048	49.87
273.516	49.77
273.985	50.72
274.453	47.47
274.922	48.77
275.39	47.22
275.858	54.22
276.327	50.22
276.795	55.07
277.263	49.92
277.731	55.17
278.2	53.22
278.668	58.92
279.136	55.97
279.604	58.62
280.072	55.82
280.54	62.87
281.008	61.82
281.477	60.92
281.945	55.77
282.413	63.02
282.881	62.62
283.348	62.47
283.816	64.37
284.284	67.92
284.752	73.67
285.22	72.67
285.688	65.47
286.156	69.77
286.623	70.57
287.091	68.87
287.559	68.32
288.026	71.37
288.494	71.72
288.962	76.82
289.429	72.77
289.897	70.97
290.364	70.32
290.832	74.22
291.3	74.77
291.767	75.47
292.234	79.17
292.702	78.27
293.169	79.77
293.637	78.92
294.104	79.32
294.571	77.52
295.039	80.92
295.506	79.07
295.973	79.72
296.44	81.02
296.908	86.07
297.375	82.22
297.842	87.17
298.309	90.62
298.776	85.22
299.243	89.87
299.71	89.97
300.177	91.87
300.644	88.62
301.111	93.77
301.578	97.72
302.045	93.27
302.512	95.12
302.979	97.67
303.446	98.97
303.913	100.37
304.379	104.92
304.846	103.02
305.313	108.02
305.78	111.82
306.246	109.22
306.713	111.17
307.18	113.42
307.646	115.17
308.113	115.37
308.579	120.07
309.046	121.62
309.512	118.82
309.979	124.12
310.445	120.67
310.912	123.77
311.378	128.97
311.845	123.17
312.311	124.27
312.777	129.97
313.244	130.77
313.71	131.37
314.176	138.22
314.642	132.02
315.109	137.57
315.575	131.72
316.041	133.07
316.507	133.07
316.973	144.32
317.439	143.82
317.905	140.57
318.371	143.22
318.837	140.82
319.303	145.27
319.769	143.17
320.235	146.67
320.701	155.72
321.167	149.32
321.633	151.22
322.099	144.82
322.564	152.52
323.03	154.52
323.496	151.67
323.962	158.22
324.427	159.47
324.893	156.62
325.359	165.47
325.824	164.12
326.29	168.67
326.755	165.07
327.221	169.67
327.686	180.82
328.152	173.12
328.617	177.27
329.083	176.37
329.548	187.02
330.014	181.77
330.479	182.67
330.944	185.57
331.41	192.77
331.875	186.32
332.34	181.02
332.805	187.27
333.271	187.62
333.736	188.97
334.201	190.82
334.666	203.17
335.131	210.72
335.596	208.57
336.061	200.12
336.526	202.77
336.991	195.37
337.456	193.07
337.921	191.57
338.386	196.77
338.851	198.32
339.316	200.72
339.781	201.27
340.246	204.92
340.711	203.87
341.175	206.57
341.64	211.97
342.105	219.37
342.569	222.62
343.034	215.22
343.499	221.07
343.963	230.27
344.428	233.47
344.893	225.37
345.357	234.97
345.822	230.37
346.286	236.42
346.751	245.57
347.215	247.47
347.679	255.42
348.144	267.32
348.608	268.12
349.073	274.17
349.537	273.42
350.001	271.67
350.465	273.22
350.93	275.57
351.394	276.82
351.858	278.82
352.322	288.52
352.786	283.97
353.25	290.67
353.715	291.77
354.179	316.17
354.643	314.67
355.107	318.02
355.571	304.57
356.035	308.17
356.498	308.02
356.962	312.92
357.426	304.72
357.89	303.02
358.354	303.87
358.818	297.92
359.281	308.22
359.745	301.17
360.209	306.97
360.673	308.97
361.136	304.67
361.6	310.87
362.064	315.42
362.527	325.27
362.991	318.27
363.454	318.07
363.918	325.77
364.381	334.27
364.845	329.72
365.308	330.97
365.772	333.62
366.235	339.02
366.698	331.47
367.162	334.62
367.625	340.87
368.088	348.67
368.552	344.17
369.015	341.77
369.478	344.17
369.941	353.87
370.404	351.72
370.867	351.67
371.331	357.47
371.794	365.07
372.257	365.72
372.72	355.72
373.183	365.67
373.646	365.57
374.109	365.32
374.572	366.47
375.035	379.32
375.497	372.87
375.96	381.57
376.423	390.17
376.886	394.57
377.349	401.27
377.811	400.07
378.274	407.12
378.737	395.12
379.199	406.62
379.662	406.67
380.125	413.22
380.587	419.17
381.05	418.62
381.512	426.97
381.975	441.27
382.437	451.22
382.9	442.62
383.362	444.72
383.825	449.62
384.287	458.72
384.75	445.12
385.212	449.22
385.674	455.42
386.136	459.67
386.599	458.17
387.061	457.12
387.523	461.12
387.985	462.62
388.447	469.92
388.91	467.32
389.372	474.02
389.834	480.37
390.296	465.62
390.758	472.32
391.22	478.22
391.682	483.37
392.144	488.12
392.606	483.22
393.068	494.12
393.529	523.62
393.991	527.57
394.453	504.67
394.915	490.42
395.377	483.87
395.838	487.87
396.3	486.67
396.762	489.67
397.224	491.02
397.685	492.67
398.147	503.07
398.608	509.47
399.07	505.67
399.531	507.97
399.993	529.87
400.454	532.77
400.916	526.67
401.377	540.97
401.839	544.02
402.3	549.97
402.762	565.57
403.223	604.22
403.684	607.07
404.145	582.42
404.607	580.87
405.068	564.57
405.529	570.02
405.99	583.92
406.451	591.32
406.913	581.17
407.374	589.07
407.835	583.77
408.296	598.67
408.757	606.07
409.218	611.52
409.679	620.67
410.14	626.27
410.601	640.82
411.062	651.22
411.522	653.52
411.983	652.17
412.444	656.22
412.905	674.52
413.366	698.67
413.826	731.12
414.287	818.47
414.748	956.42
415.208	976.72
415.669	824.87
416.13	746.97
416.59	739.47
417.051	755.57
417.511	789.32
417.972	847.67
418.432	907.42
418.893	1000.92
419.353	958.02
419.814	748.27
420.274	673.07
420.734	669.42
421.195	690.67
421.655	686.62
422.115	701.67
422.576	698.37
423.036	701.87
423.496	727.32
423.956	750.07
424.416	804.92
424.876	894.97
425.336	890.82
425.797	871.82
426.257	870.87
426.717	811.97
427.177	770.97
427.637	778.82
428.097	806.37
428.556	836.72
429.016	896.47
429.476	890.22
429.936	883.62
430.396	884.42
430.856	895.72
431.315	920.27
431.775	980.22
432.235	1048.42
432.694	1058.02
433.154	997.87
433.614	983.57
434.073	938.72
434.533	858.22
434.993	830.12
435.452	830.57
435.912	810.67
436.371	817.62
436.83	809.42
437.29	794.57
437.749	770.92
438.209	763.17
438.668	776.47
439.127	792.77
439.587	774.52
440.046	756.27
440.505	777.27
440.964	773.62
441.424	805.32
441.883	822.37
442.342	769.37
442.801	739.42
443.26	746.17
443.719	733.32
444.178	746.17
444.637	747.27
445.096	759.02
445.555	763.97
446.014	765.47
446.473	758.12
446.932	759.57
447.391	766.67
447.849	778.77
448.308	764.87
448.767	784.27
449.226	781.62
449.685	799.97
450.143	831.92
450.602	829.47
451.061	780.32
451.519	786.02
451.978	776.92
452.436	777.67
452.895	790.17
453.353	780.52
453.812	774.37
454.27	776.02
454.729	787.37
455.187	793.42
455.646	782.57
456.104	791.52
456.562	793.17
457.021	804.62
457.479	778.17
457.937	809.37
458.395	833.22
458.854	810.72
459.312	809.97
459.77	814.52
460.228	821.82
460.686	839.87
461.144	837.62
461.602	825.77
462.06	832.57
462.518	845.97
462.976	844.87
463.434	862.37
463.892	865.97
464.35	880.57
464.808	901.22
465.266	910.62
465.724	915.92
466.181	912.62
466.639	922.32
467.097	952.92
467.555	989.77
468.012	980.77
468.47	986.47
468.928	1033.77
469.385	1050.07
469.843	1059.77
470.3	1056.52
470.758	1093.42
471.215	1106.42
471.673	1129.17
472.13	1161.42
472.588	1181.32
473.045	1178.67
473.503	1199.22
473.96	1251.72
474.417	1263.07
474.875	1310.02
475.332	1364.77
475.789	1389.12
476.246	1419.77
476.704	1482.02
477.161	1526.57
477.618	1564.12
478.075	1651.62
478.532	1773.32
478.989	1901.32
479.446	2091.42
479.903	2203.97
480.36	2389.12
480.817	2520.42
481.274	2681.77
481.731	2912.17
482.188	3118.37
482.645	3332.47
483.102	3510.17
483.558	3720.62
484.015	3861.72
484.472	3839.72
484.929	3727.42
485.385	3558.07
485.842	3493.17
486.299	3351.02
486.755	3087.17
487.212	2801.92
487.668	2549.72
488.125	2371.37
488.582	2206.77
489.038	2134.22
489.494	2072.92
489.951	2017.57
490.407	1970.27
490.864	1933.32
491.32	1887.62
491.776	1901.02
492.233	1890.22
492.689	1859.02
493.145	1824.47
493.602	1809.17
494.058	1818.97
494.514	1825.32
494.97	1828.42
495.426	1850.32
495.882	1843.02
496.338	1840.12
496.794	1849.42
497.251	1858.92
497.707	1873.22
498.163	1879.62
498.618	1872.82
499.074	1861.62
499.53	1901.92
499.986	1908.07
500.442	1892.77
500.898	1864.42
501.354	1888.17
501.809	1892.02
502.265	1885.52
502.721	1908.87
503.177	1900.82
503.632	1898.57
504.088	1918.17
504.543	1945.92
504.999	1950.32
505.455	1950.42
505.91	1936.67
506.366	1933.72
506.821	1941.12
507.277	1935.77
507.732	1942.62
508.187	1941.57
508.643	1966.52
509.098	1957.57
509.553	1980.62
510.009	2013.87
510.464	2046.12
510.919	2058.62
511.375	2082.67
511.83	2105.82
512.285	2143.27
512.74	2187.67
513.195	2203.67
513.65	2244.22
514.105	2258.77
514.56	2279.22
515.015	2306.77
515.47	2313.67
515.925	2291.02
516.38	2298.37
516.835	2300.07
517.29	2280.62
517.745	2282.62
518.2	2249.97
518.655	2210.27
519.109	2184.72
519.564	2154.62
520.019	2132.72
520.474	2128.57
520.928	2119.42
521.383	2084.57
521.838	2079.52
522.292	2075.87
522.747	2055.17
523.201	2048.32
523.656	2016.87
524.11	2027.02
524.565	2021.72
525.019	2021.27
525.474	2015.22
525.928	2005.32
526.382	2010.12
526.837	2007.27
527.291	2020.42
527.745	2004.57
528.2	2012.57
528.654	1987.17
529.108	1982.47
529.562	1986.82
530.016	1989.52
530.47	1988.67
530.925	1984.97
531.379	1988.27
531.833	2007.07
532.287	1996.37
532.741	1998.72
533.195	2001.17
533.649	2004.62
534.103	1997.72
534.556	1991.92
535.01	2001.87
535.464	1991.12
535.918	1997.57
536.372	2011.12
536.826	1996.87
537.279	1977.97
537.733	1990.42
538.187	2000.92
538.64	1996.12
539.094	2007.62
539.548	2032.62
540.001	2033.12
540.455	2028.22
540.908	2057.02
541.362	2077.72
541.815	2075.17
542.269	2120.57
542.722	2127.42
543.175	2149.42
543.629	2144.92
544.082	2171.72
544.536	2179.37
544.989	2191.87
545.442	2204.02
545.895	2199.77
546.349	2195.57
546.802	2214.32
547.255	2208.17
547.708	2219.07
548.161	2239.27
548.614	2234.12
549.067	2252.52
549.52	2241.82
549.973	2215.57
550.426	2209.07
550.879	2203.57
551.332	2215.47
551.785	2229.12
552.238	2240.67
552.691	2251.02
553.144	2292.77
553.596	2317.52
554.049	2339.62
554.502	2398.47
554.955	2422.72
555.407	2450.57
555.86	2428.87
556.313	2406.42
556.765	2379.02
557.218	2345.92
557.67	2338.27
558.123	2314.37
558.576	2309.62
559.028	2290.67
559.48	2313.67
559.933	2294.32
560.385	2235.52
560.838	2176.97
561.29	2112.52
561.742	2103.77
562.195	2059.02
562.647	2032.67
563.099	2024.87
563.551	2015.02
564.004	2034.87
564.456	2013.17
564.908	1978.47
565.36	1938.57
565.812	1894.12
566.264	1878.97
566.716	1858.12
567.168	1825.02
567.62	1828.67
568.072	1807.62
568.524	1797.47
568.976	1801.82
569.428	1777.17
569.88	1774.07
570.332	1800.12
570.784	1792.67
571.235	1788.27
571.687	1804.02
572.139	1808.87
572.59	1827.92
573.042	1834.17
573.494	1824.52
573.945	1804.17
574.397	1771.22
574.849	1759.07
575.3	1767.22
575.752	1739.77
576.203	1727.17
576.655	1732.57
577.106	1704.27
577.557	1695.07
578.009	1693.17
578.46	1697.97
578.912	1675.57
579.363	1698.37
579.814	1688.12
580.265	1692.57
580.717	1684.77
581.168	1685.12
581.619	1698.32
582.07	1698.12
582.521	1702.17
582.972	1696.67
583.423	1708.87
583.875	1712.32
584.326	1730.32
584.777	1752.82
585.227	1781.22
585.678	1800.52
586.129	1826.12
586.58	1828.42
587.031	1865.32
587.482	1907.67
587.933	1934.12
588.384	1920.62
588.834	1899.97
589.285	1895.87
589.736	1899.62
590.186	1891.87
590.637	1885.07
591.088	1838.97
591.538	1790.67
591.989	1776.42
592.439	1760.22
592.89	1738.27
593.34	1738.22
593.791	1736.87
594.241	1721.57
594.692	1714.02
595.142	1712.42
595.593	1712.22
596.043	1717.47
596.493	1733.22
596.943	1730.07
597.394	1777.32
597.844	1797.12
598.294	1852.77
598.744	1907.12
599.195	1993.72
599.645	2103.87
600.095	2210.77
600.545	2312.97
600.995	2411.67
601.445	2485.22
601.895	2581.47
602.345	2661.07
602.795	2626.22
603.245	2529.67
603.695	2392.97
604.145	2270.32
604.594	2157.47
605.044	2043.87
605.494	1925.77
605.944	1835.17
606.393	1793.02
606.843	1760.37
607.293	1742.32
607.743	1746.02
608.192	1751.67
608.642	1755.67
609.091	1750.47
609.541	1740.22
609.99	1744.97
610.44	1704.12
610.889	1692.92
611.339	1674.17
611.788	1649.92
612.238	1650.32
612.687	1662.37
613.136	1673.47
613.586	1686.17
614.035	1679.37
614.484	1696.07
614.933	1691.67
615.383	1660.37
615.832	1619.22
616.281	1600.72
616.73	1571.07
617.179	1539.17
617.628	1502.67
618.077	1476.12
618.526	1450.42
618.975	1447.67
619.424	1421.02
619.873	1429.82
620.322	1406.57
620.771	1398.52
621.22	1385.92
621.669	1363.42
622.118	1348.72
622.567	1334.42
623.015	1313.27
623.464	1309.52
623.913	1286.42
624.361	1293.42
624.81	1286.67
625.259	1286.47
625.707	1289.12
626.156	1295.32
626.604	1313.82
627.053	1316.87
627.501	1308.17
627.95	1318.32
628.398	1331.72
628.847	1310.17
629.295	1310.27
629.744	1304.77
630.192	1278.92
630.64	1262.17
631.089	1253.02
631.537	1219.37
631.985	1204.57
632.433	1206.77
632.881	1195.67
633.33	1196.27
633.778	1199.52
634.226	1207.87
634.674	1214.22
635.122	1223.97
635.57	1243.87
636.018	1262.12
636.466	1259.92
636.914	1253.87
637.362	1289.92
637.81	1312.62
638.258	1346.62
638.705	1368.57
639.153	1411.17
639.601	1413.97
640.049	1443.17
640.497	1478.17
640.944	1519.97
641.392	1452.42
641.84	1372.12
642.287	1323.47
642.735	1294.87
643.182	1280.37
643.63	1278.12
644.078	1291.32
644.525	1305.02
644.973	1338.22
645.42	1364.22
645.867	1394.57
646.315	1424.92
646.762	1476.27
647.21	1517.47
647.657	1596.77
648.104	1647.47
648.551	1690.32
648.999	1829.82
649.446	2000.57
649.893	2229.07
650.34	2604.07
650.787	3196.97
651.234	4096.47
651.682	5629.07
652.129	7932.67
652.576	11228.82
653.023	14694.47
653.47	15533.32
653.917	15533.37
654.363	15533.27
654.81	15530.27
655.257	15530.92
655.704	13891.52
656.151	8430.07
656.598	5577.57
657.044	4011.12
657.491	3176.77
657.938	2603.52
658.385	2218.27
658.831	1966.42
659.278	1771.32
659.724	1624.32
660.171	1513.92
660.618	1413.87
661.064	1334.42
661.511	1302.12
661.957	1260.27
662.404	1242.42
662.85	1221.12
663.296	1209.67
663.743	1171.92
664.189	1158.37
664.635	1154.02
665.082	1129.72
665.528	1108.37
665.974	1080.62
666.42	1060.52
666.867	1051.22
667.313	1006.42
667.759	995.47
668.205	986.87
668.651	998.37
669.097	997.62
669.543	997.47
669.989	1000.27
670.435	1005.52
670.881	1018.42
671.327	1053.27
671.773	1133.42
672.219	1222.57
672.665	1299.67
673.11	1332.92
673.556	1336.72
674.002	1365.12
674.448	1379.67
674.893	1191.72
675.339	1037.02
675.785	954.72
676.23	909.87
676.676	876.07
677.122	857.07
677.567	829.97
678.013	805.62
678.458	802.52
678.904	797.22
679.349	788.52
679.794	790.62
680.24	779.57
680.685	771.47
681.131	776.47
681.576	779.47
682.021	778.72
682.466	790.22
682.912	794.22
683.357	839.87
683.802	912.17
684.247	992.02
684.692	1064.37
685.137	1105.82
685.583	1114.12
686.028	1174.22
686.473	1110.97
686.918	969.72
687.363	884.67
687.807	846.22
688.252	794.02
688.697	784.82
689.142	750.72
689.587	751.72
690.032	768.72
690.477	796.57
690.921	841.17
691.366	874.17
691.811	925.22
692.255	991.02
692.7	1209.27
693.145	1756.52
693.589	2669.57
694.034	3173.27
694.478	3341.32
694.923	3027.97
695.367	4187.87
695.812	2612.92
696.256	1122.07
696.701	828.47
697.145	761.02
697.59	737.97
698.034	724.82
698.478	723.12
698.922	727.47
699.367	744.12
699.811	769.57
700.255	845.42
700.699	923.52
701.143	1001.67
701.588	1054.12
702.032	1092.12
702.476	1126.22
702.92	1209.82
703.364	1590.42
703.808	2442.12
704.252	3046.27
704.696	3177.82
705.14	2959.87
705.584	3982.77
706.027	2259.87
706.471	1150.27
706.915	864.17
707.359	766.57
707.803	722.92
708.246	692.42
708.69	690.12
709.134	676.97
709.577	685.22
710.021	684.67
710.465	683.97
710.908	674.47
711.352	705.42
711.795	783.07
712.239	843.92
712.682	854.57
713.126	833.27
713.569	923.47
714.012	772.22
714.456	674.22
714.899	639.57
715.342	599.52
715.786	581.17
716.229	570.07
716.672	555.77
717.115	555.72
717.558	557.77
718.002	573.47
718.445	605.32
718.888	632.07
719.331	647.27
719.774	658.17
720.217	642.52
720.66	612.37
721.103	581.97
721.546	551.12
721.989	537.67
722.432	522.52
722.874	525.02
723.317	527.22
723.76	586.02
724.203	705.32
724.645	950.02
725.088	1115.02
725.531	1080.57
725.974	1164.77
726.416	1056.92
726.859	665.77
727.301	549.87
727.744	523.57
728.187	526.12
728.629	531.42
729.071	557.52
729.514	584.62
729.956	606.92
730.399	618.42
730.841	621.22
731.283	610.27
731.726	599.02
732.168	603.57
732.61	636.97
733.053	679.22
733.495	751.87
733.937	836.77
734.379	984.42
734.821	1260.32
735.263	1992.22
735.705	3584.22
736.148	5237.12
736.59	5223.92
737.032	5515.72
737.474	4563.42
737.916	1796.87
738.357	946.72
738.799	727.82
739.241	672.97
739.683	681.37
740.125	706.52
740.567	705.42
741.008	757.27
741.45	800.02
741.892	840.92
742.334	840.77
742.775	836.52
743.217	801.97
743.658	680.32
744.1	709.37
744.542	819.27
744.983	846.02
745.425	870.67
745.866	841.72
746.307	706.37
746.749	745.97
747.19	1077.22
747.632	2106.72
748.073	3906.92
748.514	5364.12
748.956	7054.52
749.397	8199.27
749.838	5718.32
750.279	5305.32
750.72	2813.72
751.162	1203.07
751.603	698.57
752.044	555.47
752.485	494.47
752.926	465.77
753.367	446.92
753.808	431.27
754.249	430.07
754.69	426.47
755.131	414.57
755.572	415.12
756.013	418.37
756.453	415.92
756.894	429.07
757.335	423.37
757.776	433.52
758.216	446.52
758.657	473.17
759.098	524.92
759.538	634.77
759.979	925.12
760.42	1840.52
760.86	4728.27
761.301	9736.92
761.741	11363.82
762.182	12669.82
762.622	8281.12
763.063	3029.57
763.503	1247.57
763.943	728.52
764.384	580.22
764.824	502.17
765.264	460.87
765.705	441.02
766.145	416.57
766.585	398.52
767.025	388.77
767.465	389.77
767.906	400.62
768.346	421.72
768.786	493.17
769.226	716.37
769.666	1450.12
770.106	3225.67
770.546	4595.92
770.986	5040.47
771.426	3837.67
771.866	1635.97
772.306	741.57
772.745	458.87
773.185	391.32
773.625	382.42
774.065	412.17
774.505	602.22
774.944	1077.92
775.384	1557.32
775.824	1706.52
776.263	1401.82
776.703	749.72
777.142	432.42
777.582	326.97
778.021	294.47
778.461	282.67
778.9	275.02
779.34	271.07
779.779	261.07
780.219	257.22
780.658	255.47
781.097	249.67
781.537	239.77
781.976	239.62
782.415	236.97
782.855	239.67
783.294	234.57
783.733	228.17
784.172	244.27
784.611	239.12
785.05	241.87
785.489	255.97
785.928	258.27
786.367	271.12
786.806	283.47
787.245	308.62
787.684	314.57
788.123	307.17
788.562	299.67
789.001	284.82
789.44	281.12
789.879	277.62
790.317	277.42
790.756	295.52
791.195	348.22
791.634	462.97
792.072	833.92
792.511	2034.22
792.95	3745.12
793.388	4422.27
793.827	2897.07
794.265	1348.22
794.704	654.42
795.142	404.47
795.581	334.52
796.019	302.32
796.458	304.07
796.896	309.92
797.334	357.97
797.773	475.07
798.211	900.72
798.649	1888.52
799.087	3127.57
799.526	4421.72
799.964	4533.27
800.402	3112.52
800.84	1432.77
801.278	700.62
801.716	425.67
802.154	349.92
802.592	332.57
803.03	333.97
803.468	337.92
803.906	335.97
804.344	332.32
804.782	321.72
805.22	327.62
805.658	339.82
806.096	360.17
806.533	401.27
806.971	516.62
807.409	749.37
807.847	1489.32
808.284	3753.52
808.722	6565.72
809.16	9106.87
809.597	12449.92
810.035	14951.87
810.472	9951.72
810.91	4302.52
811.347	1937.52
811.785	911.27
812.222	578.92
812.66	443.82
813.097	369.37
813.535	328.17
813.972	294.67
814.409	271.42
814.846	262.57
815.284	252.02
815.721	254.92
816.158	286.42
816.595	393.42
817.032	492.87
817.47	446.72
817.907	319.92
818.344	284.97
818.781	276.62
819.218	340.82
819.655	519.97
820.092	681.87
820.529	612.92
820.966	478.52
821.403	333.37
821.839	282.77
822.276	315.92
822.713	372.97
823.15	343.87
823.587	354.87
824.023	621.22
824.46	1526.02
824.897	2651.22
825.333	2065.17
825.77	966.17
826.206	504.67
826.643	294.47
827.08	219.72
827.516	197.02
827.953	187.12
828.389	174.62
828.825	166.57
829.262	159.27
829.698	160.57
830.135	146.87
830.571	147.87
831.007	149.87
831.443	146.82
831.88	151.67
832.316	154.77
832.752	152.27
833.188	154.02
833.624	158.12
834.06	164.07
834.497	160.32
834.933	166.57
835.369	182.17
835.805	188.57
836.241	193.87
836.677	214.17
837.112	250.57
837.548	307.57
837.984	460.42
838.42	978.77
838.856	2679.07
839.292	5220.17
839.727	3931.42
840.163	2660.02
840.599	4014.12
841.034	6026.72
841.47	3093.17
841.906	1508.92
842.341	810.87
842.777	609.32
843.212	621.22
843.648	384.57
844.083	266.82
844.519	201.07
844.954	167.02
845.39	156.27
845.825	143.57
846.261	138.27
846.696	136.82
847.131	131.02
847.566	125.67
848.002	131.42
848.437	145.32
848.872	140.87
849.307	191.22
849.742	346.57
850.177	869.67
850.613	1836.47
851.048	1344.22
851.483	620.67
851.918	343.47
852.353	198.32
852.788	140.22
853.223	127.27
853.657	115.07
854.092	115.67
854.527	111.62
854.962	117.82
855.397	134.17
855.832	111.17
856.266	99.72
856.701	98.32
857.136	108.27
857.57	131.12
858.005	159.62
858.44	133.62
858.874	118.82
859.309	119.42
859.743	116.42
860.178	118.37
860.612	129.27
861.047	178.52
861.481	244.52
861.915	169.27
862.35	126.27
862.784	105.47
863.218	100.42
863.653	110.97
864.087	130.37
864.521	157.27
864.955	254.42
865.39	442.52
865.824	351.52
866.258	452.77
866.692	691.17
867.126	493.82
867.56	273.02
867.994	172.72
868.428	145.27
868.862	178.22
869.296	163.67
869.73	197.57
870.164	170.32
870.598	154.22
871.031	109.52
871.465	97.42
871.899	81.02
872.333	68.82
872.766	71.72
873.2	75.47
873.634	68.12
874.067	70.42
874.501	72.92
874.935	72.92
875.368	76.27
875.802	68.27
876.235	60.92
876.669	62.62
877.102	57.27
877.535	63.87
877.969	58.17
878.402	53.77
878.836	53.37
879.269	52.72
879.702	56.97
880.135	58.37
880.569	61.12
881.002	53.12
881.435	56.97
881.868	56.82
882.301	54.17
882.734	49.47
883.167	56.97
883.601	52.82
884.034	54.17
884.467	47.02
884.899	49.02
885.332	42.12
885.765	43.32
886.198	47.12
886.631	47.57
887.064	43.12
887.497	44.92
887.929	47.72
888.362	45.07
888.795	43.32
889.228	46.77
889.66	41.97
890.093	41.22
890.526	43.47
890.958	42.72
891.391	45.52
891.823	45.52
892.256	43.02
892.688	44.07
893.121	36.92
893.553	44.52
893.985	39.37
894.418	38.77
894.85	45.02
895.282	43.82
895.715	38.82
896.147	38.07
896.579	35.82
897.011	39.57
897.444	39.17
897.876	34.72
898.308	38.52
898.74	42.42
899.172	42.57
899.604	38.37
900.036	44.52
900.468	36.12
900.9	43.27
901.332	55.52
901.764	52.72
902.196	53.87
902.628	55.67
903.06	82.77
903.491	90.47
903.923	68.37
904.355	73.67
904.787	76.12
905.218	65.02
905.65	57.22
906.082	50.22
906.513	51.42
906.945	47.12
907.376	49.77
907.808	48.42
908.239	53.07
908.671	58.42
909.102	66.52
909.534	91.57
909.965	166.77
910.397	433.02
910.828	1219.27
911.259	762.77
911.691	417.07
912.122	244.97
912.553	123.72
912.984	71.62
913.415	61.52
913.847	56.67
914.278	53.92
914.709	47.72
915.14	44.92
915.571	44.22
916.002	42.67
916.433	43.62
916.864	38.37
917.295	41.97
917.726	50.37
918.157	63.22
918.587	61.72
919.018	57.67
919.449	54.42
919.88	62.47
920.311	94.87
920.741	259.92
921.172	454.82
921.603	232.82
922.033	146.22
922.464	93.27
922.895	64.07
923.325	42.22
923.756	41.17
924.186	52.67
924.617	73.47
925.047	108.52
925.478	92.32
925.908	71.22
926.338	52.62
926.769	40.82
927.199	39.62
927.629	34.47
928.06	41.37
928.49	37.27
928.92	33.22
929.35	31.27
929.78	23.62
930.21	29.82
930.641	22.77
931.071	21.27
931.501	24.87
931.931	17.17
932.361	20.62
932.791	27.02
933.221	28.27
933.651	38.87
934.08	58.92
934.51	36.67
934.94	31.77
935.37	25.32
935.8	23.37
936.229	16.52
936.659	21.57
937.089	39.37
937.519	65.12
937.948	76.12
938.378	46.22
938.807	29.47
939.237	19.12
939.666	16.17
940.096	13.72
940.525	12.72
940.955	10.92
941.384	8.47
941.814	9.22
942.243	10.07
942.672	10.57
943.102	8.17
943.531	10.57
943.96	9.07
944.39	12.22
944.819	17.47
945.248	11.02
945.677	13.12
946.106	12.67
946.535	8.57
946.964	10.92
947.393	11.02
947.822	7.52
948.251	12.57
948.68	14.32
949.109	13.07
949.538	5.67
949.967	13.42
950.396	10.27
950.825	8.47
951.254	9.47
951.682	2.17
952.111	5.17
952.54	5.17
952.969	9.77
953.397	9.07
953.826	6.77
954.254	8.97
954.683	8.82
955.112	9.47
955.54	8.97
955.969	7.67
956.397	14.22
956.826	8.47
957.254	8.97
957.682	7.12
958.111	11.52
958.539	6.62
958.967	6.02
959.396	10.07
959.824	6.67
960.252	11.57
960.68	10.12
961.109	7.92
961.537	10.97
961.965	5.82
962.393	7.72
962.821	11.27
963.249	14.17
963.677	16.77
964.105	77.97
964.533	133.47
964.961	64.47
965.389	38.62
965.817	22.52
966.245	12.67
966.672	9.62
967.1	5.37
967.528	5.07
967.956	11.07
968.383	7.67
968.811	3.22
969.239	8.37
969.666	6.17
970.094	0.97
970.522	3.97
970.949	5.82
971.377	1.22
971.804	5.97
972.232	4.27
972.659	4.82
973.087	8.27
973.514	1.77
973.941	3.47
974.369	-0.48
974.796	3.87
975.223	6.97
975.651	4.22
976.078	5.92
976.505	13.47
976.932	36.17
977.359	40.72
977.786	25.02
978.214	18.02
978.641	7.27
979.068	9.07
979.495	5.72
979.922	4.27
980.349	2.57
980.776	6.17
981.202	8.97
981.629	11.72
982.056	5.37
982.483	0.67
982.91	11.27
983.337	-0.73
983.763	4.92
984.19	7.77
984.617	3.32
985.043	7.02
985.47	7.82
985.897	9.67
986.323	8.62
986.75	3.62
987.176	6.27
987.603	5.82
988.029	3.92
988.456	7.87
988.882	7.17
989.308	4.27
989.735	6.32
990.161	7.07
990.587	3.77
991.014	6.57
991.44	6.07
991.866	2.97
992.292	-0.68
992.719	3.02
993.145	5.42
993.571	4.32
993.997	8.87
994.423	10.02
994.849	-0.48
995.275	6.52
995.701	4.77
996.127	-1.43
996.553	4.87
996.979	-0.73
997.405	10.47
997.83	2.07
998.256	5.72
998.682	2.67
999.108	5.47
999.534	-0.03
999.959	-0.03
1000.385	4.77
1000.811	-3.38
1001.236	-5.48
1001.662	4.32
1002.087	11.22
1002.513	4.87
1002.938	1.07
1003.364	0.67
1003.789	6.42
1004.215	3.37
1004.64	4.47
1005.066	7.57
1005.491	7.32
1005.916	2.67
1006.342	3.22
1006.767	5.37
1007.192	8.07
1007.617	1.92
1008.042	1.27
1008.468	4.37
1008.893	5.72
1009.318	11.57
1009.743	17.22
1010.168	29.12
1010.593	28.17
1011.018	17.37
1011.443	12.22
1011.868	10.82
1012.293	7.72
1012.718	1.22
1013.143	4.37
1013.567	6.32
1013.992	1.82
1014.417	1.02
1014.842	6.72
1015.267	1.62
1015.691	6.32
1016.116	-1.38
1016.541	5.87
1016.965	2.52
1017.39	4.77
1017.814	-2.13
1018.239	-1.88
1018.663	-5.53
1019.088	-0.43
1019.512	9.92
1019.937	-1.18
1020.361	0.82
1020.785	-3.33
1021.21	-1.33
1021.634	4.92
1022.058	4.47
1022.483	0.07
1022.907	-5.33
1023.331	0.92
1023.755	0.82
1024.179	-0.18
1024.604	3.67
1025.028	1.77
1025.452	5.52
1025.876	3.02
1026.3	1.92
1026.724	3.32
1027.148	6.27
1027.572	0.07
1027.996	0.52
1028.42	0.07
1028.843	0.02
1029.267	3.12
1029.691	2.72
1030.115	-0.33
1030.539	-0.78
1030.962	-0.93
1031.386	2.67
1031.81	1.22
1032.233	2.12
1032.657	-7.03
1033.08	-0.03
1033.504	1.22
1033.927	-0.23
1034.351	-3.83
1034.774	-0.68
1035.198	0.37
1035.621	5.67
1036.045	1.67
1036.468	7.17
1036.891	2.77
1037.315	3.47
1037.738	0.52
1038.161	4.12
1038.584	3.37
1039.008	-0.43
1039.431	-0.28
1039.854	-3.58
1040.277	2.92
1040.7	-1.08
1041.123	1.07
1041.546	-0.98
1041.969	-0.13
1042.392	3.57
1042.815	-1.43
1043.238	-0.48
1043.661	-0.73
1044.084	-3.23
1044.507	0.52
1044.93	-0.03
1045.352	-1.83
1045.775	1.02
1046.198	5.02
1046.621	4.82
1047.043	0.32
1047.466	2.87
1047.889	1.67
1048.311	3.87
1048.734	-3.93
1049.156	-0.93
1049.579	-0.63
1050.001	-1.23
1050.424	-1.38
1050.846	-2.43
1051.269	-4.18
1051.691	4.62
1052.113	1.12
1052.536	-1.73
1052.958	-4.08
1053.38	3.42
1053.802	2.07
1054.225	1.32
1054.647	0.92
1055.069	4.52
1055.491	2.42
1055.913	2.67
1056.335	-5.28
1056.757	-2.88
1057.179	-2.38
1057.601	-0.28
1058.023	0.27
1058.445	-5.13
1058.867	3.87
1059.289	0.02
1059.711	-0.43
1060.133	1.02
1060.555	1.97
1060.976	5.72
1061.398	2.87
1061.82	-3.13
1062.241	-3.38
1062.663	-2.38
1063.085	-7.23
1063.506	-4.63
1063.928	-4.78
1064.35	-3.88
1064.771	2.67
1065.193	-4.03
1065.614	-0.48
1066.035	4.32
1066.457	2.82
1066.878	0.57
1067.3	-1.43
1067.721	1.52
1068.142	4.47
1068.564	0.12
1068.985	-0.78
1069.406	-4.83
1069.827	0.67
1070.248	-5.33
1070.67	-1.93
1071.091	-5.18
1071.512	-1.53
1071.933	0.42
1072.354	-6.28
1072.775	-4.03
1073.196	-5.73
1073.617	-2.43
1074.038	-2.03
1074.459	-5.18
1074.88	2.27
1075.3	-3.88
1075.721	-0.23
1076.142	-0.63
1076.563	-2.33
1076.983	0.52
1077.404	-5.43
1077.825	1.02
1078.246	-6.93
1078.666	-4.13
1079.087	0.47
1079.507	-0.18
1079.928	-0.83
1080.348	-0.88
1080.769	3.37
1081.189	0.17
1081.61	-5.33
1082.03	1.87
1082.451	1.27
1082.871	-4.23
1083.291	-1.83
1083.711	1.17
1084.132	-7.28
1084.552	-6.38
1084.972	-4.43
1085.392	-3.83
1085.813	-1.68
1086.233	-2.13
1086.653	4.02
1087.073	-0.68
1087.493	-4.23
1087.913	-5.18
1088.333	-3.68
1088.753	-1.48
1089.173	3.57
1089.593	-0.23
1090.013	-2.73
1090.433	-6.58
1090.852	-1.03
1091.272	-4.48
1091.692	0.52
1092.112	-5.03
1092.531	-0.68
1092.951	2.47
1093.371	-0.88
1093.79	0.67
1094.21	-1.78
1094.63	0.67
1095.049	2.12
1095.469	-6.33
1095.888	3.17
1096.308	1.12
1096.727	-2.43
1097.146	-4.73
1097.566	-0.83
1097.985	0.12
1098.405	0.17
1098.824	-2.58
1099.243	-3.33
1099.662	-2.88
1100.082	-1.53
1100.501	1.27
1100.92	4.02
1101.339	1.62
1101.758	2.57
