Data from MSPlasma+Separation6_Subt14_10-13-23-903.txt Node
Date: Fri Jul 21 10:13:23 EDT 2017
User: Ender
Spectrometer: HR+D1039
Trigger mode: 0
Integration Time (sec): 6.430000E-3
Scans to average: 20
Electric dark correction enabled: true
Nonlinearity correction enabled: false
Boxcar width: 0
XAxis mode: Wavelengths
Number of Pixels in Spectrum: 2048
>>>>>Begin Spectral Data<<<<<
187.836	3.3
188.309	3.3
188.782	3.3
189.255	-1.7
189.728	2.55
190.201	-1.95
190.674	0.15
191.147	-1.55
191.619	-2.7
192.092	-1.45
192.565	-2.75
193.038	2.75
193.511	1.55
193.984	2.15
194.456	0.5
194.929	-1.55
195.402	-0.4
195.874	1.05
196.347	0.65
196.82	3.35
197.292	-1.75
197.765	-2.4
198.237	-4.85
198.71	-5.1
199.182	-5.25
199.655	6.45
200.127	-1.25
200.6	2.35
201.072	0.25
201.544	-2.8
202.017	-0.05
202.489	0.75
202.961	1.15
203.433	-2.15
203.906	0.75
204.378	-0.8
204.85	-0.6
205.322	-2.25
205.794	-1
206.266	-1.8
206.739	1.35
207.211	-4.75
207.683	1.4
208.155	0.35
208.627	1.75
209.099	3.3
209.57	2.25
210.042	4.15
210.514	-0.95
210.986	-1.45
211.458	-0.8
211.93	0.75
212.402	-0.9
212.873	-0.85
213.345	-4.25
213.817	-0.4
214.288	-3.85
214.76	3.1
215.232	1.3
215.703	1.55
216.175	5.7
216.646	-0.85
217.118	-0.15
217.589	-0.95
218.061	1.75
218.532	-3.7
219.004	0.9
219.475	1.15
219.946	0.85
220.418	6.7
220.889	4.4
221.36	4.65
221.832	3.65
222.303	1.95
222.774	4.05
223.245	0.85
223.717	2.95
224.188	6.7
224.659	0.15
225.13	1.95
225.601	8.7
226.072	3.65
226.543	5.7
227.014	1.35
227.485	2.75
227.956	6.95
228.427	10
228.898	6.45
229.369	8.85
229.839	6.9
230.31	9.75
230.781	9.35
231.252	15.1
231.722	8.95
232.193	8.4
232.664	7.2
233.135	5.15
233.605	2.7
234.076	13.2
234.546	6.5
235.017	7.35
235.487	13.1
235.958	11.7
236.428	15.2
236.899	10.9
237.369	14.4
237.84	12.25
238.31	15.5
238.78	11.15
239.251	13.6
239.721	7.95
240.191	9.9
240.662	10.7
241.132	13.15
241.602	13.35
242.072	13.65
242.542	11.35
243.013	12.2
243.483	17.95
243.953	12.6
244.423	14.35
244.893	12.65
245.363	16.7
245.833	15.4
246.303	13.95
246.773	17.55
247.243	13.4
247.712	16.65
248.182	16.95
248.652	22.85
249.122	17.6
249.592	20.45
250.061	15.75
250.531	20.6
251.001	20.1
251.471	22.2
251.94	21.6
252.41	19.95
252.879	21.8
253.349	29.7
253.818	23.15
254.288	28.75
254.757	23.65
255.227	24.8
255.696	20.75
256.166	25.1
256.635	27.8
257.105	26
257.574	31.4
258.043	27.9
258.513	32.75
258.982	27.7
259.451	34.6
259.92	26.1
260.389	32.15
260.859	29.95
261.328	32.65
261.797	30.4
262.266	33.35
262.735	32.15
263.204	31.8
263.673	33.45
264.142	29.85
264.611	33.3
265.08	32.7
265.549	34.4
266.018	31.35
266.487	32.45
266.955	33.15
267.424	43.1
267.893	41.45
268.362	39.3
268.83	36.95
269.299	36.8
269.768	40.9
270.236	41.35
270.705	40.35
271.174	40.9
271.642	33.9
272.111	40.1
272.579	40.8
273.048	46.4
273.516	40.15
273.985	43.65
274.453	41.65
274.922	46.75
275.39	39.5
275.858	47.85
276.327	45.4
276.795	48.95
277.263	49.3
277.731	43.55
278.2	53.95
278.668	47.95
279.136	50.75
279.604	52.45
280.072	48.75
280.54	54.45
281.008	56.6
281.477	57.75
281.945	53.5
282.413	52.35
282.881	54.45
283.348	54.65
283.816	54
284.284	55.45
284.752	57.5
285.22	59.05
285.688	58.35
286.156	58.45
286.623	61.75
287.091	64.6
287.559	64.35
288.026	60.55
288.494	63.2
288.962	64.35
289.429	63
289.897	66.1
290.364	63.25
290.832	66.25
291.3	68.85
291.767	65.2
292.234	70.5
292.702	68.35
293.169	71.7
293.637	75.95
294.104	70.7
294.571	69.75
295.039	73.85
295.506	66.75
295.973	74.7
296.44	72.25
296.908	77.65
297.375	76.45
297.842	78.6
298.309	76.15
298.776	80.05
299.243	80.2
299.71	78.95
300.177	78.95
300.644	83.85
301.111	83.55
301.578	83.15
302.045	79.9
302.512	87
302.979	89.7
303.446	93.3
303.913	92.5
304.379	92.9
304.846	95.25
305.313	97.6
305.78	100
306.246	99.3
306.713	107.4
307.18	102.05
307.646	102.1
308.113	104.85
308.579	111.1
309.046	101.95
309.512	108.4
309.979	114.35
310.445	107.35
310.912	109.95
311.378	120
311.845	116
312.311	113.1
312.777	114.4
313.244	117.8
313.71	124.25
314.176	122.7
314.642	127.45
315.109	121.65
315.575	121
316.041	121.65
316.507	127.7
316.973	126.7
317.439	133
317.905	129.55
318.371	130.3
318.837	126.6
319.303	131.7
319.769	129.65
320.235	138.2
320.701	140.4
321.167	132.6
321.633	139
322.099	134.45
322.564	136.85
323.03	139.8
323.496	134.85
323.962	142
324.427	149.4
324.893	143.8
325.359	148.3
325.824	148.3
326.29	157.1
326.755	148.05
327.221	155.65
327.686	164.15
328.152	158.75
328.617	161.45
329.083	164.9
329.548	170.2
330.014	166.75
330.479	167.95
330.944	173.65
331.41	174.3
331.875	171.8
332.34	169.8
332.805	174.35
333.271	173.3
333.736	174.7
334.201	178.95
334.666	191.3
335.131	188.6
335.596	187.7
336.061	187.8
336.526	188.9
336.991	181.95
337.456	177.85
337.921	179.6
338.386	178.4
338.851	181.35
339.316	181.25
339.781	181.2
340.246	188.95
340.711	188.85
341.175	192.8
341.64	198.25
342.105	198.85
342.569	212.35
343.034	199.4
343.499	207.05
343.963	215.05
344.428	216.1
344.893	212.05
345.357	215.75
345.822	220.7
346.286	227.9
346.751	229.05
347.215	232.5
347.679	241.7
348.144	247.9
348.608	252.65
349.073	250.7
349.537	261.7
350.001	254.7
350.465	261.5
350.93	255.9
351.394	264.45
351.858	266
352.322	263.3
352.786	272.7
353.25	267.7
353.715	277.4
354.179	288.95
354.643	297.65
355.107	293.5
355.571	290.1
356.035	285.05
356.498	287.35
356.962	286.1
357.426	287.35
357.89	288.85
358.354	287.4
358.818	284.75
359.281	289.2
359.745	289.65
360.209	285.65
360.673	292.15
361.136	290.6
361.6	293.6
362.064	302.25
362.527	304.95
362.991	306.05
363.454	304.8
363.918	307.65
364.381	309
364.845	312.2
365.308	310
365.772	314.85
366.235	318.6
366.698	310.35
367.162	307.9
367.625	318.5
368.088	324.45
368.552	322.5
369.015	321.1
369.478	323.15
369.941	328.7
370.404	345.65
370.867	332.2
371.331	337.2
371.794	338.35
372.257	343.65
372.72	340.8
373.183	339.55
373.646	352.25
374.109	350.3
374.572	353.2
375.035	353.4
375.497	360.1
375.96	369.3
376.423	365.8
376.886	376.7
377.349	382.9
377.811	382.7
378.274	375.5
378.737	373.65
379.199	384.95
379.662	390.6
380.125	397.4
380.587	397
381.05	403.85
381.512	407.8
381.975	419.05
382.437	426.55
382.9	420.15
383.362	423.9
383.825	429.1
384.287	426.4
384.75	429.8
385.212	433.9
385.674	441.55
386.136	440.9
386.599	437.85
387.061	433.7
387.523	439.95
387.985	444.4
388.447	451.5
388.91	445.65
389.372	454
389.834	452.4
390.296	446.15
390.758	453.2
391.22	454.2
391.682	457.65
392.144	455.4
392.606	453.35
393.068	474.75
393.529	499.7
393.991	502.35
394.453	484.2
394.915	467.55
395.377	462.55
395.838	462.95
396.3	468.7
396.762	475.25
397.224	470.5
397.685	469.25
398.147	477.6
398.608	487.7
399.07	491.05
399.531	492.6
399.993	507.25
400.454	503.8
400.916	507.2
401.377	518.85
401.839	524.2
402.3	526.35
402.762	544.05
403.223	581.85
403.684	577.5
404.145	562.15
404.607	551.5
405.068	541.6
405.529	554.6
405.99	565.7
406.451	567.9
406.913	560.1
407.374	565.6
407.835	569.85
408.296	582.2
408.757	577.7
409.218	590.2
409.679	606.7
410.14	608.85
410.601	613.3
411.062	613.7
411.522	629
411.983	631.15
412.444	642.7
412.905	648.2
413.366	661.25
413.826	696.55
414.287	778.05
414.748	911.7
415.208	925.4
415.669	785.85
416.13	726.05
416.59	708.1
417.051	731.45
417.511	757.3
417.972	812.6
418.432	860.1
418.893	943.9
419.353	902.95
419.814	718.3
420.274	653.05
420.734	642.2
421.195	671.2
421.655	657.8
422.115	671.2
422.576	672.5
423.036	679.2
423.496	703.1
423.956	717.1
424.416	772.3
424.876	863.8
425.336	856.5
425.797	838.6
426.257	828.3
426.717	793.3
427.177	746.6
427.637	757.35
428.097	780.25
428.556	810.4
429.016	862.55
429.476	878.5
429.936	866.8
430.396	865.7
430.856	882.45
431.315	897.25
431.775	954.45
432.235	1018.9
432.694	1028.7
433.154	973.3
433.614	945.1
434.073	920.65
434.533	827.85
434.993	804.85
435.452	809.3
435.912	787.85
436.371	781.85
436.83	773.1
437.29	760.35
437.749	740.9
438.209	735.8
438.668	746.1
439.127	767.65
439.587	742.2
440.046	727.35
440.505	734.15
440.964	747.65
441.424	769.95
441.883	784.85
442.342	748.7
442.801	710.8
443.26	718.05
443.719	712.65
444.178	710.2
444.637	726.9
445.096	726.95
445.555	738.15
446.014	730.35
446.473	720.4
446.932	726.35
447.391	739.7
447.849	748.1
448.308	734.95
448.767	743.7
449.226	756.85
449.685	762.8
450.143	795.4
450.602	796.55
451.061	752.05
451.519	752.65
451.978	743.9
452.436	740.85
452.895	751.75
453.353	749.85
453.812	735.45
454.27	737.5
454.729	748.75
455.187	754.4
455.646	753.25
456.104	767.5
456.562	768.55
457.021	779.15
457.479	749.85
457.937	769.25
458.395	791.9
458.854	783.75
459.312	771.35
459.77	782
460.228	792.45
460.686	797.5
461.144	807.35
461.602	793.15
462.06	797.8
462.518	818.4
462.976	817.3
463.434	822.3
463.892	825.4
464.35	847.65
464.808	857.9
465.266	867.2
465.724	880.45
466.181	884.4
466.639	876.9
467.097	916.2
467.555	947.25
468.012	940.3
468.47	950
468.928	983.05
469.385	1004.7
469.843	1021.35
470.3	1017.95
470.758	1048.95
471.215	1057.65
471.673	1084
472.13	1124.65
472.588	1138
473.045	1126.6
473.503	1149.5
473.96	1210.6
474.417	1217.55
474.875	1270
475.332	1320.15
475.789	1342.2
476.246	1382.1
476.704	1448.55
477.161	1485.3
477.618	1537.7
478.075	1631.1
478.532	1745.15
478.989	1888.35
479.446	2083.1
479.903	2199.7
480.36	2397.35
480.817	2540.45
481.274	2699.85
481.731	2941.4
482.188	3145.25
482.645	3371.7
483.102	3539.95
483.558	3752.5
484.015	3876.2
484.472	3839.55
484.929	3702.1
485.385	3559.6
485.842	3465.15
486.299	3326.1
486.755	3060.05
487.212	2773.85
487.668	2495.55
488.125	2337.85
488.582	2162.85
489.038	2089.75
489.494	2017.5
489.951	1958.55
490.407	1901.8
490.864	1880.65
491.32	1829.05
491.776	1813
492.233	1825.85
492.689	1795.45
493.145	1759.15
493.602	1745
494.058	1760.7
494.514	1756.4
494.97	1757
495.426	1782.2
495.882	1792.05
496.338	1781.45
496.794	1797
497.251	1785.8
497.707	1806.25
498.163	1806.65
498.618	1804.3
499.074	1796.05
499.53	1816.9
499.986	1829.85
500.442	1818.15
500.898	1793.9
501.354	1812.4
501.809	1821.35
502.265	1811.65
502.721	1822.65
503.177	1827.85
503.632	1847.5
504.088	1844
504.543	1857.75
504.999	1874.55
505.455	1872.95
505.91	1859.25
506.366	1854.45
506.821	1856.55
507.277	1853.7
507.732	1865.8
508.187	1857.4
508.643	1878.8
509.098	1876.75
509.553	1893.4
510.009	1920
510.464	1959.5
510.919	1982.5
511.375	1990.4
511.83	2005.65
512.285	2043.4
512.74	2094.7
513.195	2110.45
513.65	2145.4
514.105	2165.6
514.56	2170.05
515.015	2210.45
515.47	2220.1
515.925	2186
516.38	2210.45
516.835	2202.75
517.29	2180.1
517.745	2174.3
518.2	2148.4
518.655	2102.7
519.109	2079.6
519.564	2065.5
520.019	2052.5
520.474	2034.05
520.928	2020.45
521.383	2002.25
521.838	1996.45
522.292	1979.7
522.747	1963.9
523.201	1972.15
523.656	1947.25
524.11	1951.1
524.565	1937.9
525.019	1938.3
525.474	1937.9
525.928	1917.85
526.382	1930.1
526.837	1918.2
527.291	1938.4
527.745	1919.65
528.2	1920.05
528.654	1894.55
529.108	1906.3
529.562	1914.3
530.016	1908.35
530.47	1908.25
530.925	1911.2
531.379	1905.9
531.833	1923.15
532.287	1913.8
532.741	1911.4
533.195	1911.65
533.649	1916.1
534.103	1921
534.556	1905.6
535.01	1913.6
535.464	1909.2
535.918	1902.25
536.372	1919.85
536.826	1909.75
537.279	1898.15
537.733	1907.7
538.187	1909.55
538.64	1906.1
539.094	1924.65
539.548	1949.85
540.001	1951.1
540.455	1964.5
540.908	1955.55
541.362	1991.45
541.815	2005.55
542.269	2041.45
542.722	2039.8
543.175	2049.1
543.629	2069.2
544.082	2075.75
544.536	2098.45
544.989	2093.05
545.442	2115.55
545.895	2118.2
546.349	2110.85
546.802	2124.2
547.255	2122
547.708	2129
548.161	2149.75
548.614	2146.05
549.067	2160.75
549.52	2153.65
549.973	2109.75
550.426	2117.3
550.879	2121.1
551.332	2120.35
551.785	2134.4
552.238	2150.1
552.691	2155.05
553.144	2198.6
553.596	2233.05
554.049	2247.85
554.502	2289.1
554.955	2314.6
555.407	2336.85
555.86	2307.15
556.313	2295.45
556.765	2277.4
557.218	2248.1
557.67	2237.9
558.123	2219.1
558.576	2202.6
559.028	2203.8
559.48	2207.4
559.933	2196.15
560.385	2144.5
560.838	2081.4
561.29	2021.1
561.742	2019.6
562.195	1966.25
562.647	1949.3
563.099	1934.9
563.551	1933.45
564.004	1941.55
564.456	1928.75
564.908	1888
565.36	1855.75
565.812	1811.15
566.264	1801.05
566.716	1780.9
567.168	1754.1
567.62	1754.25
568.072	1734.9
568.524	1723.05
568.976	1721.6
569.428	1707.6
569.88	1708.2
570.332	1724.7
570.784	1727.55
571.235	1716
571.687	1731.4
572.139	1729.9
572.59	1753.4
573.042	1753.7
573.494	1747.15
573.945	1726.2
574.397	1700.75
574.849	1690.55
575.3	1700.6
575.752	1665.45
576.203	1657.05
576.655	1671.15
577.106	1638.2
577.557	1624
578.009	1613.95
578.46	1630.35
578.912	1612.25
579.363	1628.05
579.814	1618.9
580.265	1619.75
580.717	1613.85
581.168	1620.55
581.619	1620.5
582.07	1637.8
582.521	1630.6
582.972	1626.8
583.423	1626.6
583.875	1644.6
584.326	1650.95
584.777	1676.7
585.227	1713.55
585.678	1728.5
586.129	1738.35
586.58	1757.15
587.031	1787.9
587.482	1824
587.933	1845.55
588.384	1852.2
588.834	1823
589.285	1810.55
589.736	1821.7
590.186	1819.1
590.637	1806.3
591.088	1761.35
591.538	1728.8
591.989	1702
592.439	1690.05
592.89	1664.9
593.34	1667.85
593.791	1658
594.241	1649.8
594.692	1648.5
595.142	1645.8
595.593	1634.8
596.043	1660.3
596.493	1674.05
596.943	1666.2
597.394	1707.2
597.844	1727.9
598.294	1773.45
598.744	1823.45
599.195	1920.2
599.645	2013.55
600.095	2123
600.545	2224.25
600.995	2321
601.445	2378.15
601.895	2479.9
602.345	2548.8
602.795	2501.2
603.245	2398.6
603.695	2275.15
604.145	2164
604.594	2057.65
605.044	1950.45
605.494	1843.5
605.944	1749.2
606.393	1709.5
606.843	1688.45
607.293	1689.35
607.743	1667.45
608.192	1670.25
608.642	1682
609.091	1676.6
609.541	1669.75
609.99	1668.45
610.44	1635.35
610.889	1622.05
611.339	1589.4
611.788	1586.25
612.238	1598.05
612.687	1597.45
613.136	1603.65
613.586	1621.95
614.035	1615.95
614.484	1617
614.933	1623.6
615.383	1591.35
615.832	1552.5
616.281	1531.85
616.73	1499.7
617.179	1461.05
617.628	1444
618.077	1418.05
618.526	1396
618.975	1384.2
619.424	1373.05
619.873	1362.95
620.322	1353.85
620.771	1345.2
621.22	1329.45
621.669	1298.8
622.118	1287.65
622.567	1284.15
623.015	1258.25
623.464	1259.15
623.913	1247.15
624.361	1241.5
624.81	1243.1
625.259	1244.95
625.707	1232.8
626.156	1245.8
626.604	1267.6
627.053	1270.05
627.501	1253.1
627.95	1265.75
628.398	1284.55
628.847	1261.8
629.295	1256.35
629.744	1249.65
630.192	1230.75
630.64	1212.9
631.089	1201.05
631.537	1170
631.985	1160.3
632.433	1159.9
632.881	1143.75
633.33	1159.75
633.778	1156.5
634.226	1167.85
634.674	1178.5
635.122	1185.85
635.57	1195.4
636.018	1213.95
636.466	1212.55
636.914	1216.65
637.362	1231.7
637.81	1260.8
638.258	1295.55
638.705	1318.4
639.153	1364.3
639.601	1381.35
640.049	1390.15
640.497	1422.35
640.944	1441.75
641.392	1401.5
641.84	1336.25
642.287	1273.6
642.735	1246.25
643.182	1241.8
643.63	1243.45
644.078	1253.4
644.525	1274.9
644.973	1303.4
645.42	1339.1
645.867	1374.9
646.315	1393.4
646.762	1446.8
647.21	1497.25
647.657	1572.9
648.104	1643.95
648.551	1693.6
648.999	1837.95
649.446	2018.9
649.893	2282.2
650.34	2670.7
650.787	3316.45
651.234	4291.5
651.682	5967.2
652.129	8428.25
652.576	11958.3
653.023	15329.3
653.47	15532.1
653.917	15532.15
654.363	15532.05
654.81	15529.05
655.257	15529.7
655.704	14159.85
656.151	8646.1
656.598	5711.15
657.044	4111.45
657.491	3219.2
657.938	2624.05
658.385	2206
658.831	1964.8
659.278	1760.35
659.724	1612.35
660.171	1509.55
660.618	1396.75
661.064	1314.85
661.511	1274.15
661.957	1233.7
662.404	1208.6
662.85	1193.2
663.296	1176
663.743	1142.4
664.189	1127.85
664.635	1120.6
665.082	1089.7
665.528	1084.4
665.974	1051.8
666.42	1023.95
666.867	1027.5
667.313	976.3
667.759	965.7
668.205	956.05
668.651	954.15
669.097	959.45
669.543	958.3
669.989	977.45
670.435	972
670.881	983.25
671.327	1022.55
671.773	1094.2
672.219	1173.95
672.665	1244.9
673.11	1290.55
673.556	1297.65
674.002	1304
674.448	1311.15
674.893	1144.75
675.339	988.75
675.785	922.65
676.23	876.55
676.676	847.9
677.122	812.7
677.567	794
678.013	773.6
678.458	768.05
678.904	765.05
679.349	754.3
679.794	747.45
680.24	750.1
680.685	740.2
681.131	739.5
681.576	747.2
682.021	756.4
682.466	766.6
682.912	765.25
683.357	802.85
683.802	870.95
684.247	956.95
684.692	1010.75
685.137	1054.25
685.583	1066.95
686.028	1102.65
686.473	1061.1
686.918	923.5
687.363	842.6
687.807	804.25
688.252	765.35
688.697	744.15
689.142	726.5
689.587	728.35
690.032	740.8
690.477	774.75
690.921	813.05
691.366	852.7
691.811	876.85
692.255	955.7
692.7	1164.6
693.145	1698.75
693.589	2593.75
694.034	3079.1
694.478	3196.45
694.923	2849.25
695.367	3876.4
695.812	2460.55
696.256	1073.2
696.701	794.8
697.145	731.8
697.59	705.7
698.034	693.15
698.478	691.45
698.922	699.4
699.367	708.5
699.811	740.75
700.255	811.05
700.699	885.5
701.143	953.05
701.588	1008.85
702.032	1032.6
702.476	1073
702.92	1165.7
703.364	1542.4
703.808	2367.2
704.252	2926.2
704.696	3033.65
705.14	2789.85
705.584	3665
706.027	2134.75
706.471	1097.8
706.915	822.4
707.359	732.55
707.803	683
708.246	662.95
708.69	654.05
709.134	649.3
709.577	648.25
710.021	650.75
710.465	653.7
710.908	653.15
711.352	674.15
711.795	742.8
712.239	802.1
712.682	810
713.126	791.6
713.569	870.75
714.012	729.45
714.456	635.25
714.899	601.3
715.342	574.85
715.786	553.1
716.229	540
716.672	529.9
717.115	525.95
717.558	532.85
718.002	551.35
718.445	579.7
718.888	603.4
719.331	612.4
719.774	622.65
720.217	615.45
720.66	579.4
721.103	553.3
721.546	525.15
721.989	516.55
722.432	503.55
722.874	498.65
723.317	515.05
723.76	553.4
724.203	687.9
724.645	915.2
725.088	1062.35
725.531	1031.6
725.974	1090.3
726.416	997.35
726.859	628.3
727.301	525
727.744	498.2
728.187	498.35
728.629	511.05
729.071	537.4
729.514	557.15
729.956	578.05
730.399	590.65
730.841	599.8
731.283	580.7
731.726	568.7
732.168	578.45
732.61	602.95
733.053	650.9
733.495	723.65
733.937	794.9
734.379	941.1
734.821	1209.95
735.263	1936.05
735.705	3490.65
736.148	5030.7
736.59	4942.2
737.032	5109.45
737.474	4240.55
737.916	1710.05
738.357	898.1
738.799	694.85
739.241	646.65
739.683	652.65
740.125	672.9
740.567	681.45
741.008	712.6
741.45	762.25
741.892	802.25
742.334	807.35
742.775	792.25
743.217	754.65
743.658	648.9
744.1	681.55
744.542	790.65
744.983	811.4
745.425	823.95
745.866	797.6
746.307	676.85
746.749	721.85
747.19	1043.6
747.632	2035.55
748.073	3768.15
748.514	5131.7
748.956	6670.2
749.397	7757.15
749.838	5371.6
750.279	4896.25
750.72	2645.4
751.162	1145.75
751.603	665.3
752.044	532.25
752.485	474.45
752.926	444.4
753.367	424.45
753.808	413.55
754.249	403.45
754.69	404.2
755.131	394.2
755.572	400.8
756.013	396.25
756.453	397.85
756.894	406
757.335	403.6
757.776	408.8
758.216	426.5
758.657	457.9
759.098	501.1
759.538	617
759.979	885.25
760.42	1788.05
760.86	4585.4
761.301	9366.2
761.741	10793.45
762.182	11712.7
762.622	7722.2
763.063	2871.4
763.503	1187.55
763.943	695.8
764.384	554.35
764.824	480.05
765.264	446.05
765.705	413.3
766.145	390.65
766.585	378.85
767.025	372.45
767.465	375.7
767.906	379.2
768.346	404.75
768.786	475.6
769.226	694.5
769.666	1398.25
770.106	3107.95
770.546	4356.3
770.986	4681.55
771.426	3558.8
771.866	1554.7
772.306	710.6
772.745	446.5
773.185	374.95
773.625	365.05
774.065	397.75
774.505	580.4
774.944	1037.4
775.384	1475.8
775.824	1599.95
776.263	1308.65
776.703	715.75
777.142	414.9
777.582	307.8
778.021	280.6
778.461	271.95
778.9	265.2
779.34	255.25
779.779	250.65
780.219	244.65
780.658	240.15
781.097	237.3
781.537	227.45
781.976	234.1
782.415	227.7
782.855	229.65
783.294	226.4
783.733	222.05
784.172	227.25
784.611	225.85
785.05	231.6
785.489	239.75
785.928	243.75
786.367	256.65
786.806	266.45
787.245	293.25
787.684	291.7
788.123	296.55
788.562	282.3
789.001	273.3
789.44	262.9
789.879	268.25
790.317	270.3
790.756	286.1
791.195	330.25
791.634	445.85
792.072	808.15
792.511	1954.15
792.95	3563.45
793.388	4109.3
793.827	2698.75
794.265	1283.8
794.704	624.85
795.142	387.35
795.581	313.8
796.019	282.15
796.458	283
796.896	293.05
797.334	336
797.773	458.35
798.211	867.2
798.649	1796.85
799.087	2961.95
799.526	4165.3
799.964	4207.35
800.402	2892.35
800.84	1360.55
801.278	673.2
801.716	406.45
802.154	337.5
802.592	310.25
803.03	315.1
803.468	320
803.906	322.75
804.344	315.25
804.782	308.95
805.22	308.45
805.658	322.25
806.096	339.5
806.533	386.65
806.971	494
807.409	715.5
807.847	1418.45
808.284	3587.95
808.722	6216.6
809.16	8601.05
809.597	11860.8
810.035	14050.7
810.472	9238.75
810.91	4070.85
811.347	1851.9
811.785	883.2
812.222	552.95
812.66	422.6
813.097	357.95
813.535	311.95
813.972	282.25
814.409	265.65
814.846	247.1
815.284	237.3
815.721	243.5
816.158	267.95
816.595	370.15
817.032	464.85
817.47	418.15
817.907	313.15
818.344	270.65
818.781	263.85
819.218	329.35
819.655	495.9
820.092	641.3
820.529	577.6
820.966	448.85
821.403	312.95
821.839	271.8
822.276	298.65
822.713	353.7
823.15	325.1
823.587	340.1
824.023	593
824.46	1464.9
824.897	2459.8
825.333	1923.25
825.77	905.65
826.206	492.6
826.643	286.45
827.08	210
827.516	189.5
827.953	176.85
828.389	164.4
828.825	155.15
829.262	145.45
829.698	142.2
830.135	136.45
830.571	143.05
831.007	137.9
831.443	142.4
831.88	138.75
832.316	145.3
832.752	143.75
833.188	149.65
833.624	151.55
834.06	151.1
834.497	155.35
834.933	158.2
835.369	167.65
835.805	180.8
836.241	180.1
836.677	200.65
837.112	234.75
837.548	292.5
837.984	436.35
838.42	923.9
838.856	2534.35
839.292	4844.15
839.727	3652.95
840.163	2524.1
840.599	3817.35
841.034	5613
841.47	2885.45
841.906	1430.9
842.341	775
842.777	574.1
843.212	576
843.648	372.6
844.083	260.85
844.519	190.65
844.954	165.65
845.39	150.25
845.825	137.3
846.261	130.6
846.696	127.2
847.131	123.75
847.566	118.9
848.002	127.45
848.437	132
848.872	138.75
849.307	176.4
849.742	322.8
850.177	828.95
850.613	1711.5
851.048	1249.05
851.483	585.5
851.918	328.8
852.353	178.5
852.788	131.65
853.223	121.95
853.657	104.15
854.092	105.95
854.527	106.7
854.962	113.05
855.397	119.35
855.832	101.5
856.266	92.15
856.701	92.8
857.136	106.05
857.57	124.1
858.005	142.95
858.44	123.2
858.874	113.5
859.309	108.45
859.743	114.15
860.178	108.75
860.612	125.7
861.047	167.1
861.481	232.35
861.915	165.3
862.35	119.8
862.784	98.45
863.218	90.85
863.653	104.1
864.087	118.7
864.521	150.05
864.955	247.45
865.39	410.7
865.824	324.4
866.258	422.4
866.692	639.25
867.126	469.25
867.56	255.2
867.994	160.3
868.428	139.05
868.862	166.7
869.296	156.45
869.73	187.45
870.164	163.35
870.598	146.95
871.031	106.4
871.465	92.55
871.899	75.6
872.333	64.65
872.766	66.95
873.2	67.85
873.634	63.15
874.067	67.9
874.501	67.1
874.935	68.95
875.368	71.6
875.802	64.9
876.235	61.35
876.669	60.8
877.102	52.55
877.535	53.55
877.969	52.6
878.402	55.5
878.836	53.95
879.269	48.2
879.702	55.15
880.135	52.85
880.569	58
881.002	51
881.435	52.5
881.868	52.2
882.301	45.4
882.734	45.4
883.167	48.45
883.601	47.1
884.034	47.8
884.467	43.25
884.899	48.15
885.332	40.95
885.765	51.25
886.198	42.25
886.631	42.4
887.064	42.1
887.497	42.6
887.929	42.9
888.362	41.15
888.795	42.7
889.228	46
889.66	41.7
890.093	38.1
890.526	40.35
890.958	40.6
891.391	39.75
891.823	36.8
892.256	39.9
892.688	42.15
893.121	38.25
893.553	46.95
893.985	36.85
894.418	34.3
894.85	40.85
895.282	33.5
895.715	35.45
896.147	33.85
896.579	33.05
897.011	42.05
897.444	42.25
897.876	34.85
898.308	32.5
898.74	37.7
899.172	35.8
899.604	38.05
900.036	37.3
900.468	37.05
900.9	43.1
901.332	52.25
901.764	56.15
902.196	50.3
902.628	54
903.06	76.8
903.491	80.3
903.923	65.95
904.355	64.85
904.787	68.05
905.218	56.2
905.65	49.85
906.082	43.95
906.513	44.9
906.945	46.45
907.376	43.4
907.808	43.95
908.239	49.7
908.671	53.05
909.102	56.2
909.534	84.2
909.965	159.7
910.397	407.2
910.828	1125.25
911.259	714.95
911.691	392.15
912.122	231.4
912.553	119.6
912.984	65.1
913.415	59.15
913.847	47.45
914.278	49.2
914.709	38.85
915.14	42.35
915.571	40.25
916.002	43.5
916.433	35.75
916.864	33.85
917.295	40.05
917.726	47.9
918.157	57.65
918.587	56.1
919.018	52.8
919.449	51.4
919.88	60.3
920.311	92.95
920.741	237.3
921.172	418.45
921.603	214.75
922.033	133.9
922.464	90.35
922.895	53.35
923.325	38.65
923.756	38.1
924.186	48.65
924.617	65.65
925.047	99.6
925.478	89.1
925.908	63.35
926.338	46.95
926.769	41.25
927.199	39.85
927.629	30.8
928.06	33.7
928.49	34.85
928.92	34.4
929.35	27.75
929.78	23.3
930.21	23.4
930.641	18
931.071	20.25
931.501	20.25
931.931	16.9
932.361	15.9
932.791	22.9
933.221	23.4
933.651	34.9
934.08	54.85
934.51	35
934.94	26.65
935.37	22.1
935.8	19.8
936.229	18.6
936.659	18.95
937.089	36.55
937.519	51.15
937.948	71.7
938.378	43.95
938.807	29.4
939.237	17.35
939.666	13.7
940.096	12.3
940.525	2
940.955	12
941.384	9.6
941.814	11.3
942.243	9.95
942.672	6.6
943.102	7.35
943.531	12.35
943.96	8.75
944.39	10.35
944.819	8.7
945.248	10.85
945.677	8.65
946.106	9.2
946.535	13.05
946.964	9.5
947.393	5.8
947.822	10.65
948.251	11.5
948.68	13.7
949.109	6.4
949.538	3.1
949.967	7.95
950.396	3.65
950.825	10.3
951.254	7.6
951.682	3.4
952.111	4.95
952.54	8.5
952.969	6.65
953.397	1.75
953.826	2.85
954.254	9.3
954.683	12.65
955.112	11.4
955.54	6.8
955.969	8.15
956.397	5.7
956.826	3.3
957.254	5.75
957.682	9
958.111	12.6
958.539	4.25
958.967	8.4
959.396	16.9
959.824	2.35
960.252	4.1
960.68	7.2
961.109	7.65
961.537	14.95
961.965	5.25
962.393	5.35
962.821	10.25
963.249	8.15
963.677	15.55
964.105	68.9
964.533	120.85
964.961	65.7
965.389	31.4
965.817	19.3
966.245	8.35
966.672	8.4
967.1	12.8
967.528	3.8
967.956	4
968.383	5.3
968.811	5.15
969.239	4.55
969.666	5.5
970.094	8.6
970.522	2.9
970.949	4
971.377	-6
971.804	2.15
972.232	-0.35
972.659	3
973.087	3.25
973.514	2.95
973.941	1.25
974.369	-0.15
974.796	-0.55
975.223	1.65
975.651	6.6
976.078	5.45
976.505	12.2
976.932	28.4
977.359	37.05
977.786	23.1
978.214	17.9
978.641	5.65
979.068	7.55
979.495	5.65
979.922	3.85
980.349	9.05
980.776	7.1
981.202	9.25
981.629	10.45
982.056	5.45
982.483	-2.35
982.91	4.9
983.337	1
983.763	1.1
984.19	4.35
984.617	0.8
985.043	3.5
985.47	4.5
985.897	6
986.323	7.55
986.75	1.05
987.176	2.1
987.603	4.8
988.029	2.8
988.456	7.3
988.882	4.45
989.308	-3.35
989.735	-1.95
990.161	2.8
990.587	3.6
991.014	5.25
991.44	8.2
991.866	-0.65
992.292	3.35
992.719	-0.4
993.145	7.45
993.571	3.15
993.997	6.25
994.423	4.4
994.849	-1.8
995.275	8.25
995.701	1.4
996.127	1.5
996.553	1.9
996.979	-2.1
997.405	7.3
997.83	2.7
998.256	0.3
998.682	-0.2
999.108	5.25
999.534	-1.9
999.959	1.15
1000.385	5.9
1000.811	-3.2
1001.236	-5.25
1001.662	-0.45
1002.087	5.8
1002.513	0.3
1002.938	-2.85
1003.364	0.55
1003.789	7.45
1004.215	3.25
1004.64	2.7
1005.066	4.85
1005.491	5.8
1005.916	1.2
1006.342	3.9
1006.767	4.45
1007.192	7
1007.617	2.8
1008.042	-1.15
1008.468	3.3
1008.893	4.15
1009.318	9.7
1009.743	14.8
1010.168	30.65
1010.593	22.65
1011.018	13.8
1011.443	11.15
1011.868	10.3
1012.293	11
1012.718	3.55
1013.143	3.3
1013.567	5.15
1013.992	4.45
1014.417	4.45
1014.842	0.65
1015.267	1.95
1015.691	4.5
1016.116	-1.15
1016.541	1.6
1016.965	3.95
1017.39	2.65
1017.814	-1.85
1018.239	0.55
1018.663	-5.35
1019.088	-1
1019.512	5.95
1019.937	0.75
1020.361	0.9
1020.785	-2.85
1021.21	-3.8
1021.634	0.45
1022.058	4.25
1022.483	-2.95
1022.907	-0.4
1023.331	-1.85
1023.755	-0.95
1024.179	0.55
1024.604	0.65
1025.028	4.8
1025.452	2.5
1025.876	0
1026.3	3.6
1026.724	-2.5
1027.148	3.2
1027.572	-1.8
1027.996	3.35
1028.42	-3.75
1028.843	-0.1
1029.267	-3.95
1029.691	1.05
1030.115	-1.5
1030.539	-0.05
1030.962	-0.7
1031.386	-2.75
1031.81	-1.45
1032.233	-4.3
1032.657	-3.75
1033.08	-2.05
1033.504	0.3
1033.927	-3.45
1034.351	-1.8
1034.774	-2.9
1035.198	-0.1
1035.621	0.85
1036.045	-2.55
1036.468	2.05
1036.891	1.6
1037.315	-0.7
1037.738	0
1038.161	3.1
1038.584	0.2
1039.008	-4.85
1039.431	-2.9
1039.854	-4.05
1040.277	0.4
1040.7	-1.05
1041.123	-2.85
1041.546	-2.35
1041.969	2.3
1042.392	4.9
1042.815	-5
1043.238	0.2
1043.661	-1.5
1044.084	-1.55
1044.507	-3.6
1044.93	-0.3
1045.352	-0.5
1045.775	-0.05
1046.198	-0.75
1046.621	3.3
1047.043	0.3
1047.466	5.05
1047.889	-0.25
1048.311	4.4
1048.734	0.15
1049.156	-2.9
1049.579	-2.75
1050.001	-2.55
1050.424	-1.85
1050.846	-7.45
1051.269	-1.05
1051.691	-5.7
1052.113	-1.9
1052.536	-3.4
1052.958	-7.15
1053.38	2.5
1053.802	-2.5
1054.225	-0.95
1054.647	1
1055.069	5.15
1055.491	-3.15
1055.913	1.45
1056.335	-5.65
1056.757	-6.35
1057.179	-2.2
1057.601	-4.15
1058.023	2.1
1058.445	-8
1058.867	6.6
1059.289	1.7
1059.711	-3.05
1060.133	-3.3
1060.555	-2
1060.976	2.5
1061.398	-1.15
1061.82	0.45
1062.241	-1.5
1062.663	-1
1063.085	-3.55
1063.506	-4.15
1063.928	-5.8
1064.35	-0.45
1064.771	-0.65
1065.193	-2.45
1065.614	-1.95
1066.035	0.55
1066.457	0
1066.878	-1.55
1067.3	-1.95
1067.721	0.1
1068.142	5
1068.564	1.1
1068.985	0.9
1069.406	-5.65
1069.827	-2.95
1070.248	-3.8
1070.67	-4.85
1071.091	-4.3
1071.512	-0.65
1071.933	-0.55
1072.354	-10.4
1072.775	-5.1
1073.196	-3.9
1073.617	-3.85
1074.038	-1.35
1074.459	-5.05
1074.88	-3.35
1075.3	-3.35
1075.721	-0.7
1076.142	-3.3
1076.563	-8.45
1076.983	0.7
1077.404	-8.05
1077.825	-3.2
1078.246	-4.6
1078.666	-2.1
1079.087	-2.8
1079.507	-4.3
1079.928	2.7
1080.348	-3.15
1080.769	4.45
1081.189	-2.3
1081.61	-4.35
1082.03	0
1082.451	-5.4
1082.871	-7.4
1083.291	-3.2
1083.711	-0.05
1084.132	-0.15
1084.552	-4.95
1084.972	-3.4
1085.392	-2.55
1085.813	-1.6
1086.233	0.75
1086.653	-3.4
1087.073	-3.05
1087.493	-1.1
1087.913	-4.85
1088.333	-0.25
1088.753	-0.55
1089.173	3.5
1089.593	1.55
1090.013	4.15
1090.433	-5.4
1090.852	2.5
1091.272	-7.1
1091.692	-2.6
1092.112	-3.65
1092.531	-9
1092.951	-2.95
1093.371	-2.4
1093.79	-4.25
1094.21	-4.5
1094.63	-0.55
1095.049	-1.3
1095.469	-11.45
1095.888	-2.65
1096.308	0
1096.727	-4.45
1097.146	-3.25
1097.566	-3.6
1097.985	-1.7
1098.405	-0.6
1098.824	1.25
1099.243	-4.45
1099.662	-2.8
1100.082	-5.4
1100.501	-2.35
1100.92	1.55
1101.339	0.6
1101.758	1.15
