Data from MSPlasma+Separation6_Subt14_10-13-56-821.txt Node
Date: Fri Jul 21 10:13:56 EDT 2017
User: Ender
Spectrometer: HR+D1039
Trigger mode: 0
Integration Time (sec): 6.430000E-3
Scans to average: 20
Electric dark correction enabled: true
Nonlinearity correction enabled: false
Boxcar width: 0
XAxis mode: Wavelengths
Number of Pixels in Spectrum: 2048
>>>>>Begin Spectral Data<<<<<
187.836	-0.28
188.309	-0.28
188.782	-0.28
189.255	1.37
189.728	3.32
190.201	-5.98
190.674	-0.53
191.147	1.17
191.619	-2.28
192.092	0.87
192.565	-2.18
193.038	1.02
193.511	0.57
193.984	1.07
194.456	0.87
194.929	2.87
195.402	-1.43
195.874	-0.38
196.347	2.07
196.82	3.92
197.292	-0.63
197.765	-1.98
198.237	-0.58
198.71	-4.23
199.182	2.87
199.655	-0.48
200.127	1.82
200.6	2.77
201.072	6.02
201.544	-1.08
202.017	-0.83
202.489	1.77
202.961	0.92
203.433	0.57
203.906	-2.23
204.378	3.17
204.85	6.07
205.322	-3.48
205.794	4.67
206.266	-1.08
206.739	4.57
207.211	-0.13
207.683	2.57
208.155	5.57
208.627	3.22
209.099	2.62
209.57	3.72
210.042	1.37
210.514	0.27
210.986	2.77
211.458	-1.63
211.93	7.82
212.402	-0.18
212.873	-4.18
213.345	-4.03
213.817	5.32
214.288	0.47
214.76	5.62
215.232	4.07
215.703	5.07
216.175	6.32
216.646	8.32
217.118	6.77
217.589	3.22
218.061	7.12
218.532	-2.33
219.004	7.27
219.475	1.67
219.946	4.97
220.418	8.97
220.889	7.67
221.36	3.87
221.832	9.52
222.303	6.52
222.774	6.07
223.245	2.42
223.717	2.77
224.188	4.77
224.659	7.72
225.13	2.17
225.601	2.72
226.072	3.32
226.543	11.97
227.014	11.22
227.485	10.92
227.956	7.32
228.427	8.62
228.898	12.32
229.369	9.52
229.839	6.87
230.31	10.87
230.781	11.87
231.252	11.42
231.722	11.57
232.193	7.77
232.664	13.77
233.135	11.67
233.605	4.92
234.076	11.02
234.546	13.17
235.017	14.07
235.487	15.77
235.958	13.67
236.428	17.77
236.899	8.87
237.369	19.27
237.84	16.92
238.31	18.22
238.78	12.72
239.251	15.87
239.721	15.07
240.191	14.57
240.662	18.32
241.132	13.72
241.602	20.52
242.072	20.82
242.542	18.92
243.013	20.92
243.483	19.62
243.953	16.27
244.423	19.92
244.893	21.82
245.363	27.12
245.833	24.52
246.303	20.02
246.773	24.12
247.243	17.62
247.712	24.62
248.182	23.87
248.652	26.72
249.122	26.72
249.592	25.67
250.061	26.57
250.531	27.12
251.001	30.42
251.471	30.92
251.94	30.22
252.41	27.72
252.879	30.72
253.349	39.07
253.818	33.62
254.288	37.72
254.757	32.37
255.227	38.32
255.696	40.77
256.166	36.87
256.635	37.57
257.105	37.57
257.574	35.92
258.043	40.67
258.513	40.27
258.982	34.62
259.451	41.52
259.92	42.32
260.389	40.12
260.859	38.67
261.328	45.77
261.797	40.82
262.266	43.97
262.735	48.92
263.204	42.32
263.673	45.52
264.142	42.42
264.611	45.02
265.08	47.07
265.549	46.87
266.018	47.62
266.487	50.12
266.955	47.32
267.424	50.12
267.893	46.42
268.362	56.47
268.83	45.77
269.299	52.97
269.768	56.57
270.236	53.32
270.705	56.57
271.174	53.32
271.642	52.67
272.111	61.97
272.579	57.87
273.048	52.97
273.516	58.67
273.985	62.72
274.453	58.72
274.922	57.32
275.39	58.27
275.858	65.62
276.327	61.52
276.795	66.07
277.263	65.97
277.731	66.82
278.2	69.82
278.668	64.22
279.136	72.67
279.604	69.82
280.072	63.42
280.54	70.72
281.008	77.82
281.477	72.37
281.945	72.67
282.413	75.27
282.881	81.22
283.348	79.42
283.816	78.57
284.284	78.62
284.752	80.87
285.22	83.57
285.688	78.92
286.156	76.37
286.623	82.52
287.091	80.62
287.559	82.92
288.026	88.67
288.494	83.87
288.962	88.52
289.429	85.52
289.897	81.07
290.364	83.87
290.832	88.27
291.3	85.12
291.767	92.52
292.234	94.72
292.702	90.27
293.169	91.42
293.637	95.82
294.104	98.02
294.571	98.02
295.039	95.92
295.506	92.52
295.973	98.62
296.44	96.72
296.908	103.47
297.375	97.92
297.842	102.12
298.309	96.72
298.776	102.57
299.243	105.67
299.71	104.52
300.177	105.92
300.644	102.32
301.111	111.32
301.578	113.52
302.045	109.62
302.512	107.02
302.979	113.72
303.446	118.47
303.913	116.72
304.379	125.22
304.846	121.12
305.313	125.67
305.78	130.02
306.246	129.67
306.713	131.42
307.18	131.32
307.646	128.57
308.113	130.27
308.579	138.97
309.046	140.62
309.512	139.77
309.979	141.22
310.445	140.87
310.912	143.37
311.378	146.07
311.845	147.12
312.311	144.07
312.777	148.67
313.244	152.42
313.71	151.97
314.176	156.42
314.642	150.62
315.109	156.97
315.575	155.77
316.041	160.57
316.507	156.32
316.973	165.52
317.439	161.67
317.905	168.97
318.371	161.92
318.837	159.17
319.303	171.87
319.769	161.52
320.235	173.47
320.701	174.02
321.167	170.87
321.633	177.12
322.099	172.07
322.564	175.22
323.03	177.22
323.496	171.62
323.962	176.42
324.427	180.67
324.893	183.07
325.359	186.67
325.824	190.37
326.29	189.07
326.755	191.72
327.221	191.27
327.686	200.42
328.152	199.62
328.617	207.37
329.083	208.52
329.548	206.97
330.014	203.27
330.479	204.92
330.944	209.87
331.41	219.12
331.875	204.12
332.34	208.52
332.805	210.77
333.271	213.67
333.736	213.72
334.201	213.67
334.666	233.32
335.131	233.77
335.596	228.77
336.061	223.47
336.526	229.67
336.991	222.27
337.456	217.22
337.921	222.77
338.386	220.52
338.851	216.57
339.316	219.32
339.781	220.42
340.246	223.97
340.711	229.92
341.175	235.27
341.64	238.42
342.105	239.77
342.569	254.77
343.034	242.17
343.499	248.62
343.963	253.37
344.428	255.37
344.893	262.27
345.357	262.67
345.822	265.77
346.286	273.82
346.751	277.67
347.215	269.62
347.679	284.47
348.144	300.27
348.608	299.72
349.073	302.72
349.537	310.22
350.001	312.92
350.465	303.97
350.93	308.62
351.394	309.87
351.858	313.42
352.322	320.12
352.786	325.17
353.25	319.57
353.715	326.77
354.179	340.27
354.643	348.77
355.107	353.42
355.571	348.52
356.035	343.52
356.498	342.92
356.962	342.67
357.426	344.32
357.89	342.17
358.354	333.47
358.818	331.67
359.281	335.77
359.745	341.37
360.209	337.27
360.673	337.87
361.136	338.82
361.6	342.87
362.064	349.27
362.527	363.42
362.991	357.87
363.454	353.32
363.918	359.87
364.381	366.17
364.845	361.02
365.308	364.62
365.772	367.62
366.235	367.32
366.698	365.77
367.162	365.97
367.625	367.52
368.088	379.72
368.552	372.67
369.015	382.82
369.478	379.67
369.941	383.27
370.404	393.62
370.867	386.92
371.331	388.52
371.794	393.97
372.257	396.62
372.72	396.87
373.183	402.67
373.646	403.72
374.109	403.77
374.572	399.17
375.035	408.47
375.497	413.42
375.96	420.17
376.423	433.87
376.886	422.92
377.349	437.52
377.811	436.22
378.274	438.12
378.737	436.57
379.199	444.17
379.662	444.77
380.125	448.07
380.587	455.12
381.05	466.22
381.512	464.87
381.975	474.17
382.437	484.07
382.9	482.07
383.362	484.62
383.825	491.92
384.287	493.62
384.75	487.72
385.212	497.17
385.674	503.12
386.136	501.27
386.599	498.27
387.061	497.42
387.523	510.42
387.985	506.27
388.447	516.42
388.91	504.67
389.372	512.17
389.834	516.47
390.296	503.92
390.758	513.22
391.22	513.57
391.682	513.42
392.144	516.67
392.606	517.42
393.068	536.07
393.529	565.12
393.991	566.67
394.453	541.52
394.915	527.32
395.377	516.02
395.838	519.52
396.3	529.22
396.762	538.77
397.224	532.82
397.685	532.77
398.147	537.17
398.608	549.87
399.07	549.22
399.531	551.37
399.993	564.47
400.454	569.62
400.916	568.97
401.377	585.77
401.839	589.67
402.3	584.27
402.762	612.27
403.223	648.97
403.684	655.12
404.145	631.22
404.607	614.72
405.068	596.22
405.529	619.57
405.99	629.92
406.451	633.52
406.913	623.12
407.374	631.67
407.835	629.62
408.296	644.42
408.757	648.32
409.218	665.07
409.679	669.27
410.14	673.42
410.601	691.82
411.062	688.02
411.522	699.47
411.983	695.57
412.444	699.92
412.905	712.72
413.366	740.42
413.826	776.07
414.287	874.67
414.748	1022.07
415.208	1047.72
415.669	879.22
416.13	800.47
416.59	787.47
417.051	807.02
417.511	846.82
417.972	908.32
418.432	982.27
418.893	1092.22
419.353	1053.02
419.814	807.92
420.274	725.92
420.734	709.57
421.195	734.17
421.655	721.27
422.115	740.27
422.576	734.57
423.036	747.12
423.496	767.17
423.956	796.97
424.416	857.12
424.876	961.02
425.336	955.97
425.797	948.32
426.257	923.62
426.717	880.87
427.177	814.32
427.637	823.52
428.097	858.17
428.556	890.82
429.016	950.52
429.476	953.37
429.936	925.47
430.396	921.27
430.856	957.22
431.315	966.72
431.775	1039.47
432.235	1119.87
432.694	1131.92
433.154	1071.82
433.614	1046.52
434.073	1003.87
434.533	909.02
434.993	885.72
435.452	884.42
435.912	872.97
436.371	871.12
436.83	859.12
437.29	844.67
437.749	819.32
438.209	811.77
438.668	832.27
439.127	846.32
439.587	826.12
440.046	808.02
440.505	830.27
440.964	835.47
441.424	867.32
441.883	881.37
442.342	826.32
442.801	789.12
443.26	798.37
443.719	795.92
444.178	796.92
444.637	807.72
445.096	805.07
445.555	812.12
446.014	812.77
446.473	806.32
446.932	807.27
447.391	817.12
447.849	831.37
448.308	816.82
448.767	826.62
449.226	837.52
449.685	854.17
450.143	880.42
450.602	883.32
451.061	835.37
451.519	846.82
451.978	830.92
452.436	820.87
452.895	835.12
453.353	831.72
453.812	825.87
454.27	829.17
454.729	838.57
455.187	832.97
455.646	843.62
456.104	847.37
456.562	859.62
457.021	862.37
457.479	834.52
457.937	846.72
458.395	879.77
458.854	869.87
459.312	854.42
459.77	868.37
460.228	883.37
460.686	889.07
461.144	895.52
461.602	871.72
462.06	883.17
462.518	899.42
462.976	904.47
463.434	916.42
463.892	919.67
464.35	942.92
464.808	954.72
465.266	963.32
465.724	977.32
466.181	973.97
466.639	968.12
467.097	1012.82
467.555	1046.72
468.012	1038.92
468.47	1051.97
468.928	1085.42
469.385	1107.17
469.843	1125.62
470.3	1115.77
470.758	1156.82
471.215	1162.97
471.673	1193.57
472.13	1225.77
472.588	1255.17
473.045	1249.72
473.503	1262.12
473.96	1318.72
474.417	1338.87
474.875	1388.72
475.332	1436.52
475.789	1459.87
476.246	1499.62
476.704	1562.87
477.161	1601.67
477.618	1645.32
478.075	1732.97
478.532	1855.42
478.989	1987.17
479.446	2177.42
479.903	2274.52
480.36	2468.02
480.817	2587.97
481.274	2751.57
481.731	3008.37
482.188	3211.47
482.645	3446.12
483.102	3625.72
483.558	3883.82
484.015	4018.67
484.472	4001.47
484.929	3888.87
485.385	3752.32
485.842	3682.22
486.299	3540.07
486.755	3277.17
487.212	2978.92
487.668	2682.87
488.125	2499.82
488.582	2333.77
489.038	2253.72
489.494	2202.02
489.951	2127.52
490.407	2086.57
490.864	2043.52
491.32	2009.02
491.776	1995.22
492.233	2003.42
492.689	1965.22
493.145	1931.72
493.602	1909.27
494.058	1934.17
494.514	1936.07
494.97	1944.47
495.426	1971.12
495.882	1982.47
496.338	1961.52
496.794	1982.47
497.251	1970.87
497.707	1988.87
498.163	1995.57
498.618	1995.92
499.074	1984.92
499.53	2017.12
499.986	2013.32
500.442	2012.22
500.898	1979.72
501.354	1987.62
501.809	2004.57
502.265	2008.12
502.721	2016.62
503.177	2021.57
503.632	2025.02
504.088	2032.22
504.543	2071.62
504.999	2084.87
505.455	2078.82
505.91	2055.87
506.366	2060.42
506.821	2079.27
507.277	2049.82
507.732	2061.07
508.187	2053.82
508.643	2072.17
509.098	2072.72
509.553	2113.47
510.009	2126.62
510.464	2159.12
510.919	2182.07
511.375	2206.92
511.83	2214.32
512.285	2261.77
512.74	2315.52
513.195	2328.52
513.65	2365.37
514.105	2407.52
514.56	2409.07
515.015	2446.82
515.47	2467.77
515.925	2433.87
516.38	2434.32
516.835	2451.42
517.29	2426.47
517.745	2445.17
518.2	2394.62
518.655	2348.02
519.109	2310.87
519.564	2290.67
520.019	2275.47
520.474	2254.92
520.928	2250.22
521.383	2216.02
521.838	2215.62
522.292	2199.77
522.747	2191.07
523.201	2179.57
523.656	2154.42
524.11	2156.17
524.565	2140.87
525.019	2144.77
525.474	2140.92
525.928	2134.42
526.382	2134.37
526.837	2134.22
527.291	2143.92
527.745	2133.67
528.2	2133.17
528.654	2105.12
529.108	2109.32
529.562	2107.37
530.016	2107.42
530.47	2115.67
530.925	2100.42
531.379	2106.77
531.833	2138.82
532.287	2124.92
532.741	2111.07
533.195	2119.72
533.649	2128.37
534.103	2120.32
534.556	2121.52
535.01	2131.92
535.464	2109.52
535.918	2120.02
536.372	2124.07
536.826	2114.42
537.279	2109.17
537.733	2105.12
538.187	2110.92
538.64	2118.92
539.094	2140.02
539.548	2158.92
540.001	2151.72
540.455	2153.47
540.908	2175.77
541.362	2202.07
541.815	2200.52
542.269	2252.92
542.722	2238.27
543.175	2279.47
543.629	2278.62
544.082	2303.82
544.536	2321.12
544.989	2325.52
545.442	2344.92
545.895	2336.57
546.349	2324.77
546.802	2332.82
547.255	2330.92
547.708	2354.67
548.161	2380.27
548.614	2375.72
549.067	2387.27
549.52	2380.77
549.973	2357.72
550.426	2341.47
550.879	2330.72
551.332	2342.67
551.785	2362.07
552.238	2374.62
552.691	2372.37
553.144	2404.22
553.596	2450.57
554.049	2480.62
554.502	2521.22
554.955	2560.87
555.407	2598.12
555.86	2576.92
556.313	2547.27
556.765	2528.32
557.218	2487.32
557.67	2478.82
558.123	2451.72
558.576	2434.92
559.028	2440.32
559.48	2469.82
559.933	2460.92
560.385	2388.32
560.838	2309.07
561.29	2241.37
561.742	2233.67
562.195	2171.72
562.647	2157.37
563.099	2148.22
563.551	2137.07
564.004	2161.47
564.456	2145.37
564.908	2091.92
565.36	2041.67
565.812	2011.42
566.264	1982.92
566.716	1959.42
567.168	1923.02
567.62	1936.52
568.072	1922.77
568.524	1908.02
568.976	1900.57
569.428	1876.62
569.88	1885.57
570.332	1903.02
570.784	1901.57
571.235	1887.47
571.687	1903.57
572.139	1917.12
572.59	1933.07
573.042	1933.47
573.494	1930.57
573.945	1910.62
574.397	1878.67
574.849	1857.32
575.3	1875.92
575.752	1834.27
576.203	1806.72
576.655	1838.17
577.106	1808.92
577.557	1793.77
578.009	1784.97
578.46	1793.67
578.912	1767.87
579.363	1787.37
579.814	1782.77
580.265	1792.62
580.717	1793.62
581.168	1780.77
581.619	1785.37
582.07	1818.62
582.521	1792.92
582.972	1795.77
583.423	1797.57
583.875	1814.97
584.326	1820.87
584.777	1844.52
585.227	1870.22
585.678	1894.72
586.129	1911.82
586.58	1938.17
587.031	1951.17
587.482	2014.87
587.933	2039.77
588.384	2035.32
588.834	2018.07
589.285	2003.67
589.736	2000.37
590.186	2013.22
590.637	1981.87
591.088	1943.27
591.538	1907.42
591.989	1873.87
592.439	1867.67
592.89	1837.82
593.34	1830.27
593.791	1823.67
594.241	1800.02
594.692	1811.42
595.142	1803.62
595.593	1806.32
596.043	1805.32
596.493	1817.97
596.943	1833.47
597.394	1873.97
597.844	1891.92
598.294	1943.67
598.744	1996.52
599.195	2095.67
599.645	2204.52
600.095	2316.02
600.545	2416.87
600.995	2525.72
601.445	2618.47
601.895	2729.52
602.345	2821.72
602.795	2801.27
603.245	2683.67
603.695	2548.17
604.145	2399.82
604.594	2287.07
605.044	2186.72
605.494	2047.52
605.944	1935.87
606.393	1891.07
606.843	1857.02
607.293	1844.22
607.743	1820.82
608.192	1845.27
608.642	1850.17
609.091	1842.77
609.541	1830.97
609.99	1839.32
610.44	1802.87
610.889	1779.77
611.339	1775.27
611.788	1736.42
612.238	1755.27
612.687	1747.02
613.136	1768.47
613.586	1781.32
614.035	1771.02
614.484	1784.12
614.933	1790.42
615.383	1755.52
615.832	1708.82
616.281	1690.07
616.73	1655.12
617.179	1618.92
617.628	1585.57
618.077	1562.57
618.526	1532.37
618.975	1533.72
619.424	1494.17
619.873	1501.72
620.322	1481.77
620.771	1481.27
621.22	1459.67
621.669	1434.72
622.118	1424.62
622.567	1402.77
623.015	1380.87
623.464	1377.87
623.913	1359.42
624.361	1371.12
624.81	1358.87
625.259	1364.97
625.707	1352.97
626.156	1368.92
626.604	1386.77
627.053	1386.07
627.501	1383.87
627.95	1393.82
628.398	1411.07
628.847	1388.57
629.295	1384.52
629.744	1381.62
630.192	1356.22
630.64	1336.62
631.089	1313.12
631.537	1289.42
631.985	1265.87
632.433	1263.62
632.881	1256.52
633.33	1263.17
633.778	1265.52
634.226	1264.12
634.674	1284.52
635.122	1291.17
635.57	1305.82
636.018	1329.82
636.466	1328.67
636.914	1326.27
637.362	1356.42
637.81	1377.92
638.258	1417.87
638.705	1441.32
639.153	1472.77
639.601	1487.87
640.049	1515.92
640.497	1556.17
640.944	1593.82
641.392	1537.97
641.84	1452.32
642.287	1390.12
642.735	1360.07
643.182	1348.87
643.63	1336.42
644.078	1337.37
644.525	1370.12
644.973	1409.12
645.42	1431.67
645.867	1453.22
646.315	1485.37
646.762	1539.27
647.21	1580.82
647.657	1649.42
648.104	1711.02
648.551	1738.42
648.999	1886.27
649.446	2049.42
649.893	2277.42
650.34	2637.12
650.787	3218.27
651.234	4108.27
651.682	5584.77
652.129	7836.57
652.576	11065.32
653.023	14541.32
653.47	15535.52
653.917	15535.57
654.363	15535.47
654.81	15532.47
655.257	15533.12
655.704	14419.57
656.151	8770.87
656.598	5807.12
657.044	4191.42
657.491	3291.72
657.938	2685.62
658.385	2293.57
658.831	2050.07
659.278	1834.27
659.724	1691.77
660.171	1593.42
660.618	1477.02
661.064	1403.97
661.511	1358.42
661.957	1315.52
662.404	1294.82
662.85	1272.67
663.296	1260.07
663.743	1235.12
664.189	1222.97
664.635	1215.42
665.082	1189.07
665.528	1167.02
665.974	1134.57
666.42	1118.82
666.867	1115.07
667.313	1065.47
667.759	1049.27
668.205	1037.07
668.651	1040.77
669.097	1043.07
669.543	1040.57
669.989	1054.62
670.435	1062.97
670.881	1069.37
671.327	1108.02
671.773	1191.97
672.219	1272.52
672.665	1355.92
673.11	1390.02
673.556	1413.97
674.002	1450.62
674.448	1469.57
674.893	1260.92
675.339	1101.22
675.785	1014.42
676.23	962.92
676.676	929.37
677.122	904.97
677.567	877.22
678.013	852.47
678.458	851.62
678.904	839.72
679.349	824.62
679.794	822.42
680.24	836.52
680.685	812.07
681.131	817.07
681.576	829.67
682.021	827.52
682.466	837.92
682.912	843.37
683.357	887.07
683.802	951.07
684.247	1034.42
684.692	1104.52
685.137	1155.52
685.583	1179.62
686.028	1239.92
686.473	1184.02
686.918	1026.62
687.363	936.82
687.807	892.07
688.252	843.92
688.697	815.37
689.142	793.87
689.587	792.87
690.032	807.02
690.477	839.07
690.921	881.57
691.366	922.62
691.811	963.77
692.255	1045.32
692.7	1264.52
693.145	1810.77
693.589	2747.97
694.034	3286.12
694.478	3529.72
694.923	3239.42
695.367	4598.32
695.812	2817.27
696.256	1190.37
696.701	871.92
697.145	817.27
697.59	783.42
698.034	760.62
698.478	766.37
698.922	766.17
699.367	784.12
699.811	814.62
700.255	895.47
700.699	961.52
701.143	1041.77
701.588	1112.62
702.032	1162.57
702.476	1201.37
702.92	1273.12
703.364	1652.72
703.808	2527.67
704.252	3156.47
704.696	3333.57
705.14	3183.82
705.584	4355.92
706.027	2427.27
706.471	1222.57
706.915	910.87
707.359	811.92
707.803	760.27
708.246	727.62
708.69	724.17
709.134	719.37
709.577	709.97
710.021	723.72
710.465	719.12
710.908	710.32
711.352	741.57
711.795	818.62
712.239	879.72
712.682	909.97
713.126	887.07
713.569	986.82
714.012	807.22
714.456	708.77
714.899	675.17
715.342	638.57
715.786	620.32
716.229	602.27
716.672	592.87
717.115	578.82
717.558	590.92
718.002	610.92
718.445	637.92
718.888	668.62
719.331	682.72
719.774	691.22
720.217	677.92
720.66	651.42
721.103	616.37
721.546	581.52
721.989	565.52
722.432	553.22
722.874	552.57
723.317	557.87
723.76	611.42
724.203	741.57
724.645	993.52
725.088	1174.17
725.531	1156.67
725.974	1261.12
726.416	1138.87
726.859	705.12
727.301	581.62
727.744	551.97
728.187	549.97
728.629	565.07
729.071	589.42
729.514	621.02
729.956	643.67
730.399	651.47
730.841	651.47
731.283	645.87
731.726	621.62
732.168	633.92
732.61	669.92
733.053	718.82
733.495	789.17
733.937	870.42
734.379	1035.42
734.821	1309.22
735.263	2070.72
735.705	3717.77
736.148	5470.92
736.59	5550.22
737.032	6024.92
737.474	4979.77
737.916	1906.12
738.357	1011.72
738.799	773.42
739.241	711.17
739.683	720.92
740.125	743.77
740.567	759.92
741.008	802.97
741.45	849.47
741.892	884.02
742.334	898.12
742.775	897.22
743.217	863.82
743.658	716.07
744.1	743.17
744.542	860.27
744.983	898.52
745.425	945.27
745.866	920.17
746.307	754.47
746.749	782.52
747.19	1118.27
747.632	2186.42
748.073	4066.27
748.514	5644.67
748.956	7497.72
749.397	8817.52
749.838	6113.52
750.279	5830.62
750.72	3013.57
751.162	1282.32
751.603	741.37
752.044	590.82
752.485	524.77
752.926	490.87
753.367	476.72
753.808	460.72
754.249	446.37
754.69	447.37
755.131	438.32
755.572	440.47
756.013	439.37
756.453	436.62
756.894	446.72
757.335	447.82
757.776	455.42
758.216	479.92
758.657	496.97
759.098	548.37
759.538	674.67
759.979	962.37
760.42	1923.42
760.86	4901.42
761.301	10154.02
761.741	12110.52
762.182	13881.57
762.622	9069.62
763.063	3233.67
763.503	1324.37
763.943	775.87
764.384	614.07
764.824	531.62
765.264	488.22
765.705	466.17
766.145	432.92
766.585	428.22
767.025	410.52
767.465	410.57
767.906	415.77
768.346	446.02
768.786	518.37
769.226	748.12
769.666	1493.52
770.106	3373.62
770.546	4845.77
770.986	5526.97
771.426	4193.32
771.866	1735.67
772.306	784.02
772.745	488.62
773.185	412.87
773.625	401.97
774.065	436.62
774.505	631.97
774.944	1126.62
775.384	1650.72
775.824	1854.72
776.263	1548.72
776.703	809.12
777.142	460.72
777.582	345.82
778.021	311.97
778.461	296.42
778.9	298.92
779.34	285.52
779.779	279.82
780.219	273.62
780.658	270.72
781.097	269.57
781.537	260.37
781.976	253.32
782.415	253.72
782.855	254.22
783.294	249.57
783.733	248.12
784.172	254.47
784.611	252.97
785.05	262.62
785.489	267.32
785.928	277.12
786.367	288.52
786.806	300.67
787.245	322.47
787.684	331.57
788.123	332.57
788.562	322.62
789.001	307.72
789.44	300.67
789.879	298.37
790.317	306.32
790.756	321.32
791.195	368.37
791.634	492.92
792.072	877.47
792.511	2126.37
792.95	3984.57
793.388	4840.77
793.827	3163.42
794.265	1430.62
794.704	691.22
795.142	424.72
795.581	351.77
796.019	318.52
796.458	319.32
796.896	338.17
797.334	375.52
797.773	503.32
798.211	950.52
798.649	1970.77
799.087	3349.72
799.526	4730.82
799.964	4901.57
800.402	3395.72
800.84	1525.52
801.278	749.02
801.716	457.37
802.154	373.82
802.592	346.17
803.03	347.47
803.468	356.37
803.906	355.52
804.344	352.62
804.782	343.27
805.22	341.52
805.658	358.37
806.096	379.37
806.533	427.87
806.971	546.62
807.409	782.67
807.847	1551.52
808.284	3972.42
808.722	6993.17
809.16	9835.37
809.597	13261.92
810.035	15525.97
810.472	10919.02
810.91	4599.02
811.347	2050.37
811.785	967.02
812.222	618.12
812.66	479.67
813.097	400.42
813.535	349.72
813.972	318.07
814.409	289.32
814.846	278.12
815.284	264.27
815.721	273.57
816.158	305.37
816.595	416.02
817.032	536.47
817.47	480.77
817.907	346.57
818.344	297.52
818.781	296.97
819.218	368.37
819.655	563.52
820.092	743.22
820.529	667.17
820.966	524.17
821.403	353.12
821.839	301.27
822.276	332.17
822.713	402.92
823.15	367.12
823.587	380.12
824.023	651.47
824.46	1621.62
824.897	2855.62
825.333	2259.57
825.77	1025.32
826.206	531.42
826.643	316.62
827.08	232.42
827.516	205.17
827.953	194.52
828.389	184.87
828.825	171.42
829.262	166.32
829.698	160.37
830.135	154.67
830.571	154.62
831.007	159.42
831.443	156.67
831.88	159.97
832.316	159.12
832.752	160.47
833.188	162.87
833.624	164.32
834.06	173.22
834.497	170.42
834.933	174.92
835.369	183.17
835.805	196.67
836.241	203.57
836.677	231.32
837.112	262.47
837.548	333.17
837.984	480.97
838.42	1029.87
838.856	2865.02
839.292	5716.37
839.727	4285.82
840.163	2833.37
840.599	4291.82
841.034	6621.32
841.47	3334.97
841.906	1604.32
842.341	864.87
842.777	651.37
843.212	676.92
843.648	425.07
844.083	289.72
844.519	212.47
844.954	180.17
845.39	154.77
845.825	156.57
846.261	150.27
846.696	141.27
847.131	133.42
847.566	144.72
848.002	142.77
848.437	150.27
848.872	155.77
849.307	194.22
849.742	350.57
850.177	930.27
850.613	2000.82
851.048	1460.22
851.483	665.42
851.918	365.87
852.353	205.57
852.788	139.87
853.223	136.17
853.657	121.87
854.092	119.37
854.527	114.92
854.962	126.87
855.397	139.37
855.832	120.77
856.266	105.57
856.701	106.42
857.136	109.87
857.57	136.37
858.005	166.92
858.44	142.97
858.874	128.97
859.309	129.87
859.743	128.32
860.178	128.32
860.612	137.57
861.047	186.22
861.481	276.57
861.915	188.62
862.35	136.77
862.784	107.32
863.218	101.62
863.653	113.42
864.087	140.57
864.521	173.87
864.955	273.32
865.39	473.32
865.824	374.32
866.258	492.27
866.692	764.47
867.126	560.32
867.56	290.42
867.994	183.87
868.428	160.12
868.862	196.72
869.296	179.12
869.73	219.42
870.164	185.27
870.598	172.07
871.031	120.72
871.465	107.72
871.899	86.62
872.333	78.27
872.766	76.92
873.2	81.07
873.634	76.12
874.067	82.52
874.501	78.57
874.935	81.42
875.368	83.47
875.802	73.87
876.235	72.72
876.669	72.47
877.102	58.87
877.535	63.97
877.969	59.32
878.402	61.67
878.836	65.92
879.269	59.42
879.702	61.87
880.135	61.57
880.569	65.47
881.002	56.77
881.435	58.82
881.868	61.67
882.301	55.12
882.734	55.87
883.167	55.07
883.601	54.47
884.034	53.72
884.467	51.62
884.899	55.22
885.332	48.67
885.765	50.62
886.198	48.47
886.631	50.22
887.064	49.97
887.497	45.57
887.929	52.37
888.362	52.72
888.795	53.22
889.228	52.52
889.66	47.92
890.093	48.02
890.526	49.62
890.958	54.52
891.391	52.97
891.823	48.02
892.256	49.02
892.688	51.97
893.121	42.67
893.553	49.12
893.985	44.42
894.418	39.02
894.85	50.27
895.282	49.97
895.715	42.67
896.147	36.82
896.579	36.32
897.011	47.42
897.444	43.82
897.876	41.37
898.308	40.02
898.74	43.62
899.172	45.87
899.604	48.82
900.036	46.97
900.468	42.32
900.9	46.12
901.332	61.27
901.764	62.87
902.196	60.97
902.628	64.32
903.06	91.62
903.491	99.97
903.923	77.07
904.355	78.22
904.787	82.77
905.218	70.22
905.65	63.57
906.082	57.42
906.513	54.77
906.945	54.22
907.376	53.97
907.808	54.17
908.239	57.87
908.671	62.37
909.102	72.62
909.534	100.07
909.965	176.02
910.397	470.67
910.828	1342.47
911.259	826.57
911.691	443.22
912.122	261.82
912.553	131.72
912.984	79.32
913.415	66.17
913.847	60.97
914.278	52.02
914.709	47.17
915.14	45.37
915.571	47.97
916.002	42.82
916.433	42.37
916.864	46.92
917.295	48.52
917.726	54.62
918.157	64.27
918.587	67.97
919.018	64.92
919.449	61.62
919.88	72.42
920.311	106.32
920.741	278.67
921.172	502.52
921.603	254.07
922.033	156.52
922.464	100.02
922.895	66.97
923.325	49.82
923.756	43.82
924.186	58.62
924.617	80.57
925.047	116.82
925.478	105.37
925.908	75.57
926.338	57.17
926.769	44.22
927.199	42.27
927.629	36.27
928.06	41.72
928.49	43.22
928.92	38.92
929.35	41.97
929.78	27.77
930.21	27.97
930.641	20.52
931.071	24.27
931.501	23.37
931.931	22.82
932.361	21.02
932.791	28.92
933.221	30.92
933.651	39.57
934.08	65.17
934.51	41.62
934.94	36.72
935.37	28.12
935.8	22.52
936.229	20.22
936.659	22.97
937.089	45.82
937.519	65.37
937.948	91.62
938.378	53.87
938.807	30.02
939.237	21.77
939.666	20.22
940.096	15.32
940.525	11.87
940.955	14.62
941.384	11.42
941.814	6.22
942.243	14.32
942.672	9.52
943.102	14.77
943.531	9.77
943.96	12.87
944.39	19.12
944.819	15.42
945.248	13.12
945.677	14.82
946.106	12.47
946.535	17.42
946.964	11.72
947.393	8.27
947.822	9.52
948.251	11.07
948.68	12.97
949.109	11.87
949.538	9.92
949.967	10.37
950.396	8.77
950.825	10.17
951.254	14.57
951.682	7.17
952.111	5.27
952.54	8.92
952.969	11.07
953.397	5.32
953.826	6.22
954.254	12.52
954.683	11.97
955.112	14.42
955.54	7.27
955.969	12.52
956.397	8.37
956.826	4.97
957.254	9.62
957.682	9.47
958.111	10.47
958.539	11.02
958.967	12.82
959.396	9.42
959.824	10.02
960.252	10.27
960.68	11.32
961.109	14.67
961.537	12.27
961.965	6.27
962.393	5.17
962.821	11.07
963.249	9.77
963.677	21.52
964.105	86.72
964.533	147.17
964.961	71.37
965.389	42.52
965.817	25.52
966.245	19.72
966.672	10.97
967.1	13.87
967.528	3.07
967.956	3.12
968.383	10.92
968.811	7.07
969.239	9.42
969.666	8.62
970.094	2.47
970.522	1.27
970.949	9.12
971.377	-1.08
971.804	2.12
972.232	4.42
972.659	7.52
973.087	8.77
973.514	1.52
973.941	3.22
974.369	4.67
974.796	5.17
975.223	1.62
975.651	8.82
976.078	7.02
976.505	13.57
976.932	37.67
977.359	43.62
977.786	29.47
978.214	24.62
978.641	12.52
979.068	11.57
979.495	9.97
979.922	6.57
980.349	8.62
980.776	9.12
981.202	6.12
981.629	11.92
982.056	6.52
982.483	-0.03
982.91	9.32
983.337	1.22
983.763	6.12
984.19	8.12
984.617	6.02
985.043	5.32
985.47	11.72
985.897	7.82
986.323	7.02
986.75	7.42
987.176	6.12
987.603	4.87
988.029	5.57
988.456	10.37
988.882	4.47
989.308	4.57
989.735	3.62
990.161	2.62
990.587	3.77
991.014	3.47
991.44	5.72
991.866	4.32
992.292	3.22
992.719	4.87
993.145	6.17
993.571	4.97
993.997	9.47
994.423	10.42
994.849	-3.18
995.275	7.12
995.701	5.72
996.127	-3.88
996.553	3.27
996.979	1.62
997.405	6.27
997.83	2.52
998.256	8.52
998.682	-0.63
999.108	1.37
999.534	-3.73
999.959	0.92
1000.385	6.82
1000.811	1.67
1001.236	2.32
1001.662	2.97
1002.087	10.62
1002.513	5.42
1002.938	-1.63
1003.364	6.37
1003.789	4.12
1004.215	2.02
1004.64	5.17
1005.066	9.22
1005.491	7.82
1005.916	3.12
1006.342	5.17
1006.767	7.77
1007.192	7.07
1007.617	6.82
1008.042	5.92
1008.468	5.07
1008.893	9.32
1009.318	8.77
1009.743	19.37
1010.168	33.72
1010.593	31.02
1011.018	17.62
1011.443	11.32
1011.868	12.32
1012.293	6.72
1012.718	5.77
1013.143	2.47
1013.567	7.12
1013.992	7.72
1014.417	4.62
1014.842	0.67
1015.267	3.37
1015.691	4.42
1016.116	4.42
1016.541	5.82
1016.965	5.87
1017.39	5.27
1017.814	1.57
1018.239	0.72
1018.663	-3.28
1019.088	1.17
1019.512	6.17
1019.937	-2.23
1020.361	2.82
1020.785	2.62
1021.21	-0.53
1021.634	0.82
1022.058	4.92
1022.483	-1.93
1022.907	-2.03
1023.331	-0.68
1023.755	-0.28
1024.179	5.22
1024.604	-0.63
1025.028	1.67
1025.452	1.62
1025.876	5.47
1026.3	2.87
1026.724	-1.53
1027.148	0.57
1027.572	-3.28
1027.996	6.57
1028.42	-1.28
1028.843	1.12
1029.267	-2.28
1029.691	4.07
1030.115	0.52
1030.539	-0.03
1030.962	4.32
1031.386	2.32
1031.81	5.37
1032.233	-3.98
1032.657	-4.88
1033.08	2.97
1033.504	-1.63
1033.927	1.42
1034.351	-1.18
1034.774	-0.83
1035.198	-1.03
1035.621	0.52
1036.045	-2.78
1036.468	7.67
1036.891	1.02
1037.315	0.17
1037.738	3.07
1038.161	3.87
1038.584	4.52
1039.008	-0.23
1039.431	-0.03
1039.854	-6.23
1040.277	5.57
1040.7	1.42
1041.123	-1.68
1041.546	0.47
1041.969	5.82
1042.392	4.47
1042.815	-2.73
1043.238	1.22
1043.661	5.47
1044.084	-5.78
1044.507	1.87
1044.93	-0.43
1045.352	-0.83
1045.775	0.22
1046.198	5.57
1046.621	5.72
1047.043	4.62
1047.466	0.62
1047.889	0.72
1048.311	6.67
1048.734	1.62
1049.156	0.32
1049.579	-1.63
1050.001	-0.43
1050.424	-1.63
1050.846	-2.48
1051.269	-3.83
1051.691	2.52
1052.113	1.37
1052.536	-4.08
1052.958	-4.38
1053.38	0.27
1053.802	-0.53
1054.225	3.47
1054.647	3.02
1055.069	-2.78
1055.491	2.37
1055.913	0.32
1056.335	-7.98
1056.757	-1.73
1057.179	-2.63
1057.601	1.27
1058.023	-2.33
1058.445	-3.93
1058.867	6.47
1059.289	2.77
1059.711	-2.28
1060.133	4.22
1060.555	3.32
1060.976	2.02
1061.398	0.42
1061.82	-0.73
1062.241	0.87
1062.663	-1.28
1063.085	-4.88
1063.506	-2.68
1063.928	-1.23
1064.35	0.37
1064.771	3.72
1065.193	-0.78
1065.614	1.52
1066.035	4.67
1066.457	3.92
1066.878	3.52
1067.3	3.22
1067.721	3.27
1068.142	3.67
1068.564	0.72
1068.985	-1.33
1069.406	-7.38
1069.827	1.07
1070.248	-1.08
1070.67	-3.53
1071.091	-1.98
1071.512	-6.58
1071.933	-3.73
1072.354	-4.28
1072.775	-1.88
1073.196	2.52
1073.617	0.07
1074.038	-1.03
1074.459	-1.58
1074.88	-1.08
1075.3	1.27
1075.721	2.17
1076.142	-2.13
1076.563	-1.43
1076.983	4.57
1077.404	-4.63
1077.825	1.17
1078.246	-4.28
1078.666	-2.58
1079.087	0.77
1079.507	-4.63
1079.928	1.42
1080.348	0.87
1080.769	-0.58
1081.189	0.52
1081.61	-6.78
1082.03	4.02
1082.451	0.42
1082.871	-1.03
1083.291	-4.73
1083.711	-0.73
1084.132	-0.73
1084.552	-4.33
1084.972	-7.73
1085.392	-5.58
1085.813	-1.08
1086.233	-3.38
1086.653	-1.13
1087.073	-3.98
1087.493	0.77
1087.913	-3.23
1088.333	0.87
1088.753	0.92
1089.173	3.92
1089.593	5.07
1090.013	1.47
1090.433	-7.23
1090.852	1.62
1091.272	-4.23
1091.692	6.42
1092.112	-3.33
1092.531	-0.23
1092.951	0.12
1093.371	0.12
1093.79	-4.88
1094.21	-2.63
1094.63	-0.78
1095.049	0.67
1095.469	-8.08
1095.888	-0.63
1096.308	2.42
1096.727	-0.48
1097.146	-0.63
1097.566	3.37
1097.985	-0.63
1098.405	-3.18
1098.824	-1.28
1099.243	1.12
1099.662	-1.78
1100.082	1.22
1100.501	0.57
1100.92	4.52
1101.339	1.92
1101.758	4.47
