Data from MSPlasma+Separation6_Subt14_10-14-12-437.txt Node
Date: Fri Jul 21 10:14:12 EDT 2017
User: Ender
Spectrometer: HR+D1039
Trigger mode: 0
Integration Time (sec): 6.430000E-3
Scans to average: 20
Electric dark correction enabled: true
Nonlinearity correction enabled: false
Boxcar width: 0
XAxis mode: Wavelengths
Number of Pixels in Spectrum: 2048
>>>>>Begin Spectral Data<<<<<
187.836	1.37
188.309	1.37
188.782	1.37
189.255	2.67
189.728	1.87
190.201	0.32
190.674	0.87
191.147	-4.93
191.619	-3.63
192.092	0.32
192.565	1.47
193.038	3.67
193.511	0.62
193.984	1.62
194.456	-2.93
194.929	-1.03
195.402	-3.48
195.874	1.27
196.347	1.92
196.82	1.97
197.292	-2.73
197.765	-1.08
198.237	-4.98
198.71	-3.13
199.182	4.32
199.655	0.22
200.127	5.42
200.6	3.72
201.072	7.67
201.544	-1.58
202.017	2.22
202.489	-1.13
202.961	-6.83
203.433	-3.43
203.906	-0.03
204.378	0.52
204.85	0.92
205.322	0.27
205.794	-0.23
206.266	-2.13
206.739	3.42
207.211	-3.43
207.683	-0.18
208.155	3.37
208.627	3.02
209.099	5.17
209.57	2.32
210.042	5.57
210.514	2.87
210.986	-2.08
211.458	-0.13
211.93	1.37
212.402	-0.38
212.873	4.12
213.345	-2.33
213.817	1.77
214.288	-1.83
214.76	1.17
215.232	0.42
215.703	-0.33
216.175	2.57
216.646	2.77
217.118	5.27
217.589	-0.38
218.061	4.27
218.532	0.32
219.004	1.67
219.475	2.32
219.946	4.57
220.418	5.67
220.889	6.97
221.36	6.87
221.832	4.72
222.303	8.02
222.774	3.27
223.245	-0.08
223.717	5.27
224.188	2.97
224.659	5.37
225.13	-2.43
225.601	3.87
226.072	7.57
226.543	6.87
227.014	2.47
227.485	9.12
227.956	10.12
228.427	13.57
228.898	7.52
229.369	9.47
229.839	6.47
230.31	8.67
230.781	9.47
231.252	13.02
231.722	13.02
232.193	10.17
232.664	7.57
233.135	8.17
233.605	13.07
234.076	14.87
234.546	13.32
235.017	10.97
235.487	14.22
235.958	12.82
236.428	20.37
236.899	11.02
237.369	17.27
237.84	16.27
238.31	17.42
238.78	9.02
239.251	20.82
239.721	14.77
240.191	17.67
240.662	19.92
241.132	13.62
241.602	18.02
242.072	16.22
242.542	15.12
243.013	20.22
243.483	23.27
243.953	16.97
244.423	19.27
244.893	23.17
245.363	21.87
245.833	19.87
246.303	23.47
246.773	24.17
247.243	22.27
247.712	24.12
248.182	26.42
248.652	26.42
249.122	27.07
249.592	24.12
250.061	23.82
250.531	28.92
251.001	31.37
251.471	26.52
251.94	29.92
252.41	31.97
252.879	30.47
253.349	35.02
253.818	29.57
254.288	33.92
254.757	33.12
255.227	34.02
255.696	38.72
256.166	38.92
256.635	39.42
257.105	29.87
257.574	38.77
258.043	40.92
258.513	41.52
258.982	36.82
259.451	42.72
259.92	36.47
260.389	37.47
260.859	43.17
261.328	44.72
261.797	39.67
262.266	41.27
262.735	48.37
263.204	40.87
263.673	47.47
264.142	41.67
264.611	46.17
265.08	48.02
265.549	44.62
266.018	47.17
266.487	51.37
266.955	50.32
267.424	53.47
267.893	50.12
268.362	50.57
268.83	50.57
269.299	49.12
269.768	50.82
270.236	53.82
270.705	61.17
271.174	49.72
271.642	52.47
272.111	53.67
272.579	56.07
273.048	59.22
273.516	63.02
273.985	55.32
274.453	58.92
274.922	55.62
275.39	61.52
275.858	64.47
276.327	62.57
276.795	62.97
277.263	64.52
277.731	66.07
278.2	67.12
278.668	64.87
279.136	64.92
279.604	72.67
280.072	70.32
280.54	68.92
281.008	74.72
281.477	68.37
281.945	70.02
282.413	69.87
282.881	71.77
283.348	72.42
283.816	80.02
284.284	77.77
284.752	76.27
285.22	76.42
285.688	76.37
286.156	80.92
286.623	80.32
287.091	83.42
287.559	87.27
288.026	86.77
288.494	83.62
288.962	84.27
289.429	86.77
289.897	85.37
290.364	83.12
290.832	86.67
291.3	87.42
291.767	91.72
292.234	91.57
292.702	91.27
293.169	88.17
293.637	92.27
294.104	89.72
294.571	93.82
295.039	97.12
295.506	90.92
295.973	94.77
296.44	95.67
296.908	101.07
297.375	96.72
297.842	105.37
298.309	96.82
298.776	99.52
299.243	105.37
299.71	102.67
300.177	103.22
300.644	101.67
301.111	105.87
301.578	111.72
302.045	106.12
302.512	106.02
302.979	111.47
303.446	117.37
303.913	119.72
304.379	119.67
304.846	121.07
305.313	125.17
305.78	126.67
306.246	120.22
306.713	126.12
307.18	126.37
307.646	129.02
308.113	131.27
308.579	138.37
309.046	136.97
309.512	133.52
309.979	140.17
310.445	136.57
310.912	140.57
311.378	144.77
311.845	148.22
312.311	142.82
312.777	145.92
313.244	150.52
313.71	149.22
314.176	153.87
314.642	154.22
315.109	154.27
315.575	153.07
316.041	154.67
316.507	154.37
316.973	157.77
317.439	156.72
317.905	163.27
318.371	159.67
318.837	161.17
319.303	164.92
319.769	161.67
320.235	169.47
320.701	171.67
321.167	166.52
321.633	167.17
322.099	169.17
322.564	174.67
323.03	170.27
323.496	172.07
323.962	177.62
324.427	182.02
324.893	180.67
325.359	186.97
325.824	185.67
326.29	189.17
326.755	181.22
327.221	185.47
327.686	195.67
328.152	188.82
328.617	204.67
329.083	198.22
329.548	204.07
330.014	205.07
330.479	206.67
330.944	205.72
331.41	217.37
331.875	204.32
332.34	207.27
332.805	208.87
333.271	206.02
333.736	214.17
334.201	214.92
334.666	231.17
335.131	232.82
335.596	228.22
336.061	224.87
336.526	222.67
336.991	216.32
337.456	215.52
337.921	212.87
338.386	215.57
338.851	212.27
339.316	216.92
339.781	218.42
340.246	218.47
340.711	226.17
341.175	227.92
341.64	234.82
342.105	236.62
342.569	244.97
343.034	247.82
343.499	245.52
343.963	254.52
344.428	250.92
344.893	250.62
345.357	261.97
345.822	257.32
346.286	263.67
346.751	263.97
347.215	266.67
347.679	276.52
348.144	300.07
348.608	299.72
349.073	300.97
349.537	302.97
350.001	303.92
350.465	306.77
350.93	302.42
351.394	308.57
351.858	316.27
352.322	319.82
352.786	314.27
353.25	312.52
353.715	323.27
354.179	330.87
354.643	341.27
355.107	353.27
355.571	341.72
356.035	333.17
356.498	331.27
356.962	336.87
357.426	338.02
357.89	330.77
358.354	329.42
358.818	325.97
359.281	334.37
359.745	340.92
360.209	330.12
360.673	331.17
361.136	336.62
361.6	334.77
362.064	349.32
362.527	356.37
362.991	352.92
363.454	346.57
363.918	354.47
364.381	361.67
364.845	357.02
365.308	358.97
365.772	361.52
366.235	361.72
366.698	358.57
367.162	355.37
367.625	364.17
368.088	372.42
368.552	370.02
369.015	372.82
369.478	377.92
369.941	377.47
370.404	378.37
370.867	373.42
371.331	383.82
371.794	391.07
372.257	391.57
372.72	396.07
373.183	399.57
373.646	397.92
374.109	392.37
374.572	398.27
375.035	406.17
375.497	414.62
375.96	412.62
376.423	421.92
376.886	422.42
377.349	438.37
377.811	433.52
378.274	432.02
378.737	431.87
379.199	435.02
379.662	438.62
380.125	443.12
380.587	452.17
381.05	455.37
381.512	456.47
381.975	468.12
382.437	481.37
382.9	479.47
383.362	474.02
383.825	485.22
384.287	490.02
384.75	484.77
385.212	483.07
385.674	485.72
386.136	492.12
386.599	492.67
387.061	488.32
387.523	492.92
387.985	503.02
388.447	507.67
388.91	501.97
389.372	507.37
389.834	507.17
390.296	497.12
390.758	503.12
391.22	505.87
391.682	508.57
392.144	506.82
392.606	517.12
393.068	525.42
393.529	556.52
393.991	565.72
394.453	542.82
394.915	518.22
395.377	513.22
395.838	514.82
396.3	518.42
396.762	535.07
397.224	522.17
397.685	522.27
398.147	535.92
398.608	541.87
399.07	542.22
399.531	544.92
399.993	559.67
400.454	566.52
400.916	565.57
401.377	578.32
401.839	579.57
402.3	585.22
402.762	608.32
403.223	647.12
403.684	646.52
404.145	617.12
404.607	612.72
405.068	601.02
405.529	613.37
405.99	621.72
406.451	630.67
406.913	620.67
407.374	618.32
407.835	621.57
408.296	647.42
408.757	645.27
409.218	663.37
409.679	664.92
410.14	671.12
410.601	681.92
411.062	689.37
411.522	683.02
411.983	689.37
412.444	696.57
412.905	705.47
413.366	729.87
413.826	769.42
414.287	866.22
414.748	1006.57
415.208	1035.62
415.669	867.37
416.13	790.67
416.59	775.87
417.051	791.62
417.511	833.12
417.972	898.37
418.432	973.02
418.893	1064.92
419.353	1022.62
419.814	793.87
420.274	710.57
420.734	693.12
421.195	720.42
421.655	715.97
422.115	727.87
422.576	728.17
423.036	731.47
423.496	765.97
423.956	793.47
424.416	848.07
424.876	946.77
425.336	944.07
425.797	927.97
426.257	917.87
426.717	875.82
427.177	809.12
427.637	823.47
428.097	854.92
428.556	887.82
429.016	951.07
429.476	951.97
429.936	938.12
430.396	940.92
430.856	968.02
431.315	980.72
431.775	1050.82
432.235	1123.27
432.694	1142.07
433.154	1079.52
433.614	1050.17
434.073	1018.12
434.533	924.87
434.993	885.77
435.452	895.27
435.912	867.62
436.371	875.87
436.83	860.07
437.29	837.82
437.749	811.32
438.209	809.57
438.668	812.07
439.127	827.07
439.587	818.02
440.046	791.22
440.505	818.27
440.964	820.72
441.424	847.82
441.883	869.82
442.342	817.62
442.801	775.77
443.26	784.17
443.719	781.07
444.178	775.37
444.637	784.82
445.096	795.62
445.555	806.27
446.014	800.07
446.473	790.07
446.932	791.92
447.391	804.07
447.849	827.17
448.308	805.12
448.767	810.77
449.226	833.52
449.685	837.52
450.143	878.67
450.602	871.42
451.061	827.17
451.519	826.92
451.978	816.37
452.436	812.27
452.895	822.22
453.353	822.72
453.812	805.17
454.27	811.72
454.729	822.32
455.187	826.97
455.646	818.72
456.104	826.57
456.562	843.17
457.021	855.07
457.479	808.82
457.937	836.22
458.395	861.12
458.854	851.87
459.312	842.97
459.77	851.82
460.228	865.47
460.686	877.12
461.144	878.02
461.602	865.57
462.06	871.42
462.518	884.17
462.976	881.62
463.434	896.07
463.892	905.02
464.35	925.87
464.808	934.22
465.266	956.07
465.724	965.77
466.181	964.62
466.639	957.67
467.097	995.92
467.555	1032.02
468.012	1020.57
468.47	1036.42
468.928	1062.77
469.385	1094.02
469.843	1108.82
470.3	1110.22
470.758	1139.57
471.215	1150.42
471.673	1176.67
472.13	1209.32
472.588	1226.17
473.045	1224.97
473.503	1253.47
473.96	1305.52
474.417	1326.87
474.875	1385.07
475.332	1433.52
475.789	1462.42
476.246	1498.17
476.704	1562.02
477.161	1602.17
477.618	1659.47
478.075	1749.32
478.532	1883.12
478.989	2034.72
479.446	2234.87
479.903	2353.72
480.36	2570.82
480.817	2727.07
481.274	2898.57
481.731	3178.72
482.188	3412.22
482.645	3666.62
483.102	3870.27
483.558	4162.82
484.015	4322.62
484.472	4294.22
484.929	4180.32
485.385	3993.57
485.842	3908.82
486.299	3753.77
486.755	3444.22
487.212	3081.32
487.668	2770.52
488.125	2578.92
488.582	2385.07
489.038	2301.47
489.494	2229.27
489.951	2156.07
490.407	2100.32
490.864	2055.67
491.32	2010.57
491.776	1988.72
492.233	2002.62
492.689	1957.32
493.145	1929.32
493.602	1899.47
494.058	1917.92
494.514	1924.02
494.97	1917.77
495.426	1952.62
495.882	1956.77
496.338	1937.92
496.794	1958.02
497.251	1952.27
497.707	1979.72
498.163	1976.97
498.618	1977.82
499.074	1977.02
499.53	1991.32
499.986	2009.32
500.442	1980.17
500.898	1959.52
501.354	1988.72
501.809	1981.97
502.265	1980.82
502.721	1993.57
503.177	2001.62
503.632	2006.47
504.088	2025.52
504.543	2044.22
504.999	2066.32
505.455	2050.72
505.91	2025.92
506.366	2036.97
506.821	2048.47
507.277	2037.37
507.732	2026.52
508.187	2035.57
508.643	2055.82
509.098	2052.27
509.553	2078.32
510.009	2108.02
510.464	2135.52
510.919	2152.47
511.375	2178.12
511.83	2205.97
512.285	2235.62
512.74	2277.82
513.195	2324.87
513.65	2346.07
514.105	2391.42
514.56	2386.37
515.015	2424.62
515.47	2440.42
515.925	2408.62
516.38	2410.57
516.835	2433.72
517.29	2407.72
517.745	2400.72
518.2	2368.32
518.655	2326.17
519.109	2299.92
519.564	2265.62
520.019	2254.12
520.474	2233.12
520.928	2225.07
521.383	2200.27
521.838	2191.92
522.292	2182.67
522.747	2158.17
523.201	2150.37
523.656	2118.62
524.11	2119.12
524.565	2106.07
525.019	2128.12
525.474	2123.92
525.928	2100.92
526.382	2094.62
526.837	2116.22
527.291	2120.82
527.745	2097.67
528.2	2102.47
528.654	2071.82
529.108	2084.02
529.562	2085.12
530.016	2084.52
530.47	2085.27
530.925	2080.62
531.379	2078.92
531.833	2118.37
532.287	2103.97
532.741	2088.72
533.195	2096.52
533.649	2103.62
534.103	2112.87
534.556	2086.22
535.01	2107.77
535.464	2094.32
535.918	2098.52
536.372	2103.87
536.826	2097.42
537.279	2078.32
537.733	2087.72
538.187	2098.72
538.64	2084.82
539.094	2122.67
539.548	2131.72
540.001	2131.27
540.455	2139.42
540.908	2151.57
541.362	2173.52
541.815	2183.32
542.269	2229.12
542.722	2223.47
543.175	2244.87
543.629	2262.57
544.082	2266.62
544.536	2296.22
544.989	2286.32
545.442	2313.62
545.895	2315.42
546.349	2309.47
546.802	2318.67
547.255	2320.42
547.708	2330.07
548.161	2350.67
548.614	2360.37
549.067	2365.27
549.52	2351.77
549.973	2339.27
550.426	2318.67
550.879	2313.07
551.332	2307.57
551.785	2337.57
552.238	2352.17
552.691	2348.07
553.144	2386.52
553.596	2438.77
554.049	2464.97
554.502	2500.02
554.955	2530.67
555.407	2585.47
555.86	2550.32
556.313	2523.42
556.765	2495.17
557.218	2478.82
557.67	2479.37
558.123	2432.37
558.576	2429.37
559.028	2410.97
559.48	2439.37
559.933	2426.32
560.385	2349.92
560.838	2285.07
561.29	2214.42
561.742	2217.22
562.195	2148.42
562.647	2145.22
563.099	2132.22
563.551	2112.92
564.004	2142.37
564.456	2111.12
564.908	2078.37
565.36	2031.02
565.812	1984.07
566.264	1976.02
566.716	1941.77
567.168	1914.27
567.62	1923.77
568.072	1905.57
568.524	1890.52
568.976	1892.57
569.428	1861.17
569.88	1866.92
570.332	1875.72
570.784	1882.07
571.235	1875.17
571.687	1888.22
572.139	1901.92
572.59	1903.67
573.042	1907.52
573.494	1930.17
573.945	1891.42
574.397	1864.92
574.849	1843.32
575.3	1856.72
575.752	1838.82
576.203	1816.67
576.655	1820.87
577.106	1792.77
577.557	1779.92
578.009	1781.07
578.46	1783.47
578.912	1761.47
579.363	1775.62
579.814	1768.37
580.265	1766.67
580.717	1769.52
581.168	1779.67
581.619	1784.77
582.07	1789.77
582.521	1783.42
582.972	1784.37
583.423	1778.47
583.875	1793.52
584.326	1801.12
584.777	1843.47
585.227	1860.92
585.678	1887.32
586.129	1897.22
586.58	1929.52
587.031	1945.97
587.482	1988.77
587.933	2023.37
588.384	2016.52
588.834	2009.92
589.285	1988.57
589.736	1981.82
590.186	2000.02
590.637	1972.47
591.088	1929.02
591.538	1894.07
591.989	1866.37
592.439	1852.02
592.89	1832.27
593.34	1822.02
593.791	1811.37
594.241	1793.67
594.692	1791.12
595.142	1793.27
595.593	1799.27
596.043	1809.42
596.493	1829.82
596.943	1816.17
597.394	1864.32
597.844	1886.12
598.294	1931.52
598.744	1998.12
599.195	2081.67
599.645	2198.37
600.095	2306.52
600.545	2411.52
600.995	2516.07
601.445	2596.77
601.895	2722.42
602.345	2806.57
602.795	2778.82
603.245	2661.77
603.695	2514.47
604.145	2398.22
604.594	2272.42
605.044	2151.47
605.494	2028.27
605.944	1920.32
606.393	1875.12
606.843	1838.87
607.293	1833.67
607.743	1834.72
608.192	1835.92
608.642	1840.72
609.091	1833.62
609.541	1833.27
609.99	1835.72
610.44	1791.62
610.889	1781.27
611.339	1748.77
611.788	1727.77
612.238	1729.97
612.687	1743.67
613.136	1752.97
613.586	1776.02
614.035	1763.12
614.484	1783.87
614.933	1788.82
615.383	1742.42
615.832	1708.22
616.281	1678.02
616.73	1641.92
617.179	1608.47
617.628	1580.27
618.077	1557.17
618.526	1524.02
618.975	1525.82
619.424	1495.07
619.873	1497.82
620.322	1478.47
620.771	1480.07
621.22	1463.62
621.669	1435.47
622.118	1416.67
622.567	1398.02
623.015	1385.77
623.464	1375.47
623.913	1351.82
624.361	1353.37
624.81	1356.72
625.259	1359.72
625.707	1349.02
626.156	1355.22
626.604	1378.77
627.053	1385.57
627.501	1379.82
627.95	1382.12
628.398	1402.92
628.847	1377.82
629.295	1382.82
629.744	1372.42
630.192	1351.92
630.64	1332.02
631.089	1312.32
631.537	1277.62
631.985	1267.62
632.433	1261.32
632.881	1257.62
633.33	1264.17
633.778	1258.97
634.226	1266.02
634.674	1286.17
635.122	1291.32
635.57	1308.02
636.018	1333.37
636.466	1325.67
636.914	1323.37
637.362	1352.27
637.81	1379.87
638.258	1420.22
638.705	1427.92
639.153	1468.62
639.601	1495.02
640.049	1522.52
640.497	1559.42
640.944	1595.97
641.392	1531.77
641.84	1449.57
642.287	1383.97
642.735	1363.57
643.182	1354.77
643.63	1351.02
644.078	1354.62
644.525	1382.32
644.973	1419.32
645.42	1445.82
645.867	1485.97
646.315	1522.57
646.762	1585.92
647.21	1625.62
647.657	1714.02
648.104	1775.07
648.551	1824.97
648.999	1977.02
649.446	2173.02
649.893	2436.67
650.34	2854.02
650.787	3525.32
651.234	4552.67
651.682	6277.42
652.129	8877.62
652.576	12564.67
653.023	15532.87
653.47	15536.07
653.917	15536.12
654.363	15536.02
654.81	15533.02
655.257	15533.67
655.704	15528.17
656.151	9868.07
656.598	6466.97
657.044	4619.42
657.491	3603.67
657.938	2916.97
658.385	2464.42
658.831	2174.42
659.278	1949.37
659.724	1765.37
660.171	1649.12
660.618	1527.37
661.064	1444.97
661.511	1400.32
661.957	1343.12
662.404	1310.12
662.85	1303.92
663.296	1288.17
663.743	1243.32
664.189	1243.17
664.635	1221.42
665.082	1197.02
665.528	1179.87
665.974	1146.87
666.42	1124.62
666.867	1117.67
667.313	1069.52
667.759	1051.22
668.205	1044.52
668.651	1049.47
669.097	1043.67
669.543	1046.72
669.989	1063.87
670.435	1054.17
670.881	1075.87
671.327	1123.37
671.773	1196.62
672.219	1269.72
672.665	1356.32
673.11	1399.07
673.556	1421.02
674.002	1446.52
674.448	1466.87
674.893	1251.12
675.339	1096.27
675.785	1009.12
676.23	960.82
676.676	924.52
677.122	898.92
677.567	868.02
678.013	849.12
678.458	850.07
678.904	836.97
679.349	825.37
679.794	828.87
680.24	827.02
680.685	813.67
681.131	813.72
681.576	817.67
682.021	819.57
682.466	826.82
682.912	840.27
683.357	880.67
683.802	950.77
684.247	1035.92
684.692	1107.87
685.137	1148.22
685.583	1179.72
686.028	1237.67
686.473	1182.32
686.918	1008.17
687.363	932.82
687.807	887.52
688.252	843.07
688.697	817.72
689.142	795.12
689.587	794.02
690.032	818.22
690.477	842.07
690.921	877.27
691.366	923.77
691.811	952.82
692.255	1043.82
692.7	1258.37
693.145	1805.72
693.589	2758.22
694.034	3275.77
694.478	3506.67
694.923	3212.37
695.367	4555.52
695.812	2796.42
696.256	1185.92
696.701	865.07
697.145	806.92
697.59	772.77
698.034	759.02
698.478	749.32
698.922	754.42
699.367	777.17
699.811	812.02
700.255	880.82
700.699	963.97
701.143	1052.12
701.588	1111.87
702.032	1149.47
702.476	1189.22
702.92	1267.42
703.364	1656.42
703.808	2527.97
704.252	3153.32
704.696	3323.42
705.14	3148.52
705.584	4325.77
706.027	2417.27
706.471	1212.42
706.915	905.37
707.359	806.62
707.803	753.07
708.246	723.47
708.69	720.72
709.134	717.72
709.577	710.72
710.021	718.17
710.465	720.22
710.908	708.82
711.352	736.72
711.795	809.72
712.239	879.32
712.682	895.47
713.126	889.27
713.569	976.97
714.012	807.82
714.456	702.27
714.899	665.37
715.342	637.42
715.786	610.82
716.229	596.77
716.672	588.57
717.115	582.17
717.558	588.17
718.002	609.72
718.445	632.12
718.888	664.82
719.331	674.87
719.774	691.57
720.217	677.27
720.66	649.47
721.103	612.72
721.546	573.17
721.989	561.62
722.432	553.87
722.874	546.42
723.317	559.22
723.76	605.97
724.203	743.17
724.645	991.62
725.088	1167.52
725.531	1142.22
725.974	1243.82
726.416	1127.22
726.859	703.22
727.301	578.22
727.744	542.07
728.187	552.52
728.629	564.62
729.071	585.57
729.514	616.52
729.956	636.32
730.399	652.12
730.841	658.27
731.283	642.82
731.726	620.62
732.168	629.67
732.61	663.07
733.053	711.07
733.495	796.07
733.937	880.47
734.379	1029.27
734.821	1307.77
735.263	2073.92
735.705	3734.47
736.148	5469.02
736.59	5508.32
737.032	5977.77
737.474	4946.37
737.916	1904.17
738.357	1009.32
738.799	766.07
739.241	712.92
739.683	721.17
740.125	738.07
740.567	744.87
741.008	792.42
741.45	839.02
741.892	877.67
742.334	887.47
742.775	886.57
743.217	841.82
743.658	711.77
744.1	737.57
744.542	856.87
744.983	884.82
745.425	932.57
745.866	899.57
746.307	743.27
746.749	788.02
747.19	1134.92
747.632	2194.47
748.073	4057.67
748.514	5645.02
748.956	7473.92
749.397	8776.52
749.838	6089.22
750.279	5769.27
750.72	3006.17
751.162	1270.62
751.603	731.47
752.044	582.47
752.485	523.52
752.926	492.37
753.367	469.67
753.808	455.27
754.249	442.62
754.69	441.52
755.131	437.07
755.572	436.87
756.013	433.37
756.453	432.17
756.894	450.07
757.335	443.52
757.776	460.02
758.216	463.82
758.657	494.42
759.098	548.12
759.538	657.57
759.979	953.82
760.42	1929.67
760.86	4902.37
761.301	10176.17
761.741	12019.72
762.182	13766.82
762.622	8972.67
763.063	3201.97
763.503	1310.02
763.943	767.12
764.384	605.52
764.824	524.42
765.264	485.97
765.705	464.67
766.145	432.77
766.585	420.17
767.025	411.62
767.465	410.22
767.906	416.97
768.346	445.52
768.786	506.17
769.226	745.42
769.666	1499.12
770.106	3377.67
770.546	4829.27
770.986	5480.92
771.426	4139.32
771.866	1725.82
772.306	785.62
772.745	485.42
773.185	419.57
773.625	398.02
774.065	433.22
774.505	615.52
774.944	1116.72
775.384	1626.62
775.824	1829.62
776.263	1511.57
776.703	789.57
777.142	453.97
777.582	340.97
778.021	311.92
778.461	298.32
778.9	295.32
779.34	280.97
779.779	270.42
780.219	273.57
780.658	261.92
781.097	261.02
781.537	254.57
781.976	257.32
782.415	255.27
782.855	254.47
783.294	250.92
783.733	249.22
784.172	250.67
784.611	251.82
785.05	252.77
785.489	261.07
785.928	270.22
786.367	281.52
786.806	298.47
787.245	321.17
787.684	331.27
788.123	329.17
788.562	313.17
789.001	303.77
789.44	300.27
789.879	300.67
790.317	301.67
790.756	310.67
791.195	361.27
791.634	488.47
792.072	877.97
792.511	2134.92
792.95	3956.77
793.388	4806.12
793.827	3123.62
794.265	1423.47
794.704	684.52
795.142	429.37
795.581	352.02
796.019	319.17
796.458	314.97
796.896	325.22
797.334	374.47
797.773	494.87
798.211	952.52
798.649	1964.97
799.087	3329.82
799.526	4699.27
799.964	4849.27
800.402	3366.97
800.84	1513.37
801.278	746.07
801.716	454.82
802.154	367.67
802.592	344.37
803.03	349.02
803.468	351.77
803.906	359.77
804.344	351.12
804.782	336.62
805.22	345.12
805.658	355.12
806.096	377.42
806.533	422.22
806.971	536.37
807.409	779.42
807.847	1552.62
808.284	3960.82
808.722	6973.22
809.16	9804.42
809.597	13181.32
810.035	15512.82
810.472	10777.67
810.91	4563.82
811.347	2033.02
811.785	974.77
812.222	614.32
812.66	468.12
813.097	402.82
813.535	348.92
813.972	313.42
814.409	291.82
814.846	279.67
815.284	260.97
815.721	274.37
816.158	302.42
816.595	408.17
817.032	518.72
817.47	467.72
817.907	340.67
818.344	296.67
818.781	290.77
819.218	363.17
819.655	554.32
820.092	723.47
820.529	653.37
820.966	509.77
821.403	351.22
821.839	297.07
822.276	334.97
822.713	402.92
823.15	365.77
823.587	378.97
824.023	660.12
824.46	1625.57
824.897	2855.97
825.333	2233.27
825.77	1017.87
826.206	536.02
826.643	313.52
827.08	236.97
827.516	204.92
827.953	193.67
828.389	182.37
828.825	174.52
829.262	166.97
829.698	162.77
830.135	154.77
830.571	157.37
831.007	155.07
831.443	150.42
831.88	157.47
832.316	164.37
832.752	161.62
833.188	167.97
833.624	166.92
834.06	167.97
834.497	173.27
834.933	175.22
835.369	185.97
835.805	201.52
836.241	201.17
836.677	223.82
837.112	258.32
837.548	328.92
837.984	489.12
838.42	1025.02
838.856	2865.57
839.292	5663.82
839.727	4236.52
840.163	2821.72
840.599	4278.82
841.034	6571.12
841.47	3302.67
841.906	1582.92
842.341	850.82
842.777	639.12
843.212	665.77
843.648	414.22
844.083	277.07
844.519	213.17
844.954	175.82
845.39	153.52
845.825	157.07
846.261	147.77
846.696	141.27
847.131	134.37
847.566	136.57
848.002	136.12
848.437	147.62
848.872	151.07
849.307	198.12
849.742	356.02
850.177	926.97
850.613	1979.37
851.048	1441.22
851.483	664.22
851.918	363.47
852.353	204.27
852.788	144.32
853.223	132.67
853.657	119.22
854.092	115.87
854.527	116.12
854.962	123.37
855.397	137.57
855.832	117.97
856.266	108.07
856.701	103.22
857.136	106.02
857.57	132.97
858.005	166.62
858.44	135.32
858.874	122.97
859.309	128.87
859.743	127.27
860.178	122.77
860.612	134.87
861.047	187.22
861.481	267.12
861.915	188.12
862.35	134.37
862.784	106.12
863.218	102.97
863.653	110.62
864.087	140.77
864.521	169.57
864.955	270.07
865.39	479.97
865.824	365.62
866.258	484.37
866.692	744.27
867.126	542.02
867.56	290.57
867.994	181.97
868.428	151.97
868.862	192.17
869.296	180.77
869.73	211.37
870.164	184.97
870.598	161.82
871.031	118.37
871.465	102.57
871.899	82.17
872.333	73.72
872.766	72.17
873.2	71.57
873.634	74.07
874.067	76.27
874.501	77.02
874.935	79.27
875.368	79.37
875.802	73.02
876.235	66.32
876.669	71.57
877.102	60.17
877.535	62.82
877.969	57.37
878.402	59.32
878.836	61.72
879.269	59.72
879.702	64.17
880.135	64.52
880.569	62.97
881.002	56.72
881.435	54.42
881.868	52.47
882.301	54.22
882.734	51.92
883.167	56.07
883.601	54.82
884.034	50.57
884.467	50.97
884.899	54.12
885.332	44.67
885.765	52.12
886.198	47.47
886.631	48.92
887.064	50.47
887.497	47.97
887.929	51.82
888.362	47.37
888.795	49.67
889.228	46.62
889.66	43.62
890.093	43.22
890.526	44.47
890.958	45.12
891.391	49.47
891.823	45.32
892.256	44.02
892.688	46.47
893.121	40.72
893.553	47.82
893.985	46.27
894.418	43.97
894.85	44.47
895.282	47.02
895.715	40.77
896.147	36.97
896.579	42.92
897.011	44.87
897.444	44.17
897.876	34.47
898.308	38.62
898.74	44.02
899.172	44.02
899.604	45.92
900.036	40.87
900.468	40.12
900.9	46.52
901.332	59.92
901.764	59.77
902.196	54.77
902.628	57.67
903.06	88.47
903.491	93.77
903.923	74.87
904.355	75.27
904.787	77.67
905.218	64.72
905.65	62.02
906.082	54.42
906.513	51.22
906.945	51.32
907.376	49.62
907.808	50.52
908.239	59.17
908.671	60.37
909.102	65.92
909.534	98.62
909.965	181.97
910.397	469.17
910.828	1326.77
911.259	817.72
911.691	441.12
912.122	256.62
912.553	127.97
912.984	72.17
913.415	67.67
913.847	53.37
914.278	51.17
914.709	45.62
915.14	43.07
915.571	47.32
916.002	45.42
916.433	45.92
916.864	43.27
917.295	49.42
917.726	50.82
918.157	63.32
918.587	64.92
919.018	63.72
919.449	58.87
919.88	70.72
920.311	103.12
920.741	275.02
921.172	492.57
921.603	247.32
922.033	159.02
922.464	101.37
922.895	69.82
923.325	48.42
923.756	42.37
924.186	50.72
924.617	77.72
925.047	114.22
925.478	96.42
925.908	74.52
926.338	57.67
926.769	45.32
927.199	42.77
927.629	38.92
928.06	44.27
928.49	42.72
928.92	35.22
929.35	31.72
929.78	24.52
930.21	24.67
930.641	21.27
931.071	27.27
931.501	26.92
931.931	19.82
932.361	21.97
932.791	26.97
933.221	24.12
933.651	39.97
934.08	63.87
934.51	44.42
934.94	30.92
935.37	27.27
935.8	22.87
936.229	18.07
936.659	24.92
937.089	39.77
937.519	61.17
937.948	84.22
938.378	50.77
938.807	31.47
939.237	18.37
939.666	16.17
940.096	10.67
940.525	10.97
940.955	18.37
941.384	12.62
941.814	11.92
942.243	14.07
942.672	12.72
943.102	11.57
943.531	11.17
943.96	11.67
944.39	12.57
944.819	14.77
945.248	11.67
945.677	13.87
946.106	12.42
946.535	13.82
946.964	14.57
947.393	8.42
947.822	11.37
948.251	12.32
948.68	11.72
949.109	9.37
949.538	11.02
949.967	11.92
950.396	6.72
950.825	9.87
951.254	11.42
951.682	4.47
952.111	7.37
952.54	5.27
952.969	6.92
953.397	5.12
953.826	6.32
954.254	14.22
954.683	12.42
955.112	12.57
955.54	5.32
955.969	10.12
956.397	12.37
956.826	4.52
957.254	10.02
957.682	7.87
958.111	9.62
958.539	8.22
958.967	5.87
959.396	10.77
959.824	10.42
960.252	6.12
960.68	11.92
961.109	9.87
961.537	14.92
961.965	6.17
962.393	9.17
962.821	11.92
963.249	8.42
963.677	18.52
964.105	82.47
964.533	145.97
964.961	66.02
965.389	40.52
965.817	21.22
966.245	10.22
966.672	11.42
967.1	8.77
967.528	3.97
967.956	7.67
968.383	4.32
968.811	7.77
969.239	7.62
969.666	7.37
970.094	7.22
970.522	4.12
970.949	4.77
971.377	2.22
971.804	6.67
972.232	5.47
972.659	6.97
973.087	12.42
973.514	2.97
973.941	2.12
974.369	3.22
974.796	3.02
975.223	3.27
975.651	9.42
976.078	2.92
976.505	14.42
976.932	34.22
977.359	42.92
977.786	29.22
978.214	18.72
978.641	11.27
979.068	2.57
979.495	0.32
979.922	5.82
980.349	4.82
980.776	9.42
981.202	4.92
981.629	8.32
982.056	10.17
982.483	0.97
982.91	12.72
983.337	5.07
983.763	3.12
984.19	7.57
984.617	4.97
985.043	7.22
985.47	12.02
985.897	6.07
986.323	9.92
986.75	4.97
987.176	1.92
987.603	8.72
988.029	6.32
988.456	7.92
988.882	2.47
989.308	2.52
989.735	5.37
990.161	4.67
990.587	4.27
991.014	-1.88
991.44	3.57
991.866	4.22
992.292	5.92
992.719	2.17
993.145	5.37
993.571	2.12
993.997	6.72
994.423	9.17
994.849	-5.13
995.275	8.52
995.701	1.47
996.127	0.47
996.553	4.72
996.979	-1.78
997.405	8.47
997.83	2.37
998.256	4.47
998.682	0.92
999.108	3.82
999.534	-3.83
999.959	3.72
1000.385	7.82
1000.811	0.92
1001.236	3.17
1001.662	1.07
1002.087	8.12
1002.513	1.37
1002.938	1.87
1003.364	4.47
1003.789	4.32
1004.215	2.37
1004.64	1.82
1005.066	8.52
1005.491	9.17
1005.916	1.67
1006.342	3.37
1006.767	7.47
1007.192	7.32
1007.617	5.57
1008.042	5.32
1008.468	2.27
1008.893	5.47
1009.318	10.82
1009.743	15.22
1010.168	29.52
1010.593	24.87
1011.018	17.17
1011.443	8.97
1011.868	10.42
1012.293	5.07
1012.718	3.57
1013.143	5.02
1013.567	8.12
1013.992	6.67
1014.417	4.72
1014.842	0.47
1015.267	3.02
1015.691	6.92
1016.116	3.52
1016.541	5.12
1016.965	2.67
1017.39	6.72
1017.814	-3.68
1018.239	1.12
1018.663	-1.43
1019.088	3.12
1019.512	5.82
1019.937	-0.73
1020.361	3.57
1020.785	0.72
1021.21	0.07
1021.634	2.32
1022.058	3.37
1022.483	-3.08
1022.907	-2.58
1023.331	1.07
1023.755	-1.03
1024.179	4.42
1024.604	1.07
1025.028	1.92
1025.452	1.67
1025.876	7.27
1026.3	-0.23
1026.724	-0.38
1027.148	2.97
1027.572	-1.98
1027.996	6.77
1028.42	-1.48
1028.843	-1.18
1029.267	-3.28
1029.691	3.97
1030.115	-0.08
1030.539	-3.63
1030.962	0.72
1031.386	-2.83
1031.81	3.82
1032.233	-0.28
1032.657	-4.63
1033.08	2.77
1033.504	-5.58
1033.927	2.97
1034.351	-1.48
1034.774	3.02
1035.198	-1.98
1035.621	4.77
1036.045	-2.53
1036.468	4.82
1036.891	3.12
1037.315	2.82
1037.738	2.12
1038.161	-0.13
1038.584	1.82
1039.008	-1.58
1039.431	-1.18
1039.854	-2.23
1040.277	3.42
1040.7	-1.38
1041.123	-1.03
1041.546	-0.93
1041.969	1.42
1042.392	3.97
1042.815	-3.08
1043.238	-0.98
1043.661	0.87
1044.084	-2.28
1044.507	2.72
1044.93	-1.13
1045.352	1.57
1045.775	2.72
1046.198	7.02
1046.621	3.42
1047.043	0.77
1047.466	3.72
1047.889	0.87
1048.311	2.22
1048.734	-3.53
1049.156	-2.73
1049.579	-0.38
1050.001	-1.43
1050.424	-1.38
1050.846	-0.48
1051.269	-5.03
1051.691	-0.78
1052.113	1.72
1052.536	-3.03
1052.958	-2.13
1053.38	0.22
1053.802	1.17
1054.225	-3.63
1054.647	5.37
1055.069	-1.18
1055.491	-1.88
1055.913	3.07
1056.335	-6.98
1056.757	-3.18
1057.179	-4.73
1057.601	-1.68
1058.023	0.27
1058.445	-2.33
1058.867	-0.08
1059.289	-2.28
1059.711	-1.58
1060.133	-0.28
1060.555	-4.73
1060.976	-0.98
1061.398	-2.78
1061.82	-2.33
1062.241	-0.28
1062.663	1.47
1063.085	-5.98
1063.506	-6.38
1063.928	-2.28
1064.35	0.42
1064.771	-1.38
1065.193	-2.33
1065.614	-2.63
1066.035	5.87
1066.457	5.42
1066.878	2.82
1067.3	-0.28
1067.721	-2.98
1068.142	0.67
1068.564	2.67
1068.985	3.62
1069.406	-4.28
1069.827	0.87
1070.248	-0.68
1070.67	-1.38
1071.091	-6.83
1071.512	-0.98
1071.933	0.82
1072.354	-4.93
1072.775	-1.33
1073.196	-0.73
1073.617	-5.48
1074.038	-3.58
1074.459	-3.98
1074.88	0.02
1075.3	-1.18
1075.721	1.72
1076.142	-0.88
1076.563	-3.83
1076.983	1.07
1077.404	-8.93
1077.825	0.57
1078.246	-6.83
1078.666	-3.23
1079.087	0.82
1079.507	-1.23
1079.928	-1.73
1080.348	2.72
1080.769	2.27
1081.189	-2.58
1081.61	-4.68
1082.03	0.17
1082.451	2.87
1082.871	-4.98
1083.291	1.12
1083.711	-0.63
1084.132	2.12
1084.552	-7.43
1084.972	-3.03
1085.392	-4.23
1085.813	0.42
1086.233	-0.38
1086.653	2.02
1087.073	-1.58
1087.493	-3.93
1087.913	-2.63
1088.333	-3.63
1088.753	-0.93
1089.173	1.97
1089.593	2.47
1090.013	-0.58
1090.433	-6.18
1090.852	-0.58
1091.272	-3.93
1091.692	2.07
1092.112	-4.33
1092.531	-4.93
1092.951	0.67
1093.371	-0.63
1093.79	-3.88
1094.21	-4.28
1094.63	2.42
1095.049	-3.53
1095.469	-10.38
1095.888	1.82
1096.308	2.02
1096.727	-3.93
1097.146	-5.63
1097.566	-0.43
1097.985	-1.78
1098.405	-2.88
1098.824	-0.88
1099.243	-4.78
1099.662	-3.88
1100.082	-5.63
1100.501	1.47
1100.92	2.12
1101.339	1.62
1101.758	3.87
