Data from MSPlasma+Separation6_Subt14_10-13-19-788.txt Node
Date: Fri Jul 21 10:13:19 EDT 2017
User: Ender
Spectrometer: HR+D1039
Trigger mode: 0
Integration Time (sec): 6.430000E-3
Scans to average: 20
Electric dark correction enabled: true
Nonlinearity correction enabled: false
Boxcar width: 0
XAxis mode: Wavelengths
Number of Pixels in Spectrum: 2048
>>>>>Begin Spectral Data<<<<<
187.836	1.33
188.309	1.33
188.782	1.33
189.255	1.53
189.728	1.38
190.201	-1.57
190.674	-2.02
191.147	-1.12
191.619	-2.52
192.092	-1.12
192.565	0.23
193.038	0.78
193.511	6.03
193.984	1.83
194.456	0.88
194.929	0.78
195.402	-3.07
195.874	-3.42
196.347	3.13
196.82	5.83
197.292	2.98
197.765	-0.27
198.237	2.13
198.71	-3.72
199.182	3.13
199.655	5.63
200.127	1.18
200.6	-1.62
201.072	4.08
201.544	-1.37
202.017	2.73
202.489	2.73
202.961	0.28
203.433	-0.77
203.906	-3.22
204.378	6.53
204.85	0.68
205.322	0.23
205.794	4.33
206.266	-0.42
206.739	2.93
207.211	2.28
207.683	-3.07
208.155	5.43
208.627	0.93
209.099	4.78
209.57	1.53
210.042	4.58
210.514	2.78
210.986	2.78
211.458	-0.27
211.93	1.38
212.402	2.63
212.873	-0.47
213.345	-2.77
213.817	5.58
214.288	-0.42
214.76	1.18
215.232	0.13
215.703	2.28
216.175	5.08
216.646	5.48
217.118	-1.32
217.589	-0.52
218.061	-0.92
218.532	-4.62
219.004	5.28
219.475	3.68
219.946	6.28
220.418	8.73
220.889	-0.67
221.36	1.73
221.832	2.23
222.303	3.23
222.774	4.53
223.245	4.78
223.717	4.18
224.188	2.08
224.659	3.93
225.13	6.38
225.601	7.83
226.072	6.83
226.543	7.08
227.014	1.48
227.485	10.53
227.956	8.43
228.427	12.08
228.898	10.03
229.369	5.08
229.839	5.33
230.31	7.08
230.781	6.98
231.252	9.73
231.722	12.58
232.193	6.43
232.664	9.53
233.135	6.68
233.605	3.73
234.076	13.13
234.546	6.88
235.017	11.73
235.487	11.38
235.958	12.08
236.428	16.83
236.899	10.53
237.369	16.63
237.84	14.53
238.31	17.83
238.78	4.63
239.251	14.78
239.721	6.93
240.191	11.93
240.662	14.88
241.132	12.23
241.602	16.28
242.072	10.28
242.542	8.83
243.013	15.68
243.483	13.58
243.953	13.48
244.423	16.03
244.893	15.03
245.363	18.43
245.833	18.58
246.303	16.13
246.773	20.53
247.243	13.78
247.712	20.63
248.182	23.13
248.652	25.03
249.122	22.28
249.592	20.98
250.061	19.38
250.531	23.78
251.001	24.13
251.471	23.28
251.94	22.13
252.41	18.53
252.879	25.23
253.349	28.78
253.818	23.38
254.288	27.98
254.757	24.13
255.227	27.18
255.696	27.38
256.166	31.13
256.635	33.38
257.105	28.53
257.574	27.68
258.043	29.18
258.513	29.43
258.982	26.93
259.451	30.53
259.92	23.43
260.389	32.83
260.859	32.63
261.328	37.48
261.797	32.03
262.266	34.83
262.735	35.63
263.204	30.43
263.673	33.53
264.142	29.78
264.611	34.08
265.08	34.28
265.549	36.83
266.018	37.73
266.487	37.88
266.955	33.28
267.424	40.03
267.893	40.13
268.362	36.63
268.83	39.88
269.299	34.78
269.768	42.53
270.236	38.78
270.705	49.33
271.174	45.68
271.642	43.13
272.111	41.28
272.579	42.43
273.048	38.13
273.516	46.08
273.985	43.28
274.453	45.03
274.922	43.23
275.39	47.53
275.858	50.93
276.327	47.73
276.795	47.58
277.263	55.03
277.731	46.18
278.2	51.78
278.668	51.88
279.136	55.28
279.604	52.13
280.072	47.58
280.54	53.63
281.008	57.18
281.477	56.38
281.945	50.23
282.413	55.53
282.881	56.18
283.348	56.18
283.816	60.43
284.284	55.83
284.752	57.73
285.22	62.08
285.688	58.88
286.156	59.93
286.623	61.53
287.091	66.03
287.559	67.53
288.026	67.93
288.494	64.68
288.962	66.08
289.429	66.63
289.897	67.33
290.364	60.98
290.832	69.38
291.3	69.48
291.767	65.28
292.234	71.18
292.702	74.28
293.169	75.28
293.637	75.98
294.104	72.33
294.571	75.33
295.039	73.78
295.506	71.18
295.973	74.03
296.44	74.68
296.908	80.53
297.375	77.08
297.842	78.93
298.309	78.28
298.776	82.43
299.243	86.23
299.71	86.88
300.177	85.18
300.644	84.13
301.111	82.48
301.578	86.83
302.045	88.63
302.512	89.23
302.979	88.43
303.446	96.48
303.913	94.98
304.379	93.63
304.846	99.68
305.313	105.88
305.78	104.63
306.246	99.93
306.713	100.63
307.18	103.23
307.646	105.28
308.113	105.23
308.579	110.33
309.046	112.58
309.512	113.03
309.979	115.68
310.445	110.93
310.912	115.93
311.378	120.78
311.845	116.78
312.311	118.53
312.777	122.58
313.244	123.03
313.71	120.23
314.176	129.23
314.642	121.23
315.109	125.93
315.575	121.63
316.041	129.53
316.507	129.03
316.973	138.53
317.439	130.33
317.905	137.93
318.371	130.53
318.837	133.08
319.303	136.08
319.769	129.48
320.235	145.13
320.701	140.23
321.167	139.08
321.633	143.13
322.099	140.48
322.564	144.88
323.03	143.88
323.496	140.08
323.962	148.43
324.427	151.08
324.893	145.78
325.359	157.38
325.824	157.53
326.29	157.88
326.755	157.93
327.221	151.78
327.686	166.58
328.152	168.28
328.617	172.38
329.083	171.63
329.548	167.53
330.014	177.03
330.479	180.08
330.944	175.73
331.41	182.03
331.875	170.03
332.34	166.63
332.805	178.18
333.271	177.03
333.736	177.78
334.201	182.18
334.666	193.78
335.131	188.48
335.596	192.93
336.061	187.53
336.526	192.48
336.991	185.28
337.456	188.28
337.921	184.13
338.386	183.93
338.851	185.68
339.316	184.63
339.781	183.68
340.246	193.88
340.711	198.73
341.175	196.28
341.64	206.68
342.105	207.08
342.569	212.88
343.034	211.08
343.499	209.78
343.963	220.98
344.428	221.38
344.893	217.78
345.357	228.43
345.822	224.23
346.286	234.93
346.751	233.53
347.215	238.58
347.679	240.13
348.144	259.68
348.608	254.68
349.073	259.28
349.537	263.78
350.001	263.33
350.465	261.18
350.93	269.28
351.394	270.83
351.858	271.48
352.322	276.38
352.786	274.83
353.25	281.98
353.715	288.63
354.179	299.93
354.643	300.38
355.107	307.68
355.571	300.33
356.035	293.48
356.498	298.73
356.962	295.78
357.426	293.73
357.89	298.23
358.354	292.53
358.818	292.43
359.281	298.28
359.745	297.43
360.209	296.38
360.673	297.98
361.136	298.23
361.6	305.38
362.064	311.73
362.527	316.83
362.991	314.48
363.454	311.93
363.918	322.63
364.381	322.98
364.845	324.63
365.308	322.08
365.772	324.88
366.235	329.78
366.698	328.88
367.162	329.18
367.625	330.08
368.088	340.43
368.552	340.13
369.015	337.58
369.478	337.88
369.941	341.38
370.404	346.68
370.867	349.93
371.331	351.08
371.794	356.58
372.257	362.28
372.72	359.38
373.183	363.43
373.646	359.48
374.109	367.28
374.572	368.03
375.035	370.98
375.497	375.28
375.96	381.73
376.423	388.33
376.886	392.63
377.349	394.78
377.811	399.53
378.274	397.58
378.737	396.03
379.199	403.88
379.662	408.78
380.125	409.63
380.587	410.23
381.05	415.03
381.512	424.88
381.975	432.63
382.437	441.08
382.9	431.73
383.362	441.28
383.825	443.88
384.287	446.23
384.75	443.83
385.212	451.03
385.674	452.03
386.136	456.08
386.599	459.68
387.061	456.88
387.523	460.33
387.985	463.13
388.447	472.73
388.91	461.68
389.372	470.33
389.834	471.13
390.296	463.48
390.758	474.13
391.22	474.18
391.682	477.58
392.144	481.83
392.606	476.18
393.068	494.08
393.529	510.88
393.991	523.18
394.453	499.73
394.915	492.33
395.377	477.63
395.838	490.73
396.3	488.48
396.762	494.88
397.224	487.73
397.685	489.93
398.147	498.73
398.608	503.43
399.07	512.13
399.531	509.28
399.993	525.83
400.454	535.63
400.916	525.93
401.377	540.48
401.839	544.28
402.3	546.53
402.762	574.88
403.223	608.38
403.684	605.58
404.145	589.03
404.607	578.98
405.068	570.08
405.529	574.98
405.99	583.23
406.451	606.43
406.913	588.03
407.374	595.48
407.835	594.08
408.296	608.33
408.757	605.13
409.218	621.63
409.679	631.63
410.14	628.38
410.601	653.08
411.062	653.83
411.522	654.38
411.983	652.58
412.444	661.43
412.905	671.48
413.366	695.08
413.826	732.53
414.287	811.33
414.748	931.08
415.208	949.18
415.669	811.33
416.13	746.53
416.59	722.33
417.051	753.93
417.511	787.28
417.972	831.53
418.432	884.48
418.893	973.23
419.353	925.48
419.814	742.43
420.274	669.68
420.734	670.38
421.195	685.88
421.655	693.73
422.115	702.18
422.576	699.23
423.036	706.78
423.496	722.53
423.956	747.83
424.416	802.38
424.876	891.53
425.336	885.53
425.797	866.03
426.257	870.43
426.717	831.43
427.177	783.18
427.637	799.08
428.097	827.08
428.556	861.33
429.016	919.48
429.476	927.43
429.936	923.03
430.396	924.18
430.856	940.53
431.315	967.98
431.775	1026.33
432.235	1082.23
432.694	1096.48
433.154	1030.33
433.614	1015.18
434.073	975.43
434.533	887.58
434.993	850.78
435.452	856.83
435.912	828.73
436.371	834.03
436.83	818.73
437.29	799.38
437.749	781.93
438.209	769.88
438.668	782.23
439.127	797.98
439.587	783.03
440.046	750.58
440.505	769.03
440.964	773.88
441.424	798.63
441.883	813.03
442.342	771.48
442.801	738.28
443.26	747.63
443.719	741.48
444.178	733.03
444.637	746.38
445.096	753.48
445.555	759.68
446.014	761.88
446.473	754.03
446.932	753.63
447.391	761.43
447.849	774.43
448.308	759.78
448.767	763.78
449.226	784.68
449.685	792.03
450.143	821.93
450.602	812.48
451.061	773.98
451.519	778.53
451.978	771.58
452.436	763.43
452.895	773.08
453.353	770.03
453.812	763.03
454.27	767.53
454.729	765.98
455.187	776.98
455.646	779.48
456.104	783.73
456.562	791.73
457.021	806.48
457.479	767.78
457.937	795.83
458.395	816.03
458.854	808.28
459.312	799.13
459.77	801.48
460.228	823.13
460.686	832.58
461.144	825.18
461.602	823.23
462.06	828.63
462.518	843.83
462.976	835.13
463.434	849.28
463.892	851.43
464.35	879.78
464.808	891.13
465.266	899.83
465.724	912.28
466.181	914.78
466.639	912.83
467.097	950.68
467.555	982.73
468.012	976.73
468.47	977.38
468.928	1013.73
469.385	1036.48
469.843	1056.08
470.3	1042.53
470.758	1091.48
471.215	1104.28
471.673	1124.28
472.13	1156.08
472.588	1183.88
473.045	1179.38
473.503	1198.68
473.96	1264.28
474.417	1270.48
474.875	1327.58
475.332	1387.98
475.789	1412.18
476.246	1459.28
476.704	1530.68
477.161	1588.68
477.618	1626.78
478.075	1733.38
478.532	1885.83
478.989	2042.93
479.446	2264.03
479.903	2408.08
480.36	2648.38
480.817	2830.03
481.274	2999.38
481.731	3309.58
482.188	3523.93
482.645	3799.38
483.102	3982.18
483.558	4229.08
484.015	4388.33
484.472	4326.73
484.929	4184.13
485.385	3976.78
485.842	3864.98
486.299	3686.13
486.755	3387.08
487.212	3047.13
487.668	2730.63
488.125	2532.13
488.582	2334.33
489.038	2232.18
489.494	2149.73
489.951	2072.63
490.407	2017.28
490.864	1969.58
491.32	1920.33
491.776	1905.98
492.233	1918.33
492.689	1875.28
493.145	1834.18
493.602	1811.68
494.058	1836.73
494.514	1834.18
494.97	1818.03
495.426	1859.08
495.882	1847.93
496.338	1838.18
496.794	1866.63
497.251	1848.93
497.707	1870.03
498.163	1878.28
498.618	1872.28
499.074	1853.53
499.53	1875.88
499.986	1894.43
500.442	1873.48
500.898	1851.08
501.354	1873.13
501.809	1877.98
502.265	1886.63
502.721	1876.68
503.177	1895.93
503.632	1903.08
504.088	1902.38
504.543	1914.98
504.999	1937.33
505.455	1929.93
505.91	1910.98
506.366	1917.08
506.821	1928.23
507.277	1920.53
507.732	1924.48
508.187	1916.18
508.643	1951.73
509.098	1932.48
509.553	1968.58
510.009	1984.33
510.464	2026.23
510.919	2035.63
511.375	2058.43
511.83	2076.38
512.285	2100.78
512.74	2151.48
513.195	2181.68
513.65	2210.38
514.105	2233.88
514.56	2235.13
515.015	2269.93
515.47	2273.13
515.925	2247.68
516.38	2261.98
516.835	2265.63
517.29	2242.33
517.745	2239.28
518.2	2208.88
518.655	2166.33
519.109	2154.38
519.564	2120.13
520.019	2109.53
520.474	2084.08
520.928	2088.03
521.383	2060.23
521.838	2062.43
522.292	2039.03
522.747	2035.03
523.201	2017.43
523.656	1992.23
524.11	2003.48
524.565	1992.38
525.019	1998.78
525.474	1991.98
525.928	1980.23
526.382	1989.93
526.837	1989.03
527.291	1995.83
527.745	1986.48
528.2	1977.38
528.654	1957.53
529.108	1967.03
529.562	1974.38
530.016	1959.88
530.47	1971.53
530.925	1956.13
531.379	1958.73
531.833	1992.93
532.287	1983.23
532.741	1962.58
533.195	1960.33
533.649	1968.58
534.103	1973.33
534.556	1964.98
535.01	1978.78
535.464	1964.98
535.918	1966.93
536.372	1984.18
536.826	1962.53
537.279	1948.38
537.733	1954.88
538.187	1975.03
538.64	1967.08
539.094	1994.73
539.548	2009.23
540.001	2004.68
540.455	2018.83
540.908	2032.08
541.362	2053.93
541.815	2071.18
542.269	2100.08
542.722	2096.48
543.175	2113.98
543.629	2124.38
544.082	2145.03
544.536	2156.03
544.989	2160.83
545.442	2184.23
545.895	2171.23
546.349	2176.43
546.802	2188.88
547.255	2195.53
547.708	2190.38
548.161	2214.28
548.614	2214.58
549.067	2220.83
549.52	2209.03
549.973	2178.98
550.426	2178.33
550.879	2194.08
551.332	2177.28
551.785	2207.23
552.238	2220.73
552.691	2233.33
553.144	2255.83
553.596	2296.18
554.049	2322.48
554.502	2342.88
554.955	2390.88
555.407	2406.48
555.86	2391.33
556.313	2353.58
556.765	2354.18
557.218	2326.28
557.67	2314.88
558.123	2294.78
558.576	2281.38
559.028	2270.73
559.48	2271.08
559.933	2262.48
560.385	2218.48
560.838	2139.18
561.29	2079.88
561.742	2084.93
562.195	2028.33
562.647	2004.63
563.099	2003.83
563.551	1985.88
564.004	2002.33
564.456	1981.78
564.908	1949.73
565.36	1906.28
565.812	1873.28
566.264	1856.83
566.716	1832.43
567.168	1811.13
567.62	1801.13
568.072	1792.18
568.524	1785.73
568.976	1779.98
569.428	1765.63
569.88	1759.93
570.332	1775.63
570.784	1782.48
571.235	1769.28
571.687	1796.78
572.139	1788.78
572.59	1802.98
573.042	1804.68
573.494	1807.38
573.945	1781.58
574.397	1743.08
574.849	1744.08
575.3	1743.53
575.752	1726.78
576.203	1704.93
576.655	1716.38
577.106	1691.03
577.557	1684.93
578.009	1670.33
578.46	1673.23
578.912	1662.83
579.363	1677.13
579.814	1668.78
580.265	1672.93
580.717	1668.38
581.168	1673.48
581.619	1681.33
582.07	1686.83
582.521	1684.33
582.972	1677.63
583.423	1687.58
583.875	1686.83
584.326	1724.38
584.777	1741.23
585.227	1771.08
585.678	1784.73
586.129	1803.88
586.58	1816.03
587.031	1833.53
587.482	1884.08
587.933	1905.33
588.384	1911.18
588.834	1885.48
589.285	1882.88
589.736	1877.38
590.186	1874.38
590.637	1846.18
591.088	1812.08
591.538	1782.53
591.989	1768.28
592.439	1744.43
592.89	1731.68
593.34	1720.78
593.791	1715.28
594.241	1697.38
594.692	1699.08
595.142	1700.43
595.593	1693.33
596.043	1698.88
596.493	1722.58
596.943	1720.03
597.394	1767.18
597.844	1784.13
598.294	1822.63
598.744	1891.78
599.195	1979.93
599.645	2082.93
600.095	2197.08
600.545	2278.13
600.995	2384.23
601.445	2443.43
601.895	2553.03
602.345	2604.48
602.795	2568.88
603.245	2463.33
603.695	2339.58
604.145	2225.33
604.594	2110.68
605.044	2014.23
605.494	1894.38
605.944	1802.53
606.393	1767.38
606.843	1731.18
607.293	1737.73
607.743	1712.33
608.192	1735.83
608.642	1735.03
609.091	1720.18
609.541	1711.08
609.99	1716.98
610.44	1679.88
610.889	1659.88
611.339	1655.03
611.788	1628.28
612.238	1648.38
612.687	1651.28
613.136	1647.78
613.586	1668.98
614.035	1664.88
614.484	1676.73
614.933	1667.28
615.383	1645.53
615.832	1599.58
616.281	1575.58
616.73	1545.18
617.179	1521.08
617.628	1477.83
618.077	1470.53
618.526	1445.43
618.975	1437.88
619.424	1395.38
619.873	1407.43
620.322	1397.63
620.771	1403.78
621.22	1367.13
621.669	1343.78
622.118	1330.53
622.567	1320.88
623.015	1309.73
623.464	1295.93
623.913	1285.28
624.361	1289.38
624.81	1275.08
625.259	1284.63
625.707	1276.28
626.156	1286.38
626.604	1301.48
627.053	1306.63
627.501	1297.68
627.95	1312.93
628.398	1323.48
628.847	1304.53
629.295	1294.73
629.744	1290.98
630.192	1270.38
630.64	1260.78
631.089	1235.88
631.537	1211.58
631.985	1200.23
632.433	1196.58
632.881	1190.18
633.33	1195.08
633.778	1195.38
634.226	1212.53
634.674	1215.03
635.122	1224.08
635.57	1240.48
636.018	1263.93
636.466	1261.38
636.914	1256.53
637.362	1292.58
637.81	1307.33
638.258	1351.68
638.705	1374.58
639.153	1411.33
639.601	1426.13
640.049	1447.03
640.497	1486.08
640.944	1502.18
641.392	1457.78
641.84	1388.28
642.287	1333.63
642.735	1306.23
643.182	1308.48
643.63	1302.13
644.078	1312.78
644.525	1345.13
644.973	1378.48
645.42	1423.08
645.867	1454.43
646.315	1496.03
646.762	1555.38
647.21	1605.48
647.657	1709.23
648.104	1789.78
648.551	1852.48
648.999	2027.23
649.446	2275.68
649.893	2590.03
650.34	3077.78
650.787	3848.68
651.234	5043.08
651.682	7018.38
652.129	10038.43
652.576	14147.93
653.023	15529.93
653.47	15533.13
653.917	15533.18
654.363	15533.08
654.81	15530.08
655.257	15530.73
655.704	15533.68
656.151	10118.63
656.598	6637.63
657.044	4738.28
657.491	3684.48
657.938	2969.73
658.385	2486.43
658.831	2189.03
659.278	1939.68
659.724	1762.43
660.171	1635.38
660.618	1519.18
661.064	1414.83
661.511	1370.98
661.957	1321.98
662.404	1295.23
662.85	1268.93
663.296	1249.13
663.743	1215.88
664.189	1195.38
664.635	1181.58
665.082	1153.93
665.528	1136.18
665.974	1096.88
666.42	1080.23
666.867	1070.48
667.313	1025.98
667.759	1013.93
668.205	1003.33
668.651	1004.23
669.097	997.53
669.543	1009.83
669.989	1010.38
670.435	1009.43
670.881	1030.98
671.327	1068.88
671.773	1143.63
672.219	1223.98
672.665	1295.23
673.11	1339.38
673.556	1340.83
674.002	1348.78
674.448	1348.33
674.893	1178.53
675.339	1030.78
675.785	948.78
676.23	900.93
676.676	873.58
677.122	848.83
677.567	830.13
678.013	798.53
678.458	793.33
678.904	792.93
679.349	781.13
679.794	775.38
680.24	780.98
680.685	769.98
681.131	772.93
681.576	771.68
682.021	775.18
682.466	779.63
682.912	791.88
683.357	834.38
683.802	909.03
684.247	993.68
684.692	1047.18
685.137	1089.58
685.583	1102.23
686.028	1137.08
686.473	1075.93
686.918	956.93
687.363	881.33
687.807	832.98
688.252	790.98
688.697	765.78
689.142	747.08
689.587	750.33
690.032	768.43
690.477	793.43
690.921	836.38
691.366	878.93
691.811	909.23
692.255	984.18
692.7	1208.78
693.145	1754.83
693.589	2689.48
694.034	3166.98
694.478	3268.48
694.923	2905.18
695.367	3900.43
695.812	2495.63
696.256	1098.23
696.701	820.58
697.145	753.38
697.59	733.18
698.034	719.48
698.478	716.48
698.922	718.93
699.367	734.53
699.811	774.63
700.255	838.73
700.699	913.38
701.143	991.98
701.588	1041.38
702.032	1073.63
702.476	1104.93
702.92	1201.78
703.364	1598.53
703.808	2459.13
704.252	3029.13
704.696	3109.08
705.14	2834.28
705.584	3711.68
706.027	2166.78
706.471	1117.43
706.915	845.48
707.359	759.23
707.803	711.83
708.246	689.48
708.69	676.93
709.134	666.88
709.577	662.83
710.021	674.68
710.465	670.73
710.908	666.48
711.352	693.58
711.795	773.23
712.239	832.98
712.682	843.48
713.126	814.83
713.569	893.48
714.012	753.58
714.456	663.33
714.899	621.28
715.342	594.08
715.786	576.23
716.229	562.68
716.672	548.18
717.115	549.63
717.558	552.33
718.002	574.93
718.445	593.78
718.888	622.43
719.331	633.93
719.774	642.38
720.217	636.08
720.66	599.78
721.103	570.58
721.546	541.03
721.989	529.98
722.432	517.83
722.874	519.23
723.317	531.28
723.76	574.68
724.203	703.93
724.645	946.38
725.088	1093.98
725.531	1057.53
725.974	1113.43
726.416	1011.43
726.859	645.73
727.301	537.33
727.744	514.38
728.187	519.48
728.629	530.03
729.071	557.93
729.514	571.23
729.956	597.68
730.399	610.28
730.841	601.93
731.283	596.63
731.726	584.08
732.168	600.18
732.61	627.38
733.053	675.93
733.495	732.08
733.937	821.78
734.379	966.33
734.821	1242.98
735.263	1991.23
735.705	3593.18
736.148	5171.03
736.59	5042.98
737.032	5150.83
737.474	4283.38
737.916	1746.78
738.357	933.98
738.799	714.08
739.241	666.63
739.683	676.88
740.125	696.98
740.567	697.23
741.008	734.43
741.45	776.38
741.892	828.08
742.334	824.58
742.775	807.23
743.217	770.48
743.658	674.18
744.1	692.53
744.542	803.93
744.983	827.88
745.425	840.48
745.866	818.63
746.307	697.03
746.749	746.48
747.19	1082.63
747.632	2105.38
748.073	3888.08
748.514	5277.38
748.956	6815.23
749.397	7865.83
749.838	5481.03
750.279	4947.08
750.72	2684.63
751.162	1169.33
751.603	684.73
752.044	546.93
752.485	488.43
752.926	454.13
753.367	441.98
753.808	432.68
754.249	422.13
754.69	416.88
755.131	412.98
755.572	408.13
756.013	411.13
756.453	413.33
756.894	425.23
757.335	420.68
757.776	430.83
758.216	444.23
758.657	471.68
759.098	516.63
759.538	631.78
759.979	911.68
760.42	1855.33
760.86	4743.13
761.301	9589.93
761.741	10995.08
762.182	11785.98
762.622	7832.63
763.063	2933.18
763.503	1214.13
763.943	712.13
764.384	561.98
764.824	484.93
765.264	458.33
765.705	433.73
766.145	401.73
766.585	392.78
767.025	377.38
767.465	387.23
767.906	390.33
768.346	420.28
768.786	478.43
769.226	716.23
769.666	1447.68
770.106	3200.48
770.546	4436.93
770.986	4705.88
771.426	3587.58
771.866	1578.68
772.306	724.88
772.745	451.23
773.185	382.63
773.625	378.73
774.065	406.93
774.505	602.28
774.944	1069.48
775.384	1518.78
775.824	1604.08
776.263	1326.13
776.703	729.28
777.142	425.78
777.582	318.38
778.021	292.63
778.461	277.58
778.9	275.13
779.34	262.63
779.779	263.33
780.219	254.38
780.658	248.23
781.097	244.83
781.537	240.83
781.976	236.18
782.415	237.23
782.855	238.63
783.294	234.88
783.733	229.03
784.172	232.83
784.611	233.08
785.05	239.78
785.489	251.63
785.928	251.33
786.367	263.28
786.806	274.03
787.245	297.58
787.684	304.63
788.123	301.23
788.562	294.63
789.001	282.88
789.44	277.38
789.879	269.28
790.317	282.98
790.756	299.83
791.195	340.98
791.634	456.88
792.072	827.03
792.511	2014.23
792.95	3628.63
793.388	4146.63
793.827	2736.88
794.265	1300.33
794.704	632.83
795.142	387.48
795.581	323.43
796.019	292.98
796.458	293.58
796.896	307.73
797.334	351.63
797.773	466.38
798.211	895.33
798.649	1831.73
799.087	3019.58
799.526	4223.53
799.964	4272.53
800.402	2915.53
800.84	1379.18
801.278	693.53
801.716	423.03
802.154	344.58
802.592	325.28
803.03	325.48
803.468	331.38
803.906	331.13
804.344	328.33
804.782	316.23
805.22	320.43
805.658	331.73
806.096	351.28
806.533	392.98
806.971	508.63
807.409	738.63
807.847	1469.43
808.284	3682.73
808.722	6318.53
809.16	8713.43
809.597	12119.73
810.035	14215.83
810.472	9336.03
810.91	4157.83
811.347	1903.88
811.785	895.08
812.222	560.53
812.66	432.38
813.097	362.23
813.535	318.98
813.972	290.48
814.409	272.73
814.846	256.23
815.284	245.78
815.721	246.28
816.158	278.93
816.595	376.53
817.032	471.48
817.47	427.88
817.907	316.63
818.344	278.33
818.781	267.93
819.218	334.93
819.655	503.43
820.092	648.73
820.529	585.08
820.966	460.78
821.403	321.38
821.839	272.33
822.276	304.43
822.713	356.68
823.15	332.13
823.587	355.78
824.023	607.78
824.46	1494.13
824.897	2504.73
825.333	1950.83
825.77	934.73
826.206	494.68
826.643	295.28
827.08	223.18
827.516	195.48
827.953	182.98
828.389	176.63
828.825	164.63
829.262	158.03
829.698	151.78
830.135	142.28
830.571	143.13
831.007	148.38
831.443	145.18
831.88	146.98
832.316	157.08
832.752	151.38
833.188	153.13
833.624	156.93
834.06	158.33
834.497	154.73
834.933	160.38
835.369	178.88
835.805	185.33
836.241	190.53
836.677	213.03
837.112	244.38
837.548	300.88
837.984	450.43
838.42	947.63
838.856	2613.33
839.292	4901.13
839.727	3688.88
840.163	2596.08
840.599	3883.08
841.034	5661.08
841.47	2919.23
841.906	1458.48
842.341	793.28
842.777	583.98
843.212	590.28
843.648	375.78
844.083	257.93
844.519	196.18
844.954	165.48
845.39	144.83
845.825	142.98
846.261	137.38
846.696	130.93
847.131	128.33
847.566	124.58
848.002	125.33
848.437	137.98
848.872	144.98
849.307	182.38
849.742	333.73
850.177	847.03
850.613	1732.68
851.048	1265.98
851.483	595.33
851.918	336.58
852.353	185.98
852.788	134.03
853.223	124.08
853.657	114.23
854.092	110.13
854.527	106.53
854.962	111.78
855.397	130.48
855.832	109.28
856.266	99.78
856.701	97.28
857.136	105.23
857.57	123.28
858.005	147.98
858.44	126.43
858.874	116.68
859.309	120.18
859.743	119.33
860.178	115.78
860.612	130.23
861.047	172.73
861.481	235.68
861.915	168.18
862.35	123.98
862.784	96.18
863.218	93.18
863.653	101.13
864.087	121.03
864.521	155.08
864.955	247.73
865.39	421.38
865.824	331.48
866.258	435.93
866.692	646.33
867.126	463.88
867.56	266.48
867.994	170.08
868.428	144.88
868.862	167.93
869.296	161.93
869.73	192.98
870.164	168.48
870.598	148.68
871.031	111.48
871.465	96.88
871.899	72.93
872.333	66.73
872.766	67.53
873.2	74.08
873.634	66.83
874.067	75.43
874.501	73.13
874.935	69.38
875.368	72.83
875.802	68.18
876.235	65.43
876.669	61.03
877.102	54.43
877.535	56.63
877.969	55.18
878.402	58.28
878.836	52.63
879.269	54.23
879.702	52.73
880.135	56.83
880.569	62.38
881.002	56.58
881.435	52.33
881.868	56.08
882.301	47.78
882.734	46.63
883.167	52.98
883.601	51.08
884.034	51.43
884.467	43.58
884.899	46.78
885.332	42.73
885.765	46.53
886.198	45.53
886.631	48.18
887.064	43.78
887.497	41.33
887.929	48.73
888.362	40.43
888.795	45.08
889.228	47.48
889.66	42.98
890.093	44.28
890.526	44.33
890.958	45.98
891.391	47.78
891.823	46.23
892.256	39.33
892.688	45.58
893.121	40.83
893.553	46.08
893.985	39.73
894.418	42.23
894.85	45.28
895.282	49.13
895.715	40.28
896.147	42.23
896.579	36.78
897.011	42.43
897.444	39.78
897.876	33.98
898.308	36.53
898.74	41.28
899.172	45.53
899.604	42.78
900.036	41.63
900.468	33.78
900.9	41.73
901.332	52.78
901.764	56.33
902.196	53.23
902.628	53.13
903.06	78.63
903.491	86.73
903.923	67.18
904.355	66.33
904.787	73.43
905.218	58.63
905.65	55.43
906.082	48.33
906.513	46.58
906.945	47.38
907.376	43.48
907.808	50.73
908.239	54.98
908.671	56.73
909.102	64.78
909.534	86.03
909.965	162.98
910.397	418.63
910.828	1129.98
911.259	721.68
911.691	400.08
912.122	235.83
912.553	123.33
912.984	66.58
913.415	61.13
913.847	53.73
914.278	51.83
914.709	40.33
915.14	46.13
915.571	45.58
916.002	40.58
916.433	40.63
916.864	37.08
917.295	45.53
917.726	51.33
918.157	59.78
918.587	55.58
919.018	56.68
919.449	53.98
919.88	57.88
920.311	92.38
920.741	239.68
921.172	421.33
921.603	220.83
922.033	148.83
922.464	98.38
922.895	66.43
923.325	42.78
923.756	40.98
924.186	51.93
924.617	72.73
925.047	103.68
925.478	85.23
925.908	68.38
926.338	51.98
926.769	43.88
927.199	39.93
927.629	35.48
928.06	36.53
928.49	39.38
928.92	33.18
929.35	33.38
929.78	23.78
930.21	26.08
930.641	16.78
931.071	27.68
931.501	20.28
931.931	20.88
932.361	23.78
932.791	26.63
933.221	26.88
933.651	36.88
934.08	59.58
934.51	35.68
934.94	32.43
935.37	26.93
935.8	21.13
936.229	17.28
936.659	24.13
937.089	38.68
937.519	53.88
937.948	72.83
938.378	47.13
938.807	29.58
939.237	17.48
939.666	20.98
940.096	12.93
940.525	11.03
940.955	12.08
941.384	12.53
941.814	11.13
942.243	12.53
942.672	11.53
943.102	9.43
943.531	9.93
943.96	7.28
944.39	7.23
944.819	11.43
945.248	11.28
945.677	12.98
946.106	11.43
946.535	12.33
946.964	12.03
947.393	10.28
947.822	10.78
948.251	13.33
948.68	15.28
949.109	13.88
949.538	11.13
949.967	12.08
950.396	11.78
950.825	9.13
951.254	8.03
951.682	7.38
952.111	8.78
952.54	6.83
952.969	8.73
953.397	7.68
953.826	6.83
954.254	8.83
954.683	7.73
955.112	9.28
955.54	5.03
955.969	7.98
956.397	11.73
956.826	10.28
957.254	9.88
957.682	6.83
958.111	6.13
958.539	9.88
958.967	8.08
959.396	12.28
959.824	7.78
960.252	7.93
960.68	9.53
961.109	7.13
961.537	15.83
961.965	6.68
962.393	6.03
962.821	7.93
963.249	9.43
963.677	13.53
964.105	74.43
964.533	121.68
964.961	63.83
965.389	35.08
965.817	23.03
966.245	11.83
966.672	12.63
967.1	12.13
967.528	2.38
967.956	8.08
968.383	6.93
968.811	7.28
969.239	5.28
969.666	6.83
970.094	7.58
970.522	0.33
970.949	7.38
971.377	-3.07
971.804	4.18
972.232	4.33
972.659	6.68
973.087	8.68
973.514	1.83
973.941	5.53
974.369	1.03
974.796	2.63
975.223	1.43
975.651	7.13
976.078	7.73
976.505	12.28
976.932	28.33
977.359	39.93
977.786	25.53
978.214	19.83
978.641	8.08
979.068	10.68
979.495	5.88
979.922	5.53
980.349	8.28
980.776	7.48
981.202	4.88
981.629	11.38
982.056	10.78
982.483	1.73
982.91	8.28
983.337	2.63
983.763	7.38
984.19	7.83
984.617	5.43
985.043	8.63
985.47	7.88
985.897	8.08
986.323	7.03
986.75	1.18
987.176	6.38
987.603	6.28
988.029	4.38
988.456	8.88
988.882	1.83
989.308	1.33
989.735	1.03
990.161	4.98
990.587	0.93
991.014	3.83
991.44	4.48
991.866	1.13
992.292	3.33
992.719	5.03
993.145	4.53
993.571	5.98
993.997	4.93
994.423	3.88
994.849	0.28
995.275	5.13
995.701	5.83
996.127	1.48
996.553	2.28
996.979	1.88
997.405	8.38
997.83	6.83
998.256	5.03
998.682	0.58
999.108	5.23
999.534	-1.92
999.959	1.38
1000.385	5.88
1000.811	-0.97
1001.236	-0.12
1001.662	3.23
1002.087	6.43
1002.513	4.98
1002.938	1.38
1003.364	4.18
1003.789	7.18
1004.215	7.88
1004.64	4.08
1005.066	3.48
1005.491	3.78
1005.916	2.63
1006.342	6.38
1006.767	4.03
1007.192	9.98
1007.617	5.63
1008.042	0.23
1008.468	0.23
1008.893	10.38
1009.318	10.58
1009.743	14.23
1010.168	26.63
1010.593	27.48
1011.018	15.53
1011.443	8.88
1011.868	6.93
1012.293	8.53
1012.718	0.73
1013.143	5.38
1013.567	3.63
1013.992	4.78
1014.417	2.93
1014.842	2.03
1015.267	3.18
1015.691	4.43
1016.116	1.83
1016.541	4.63
1016.965	5.08
1017.39	4.68
1017.814	-2.07
1018.239	-0.17
1018.663	-4.52
1019.088	-3.37
1019.512	6.18
1019.937	0.58
1020.361	3.03
1020.785	1.18
1021.21	-2.97
1021.634	-0.17
1022.058	5.43
1022.483	-3.97
1022.907	-0.72
1023.331	0.28
1023.755	5.23
1024.179	1.83
1024.604	3.83
1025.028	1.83
1025.452	4.08
1025.876	3.18
1026.3	0.28
1026.724	-2.77
1027.148	2.58
1027.572	-2.12
1027.996	3.13
1028.42	0.68
1028.843	1.68
1029.267	0.48
1029.691	1.88
1030.115	-2.32
1030.539	-1.87
1030.962	0.43
1031.386	2.48
1031.81	1.88
1032.233	-3.97
1032.657	-2.77
1033.08	0.83
1033.504	0.43
1033.927	2.68
1034.351	0.18
1034.774	0.13
1035.198	-1.72
1035.621	2.38
1036.045	-1.07
1036.468	3.88
1036.891	-0.42
1037.315	1.08
1037.738	3.18
1038.161	0.93
1038.584	2.53
1039.008	-3.27
1039.431	0.93
1039.854	-3.67
1040.277	4.18
1040.7	2.93
1041.123	3.63
1041.546	2.93
1041.969	4.53
1042.392	3.58
1042.815	-4.82
1043.238	-0.92
1043.661	4.18
1044.084	-5.17
1044.507	-1.72
1044.93	-0.07
1045.352	2.98
1045.775	-0.27
1046.198	2.48
1046.621	3.63
1047.043	-0.22
1047.466	4.78
1047.889	-0.02
1048.311	6.03
1048.734	-0.07
1049.156	-0.02
1049.579	1.98
1050.001	1.28
1050.424	0.98
1050.846	0.73
1051.269	-2.92
1051.691	-1.37
1052.113	2.33
1052.536	-2.72
1052.958	-3.32
1053.38	0.98
1053.802	4.33
1054.225	-1.02
1054.647	4.38
1055.069	2.38
1055.491	3.63
1055.913	0.83
1056.335	-8.92
1056.757	-5.67
1057.179	0.18
1057.601	0.58
1058.023	4.43
1058.445	-3.12
1058.867	2.88
1059.289	-2.42
1059.711	1.18
1060.133	1.13
1060.555	1.23
1060.976	1.73
1061.398	-0.82
1061.82	0.23
1062.241	-3.52
1062.663	-4.07
1063.085	1.23
1063.506	-3.22
1063.928	-2.47
1064.35	-1.87
1064.771	1.33
1065.193	-4.37
1065.614	-1.32
1066.035	0.83
1066.457	7.48
1066.878	2.53
1067.3	-2.82
1067.721	0.98
1068.142	3.18
1068.564	0.98
1068.985	-2.87
1069.406	-5.37
1069.827	1.53
1070.248	-3.47
1070.67	-3.07
1071.091	-3.12
1071.512	-2.37
1071.933	-2.17
1072.354	-11.07
1072.775	-1.92
1073.196	0.78
1073.617	0.48
1074.038	-2.17
1074.459	-5.57
1074.88	3.48
1075.3	2.53
1075.721	-2.22
1076.142	-1.87
1076.563	-2.82
1076.983	0.93
1077.404	-3.52
1077.825	-0.42
1078.246	-0.87
1078.666	-1.27
1079.087	-1.92
1079.507	-4.42
1079.928	0.48
1080.348	-1.77
1080.769	2.23
1081.189	-0.52
1081.61	-7.47
1082.03	-0.17
1082.451	1.23
1082.871	-3.87
1083.291	-3.02
1083.711	0.23
1084.132	1.68
1084.552	-3.27
1084.972	-8.22
1085.392	-3.17
1085.813	-1.42
1086.233	-2.82
1086.653	2.13
1087.073	-3.62
1087.493	-2.82
1087.913	-4.82
1088.333	-0.92
1088.753	-3.92
1089.173	5.28
1089.593	-0.22
1090.013	-1.77
1090.433	-1.57
1090.852	0.63
1091.272	-3.67
1091.692	4.93
1092.112	-0.57
1092.531	-3.47
1092.951	-0.42
1093.371	-2.12
1093.79	1.03
1094.21	-0.72
1094.63	-2.22
1095.049	-2.87
1095.469	-6.92
1095.888	-0.87
1096.308	0.73
1096.727	1.48
1097.146	-0.87
1097.566	-2.27
1097.985	-3.82
1098.405	3.13
1098.824	2.23
1099.243	-3.12
1099.662	-1.52
1100.082	-3.62
1100.501	-0.57
1100.92	6.63
1101.339	2.98
1101.758	-0.17
