Data from MSPlasma+Separation6_Subt14_10-13-47-563.txt Node
Date: Fri Jul 21 10:13:47 EDT 2017
User: Ender
Spectrometer: HR+D1039
Trigger mode: 0
Integration Time (sec): 6.430000E-3
Scans to average: 20
Electric dark correction enabled: true
Nonlinearity correction enabled: false
Boxcar width: 0
XAxis mode: Wavelengths
Number of Pixels in Spectrum: 2048
>>>>>Begin Spectral Data<<<<<
187.836	0.26
188.309	0.26
188.782	0.26
189.255	-1.74
189.728	2.71
190.201	-2.69
190.674	3.81
191.147	2.91
191.619	1.71
192.092	2.46
192.565	-5.04
193.038	3.11
193.511	1.76
193.984	-1.89
194.456	0.61
194.929	-3.74
195.402	-2.24
195.874	-2.04
196.347	2.36
196.82	-0.49
197.292	-4.64
197.765	-4.94
198.237	-2.79
198.71	-4.34
199.182	2.11
199.655	1.61
200.127	0.41
200.6	2.41
201.072	3.56
201.544	-1.24
202.017	-2.49
202.489	2.41
202.961	-2.39
203.433	-3.44
203.906	3.01
204.378	0.86
204.85	-2.84
205.322	-4.59
205.794	1.86
206.266	0.66
206.739	1.16
207.211	2.31
207.683	-1.39
208.155	-1.14
208.627	5.46
209.099	4.61
209.57	3.61
210.042	-1.64
210.514	2.26
210.986	-8.29
211.458	-2.44
211.93	-0.89
212.402	0.11
212.873	-0.19
213.345	-1.44
213.817	1.36
214.288	-1.04
214.76	0.71
215.232	1.36
215.703	-1.59
216.175	1.36
216.646	7.16
217.118	2.81
217.589	-1.94
218.061	0.91
218.532	-3.04
219.004	2.41
219.475	0.81
219.946	1.21
220.418	6.76
220.889	5.21
221.36	5.36
221.832	5.61
222.303	2.46
222.774	5.41
223.245	6.31
223.717	2.26
224.188	5.36
224.659	2.56
225.13	-0.74
225.601	5.06
226.072	1.21
226.543	7.86
227.014	5.71
227.485	7.36
227.956	7.06
228.427	13.56
228.898	5.91
229.369	9.51
229.839	9.26
230.31	9.36
230.781	8.86
231.252	11.91
231.722	11.51
232.193	6.01
232.664	7.86
233.135	8.66
233.605	10.26
234.076	10.16
234.546	11.66
235.017	10.06
235.487	7.26
235.958	10.46
236.428	15.01
236.899	9.91
237.369	19.56
237.84	16.61
238.31	13.71
238.78	9.86
239.251	13.76
239.721	12.26
240.191	14.71
240.662	16.06
241.132	12.31
241.602	16.96
242.072	15.16
242.542	15.06
243.013	12.91
243.483	18.31
243.953	13.86
244.423	21.91
244.893	14.36
245.363	21.96
245.833	17.96
246.303	22.51
246.773	22.21
247.243	22.26
247.712	26.46
248.182	27.11
248.652	25.96
249.122	22.66
249.592	26.61
250.061	29.26
250.531	24.06
251.001	26.46
251.471	28.11
251.94	27.11
252.41	29.21
252.879	28.81
253.349	31.31
253.818	28.96
254.288	35.71
254.757	34.91
255.227	33.01
255.696	28.86
256.166	39.11
256.635	34.16
257.105	33.51
257.574	36.51
258.043	36.91
258.513	36.31
258.982	37.21
259.451	36.61
259.92	32.81
260.389	41.56
260.859	39.56
261.328	37.66
261.797	32.86
262.266	41.21
262.735	43.36
263.204	38.26
263.673	41.91
264.142	41.66
264.611	43.51
265.08	41.06
265.549	39.51
266.018	47.36
266.487	48.41
266.955	42.46
267.424	54.71
267.893	51.16
268.362	47.96
268.83	49.81
269.299	46.96
269.768	50.66
270.236	54.41
270.705	54.36
271.174	51.11
271.642	52.21
272.111	52.96
272.579	61.96
273.048	53.41
273.516	58.81
273.985	58.31
274.453	57.51
274.922	52.61
275.39	55.26
275.858	58.21
276.327	61.41
276.795	66.51
277.263	61.61
277.731	65.41
278.2	65.61
278.668	61.56
279.136	70.26
279.604	65.51
280.072	62.51
280.54	64.56
281.008	72.21
281.477	69.21
281.945	63.56
282.413	64.66
282.881	68.31
283.348	70.16
283.816	72.96
284.284	75.61
284.752	72.61
285.22	76.41
285.688	77.76
286.156	75.86
286.623	79.16
287.091	73.86
287.559	79.91
288.026	82.66
288.494	83.61
288.962	83.16
289.429	84.61
289.897	80.11
290.364	76.41
290.832	84.26
291.3	79.91
291.767	85.91
292.234	90.36
292.702	82.31
293.169	88.06
293.637	93.36
294.104	92.41
294.571	88.61
295.039	93.41
295.506	92.71
295.973	94.71
296.44	90.21
296.908	95.26
297.375	96.76
297.842	101.36
298.309	93.51
298.776	95.26
299.243	101.16
299.71	103.26
300.177	103.31
300.644	102.36
301.111	99.91
301.578	107.46
302.045	103.56
302.512	108.31
302.979	109.11
303.446	112.36
303.913	110.66
304.379	114.76
304.846	114.71
305.313	121.26
305.78	122.21
306.246	126.71
306.713	125.21
307.18	117.26
307.646	127.66
308.113	122.96
308.579	131.26
309.046	132.41
309.512	131.46
309.979	144.91
310.445	132.31
310.912	137.01
311.378	141.71
311.845	143.91
312.311	139.46
312.777	141.31
313.244	144.81
313.71	144.56
314.176	155.61
314.642	147.16
315.109	148.71
315.575	145.81
316.041	151.86
316.507	149.56
316.973	162.21
317.439	156.41
317.905	160.46
318.371	154.61
318.837	159.01
319.303	164.16
319.769	158.41
320.235	166.01
320.701	167.96
321.167	161.76
321.633	170.96
322.099	167.71
322.564	170.91
323.03	168.81
323.496	169.51
323.962	168.66
324.427	180.56
324.893	175.81
325.359	179.71
325.824	178.91
326.29	182.91
326.755	180.16
327.221	183.01
327.686	195.81
328.152	194.36
328.617	198.26
329.083	198.81
329.548	196.06
330.014	206.11
330.479	202.81
330.944	204.01
331.41	208.76
331.875	201.76
332.34	200.51
332.805	209.01
333.271	209.76
333.736	206.36
334.201	211.16
334.666	227.96
335.131	235.71
335.596	225.76
336.061	212.81
336.526	221.56
336.991	212.96
337.456	209.21
337.921	208.96
338.386	210.71
338.851	212.76
339.316	210.56
339.781	214.96
340.246	222.56
340.711	222.01
341.175	226.76
341.64	232.26
342.105	235.56
342.569	251.86
343.034	238.61
343.499	240.51
343.963	252.01
344.428	247.31
344.893	248.31
345.357	261.31
345.822	252.66
346.286	263.21
346.751	264.51
347.215	268.86
347.679	276.01
348.144	294.66
348.608	292.51
349.073	296.86
349.537	304.81
350.001	304.66
350.465	296.41
350.93	301.16
351.394	304.71
351.858	308.51
352.322	315.76
352.786	319.11
353.25	315.06
353.715	320.86
354.179	331.11
354.643	341.06
355.107	343.26
355.571	335.06
356.035	332.41
356.498	337.16
356.962	341.21
357.426	331.86
357.89	332.71
358.354	326.01
358.818	328.86
359.281	330.06
359.745	334.51
360.209	329.76
360.673	326.31
361.136	338.06
361.6	337.26
362.064	337.51
362.527	352.76
362.991	350.36
363.454	345.71
363.918	354.11
364.381	358.91
364.845	358.86
365.308	357.76
365.772	357.31
366.235	371.61
366.698	361.56
367.162	359.56
367.625	366.96
368.088	374.31
368.552	368.06
369.015	367.46
369.478	375.16
369.941	376.56
370.404	383.01
370.867	371.66
371.331	380.31
371.794	392.51
372.257	392.31
372.72	387.71
373.183	398.91
373.646	400.86
374.109	395.81
374.572	402.06
375.035	403.11
375.497	408.11
375.96	414.56
376.423	421.46
376.886	421.41
377.349	429.81
377.811	425.71
378.274	434.16
378.737	425.36
379.199	432.51
379.662	438.86
380.125	441.96
380.587	450.71
381.05	449.71
381.512	460.96
381.975	469.46
382.437	475.76
382.9	470.51
383.362	479.31
383.825	484.36
384.287	483.01
384.75	485.06
385.212	487.16
385.674	494.86
386.136	494.86
386.599	489.16
387.061	488.51
387.523	496.51
387.985	498.76
388.447	504.86
388.91	501.81
389.372	506.91
389.834	502.66
390.296	495.51
390.758	506.71
391.22	503.96
391.682	504.41
392.144	507.41
392.606	515.71
393.068	528.46
393.529	553.86
393.991	560.81
394.453	534.46
394.915	521.41
395.377	510.21
395.838	512.81
396.3	517.46
396.762	527.51
397.224	522.36
397.685	531.36
398.147	527.51
398.608	535.31
399.07	542.76
399.531	545.46
399.993	557.31
400.454	569.01
400.916	570.26
401.377	579.46
401.839	581.91
402.3	579.71
402.762	601.66
403.223	648.46
403.684	646.81
404.145	618.51
404.607	600.56
405.068	602.31
405.529	609.61
405.99	623.36
406.451	630.56
406.913	611.86
407.374	622.56
407.835	625.61
408.296	642.06
408.757	638.81
409.218	650.86
409.679	656.31
410.14	671.41
410.601	682.76
411.062	676.81
411.522	684.41
411.983	685.71
412.444	689.21
412.905	705.11
413.366	728.46
413.826	765.46
414.287	860.46
414.748	1016.16
415.208	1042.31
415.669	875.86
416.13	792.06
416.59	774.21
417.051	806.96
417.511	842.96
417.972	903.31
418.432	968.46
418.893	1066.46
419.353	1025.76
419.814	802.96
420.274	713.36
420.734	702.31
421.195	729.31
421.655	719.11
422.115	737.76
422.576	732.36
423.036	740.61
423.496	767.36
423.956	797.06
424.416	849.61
424.876	943.51
425.336	951.96
425.797	936.46
426.257	914.66
426.717	865.26
427.177	802.11
427.637	815.56
428.097	844.76
428.556	876.16
429.016	934.51
429.476	939.16
429.936	919.81
430.396	917.01
430.856	945.51
431.315	965.01
431.775	1015.46
432.235	1108.71
432.694	1120.56
433.154	1051.56
433.614	1028.06
434.073	993.51
434.533	905.11
434.993	865.21
435.452	877.61
435.912	854.96
436.371	865.76
436.83	849.41
437.29	832.81
437.749	811.41
438.209	804.51
438.668	818.91
439.127	841.01
439.587	820.21
440.046	791.61
440.505	815.26
440.964	820.71
441.424	851.41
441.883	863.86
442.342	819.16
442.801	783.81
443.26	795.06
443.719	782.46
444.178	780.01
444.637	794.86
445.096	798.76
445.555	812.01
446.014	802.36
446.473	797.21
446.932	804.21
447.391	822.56
447.849	820.66
448.308	805.16
448.767	813.61
449.226	830.61
449.685	842.01
450.143	880.46
450.602	871.66
451.061	824.06
451.519	831.26
451.978	821.91
452.436	817.16
452.895	828.01
453.353	825.86
453.812	815.51
454.27	818.56
454.729	816.41
455.187	827.01
455.646	824.56
456.104	828.76
456.562	845.26
457.021	854.61
457.479	819.71
457.937	853.26
458.395	874.31
458.854	853.56
459.312	848.81
459.77	860.76
460.228	858.91
460.686	879.41
461.144	881.86
461.602	871.06
462.06	873.36
462.518	889.31
462.976	894.71
463.434	906.86
463.892	907.81
464.35	930.51
464.808	943.26
465.266	948.31
465.724	962.01
466.181	966.51
466.639	957.01
467.097	1002.71
467.555	1036.66
468.012	1030.56
468.47	1032.76
468.928	1073.86
469.385	1097.21
469.843	1113.56
470.3	1101.36
470.758	1141.96
471.215	1154.41
471.673	1178.21
472.13	1209.31
472.588	1235.61
473.045	1231.61
473.503	1247.36
473.96	1305.16
474.417	1319.86
474.875	1372.96
475.332	1426.66
475.789	1451.46
476.246	1478.36
476.704	1538.46
477.161	1586.41
477.618	1629.51
478.075	1712.56
478.532	1838.41
478.989	1960.26
479.446	2145.11
479.903	2264.91
480.36	2446.41
480.817	2569.31
481.274	2725.06
481.731	2969.96
482.188	3170.21
482.645	3410.36
483.102	3600.56
483.558	3811.91
484.015	3970.86
484.472	3933.66
484.929	3800.76
485.385	3673.91
485.842	3590.71
486.299	3493.71
486.755	3217.11
487.212	2908.21
487.668	2654.71
488.125	2472.61
488.582	2305.71
489.038	2225.76
489.494	2175.46
489.951	2108.51
490.407	2055.86
490.864	2028.01
491.32	1984.21
491.776	1979.76
492.233	1967.61
492.689	1949.66
493.145	1900.31
493.602	1899.26
494.058	1908.51
494.514	1908.36
494.97	1915.96
495.426	1948.71
495.882	1942.91
496.338	1935.71
496.794	1951.51
497.251	1941.66
497.707	1962.21
498.163	1969.96
498.618	1987.56
499.074	1963.91
499.53	1982.26
499.986	1999.36
500.442	1992.61
500.898	1954.96
501.354	1980.11
501.809	1984.46
502.265	1975.86
502.721	1988.76
503.177	1994.61
503.632	1993.91
504.088	2017.56
504.543	2031.31
504.999	2056.56
505.455	2040.71
505.91	2035.26
506.366	2032.06
506.821	2036.31
507.277	2025.41
507.732	2035.91
508.187	2027.06
508.643	2053.71
509.098	2051.66
509.553	2081.36
510.009	2101.41
510.464	2139.71
510.919	2152.61
511.375	2179.76
511.83	2193.76
512.285	2235.16
512.74	2282.36
513.195	2318.71
513.65	2347.21
514.105	2369.96
514.56	2383.61
515.015	2414.81
515.47	2432.46
515.925	2407.16
516.38	2415.26
516.835	2416.01
517.29	2399.11
517.745	2404.51
518.2	2360.11
518.655	2300.61
519.109	2289.96
519.564	2263.16
520.019	2242.76
520.474	2223.71
520.928	2222.86
521.383	2188.66
521.838	2185.31
522.292	2175.81
522.747	2157.36
523.201	2153.11
523.656	2121.11
524.11	2118.16
524.565	2114.51
525.019	2115.41
525.474	2119.96
525.928	2100.76
526.382	2109.16
526.837	2107.01
527.291	2113.56
527.745	2101.41
528.2	2105.11
528.654	2072.71
529.108	2089.31
529.562	2075.61
530.016	2079.11
530.47	2090.06
530.925	2080.71
531.379	2081.46
531.833	2109.61
532.287	2105.96
532.741	2086.86
533.195	2090.16
533.649	2092.31
534.103	2092.76
534.556	2078.31
535.01	2092.61
535.464	2082.06
535.918	2079.51
536.372	2107.36
536.826	2087.76
537.279	2072.31
537.733	2078.71
538.187	2087.31
538.64	2080.71
539.094	2100.76
539.548	2124.11
540.001	2120.26
540.455	2132.01
540.908	2142.46
541.362	2169.41
541.815	2173.96
542.269	2221.96
542.722	2210.86
543.175	2241.46
543.629	2250.36
544.082	2268.26
544.536	2275.56
544.989	2288.66
545.442	2304.76
545.895	2306.56
546.349	2305.81
546.802	2305.31
547.255	2308.81
547.708	2330.51
548.161	2336.11
548.614	2347.16
549.067	2354.91
549.52	2341.06
549.973	2312.76
550.426	2315.46
550.879	2310.46
551.332	2309.01
551.785	2322.71
552.238	2343.76
552.691	2350.21
553.144	2375.46
553.596	2415.31
554.049	2446.76
554.502	2485.16
554.955	2547.21
555.407	2562.46
555.86	2536.16
556.313	2510.36
556.765	2494.01
557.218	2463.91
557.67	2461.31
558.123	2410.96
558.576	2401.36
559.028	2401.31
559.48	2429.46
559.933	2412.36
560.385	2342.86
560.838	2272.26
561.29	2202.66
561.742	2196.76
562.195	2140.01
562.647	2130.51
563.099	2115.36
563.551	2101.16
564.004	2119.86
564.456	2109.41
564.908	2067.76
565.36	2020.91
565.812	1967.06
566.264	1964.31
566.716	1937.11
567.168	1910.81
567.62	1907.81
568.072	1893.81
568.524	1887.06
568.976	1879.16
569.428	1850.16
569.88	1850.66
570.332	1862.16
570.784	1869.46
571.235	1870.41
571.687	1886.51
572.139	1886.21
572.59	1903.31
573.042	1914.71
573.494	1910.51
573.945	1875.01
574.397	1838.41
574.849	1839.61
575.3	1838.91
575.752	1816.36
576.203	1802.41
576.655	1798.71
577.106	1779.46
577.557	1764.31
578.009	1762.66
578.46	1771.01
578.912	1753.61
579.363	1763.86
579.814	1754.41
580.265	1763.56
580.717	1763.81
581.168	1761.26
581.619	1758.96
582.07	1790.91
582.521	1774.51
582.972	1767.56
583.423	1772.16
583.875	1788.11
584.326	1787.06
584.777	1828.41
585.227	1850.61
585.678	1872.06
586.129	1893.31
586.58	1913.16
587.031	1939.16
587.482	1992.56
587.933	2014.31
588.384	2006.56
588.834	1990.86
589.285	1976.96
589.736	1977.01
590.186	1974.36
590.637	1971.06
591.088	1912.36
591.538	1879.76
591.989	1856.31
592.439	1834.51
592.89	1823.91
593.34	1810.01
593.791	1799.71
594.241	1781.16
594.692	1780.01
595.142	1784.46
595.593	1776.46
596.043	1797.46
596.493	1810.31
596.943	1798.01
597.394	1855.86
597.844	1874.41
598.294	1910.16
598.744	1972.31
599.195	2072.06
599.645	2180.06
600.095	2287.16
600.545	2400.76
600.995	2492.01
601.445	2590.96
601.895	2705.86
602.345	2772.21
602.795	2753.46
603.245	2650.86
603.695	2501.01
604.145	2378.71
604.594	2257.61
605.044	2135.01
605.494	2002.21
605.944	1905.61
606.393	1861.11
606.843	1826.86
607.293	1813.71
607.743	1805.26
608.192	1821.11
608.642	1825.86
609.091	1816.61
609.541	1810.81
609.99	1820.56
610.44	1780.16
610.889	1762.61
611.339	1730.71
611.788	1714.96
612.238	1711.66
612.687	1737.06
613.136	1741.06
613.586	1750.11
614.035	1747.11
614.484	1767.11
614.933	1768.36
615.383	1726.76
615.832	1691.56
616.281	1668.06
616.73	1635.26
617.179	1596.71
617.628	1561.41
618.077	1526.56
618.526	1516.06
618.975	1511.81
619.424	1466.01
619.873	1480.01
620.322	1467.51
620.771	1456.91
621.22	1437.11
621.669	1416.76
622.118	1396.46
622.567	1386.96
623.015	1361.11
623.464	1361.11
623.913	1344.41
624.361	1353.66
624.81	1336.96
625.259	1351.81
625.707	1335.46
626.156	1342.76
626.604	1372.31
627.053	1379.11
627.501	1359.21
627.95	1370.36
628.398	1391.21
628.847	1377.61
629.295	1359.81
629.744	1350.56
630.192	1336.11
630.64	1323.66
631.089	1293.21
631.537	1264.21
631.985	1251.66
632.433	1244.91
632.881	1234.31
633.33	1250.46
633.778	1247.31
634.226	1252.86
634.674	1269.41
635.122	1267.76
635.57	1293.21
636.018	1321.61
636.466	1306.71
636.914	1308.51
637.362	1331.26
637.81	1356.96
638.258	1394.61
638.705	1406.71
639.153	1458.11
639.601	1467.91
640.049	1490.91
640.497	1538.66
640.944	1564.26
641.392	1512.61
641.84	1437.46
642.287	1365.66
642.735	1340.31
643.182	1322.36
643.63	1322.61
644.078	1329.71
644.525	1348.56
644.973	1384.36
645.42	1410.66
645.867	1438.71
646.315	1466.41
646.762	1523.16
647.21	1557.61
647.657	1632.21
648.104	1699.16
648.551	1724.46
648.999	1849.36
649.446	2025.21
649.893	2239.26
650.34	2593.36
650.787	3165.91
651.234	4048.86
651.682	5554.71
652.129	7736.96
652.576	10966.66
653.023	14367.96
653.47	15533.06
653.917	15533.11
654.363	15533.01
654.81	15530.01
655.257	15530.66
655.704	14120.86
656.151	8593.71
656.598	5667.71
657.044	4093.81
657.491	3231.16
657.938	2655.11
658.385	2253.66
658.831	2004.51
659.278	1805.91
659.724	1658.01
660.171	1552.96
660.618	1445.46
661.064	1376.46
661.511	1330.91
661.957	1299.91
662.404	1274.61
662.85	1260.01
663.296	1245.76
663.743	1217.96
664.189	1199.61
664.635	1191.76
665.082	1167.16
665.528	1156.21
665.974	1117.61
666.42	1105.51
666.867	1090.71
667.313	1043.21
667.759	1036.06
668.205	1021.61
668.651	1027.96
669.097	1026.61
669.543	1027.86
669.989	1045.36
670.435	1038.01
670.881	1050.51
671.327	1103.06
671.773	1171.81
672.219	1258.71
672.665	1341.51
673.11	1376.06
673.556	1399.46
674.002	1425.36
674.448	1440.26
674.893	1231.16
675.339	1083.16
675.785	994.76
676.23	944.76
676.676	912.76
677.122	885.36
677.567	864.01
678.013	829.36
678.458	835.26
678.904	823.56
679.349	814.46
679.794	811.71
680.24	812.46
680.685	797.76
681.131	798.91
681.576	810.91
682.021	805.26
682.466	825.51
682.912	821.41
683.357	872.06
683.802	939.86
684.247	1017.76
684.692	1090.46
685.137	1134.01
685.583	1160.86
686.028	1211.36
686.473	1156.91
686.918	1003.56
687.363	921.81
687.807	875.21
688.252	833.91
688.697	805.31
689.142	783.31
689.587	788.86
690.032	803.41
690.477	833.71
690.921	866.01
691.366	916.21
691.811	953.81
692.255	1024.06
692.7	1243.36
693.145	1786.56
693.589	2715.41
694.034	3255.91
694.478	3473.26
694.923	3187.56
695.367	4491.91
695.812	2756.51
696.256	1177.71
696.701	851.46
697.145	794.76
697.59	757.96
698.034	741.51
698.478	747.81
698.922	757.31
699.367	762.86
699.811	800.86
700.255	871.41
700.699	948.31
701.143	1028.86
701.588	1094.16
702.032	1142.66
702.476	1178.86
702.92	1254.36
703.364	1631.46
703.808	2488.41
704.252	3115.06
704.696	3283.26
705.14	3111.56
705.584	4259.51
706.027	2375.86
706.471	1204.91
706.915	903.96
707.359	797.81
707.803	745.26
708.246	716.86
708.69	710.01
709.134	708.11
709.577	699.66
710.021	711.21
710.465	701.51
710.908	704.96
711.352	732.11
711.795	804.61
712.239	868.91
712.682	884.51
713.126	867.26
713.569	973.51
714.012	805.41
714.456	704.21
714.899	661.46
715.342	628.66
715.786	602.76
716.229	589.46
716.672	584.36
717.115	574.71
717.558	582.56
718.002	599.91
718.445	620.16
718.888	658.96
719.331	667.01
719.774	685.96
720.217	671.96
720.66	635.61
721.103	602.11
721.546	566.81
721.989	558.61
722.432	542.71
722.874	545.96
723.317	552.86
723.76	600.46
724.203	729.41
724.645	977.76
725.088	1146.76
725.531	1137.31
725.974	1237.51
726.416	1112.36
726.859	684.06
727.301	566.21
727.744	544.36
728.187	547.76
728.629	554.21
729.071	582.61
729.514	608.76
729.956	629.56
730.399	640.91
730.841	649.61
731.283	631.16
731.726	613.91
732.168	623.91
732.61	658.66
733.053	702.71
733.495	776.06
733.937	866.96
734.379	1020.71
734.821	1295.41
735.263	2043.51
735.705	3696.61
736.148	5416.56
736.59	5475.21
737.032	5910.66
737.474	4889.61
737.916	1885.26
738.357	987.76
738.799	765.11
739.241	704.36
739.683	717.11
740.125	733.96
740.567	739.01
741.008	790.36
741.45	834.36
741.892	879.06
742.334	880.36
742.775	872.91
743.217	838.11
743.658	711.76
744.1	732.21
744.542	852.61
744.983	883.51
745.425	924.36
745.866	896.66
746.307	729.76
746.749	774.51
747.19	1118.71
747.632	2152.21
748.073	4006.76
748.514	5571.46
748.956	7375.76
749.397	8645.61
749.838	6008.71
750.279	5705.51
750.72	2971.21
751.162	1266.31
751.603	729.86
752.044	587.96
752.485	520.11
752.926	490.56
753.367	462.96
753.808	451.56
754.249	445.61
754.69	436.11
755.131	431.26
755.572	431.31
756.013	428.66
756.453	429.16
756.894	442.51
757.335	438.46
757.776	445.81
758.216	467.31
758.657	495.51
759.098	546.46
759.538	660.46
759.979	939.81
760.42	1894.86
760.86	4828.21
761.301	9996.91
761.741	11888.16
762.182	13591.16
762.622	8874.96
763.063	3152.11
763.503	1303.71
763.943	758.21
764.384	600.36
764.824	522.16
765.264	481.76
765.705	450.41
766.145	428.01
766.585	411.91
767.025	403.01
767.465	402.11
767.906	410.56
768.346	442.76
768.786	506.31
769.226	739.91
769.666	1486.36
770.106	3324.96
770.546	4767.06
770.986	5398.56
771.426	4111.86
771.866	1714.81
772.306	773.46
772.745	481.86
773.185	403.76
773.625	396.91
774.065	430.16
774.505	616.61
774.944	1116.86
775.384	1618.86
775.824	1817.01
776.263	1508.76
776.703	795.31
777.142	453.86
777.582	333.61
778.021	310.01
778.461	292.91
778.9	287.21
779.34	281.11
779.779	271.16
780.219	265.81
780.658	261.66
781.097	261.01
781.537	252.06
781.976	252.71
782.415	246.76
782.855	250.51
783.294	244.01
783.733	241.36
784.172	254.01
784.611	252.71
785.05	259.01
785.489	260.91
785.928	264.26
786.367	282.16
786.806	297.66
787.245	315.66
787.684	321.41
788.123	320.41
788.562	313.86
789.001	302.46
789.44	292.56
789.879	289.26
790.317	293.31
790.756	310.86
791.195	354.61
791.634	477.91
792.072	861.31
792.511	2100.61
792.95	3904.66
793.388	4735.61
793.827	3081.91
794.265	1413.56
794.704	680.46
795.142	420.51
795.581	345.11
796.019	309.71
796.458	311.41
796.896	319.01
797.334	362.01
797.773	494.06
798.211	930.81
798.649	1942.56
799.087	3274.41
799.526	4647.01
799.964	4803.41
800.402	3321.91
800.84	1499.56
801.278	738.31
801.716	447.16
802.154	365.56
802.592	344.01
803.03	344.21
803.468	350.46
803.906	347.86
804.344	349.61
804.782	331.81
805.22	333.96
805.658	353.41
806.096	377.86
806.533	415.66
806.971	540.11
807.409	771.86
807.847	1531.96
808.284	3888.81
808.722	6878.01
809.16	9633.46
809.597	13018.11
810.035	15517.66
810.472	10664.96
810.91	4511.56
811.347	2012.56
811.785	952.71
812.222	602.56
812.66	461.41
813.097	395.46
813.535	347.01
813.972	305.86
814.409	285.46
814.846	271.26
815.284	258.46
815.721	261.31
816.158	294.06
816.595	401.41
817.032	521.51
817.47	474.36
817.907	335.36
818.344	295.86
818.781	292.56
819.218	357.56
819.655	552.01
820.092	724.71
820.529	650.96
820.966	503.46
821.403	351.86
821.839	296.71
822.276	324.81
822.713	393.01
823.15	357.76
823.587	373.96
824.023	650.21
824.46	1594.91
824.897	2799.56
825.333	2224.31
825.77	1018.21
826.206	531.41
826.643	310.86
827.08	228.86
827.516	206.26
827.953	193.36
828.389	184.01
828.825	172.26
829.262	167.21
829.698	157.26
830.135	152.96
830.571	155.86
831.007	157.96
831.443	150.91
831.88	156.46
832.316	162.76
832.752	159.41
833.188	159.06
833.624	163.26
834.06	168.91
834.497	167.36
834.933	169.51
835.369	183.16
835.805	195.71
836.241	197.86
836.677	219.11
837.112	257.41
837.548	317.26
837.984	478.76
838.42	1005.36
838.856	2799.26
839.292	5564.46
839.727	4183.96
840.163	2774.41
840.599	4214.91
841.034	6461.81
841.47	3284.91
841.906	1574.96
842.341	844.51
842.777	639.26
843.212	668.41
843.648	407.71
844.083	280.06
844.519	210.06
844.954	173.61
845.39	156.86
845.825	144.61
846.261	141.71
846.696	138.56
847.131	132.81
847.566	134.01
848.002	132.71
848.437	145.86
848.872	154.06
849.307	194.71
849.742	354.36
850.177	910.61
850.613	1948.66
851.048	1424.51
851.483	649.41
851.918	365.61
852.353	200.21
852.788	145.16
853.223	125.71
853.657	116.11
854.092	109.81
854.527	111.96
854.962	122.01
855.397	135.41
855.832	116.31
856.266	105.86
856.701	100.36
857.136	106.91
857.57	132.96
858.005	161.46
858.44	134.96
858.874	125.31
859.309	127.41
859.743	126.31
860.178	125.56
860.612	133.61
861.047	187.11
861.481	266.41
861.915	180.36
862.35	132.46
862.784	108.31
863.218	96.86
863.653	106.21
864.087	131.76
864.521	161.56
864.955	266.86
865.39	465.01
865.824	368.76
866.258	478.41
866.692	739.81
867.126	531.31
867.56	284.81
867.994	177.56
868.428	153.61
868.862	190.41
869.296	176.41
869.73	212.61
870.164	182.86
870.598	164.16
871.031	118.06
871.465	102.11
871.899	84.71
872.333	72.86
872.766	72.71
873.2	75.11
873.634	71.16
874.067	77.66
874.501	76.41
874.935	75.31
875.368	72.76
875.802	75.71
876.235	68.06
876.669	60.51
877.102	58.56
877.535	66.21
877.969	60.81
878.402	57.81
878.836	58.26
879.269	60.76
879.702	50.16
880.135	59.61
880.569	63.06
881.002	53.61
881.435	59.26
881.868	58.41
882.301	52.51
882.734	52.76
883.167	53.76
883.601	53.36
884.034	51.26
884.467	47.61
884.899	48.01
885.332	48.06
885.765	44.66
886.198	47.06
886.631	44.01
887.064	47.11
887.497	46.16
887.929	49.46
888.362	44.31
888.795	45.61
889.228	53.01
889.66	47.46
890.093	41.41
890.526	41.01
890.958	44.51
891.391	45.76
891.823	44.61
892.256	47.51
892.688	45.66
893.121	40.46
893.553	44.26
893.985	40.71
894.418	39.06
894.85	47.16
895.282	44.66
895.715	41.71
896.147	38.91
896.579	36.96
897.011	44.66
897.444	42.16
897.876	36.71
898.308	37.56
898.74	46.56
899.172	44.36
899.604	48.66
900.036	45.16
900.468	37.56
900.9	48.96
901.332	57.96
901.764	60.21
902.196	54.96
902.628	62.06
903.06	83.76
903.491	94.26
903.923	81.06
904.355	75.21
904.787	79.91
905.218	64.01
905.65	61.46
906.082	53.21
906.513	54.66
906.945	46.36
907.376	50.16
907.808	48.41
908.239	53.56
908.671	62.51
909.102	67.06
909.534	97.06
909.965	180.76
910.397	454.51
910.828	1304.06
911.259	810.31
911.691	435.46
912.122	249.36
912.553	127.46
912.984	74.21
913.415	64.96
913.847	52.26
914.278	51.81
914.709	46.51
915.14	40.51
915.571	48.51
916.002	40.86
916.433	38.16
916.864	40.06
917.295	45.96
917.726	52.66
918.157	65.81
918.587	62.81
919.018	59.86
919.449	58.86
919.88	65.56
920.311	99.01
920.741	274.16
921.172	485.06
921.603	245.51
922.033	156.36
922.464	101.06
922.895	67.76
923.325	45.21
923.756	41.76
924.186	55.06
924.617	76.26
925.047	114.96
925.478	105.06
925.908	73.91
926.338	53.11
926.769	41.81
927.199	45.91
927.629	39.81
928.06	42.16
928.49	40.11
928.92	31.91
929.35	33.76
929.78	22.91
930.21	22.86
930.641	18.16
931.071	23.86
931.501	20.86
931.931	19.36
932.361	18.61
932.791	26.26
933.221	25.81
933.651	37.51
934.08	66.01
934.51	39.66
934.94	32.41
935.37	23.81
935.8	22.66
936.229	20.31
936.659	21.76
937.089	40.86
937.519	61.76
937.948	84.76
938.378	46.86
938.807	28.76
939.237	20.21
939.666	20.01
940.096	10.26
940.525	6.91
940.955	15.51
941.384	10.86
941.814	14.61
942.243	10.46
942.672	8.86
943.102	7.56
943.531	10.16
943.96	7.16
944.39	16.26
944.819	13.36
945.248	8.61
945.677	8.96
946.106	9.56
946.535	5.06
946.964	10.26
947.393	9.26
947.822	7.76
948.251	12.31
948.68	9.61
949.109	12.36
949.538	7.01
949.967	12.51
950.396	9.36
950.825	7.61
951.254	5.41
951.682	4.86
952.111	3.96
952.54	3.81
952.969	3.96
953.397	5.71
953.826	7.96
954.254	11.76
954.683	12.96
955.112	8.01
955.54	8.71
955.969	7.71
956.397	9.76
956.826	6.71
957.254	8.91
957.682	5.96
958.111	7.06
958.539	10.31
958.967	8.96
959.396	9.21
959.824	5.46
960.252	7.86
960.68	8.16
961.109	12.26
961.537	11.61
961.965	6.31
962.393	6.16
962.821	6.81
963.249	8.76
963.677	16.26
964.105	82.36
964.533	141.81
964.961	67.51
965.389	42.26
965.817	26.06
966.245	15.11
966.672	8.41
967.1	12.86
967.528	5.31
967.956	5.96
968.383	6.56
968.811	4.36
969.239	5.71
969.666	6.31
970.094	4.81
970.522	1.51
970.949	4.46
971.377	-2.89
971.804	2.26
972.232	1.81
972.659	2.71
973.087	8.16
973.514	3.66
973.941	0.06
974.369	3.11
974.796	7.01
975.223	3.81
975.651	5.96
976.078	4.71
976.505	12.86
976.932	32.26
977.359	43.86
977.786	28.26
978.214	19.41
978.641	3.71
979.068	7.41
979.495	4.81
979.922	6.01
980.349	8.41
980.776	6.01
981.202	7.66
981.629	6.11
982.056	7.36
982.483	1.06
982.91	8.76
983.337	-0.89
983.763	3.66
984.19	6.06
984.617	2.91
985.043	6.01
985.47	8.46
985.897	6.31
986.323	7.76
986.75	5.31
987.176	5.51
987.603	7.96
988.029	5.96
988.456	4.06
988.882	7.16
989.308	1.66
989.735	1.76
990.161	3.91
990.587	4.01
991.014	3.26
991.44	3.31
991.866	1.61
992.292	3.16
992.719	2.36
993.145	7.46
993.571	2.06
993.997	4.46
994.423	6.76
994.849	-0.09
995.275	4.01
995.701	5.06
996.127	-1.84
996.553	1.96
996.979	-2.24
997.405	6.06
997.83	1.91
998.256	1.71
998.682	4.41
999.108	1.11
999.534	-0.94
999.959	3.21
1000.385	3.66
1000.811	-1.44
1001.236	-0.59
1001.662	-2.79
1002.087	6.86
1002.513	3.91
1002.938	0.66
1003.364	5.86
1003.789	4.16
1004.215	5.71
1004.64	4.76
1005.066	1.46
1005.491	5.66
1005.916	6.56
1006.342	3.51
1006.767	4.26
1007.192	4.81
1007.617	4.41
1008.042	0.76
1008.468	4.71
1008.893	5.56
1009.318	8.41
1009.743	18.41
1010.168	28.81
1010.593	24.86
1011.018	14.26
1011.443	9.11
1011.868	10.26
1012.293	7.76
1012.718	2.11
1013.143	6.26
1013.567	5.11
1013.992	9.91
1014.417	1.66
1014.842	2.31
1015.267	-0.34
1015.691	4.46
1016.116	4.01
1016.541	3.81
1016.965	3.41
1017.39	2.81
1017.814	-2.64
1018.239	-0.99
1018.663	-3.29
1019.088	-3.39
1019.512	6.46
1019.937	-3.69
1020.361	1.71
1020.785	-2.99
1021.21	-3.19
1021.634	0.96
1022.058	1.76
1022.483	-5.29
1022.907	-0.39
1023.331	-1.19
1023.755	-0.99
1024.179	-1.54
1024.604	1.86
1025.028	-4.14
1025.452	4.76
1025.876	0.61
1026.3	3.81
1026.724	-5.99
1027.148	3.51
1027.572	0.11
1027.996	1.06
1028.42	0.26
1028.843	0.91
1029.267	-2.19
1029.691	2.81
1030.115	-0.49
1030.539	-2.89
1030.962	-3.44
1031.386	-2.59
1031.81	-2.54
1032.233	-0.49
1032.657	-10.29
1033.08	-1.74
1033.504	-2.99
1033.927	-2.74
1034.351	-1.99
1034.774	-0.54
1035.198	-3.79
1035.621	-3.24
1036.045	-0.84
1036.468	1.11
1036.891	-0.09
1037.315	3.76
1037.738	1.66
1038.161	1.26
1038.584	-0.59
1039.008	-4.59
1039.431	-2.69
1039.854	-4.49
1040.277	-0.09
1040.7	-1.89
1041.123	-2.39
1041.546	1.51
1041.969	1.61
1042.392	3.11
1042.815	-3.94
1043.238	-2.99
1043.661	-2.94
1044.084	0.16
1044.507	-0.69
1044.93	3.26
1045.352	1.56
1045.775	3.86
1046.198	7.91
1046.621	6.56
1047.043	1.91
1047.466	1.91
1047.889	0.06
1048.311	5.01
1048.734	-1.44
1049.156	-2.89
1049.579	1.36
1050.001	-3.49
1050.424	2.96
1050.846	-4.49
1051.269	-6.44
1051.691	-5.49
1052.113	1.01
1052.536	-1.49
1052.958	-3.74
1053.38	0.71
1053.802	2.66
1054.225	-0.24
1054.647	2.61
1055.069	3.01
1055.491	0.66
1055.913	0.66
1056.335	-8.19
1056.757	-7.24
1057.179	-3.54
1057.601	2.91
1058.023	1.96
1058.445	-2.44
1058.867	-2.14
1059.289	3.26
1059.711	1.26
1060.133	0.96
1060.555	-3.79
1060.976	1.06
1061.398	-2.64
1061.82	-2.24
1062.241	-2.39
1062.663	-0.89
1063.085	-9.54
1063.506	-3.34
1063.928	-4.04
1064.35	1.01
1064.771	1.76
1065.193	-4.19
1065.614	-2.09
1066.035	5.41
1066.457	3.46
1066.878	-1.49
1067.3	-4.14
1067.721	0.91
1068.142	3.56
1068.564	1.96
1068.985	-2.19
1069.406	-2.89
1069.827	-4.04
1070.248	-3.14
1070.67	-4.29
1071.091	-2.54
1071.512	-5.94
1071.933	-1.04
1072.354	-4.94
1072.775	-3.14
1073.196	-3.29
1073.617	-6.09
1074.038	-3.64
1074.459	-3.99
1074.88	-0.79
1075.3	0.86
1075.721	-2.59
1076.142	-4.19
1076.563	-8.74
1076.983	-1.19
1077.404	-7.94
1077.825	2.96
1078.246	-2.94
1078.666	-5.19
1079.087	-0.14
1079.507	-2.89
1079.928	-3.14
1080.348	-0.39
1080.769	-0.34
1081.189	-4.84
1081.61	-2.64
1082.03	-2.44
1082.451	-2.74
1082.871	-4.69
1083.291	-0.89
1083.711	-5.24
1084.132	-3.29
1084.552	-4.39
1084.972	-4.89
1085.392	-6.84
1085.813	-2.19
1086.233	-3.29
1086.653	0.91
1087.073	-5.29
1087.493	-5.24
1087.913	-6.49
1088.333	0.86
1088.753	1.11
1089.173	1.56
1089.593	-1.89
1090.013	-1.49
1090.433	-5.49
1090.852	0.46
1091.272	-6.24
1091.692	0.86
1092.112	-3.89
1092.531	-7.64
1092.951	0.51
1093.371	-2.14
1093.79	-1.54
1094.21	-2.69
1094.63	-1.34
1095.049	-4.64
1095.469	-5.64
1095.888	3.16
1096.308	-0.34
1096.727	-2.89
1097.146	-1.24
1097.566	-2.79
1097.985	-3.14
1098.405	-1.54
1098.824	1.71
1099.243	-4.24
1099.662	-5.99
1100.082	-2.24
1100.501	-3.74
1100.92	3.11
1101.339	2.21
1101.758	0.86
