Data from MSPlasma+Separation6_Subt14_10-14-00-936.txt Node
Date: Fri Jul 21 10:14:00 EDT 2017
User: Ender
Spectrometer: HR+D1039
Trigger mode: 0
Integration Time (sec): 6.430000E-3
Scans to average: 20
Electric dark correction enabled: true
Nonlinearity correction enabled: false
Boxcar width: 0
XAxis mode: Wavelengths
Number of Pixels in Spectrum: 2048
>>>>>Begin Spectral Data<<<<<
187.836	2.43
188.309	2.43
188.782	2.43
189.255	1.63
189.728	-0.02
190.201	-1.37
190.674	-3.17
191.147	0.73
191.619	0.43
192.092	2.13
192.565	-2.52
193.038	3.98
193.511	-1.02
193.984	-0.77
194.456	0.33
194.929	0.63
195.402	-1.57
195.874	-1.87
196.347	5.38
196.82	0.73
197.292	-1.47
197.765	1.33
198.237	0.13
198.71	-1.22
199.182	0.03
199.655	3.48
200.127	1.43
200.6	-1.62
201.072	4.13
201.544	2.88
202.017	2.78
202.489	3.78
202.961	-0.02
203.433	-2.02
203.906	1.63
204.378	3.63
204.85	0.68
205.322	-1.07
205.794	3.43
206.266	-0.12
206.739	7.83
207.211	3.68
207.683	0.63
208.155	4.28
208.627	1.88
209.099	5.63
209.57	2.73
210.042	0.83
210.514	3.48
210.986	3.03
211.458	0.43
211.93	1.13
212.402	3.18
212.873	1.23
213.345	-2.12
213.817	2.83
214.288	2.08
214.76	2.43
215.232	-0.02
215.703	0.33
216.175	-0.52
216.646	5.53
217.118	0.23
217.589	0.33
218.061	5.38
218.532	-5.67
219.004	9.23
219.475	4.53
219.946	0.53
220.418	9.88
220.889	6.73
221.36	2.83
221.832	8.48
222.303	5.03
222.774	6.53
223.245	2.18
223.717	1.43
224.188	7.43
224.659	2.73
225.13	3.98
225.601	7.08
226.072	8.93
226.543	10.63
227.014	4.13
227.485	8.98
227.956	7.78
228.427	13.53
228.898	8.58
229.369	7.48
229.839	10.73
230.31	7.58
230.781	8.53
231.252	10.08
231.722	10.78
232.193	13.08
232.664	12.68
233.135	14.18
233.605	11.68
234.076	16.38
234.546	13.48
235.017	16.48
235.487	17.58
235.958	13.68
236.428	17.48
236.899	11.98
237.369	23.03
237.84	16.13
238.31	20.03
238.78	9.03
239.251	14.53
239.721	13.73
240.191	18.18
240.662	15.28
241.132	12.48
241.602	19.73
242.072	16.78
242.542	15.78
243.013	22.18
243.483	26.93
243.953	22.48
244.423	22.53
244.893	20.03
245.363	24.73
245.833	24.88
246.303	25.13
246.773	27.88
247.243	21.08
247.712	26.93
248.182	22.33
248.652	25.78
249.122	26.73
249.592	28.73
250.061	26.43
250.531	28.23
251.001	27.63
251.471	29.13
251.94	30.78
252.41	26.98
252.879	31.58
253.349	36.98
253.818	29.98
254.288	38.03
254.757	32.83
255.227	29.78
255.696	33.73
256.166	41.43
256.635	36.18
257.105	36.03
257.574	38.08
258.043	38.18
258.513	39.93
258.982	38.73
259.451	41.98
259.92	35.83
260.389	41.63
260.859	40.23
261.328	45.58
261.797	42.58
262.266	40.93
262.735	47.33
263.204	38.53
263.673	43.68
264.142	40.93
264.611	45.63
265.08	44.28
265.549	43.33
266.018	46.83
266.487	49.68
266.955	45.88
267.424	53.73
267.893	53.58
268.362	54.58
268.83	52.33
269.299	49.98
269.768	52.03
270.236	50.53
270.705	58.43
271.174	52.48
271.642	51.08
272.111	55.98
272.579	58.43
273.048	54.43
273.516	59.63
273.985	61.48
274.453	59.33
274.922	57.43
275.39	55.03
275.858	58.03
276.327	60.78
276.795	61.58
277.263	65.53
277.731	64.23
278.2	70.88
278.668	68.28
279.136	71.88
279.604	62.73
280.072	65.13
280.54	65.18
281.008	71.53
281.477	75.53
281.945	74.68
282.413	68.63
282.881	77.93
283.348	73.48
283.816	79.18
284.284	78.43
284.752	77.33
285.22	83.18
285.688	76.08
286.156	79.08
286.623	78.78
287.091	79.33
287.559	86.08
288.026	87.13
288.494	86.93
288.962	84.73
289.429	83.23
289.897	83.98
290.364	83.43
290.832	85.78
291.3	85.28
291.767	86.53
292.234	89.78
292.702	93.38
293.169	88.58
293.637	94.88
294.104	94.93
294.571	98.38
295.039	95.53
295.506	91.18
295.973	96.18
296.44	100.03
296.908	104.63
297.375	104.68
297.842	101.18
298.309	99.93
298.776	99.38
299.243	105.63
299.71	104.48
300.177	106.83
300.644	104.28
301.111	108.08
301.578	110.08
302.045	104.13
302.512	109.03
302.979	114.23
303.446	114.08
303.913	113.03
304.379	118.28
304.846	121.18
305.313	120.98
305.78	128.13
306.246	125.23
306.713	129.38
307.18	129.93
307.646	131.78
308.113	134.13
308.579	138.18
309.046	138.93
309.512	137.88
309.979	141.93
310.445	140.33
310.912	142.58
311.378	150.68
311.845	146.93
312.311	143.73
312.777	148.98
313.244	149.78
313.71	150.73
314.176	157.43
314.642	152.73
315.109	154.18
315.575	154.83
316.041	154.08
316.507	158.18
316.973	164.23
317.439	165.13
317.905	159.53
318.371	157.78
318.837	154.33
319.303	165.13
319.769	160.93
320.235	168.33
320.701	172.23
321.167	169.68
321.633	175.93
322.099	167.68
322.564	171.88
323.03	173.88
323.496	175.88
323.962	173.68
324.427	184.73
324.893	185.43
325.359	182.83
325.824	187.63
326.29	186.68
326.755	187.68
327.221	185.78
327.686	196.63
328.152	196.98
328.617	200.33
329.083	203.98
329.548	205.03
330.014	204.63
330.479	207.08
330.944	210.93
331.41	211.73
331.875	206.83
332.34	203.23
332.805	213.23
333.271	210.13
333.736	211.28
334.201	215.78
334.666	232.73
335.131	228.98
335.596	231.58
336.061	220.93
336.526	224.18
336.991	220.43
337.456	212.38
337.921	215.48
338.386	211.23
338.851	217.63
339.316	221.78
339.781	216.18
340.246	229.13
340.711	225.08
341.175	233.58
341.64	240.78
342.105	238.03
342.569	246.23
343.034	247.58
343.499	244.68
343.963	255.28
344.428	255.13
344.893	255.93
345.357	261.28
345.822	262.68
346.286	265.38
346.751	272.78
347.215	275.48
347.679	286.03
348.144	302.43
348.608	297.33
349.073	301.33
349.537	307.68
350.001	308.18
350.465	304.33
350.93	305.63
351.394	308.03
351.858	312.83
352.322	315.53
352.786	319.53
353.25	317.58
353.715	326.18
354.179	346.38
354.643	342.63
355.107	354.08
355.571	345.38
356.035	341.68
356.498	342.58
356.962	340.33
357.426	344.13
357.89	338.53
358.354	334.88
358.818	329.63
359.281	337.03
359.745	341.83
360.209	338.58
360.673	332.78
361.136	335.68
361.6	345.93
362.064	350.43
362.527	356.73
362.991	360.03
363.454	352.38
363.918	359.88
364.381	362.28
364.845	367.13
365.308	361.48
365.772	368.43
366.235	365.08
366.698	363.98
367.162	367.43
367.625	371.38
368.088	379.88
368.552	377.43
369.015	378.58
369.478	380.13
369.941	383.98
370.404	388.83
370.867	383.78
371.331	390.23
371.794	398.03
372.257	393.33
372.72	396.53
373.183	402.58
373.646	403.78
374.109	398.33
374.572	408.53
375.035	411.08
375.497	408.43
375.96	417.58
376.423	431.73
376.886	432.98
377.349	439.33
377.811	435.83
378.274	446.73
378.737	432.68
379.199	444.58
379.662	445.63
380.125	458.33
380.587	453.18
381.05	463.53
381.512	468.88
381.975	477.93
382.437	486.18
382.9	480.48
383.362	482.93
383.825	488.38
384.287	488.33
384.75	485.58
385.212	487.43
385.674	494.33
386.136	503.53
386.599	499.28
387.061	498.58
387.523	496.43
387.985	501.48
388.447	507.38
388.91	508.93
389.372	508.18
389.834	516.63
390.296	504.68
390.758	511.33
391.22	511.13
391.682	516.63
392.144	516.43
392.606	525.53
393.068	532.63
393.529	560.03
393.991	575.73
394.453	546.83
394.915	533.43
395.377	517.73
395.838	524.03
396.3	526.13
396.762	530.43
397.224	531.83
397.685	528.13
398.147	531.53
398.608	547.98
399.07	549.88
399.531	543.68
399.993	566.88
400.454	574.98
400.916	576.43
401.377	586.48
401.839	585.88
402.3	587.03
402.762	613.78
403.223	652.53
403.684	653.38
404.145	628.08
404.607	615.83
405.068	602.08
405.529	616.18
405.99	625.03
406.451	631.63
406.913	623.88
407.374	633.08
407.835	621.38
408.296	645.68
408.757	649.93
409.218	666.08
409.679	672.63
410.14	674.28
410.601	690.23
411.062	693.03
411.522	691.78
411.983	699.48
412.444	708.38
412.905	710.23
413.366	742.88
413.826	779.68
414.287	860.33
414.748	1033.88
415.208	1053.83
415.669	878.88
416.13	805.38
416.59	785.53
417.051	812.23
417.511	857.83
417.972	910.33
418.432	980.08
418.893	1075.18
419.353	1043.98
419.814	805.93
420.274	727.68
420.734	707.18
421.195	737.28
421.655	724.83
422.115	748.93
422.576	735.53
423.036	746.93
423.496	771.08
423.956	799.23
424.416	862.03
424.876	958.88
425.336	952.88
425.797	935.63
426.257	920.88
426.717	881.08
427.177	818.13
427.637	833.63
428.097	849.48
428.556	889.93
429.016	952.58
429.476	954.93
429.936	932.53
430.396	933.83
430.856	957.58
431.315	974.83
431.775	1044.23
432.235	1118.63
432.694	1130.73
433.154	1069.73
433.614	1057.33
434.073	1011.23
434.533	915.43
434.993	892.08
435.452	888.98
435.912	871.98
436.371	879.88
436.83	854.48
437.29	837.88
437.749	822.28
438.209	812.08
438.668	829.83
439.127	841.88
439.587	828.68
440.046	800.28
440.505	823.33
440.964	821.48
441.424	856.48
441.883	876.23
442.342	820.93
442.801	788.93
443.26	797.58
443.719	788.38
444.178	787.28
444.637	796.18
445.096	809.08
445.555	817.28
446.014	809.13
446.473	802.43
446.932	809.38
447.391	818.08
447.849	833.08
448.308	820.08
448.767	828.03
449.226	839.48
449.685	853.13
450.143	886.23
450.602	884.63
451.061	832.33
451.519	836.73
451.978	829.58
452.436	819.53
452.895	836.73
453.353	825.43
453.812	821.73
454.27	821.88
454.729	824.63
455.187	840.58
455.646	838.13
456.104	838.38
456.562	847.58
457.021	851.63
457.479	826.63
457.937	849.98
458.395	871.78
458.854	870.73
459.312	853.03
459.77	860.48
460.228	877.53
460.686	883.93
461.144	886.38
461.602	877.98
462.06	876.63
462.518	900.23
462.976	897.83
463.434	912.18
463.892	918.18
464.35	938.08
464.808	943.13
465.266	959.68
465.724	969.43
466.181	982.23
466.639	971.58
467.097	1001.48
467.555	1044.83
468.012	1038.18
468.47	1048.78
468.928	1088.18
469.385	1101.93
469.843	1118.63
470.3	1114.33
470.758	1145.73
471.215	1162.93
471.673	1184.53
472.13	1217.93
472.588	1246.73
473.045	1237.18
473.503	1259.78
473.96	1316.58
474.417	1331.28
474.875	1390.98
475.332	1441.78
475.789	1461.93
476.246	1506.18
476.704	1572.63
477.161	1617.98
477.618	1646.83
478.075	1742.33
478.532	1864.03
478.989	2005.38
479.446	2201.03
479.903	2302.43
480.36	2506.13
480.817	2650.48
481.274	2809.33
481.731	3069.48
482.188	3287.68
482.645	3518.13
483.102	3718.23
483.558	3956.58
484.015	4132.53
484.472	4107.93
484.929	3993.08
485.385	3828.88
485.842	3743.58
486.299	3620.23
486.755	3324.43
487.212	3011.88
487.668	2737.23
488.125	2535.33
488.582	2357.48
489.038	2273.28
489.494	2210.03
489.951	2155.48
490.407	2098.58
490.864	2046.28
491.32	2010.08
491.776	1991.58
492.233	2003.18
492.689	1969.93
493.145	1933.33
493.602	1907.58
494.058	1933.98
494.514	1934.48
494.97	1930.28
495.426	1966.13
495.882	1959.73
496.338	1952.83
496.794	1972.53
497.251	1959.83
497.707	1994.18
498.163	1990.88
498.618	1986.23
499.074	1984.23
499.53	2003.08
499.986	2011.88
500.442	2005.58
500.898	1979.18
501.354	1988.98
501.809	2002.53
502.265	2002.63
502.721	2011.53
503.177	2020.78
503.632	2023.03
504.088	2030.38
504.543	2043.68
504.999	2067.08
505.455	2066.33
505.91	2044.23
506.366	2050.08
506.821	2056.58
507.277	2036.23
507.732	2046.13
508.187	2055.58
508.643	2072.93
509.098	2067.58
509.553	2085.83
510.009	2115.33
510.464	2152.03
510.919	2178.73
511.375	2194.08
511.83	2220.58
512.285	2257.33
512.74	2297.63
513.195	2321.88
513.65	2372.58
514.105	2386.33
514.56	2394.33
515.015	2437.03
515.47	2455.43
515.925	2431.68
516.38	2417.33
516.835	2429.23
517.29	2414.83
517.745	2413.83
518.2	2390.48
518.655	2340.08
519.109	2311.28
519.564	2278.78
520.019	2269.23
520.474	2236.83
520.928	2228.68
521.383	2213.18
521.838	2218.78
522.292	2187.93
522.747	2166.83
523.201	2172.83
523.656	2137.13
524.11	2132.83
524.565	2131.43
525.019	2141.48
525.474	2121.23
525.928	2121.08
526.382	2122.78
526.837	2119.33
527.291	2129.23
527.745	2120.33
528.2	2119.33
528.654	2097.13
529.108	2085.93
529.562	2093.88
530.016	2095.53
530.47	2101.98
530.925	2095.58
531.379	2098.68
531.833	2122.88
532.287	2114.73
532.741	2103.48
533.195	2118.68
533.649	2117.23
534.103	2113.88
534.556	2095.58
535.01	2108.53
535.464	2104.83
535.918	2103.78
536.372	2117.93
536.826	2109.88
537.279	2088.68
537.733	2102.28
538.187	2103.03
538.64	2100.48
539.094	2111.78
539.548	2133.53
540.001	2143.13
540.455	2158.13
540.908	2167.73
541.362	2183.28
541.815	2189.48
542.269	2230.58
542.722	2241.08
543.175	2269.73
543.629	2276.68
544.082	2288.58
544.536	2316.23
544.989	2304.93
545.442	2324.28
545.895	2327.83
546.349	2314.88
546.802	2334.43
547.255	2323.58
547.708	2353.43
548.161	2360.33
548.614	2357.58
549.067	2376.03
549.52	2367.83
549.973	2340.33
550.426	2336.73
550.879	2343.18
551.332	2318.68
551.785	2351.98
552.238	2364.03
552.691	2363.23
553.144	2397.33
553.596	2440.68
554.049	2468.58
554.502	2525.48
554.955	2550.78
555.407	2593.58
555.86	2564.18
556.313	2512.33
556.765	2509.33
557.218	2486.88
557.67	2474.53
558.123	2445.18
558.576	2428.48
559.028	2421.28
559.48	2444.48
559.933	2440.53
560.385	2365.53
560.838	2300.08
561.29	2230.18
561.742	2224.38
562.195	2163.93
562.647	2152.98
563.099	2136.58
563.551	2118.03
564.004	2147.93
564.456	2116.98
564.908	2076.28
565.36	2036.88
565.812	1989.88
566.264	1981.43
566.716	1952.63
567.168	1922.38
567.62	1920.98
568.072	1920.48
568.524	1898.03
568.976	1893.73
569.428	1869.08
569.88	1861.88
570.332	1887.83
570.784	1898.43
571.235	1876.03
571.687	1896.08
572.139	1903.43
572.59	1912.18
573.042	1921.43
573.494	1937.98
573.945	1889.48
574.397	1856.13
574.849	1855.93
575.3	1864.53
575.752	1820.93
576.203	1811.43
576.655	1834.03
577.106	1810.13
577.557	1791.13
578.009	1769.93
578.46	1780.38
578.912	1779.03
579.363	1774.53
579.814	1772.03
580.265	1783.78
580.717	1778.73
581.168	1775.68
581.619	1784.38
582.07	1795.08
582.521	1790.98
582.972	1780.18
583.423	1780.48
583.875	1799.88
584.326	1814.83
584.777	1836.58
585.227	1871.13
585.678	1890.73
586.129	1901.78
586.58	1923.83
587.031	1955.33
587.482	1999.23
587.933	2033.83
588.384	2034.38
588.834	2014.68
589.285	1992.48
589.736	2004.33
590.186	1994.68
590.637	1978.18
591.088	1937.18
591.538	1903.38
591.989	1871.38
592.439	1853.83
592.89	1827.93
593.34	1819.88
593.791	1817.68
594.241	1800.78
594.692	1802.93
595.142	1795.03
595.593	1792.08
596.043	1807.48
596.493	1822.13
596.943	1825.78
597.394	1869.33
597.844	1894.33
598.294	1930.63
598.744	2000.23
599.195	2089.08
599.645	2207.93
600.095	2302.33
600.545	2421.13
600.995	2518.38
601.445	2607.13
601.895	2729.48
602.345	2806.38
602.795	2788.03
603.245	2682.28
603.695	2528.18
604.145	2397.13
604.594	2275.88
605.044	2166.38
605.494	2042.88
605.944	1923.88
606.393	1882.63
606.843	1844.53
607.293	1831.58
607.743	1832.98
608.192	1843.88
608.642	1833.68
609.091	1836.18
609.541	1835.53
609.99	1833.83
610.44	1790.13
610.889	1782.93
611.339	1753.43
611.788	1730.53
612.238	1745.23
612.687	1745.58
613.136	1750.73
613.586	1778.88
614.035	1774.88
614.484	1790.68
614.933	1787.23
615.383	1749.38
615.832	1704.53
616.281	1689.83
616.73	1642.33
617.179	1614.23
617.628	1584.88
618.077	1553.53
618.526	1538.78
618.975	1523.18
619.424	1494.53
619.873	1497.23
620.322	1478.08
620.771	1480.23
621.22	1454.78
621.669	1428.98
622.118	1422.88
622.567	1398.83
623.015	1388.63
623.464	1379.38
623.913	1363.78
624.361	1371.43
624.81	1354.93
625.259	1357.18
625.707	1345.63
626.156	1365.28
626.604	1379.53
627.053	1380.73
627.501	1382.23
627.95	1390.33
628.398	1407.43
628.847	1383.78
629.295	1378.23
629.744	1378.33
630.192	1346.53
630.64	1333.78
631.089	1308.73
631.537	1279.68
631.985	1268.43
632.433	1264.23
632.881	1257.53
633.33	1262.58
633.778	1259.28
634.226	1269.78
634.674	1277.98
635.122	1294.53
635.57	1308.68
636.018	1340.33
636.466	1331.08
636.914	1323.08
637.362	1354.73
637.81	1371.48
638.258	1413.53
638.705	1431.83
639.153	1478.23
639.601	1496.73
640.049	1515.18
640.497	1551.48
640.944	1592.63
641.392	1538.23
641.84	1444.08
642.287	1396.83
642.735	1358.13
643.182	1345.98
643.63	1354.98
644.078	1354.43
644.525	1363.18
644.973	1405.53
645.42	1427.78
645.867	1465.03
646.315	1493.08
646.762	1551.43
647.21	1599.78
647.657	1680.53
648.104	1733.78
648.551	1765.48
648.999	1912.23
649.446	2092.53
649.893	2335.38
650.34	2723.03
650.787	3337.38
651.234	4283.03
651.682	5861.78
652.129	8241.33
652.576	11667.23
653.023	15175.43
653.47	15535.88
653.917	15535.93
654.363	15535.83
654.81	15532.83
655.257	15533.48
655.704	14998.48
656.151	9166.63
656.598	6034.23
657.044	4337.68
657.491	3387.63
657.938	2773.28
658.385	2352.03
658.831	2086.78
659.278	1882.58
659.724	1723.38
660.171	1601.18
660.618	1494.88
661.064	1415.48
661.511	1373.33
661.957	1325.53
662.404	1298.93
662.85	1284.78
663.296	1268.03
663.743	1243.48
664.189	1221.23
664.635	1209.28
665.082	1191.78
665.528	1171.08
665.974	1137.88
666.42	1121.23
666.867	1103.43
667.313	1061.53
667.759	1043.78
668.205	1040.08
668.651	1048.08
669.097	1037.23
669.543	1052.83
669.989	1055.63
670.435	1062.03
670.881	1068.08
671.327	1119.38
671.773	1190.73
672.219	1277.48
672.665	1351.43
673.11	1401.13
673.556	1417.03
674.002	1440.68
674.448	1457.08
674.893	1252.73
675.339	1093.88
675.785	1015.38
676.23	955.78
676.676	922.58
677.122	903.88
677.567	876.88
678.013	843.78
678.458	839.38
678.904	838.28
679.349	833.68
679.794	821.08
680.24	822.63
680.685	813.18
681.131	819.38
681.576	811.38
682.021	821.53
682.466	832.58
682.912	842.58
683.357	878.98
683.802	945.58
684.247	1039.43
684.692	1102.13
685.137	1144.83
685.583	1173.13
686.028	1234.73
686.473	1183.93
686.918	1024.28
687.363	935.83
687.807	880.98
688.252	842.18
688.697	818.63
689.142	789.38
689.587	793.33
690.032	808.03
690.477	839.88
690.921	882.98
691.366	923.23
691.811	974.88
692.255	1046.48
692.7	1262.68
693.145	1813.33
693.589	2763.88
694.034	3291.63
694.478	3505.53
694.923	3212.93
695.367	4554.88
695.812	2806.48
696.256	1189.73
696.701	871.43
697.145	807.13
697.59	779.58
698.034	759.78
698.478	762.53
698.922	758.33
699.367	777.18
699.811	819.13
700.255	885.83
700.699	955.78
701.143	1047.13
701.588	1102.48
702.032	1148.48
702.476	1194.38
702.92	1271.13
703.364	1649.93
703.808	2538.13
704.252	3148.33
704.696	3337.33
705.14	3145.43
705.584	4304.98
706.027	2410.18
706.471	1213.33
706.915	910.43
707.359	809.73
707.803	756.53
708.246	726.78
708.69	723.23
709.134	712.03
709.577	705.68
710.021	720.68
710.465	721.98
710.908	700.93
711.352	741.78
711.795	809.58
712.239	877.88
712.682	892.53
713.126	890.83
713.569	983.68
714.012	818.68
714.456	711.63
714.899	673.58
715.342	636.28
715.786	616.08
716.229	606.43
716.672	587.33
717.115	588.58
717.558	592.23
718.002	601.78
718.445	627.28
718.888	663.18
719.331	683.48
719.774	691.58
720.217	679.43
720.66	649.38
721.103	612.08
721.546	588.78
721.989	557.83
722.432	557.33
722.874	555.83
723.317	556.93
723.76	611.38
724.203	743.98
724.645	987.53
725.088	1165.38
725.531	1140.73
725.974	1242.88
726.416	1131.43
726.859	704.83
727.301	577.58
727.744	550.83
728.187	554.43
728.629	562.08
729.071	585.98
729.514	621.88
729.956	642.93
730.399	653.53
730.841	655.18
731.283	641.03
731.726	626.58
732.168	634.03
732.61	665.18
733.053	715.63
733.495	792.68
733.937	881.33
734.379	1027.58
734.821	1304.08
735.263	2066.28
735.705	3730.23
736.148	5482.83
736.59	5511.73
737.032	5986.53
737.474	4960.58
737.916	1910.53
738.357	1000.88
738.799	771.18
739.241	715.58
739.683	727.13
740.125	738.33
740.567	754.73
741.008	801.98
741.45	849.08
741.892	890.28
742.334	895.33
742.775	886.03
743.217	852.53
743.658	719.08
744.1	743.03
744.542	858.83
744.983	887.38
745.425	936.53
745.866	906.43
746.307	752.33
746.749	791.48
747.19	1128.53
747.632	2191.98
748.073	4075.03
748.514	5626.78
748.956	7468.78
749.397	8767.98
749.838	6084.68
750.279	5786.88
750.72	3015.23
751.162	1274.58
751.603	734.43
752.044	592.33
752.485	528.23
752.926	487.48
753.367	472.73
753.808	455.73
754.249	457.28
754.69	443.63
755.131	440.18
755.572	437.13
756.013	440.63
756.453	434.38
756.894	449.68
757.335	447.83
757.776	458.23
758.216	470.63
758.657	501.18
759.098	552.53
759.538	668.08
759.979	956.43
760.42	1918.53
760.86	4928.83
761.301	10151.83
761.741	12021.83
762.182	13754.23
762.622	8939.18
763.063	3196.13
763.503	1317.43
763.943	776.38
764.384	611.53
764.824	531.63
765.264	486.23
765.705	459.98
766.145	436.78
766.585	418.13
767.025	408.23
767.465	412.18
767.906	417.88
768.346	445.53
768.786	517.73
769.226	748.58
769.666	1507.43
770.106	3361.18
770.546	4834.18
770.986	5485.03
771.426	4175.18
771.866	1732.78
772.306	786.38
772.745	485.33
773.185	406.43
773.625	404.78
774.065	436.03
774.505	627.13
774.944	1127.98
775.384	1635.63
775.824	1840.58
776.263	1528.43
776.703	804.78
777.142	451.73
777.582	338.53
778.021	316.68
778.461	301.68
778.9	296.28
779.34	283.78
779.779	279.48
780.219	269.63
780.658	271.38
781.097	261.43
781.537	258.43
781.976	254.83
782.415	253.18
782.855	250.18
783.294	245.78
783.733	242.03
784.172	253.63
784.611	253.43
785.05	262.38
785.489	267.93
785.928	274.43
786.367	287.78
786.806	298.63
787.245	324.23
787.684	332.53
788.123	334.53
788.562	319.88
789.001	303.83
789.44	303.38
789.879	296.63
790.317	303.73
790.756	314.88
791.195	364.48
791.634	484.63
792.072	869.33
792.511	2143.33
792.95	3954.78
793.388	4796.08
793.827	3119.03
794.265	1431.83
794.704	688.23
795.142	426.18
795.581	350.78
796.019	323.68
796.458	316.13
796.896	326.78
797.334	376.43
797.773	496.43
798.211	949.68
798.649	1974.78
799.087	3328.33
799.526	4717.93
799.964	4864.18
800.402	3371.03
800.84	1515.73
801.278	743.88
801.716	453.93
802.154	367.68
802.592	354.93
803.03	351.63
803.468	354.28
803.906	362.28
804.344	350.18
804.782	345.63
805.22	341.93
805.658	355.28
806.096	385.73
806.533	423.03
806.971	541.53
807.409	784.43
807.847	1548.78
808.284	3951.58
808.722	6970.58
809.16	9796.13
809.597	13183.13
810.035	15516.33
810.472	10779.08
810.91	4572.03
811.347	2050.43
811.785	969.33
812.222	611.88
812.66	468.08
813.097	399.38
813.535	352.18
813.972	314.43
814.409	290.03
814.846	274.63
815.284	265.78
815.721	272.53
816.158	298.98
816.595	410.28
817.032	524.73
817.47	480.68
817.907	345.43
818.344	300.88
818.781	298.68
819.218	362.58
819.655	559.63
820.092	735.43
820.529	661.03
820.966	516.73
821.403	354.33
821.839	302.43
822.276	334.78
822.713	398.93
823.15	366.23
823.587	375.73
824.023	650.53
824.46	1618.18
824.897	2840.93
825.333	2230.33
825.77	1021.73
826.206	539.83
826.643	313.03
827.08	240.48
827.516	211.53
827.953	194.28
828.389	185.53
828.825	175.78
829.262	167.58
829.698	162.53
830.135	159.88
830.571	157.93
831.007	158.13
831.443	154.68
831.88	158.33
832.316	166.93
832.752	163.08
833.188	165.58
833.624	165.98
834.06	169.13
834.497	169.23
834.933	171.08
835.369	189.03
835.805	193.73
836.241	205.38
836.677	224.78
837.112	258.63
837.548	323.53
837.984	487.03
838.42	1021.98
838.856	2839.28
839.292	5648.83
839.727	4240.48
840.163	2825.83
840.599	4263.43
841.034	6579.23
841.47	3315.88
841.906	1597.73
842.341	858.93
842.777	644.03
843.212	670.28
843.648	418.88
844.083	282.23
844.519	216.53
844.954	183.18
845.39	158.78
845.825	152.08
846.261	150.53
846.696	141.53
847.131	138.48
847.566	140.23
848.002	143.28
848.437	154.03
848.872	156.23
849.307	198.78
849.742	361.03
850.177	924.68
850.613	1977.28
851.048	1439.58
851.483	654.38
851.918	365.23
852.353	203.03
852.788	146.33
853.223	135.38
853.657	120.98
854.092	117.18
854.527	117.13
854.962	125.08
855.397	140.43
855.832	118.83
856.266	104.38
856.701	108.38
857.136	111.23
857.57	135.83
858.005	164.78
858.44	138.98
858.874	127.73
859.309	131.23
859.743	130.23
860.178	126.93
860.612	138.18
861.047	188.68
861.481	271.73
861.915	184.53
862.35	135.38
862.784	110.63
863.218	99.18
863.653	111.08
864.087	138.08
864.521	169.38
864.955	273.08
865.39	468.98
865.824	366.58
866.258	490.03
866.692	742.98
867.126	537.58
867.56	285.93
867.994	185.43
868.428	156.03
868.862	192.88
869.296	174.28
869.73	215.73
870.164	185.78
870.598	172.83
871.031	115.48
871.465	101.98
871.899	81.23
872.333	76.53
872.766	75.38
873.2	78.83
873.634	76.23
874.067	80.03
874.501	80.23
874.935	77.43
875.368	77.73
875.802	68.13
876.235	68.68
876.669	66.33
877.102	63.28
877.535	64.18
877.969	62.43
878.402	64.48
878.836	60.38
879.269	61.53
879.702	58.43
880.135	65.33
880.569	63.28
881.002	61.58
881.435	59.23
881.868	59.43
882.301	57.78
882.734	52.58
883.167	63.23
883.601	54.68
884.034	50.63
884.467	48.93
884.899	50.03
885.332	47.73
885.765	50.53
886.198	48.13
886.631	51.48
887.064	48.58
887.497	55.38
887.929	49.78
888.362	47.88
888.795	47.08
889.228	52.98
889.66	47.18
890.093	46.38
890.526	49.13
890.958	48.88
891.391	50.18
891.823	46.53
892.256	48.98
892.688	46.78
893.121	41.93
893.553	46.58
893.985	48.03
894.418	45.23
894.85	49.23
895.282	48.68
895.715	47.33
896.147	37.83
896.579	40.98
897.011	47.98
897.444	43.93
897.876	38.43
898.308	41.93
898.74	44.43
899.172	44.53
899.604	44.33
900.036	40.58
900.468	39.28
900.9	50.03
901.332	60.73
901.764	62.03
902.196	54.93
902.628	60.98
903.06	90.33
903.491	98.73
903.923	82.03
904.355	83.43
904.787	81.88
905.218	65.58
905.65	56.28
906.082	53.53
906.513	51.83
906.945	51.83
907.376	49.73
907.808	51.93
908.239	57.88
908.671	63.78
909.102	74.58
909.534	96.13
909.965	182.78
910.397	461.88
910.828	1335.48
911.259	818.53
911.691	442.33
912.122	251.48
912.553	134.43
912.984	73.63
913.415	61.13
913.847	50.53
914.278	53.73
914.709	53.03
915.14	42.03
915.571	47.33
916.002	44.03
916.433	47.93
916.864	37.98
917.295	47.78
917.726	53.18
918.157	64.58
918.587	71.13
919.018	59.38
919.449	56.88
919.88	64.98
920.311	101.83
920.741	278.18
921.172	490.13
921.603	252.13
922.033	159.33
922.464	99.83
922.895	65.93
923.325	49.48
923.756	39.83
924.186	52.98
924.617	79.23
925.047	115.58
925.478	106.88
925.908	77.98
926.338	56.93
926.769	44.03
927.199	45.93
927.629	43.38
928.06	47.03
928.49	44.93
928.92	38.73
929.35	32.93
929.78	28.93
930.21	28.78
930.641	22.18
931.071	26.03
931.501	25.08
931.931	20.93
932.361	20.83
932.791	28.83
933.221	32.23
933.651	40.93
934.08	66.08
934.51	39.83
934.94	34.93
935.37	25.93
935.8	23.53
936.229	23.33
936.659	25.63
937.089	44.03
937.519	63.73
937.948	86.78
938.378	47.73
938.807	30.58
939.237	22.58
939.666	16.48
940.096	14.73
940.525	10.38
940.955	16.93
941.384	15.68
941.814	14.58
942.243	10.63
942.672	7.78
943.102	6.68
943.531	9.13
943.96	10.03
944.39	12.68
944.819	15.48
945.248	9.93
945.677	13.73
946.106	13.58
946.535	12.48
946.964	12.48
947.393	11.43
947.822	11.48
948.251	10.53
948.68	11.78
949.109	7.18
949.538	6.23
949.967	12.18
950.396	11.78
950.825	10.23
951.254	10.63
951.682	9.53
952.111	5.38
952.54	11.38
952.969	7.13
953.397	7.68
953.826	3.83
954.254	13.03
954.683	9.08
955.112	12.33
955.54	8.83
955.969	9.78
956.397	9.83
956.826	8.08
957.254	10.73
957.682	8.63
958.111	10.53
958.539	11.18
958.967	7.73
959.396	11.73
959.824	9.63
960.252	11.83
960.68	12.03
961.109	10.48
961.537	17.13
961.965	5.43
962.393	7.98
962.821	11.28
963.249	10.48
963.677	17.53
964.105	79.33
964.533	140.73
964.961	72.33
965.389	38.28
965.817	23.23
966.245	13.53
966.672	11.23
967.1	7.03
967.528	5.73
967.956	5.63
968.383	8.68
968.811	5.13
969.239	7.38
969.666	7.73
970.094	4.93
970.522	6.68
970.949	8.98
971.377	4.28
971.804	3.88
972.232	8.98
972.659	6.43
973.087	9.28
973.514	7.53
973.941	6.58
974.369	2.93
974.796	5.53
975.223	1.78
975.651	5.28
976.078	3.63
976.505	13.13
976.932	34.08
977.359	40.68
977.786	25.48
978.214	19.73
978.641	10.73
979.068	5.43
979.495	5.88
979.922	6.93
980.349	9.48
980.776	9.33
981.202	4.73
981.629	9.73
982.056	6.48
982.483	-1.52
982.91	8.63
983.337	3.58
983.763	8.93
984.19	5.88
984.617	7.08
985.043	7.88
985.47	6.63
985.897	8.73
986.323	6.23
986.75	6.28
987.176	3.23
987.603	6.78
988.029	3.68
988.456	8.88
988.882	2.48
989.308	2.13
989.735	5.78
990.161	7.88
990.587	3.83
991.014	3.93
991.44	3.13
991.866	4.18
992.292	7.23
992.719	5.23
993.145	5.68
993.571	6.88
993.997	9.58
994.423	8.78
994.849	2.58
995.275	4.43
995.701	9.08
996.127	1.08
996.553	3.23
996.979	2.58
997.405	10.13
997.83	2.88
998.256	2.33
998.682	0.03
999.108	5.73
999.534	-2.07
999.959	2.23
1000.385	8.08
1000.811	-2.72
1001.236	-0.02
1001.662	2.88
1002.087	6.38
1002.513	1.88
1002.938	0.38
1003.364	1.58
1003.789	6.13
1004.215	3.78
1004.64	6.18
1005.066	5.73
1005.491	9.08
1005.916	4.18
1006.342	3.13
1006.767	3.73
1007.192	9.08
1007.617	6.63
1008.042	5.73
1008.468	5.43
1008.893	6.68
1009.318	11.83
1009.743	18.38
1010.168	30.88
1010.593	25.13
1011.018	19.43
1011.443	11.28
1011.868	13.08
1012.293	6.53
1012.718	2.18
1013.143	7.48
1013.567	11.08
1013.992	8.93
1014.417	6.48
1014.842	-0.57
1015.267	4.63
1015.691	6.93
1016.116	6.63
1016.541	8.33
1016.965	1.13
1017.39	0.28
1017.814	0.53
1018.239	0.13
1018.663	-5.62
1019.088	-5.92
1019.512	4.93
1019.937	1.83
1020.361	-0.02
1020.785	-0.27
1021.21	-1.12
1021.634	6.63
1022.058	3.58
1022.483	-4.97
1022.907	-2.22
1023.331	2.98
1023.755	0.63
1024.179	1.43
1024.604	4.03
1025.028	6.88
1025.452	4.63
1025.876	2.23
1026.3	3.03
1026.724	-0.42
1027.148	3.33
1027.572	-1.27
1027.996	4.43
1028.42	-0.42
1028.843	-1.92
1029.267	-0.47
1029.691	4.38
1030.115	0.13
1030.539	-1.77
1030.962	2.13
1031.386	4.83
1031.81	3.68
1032.233	3.43
1032.657	-1.17
1033.08	1.18
1033.504	-0.02
1033.927	-1.47
1034.351	-4.62
1034.774	-0.52
1035.198	-0.12
1035.621	1.33
1036.045	-0.77
1036.468	5.38
1036.891	0.18
1037.315	5.98
1037.738	3.18
1038.161	3.23
1038.584	1.48
1039.008	-2.87
1039.431	-0.92
1039.854	-4.42
1040.277	4.03
1040.7	2.68
1041.123	-1.97
1041.546	1.18
1041.969	1.58
1042.392	4.83
1042.815	-2.97
1043.238	1.53
1043.661	0.38
1044.084	-3.37
1044.507	-1.42
1044.93	0.33
1045.352	2.28
1045.775	6.48
1046.198	4.58
1046.621	6.08
1047.043	0.23
1047.466	5.88
1047.889	1.23
1048.311	4.63
1048.734	-3.72
1049.156	-1.17
1049.579	1.38
1050.001	0.68
1050.424	-1.97
1050.846	-5.67
1051.269	-3.42
1051.691	-0.87
1052.113	1.48
1052.536	-3.52
1052.958	-5.17
1053.38	1.28
1053.802	1.73
1054.225	3.48
1054.647	4.93
1055.069	2.93
1055.491	-0.07
1055.913	-1.27
1056.335	-1.92
1056.757	-0.77
1057.179	-0.92
1057.601	0.03
1058.023	-0.52
1058.445	-0.57
1058.867	2.08
1059.289	-0.97
1059.711	0.23
1060.133	5.68
1060.555	2.48
1060.976	1.68
1061.398	0.93
1061.82	-4.27
1062.241	-1.47
1062.663	-3.67
1063.085	-4.22
1063.506	-5.67
1063.928	-5.67
1064.35	-3.17
1064.771	-0.17
1065.193	0.78
1065.614	1.53
1066.035	5.73
1066.457	7.38
1066.878	2.18
1067.3	-1.12
1067.721	3.18
1068.142	2.53
1068.564	4.73
1068.985	-1.42
1069.406	-4.97
1069.827	1.88
1070.248	2.08
1070.67	-3.42
1071.091	-2.12
1071.512	-0.42
1071.933	-2.57
1072.354	-4.37
1072.775	0.53
1073.196	2.73
1073.617	-4.52
1074.038	-0.12
1074.459	-3.67
1074.88	-1.47
1075.3	0.28
1075.721	2.88
1076.142	0.68
1076.563	-2.32
1076.983	0.08
1077.404	-3.92
1077.825	3.58
1078.246	-4.82
1078.666	-0.12
1079.087	-0.32
1079.507	-4.42
1079.928	-0.37
1080.348	-0.72
1080.769	0.23
1081.189	-0.62
1081.61	-2.27
1082.03	1.98
1082.451	-0.27
1082.871	-2.42
1083.291	-3.12
1083.711	-1.82
1084.132	-6.47
1084.552	-3.87
1084.972	-3.42
1085.392	-0.02
1085.813	-0.82
1086.233	0.63
1086.653	-0.27
1087.073	-1.77
1087.493	-0.42
1087.913	-2.17
1088.333	1.58
1088.753	-2.02
1089.173	5.03
1089.593	1.23
1090.013	0.63
1090.433	-3.17
1090.852	4.18
1091.272	-2.27
1091.692	1.53
1092.112	-0.32
1092.531	-0.77
1092.951	-2.22
1093.371	-0.97
1093.79	-3.67
1094.21	-6.77
1094.63	0.83
1095.049	1.73
1095.469	-6.12
1095.888	0.83
1096.308	0.23
1096.727	-3.52
1097.146	-0.37
1097.566	-2.77
1097.985	0.83
1098.405	-1.32
1098.824	0.43
1099.243	-2.27
1099.662	-2.77
1100.082	-1.82
1100.501	1.08
1100.92	4.28
1101.339	1.98
1101.758	4.33
