Data from MSPlasma+Separation6_Subt14_10-14-24-781.txt Node
Date: Fri Jul 21 10:14:24 EDT 2017
User: Ender
Spectrometer: HR+D1039
Trigger mode: 0
Integration Time (sec): 6.430000E-3
Scans to average: 20
Electric dark correction enabled: true
Nonlinearity correction enabled: false
Boxcar width: 0
XAxis mode: Wavelengths
Number of Pixels in Spectrum: 2048
>>>>>Begin Spectral Data<<<<<
187.836	-2.65
188.309	-2.65
188.782	-2.65
189.255	2.55
189.728	2.8
190.201	-0.9
190.674	0.2
191.147	-1.9
191.619	-5
192.092	-2.25
192.565	-1.15
193.038	1.3
193.511	2.45
193.984	1.35
194.456	-0.3
194.929	3.15
195.402	-1.65
195.874	1.95
196.347	2.2
196.82	-0.05
197.292	0.4
197.765	-1.55
198.237	-3.75
198.71	-3.65
199.182	1
199.655	0.05
200.127	1.4
200.6	-1.55
201.072	1.4
201.544	-1.4
202.017	1.35
202.489	0.65
202.961	-0.75
203.433	-3.65
203.906	-0.5
204.378	-3.9
204.85	0.05
205.322	-1.05
205.794	-0.15
206.266	-3.65
206.739	3.35
207.211	-8.25
207.683	-3.6
208.155	1.6
208.627	0.15
209.099	5.45
209.57	3.15
210.042	0.95
210.514	-2.8
210.986	-1.15
211.458	-3.25
211.93	1.6
212.402	-1.8
212.873	-1.3
213.345	-2.5
213.817	-0.35
214.288	0.6
214.76	0.75
215.232	-2
215.703	0.05
216.175	3.9
216.646	2.9
217.118	-1.35
217.589	-2.05
218.061	-2.05
218.532	-0.8
219.004	7.5
219.475	4.45
219.946	2.55
220.418	6.95
220.889	0.95
221.36	1.45
221.832	7.2
222.303	4.75
222.774	0.95
223.245	2.95
223.717	1.9
224.188	0.85
224.659	2.35
225.13	0.9
225.601	2.2
226.072	5.45
226.543	3.6
227.014	2.55
227.485	9.8
227.956	8.65
228.427	11.45
228.898	6.25
229.369	6.65
229.839	7.8
230.31	7.35
230.781	10
231.252	14.75
231.722	5.7
232.193	6.2
232.664	6.3
233.135	9.5
233.605	9.75
234.076	14.7
234.546	10.35
235.017	15
235.487	12.6
235.958	9.75
236.428	14.25
236.899	7.4
237.369	11
237.84	15.35
238.31	13.25
238.78	9.35
239.251	14.8
239.721	7.9
240.191	14
240.662	15.8
241.132	12.05
241.602	13.15
242.072	14.6
242.542	13.4
243.013	17.85
243.483	20.6
243.953	16.1
244.423	15.55
244.893	20.05
245.363	20.05
245.833	18.15
246.303	18.95
246.773	22.1
247.243	18.65
247.712	19.7
248.182	17.75
248.652	22.8
249.122	20.45
249.592	25.1
250.061	21.2
250.531	14.9
251.001	24.6
251.471	27.65
251.94	25.3
252.41	26.45
252.879	24.35
253.349	29.3
253.818	20.7
254.288	26.15
254.757	27.55
255.227	31
255.696	29.2
256.166	33.5
256.635	30.9
257.105	28.3
257.574	29.3
258.043	32.55
258.513	35.15
258.982	28.05
259.451	36.95
259.92	25.6
260.389	32.7
260.859	34.6
261.328	34
261.797	31.2
262.266	34.75
262.735	39.7
263.204	31.7
263.673	37.3
264.142	28.95
264.611	38.2
265.08	36.9
265.549	34
266.018	39.25
266.487	37.5
266.955	34.1
267.424	41.15
267.893	44.85
268.362	42.75
268.83	37.9
269.299	40.1
269.768	44.85
270.236	43.9
270.705	49.65
271.174	45.6
271.642	45.1
272.111	48.7
272.579	48.05
273.048	47.75
273.516	52.7
273.985	48.25
274.453	48.35
274.922	50.05
275.39	50.35
275.858	54.3
276.327	50.95
276.795	51.3
277.263	54.1
277.731	50.7
278.2	55.6
278.668	54.75
279.136	58.15
279.604	56.1
280.072	55.35
280.54	54.75
281.008	65.2
281.477	64.45
281.945	58.05
282.413	58.75
282.881	67.9
283.348	59.3
283.816	63.65
284.284	65.65
284.752	65.55
285.22	67.15
285.688	62.7
286.156	64.4
286.623	69.95
287.091	67.15
287.559	69.15
288.026	77.3
288.494	72
288.962	75.1
289.429	71.95
289.897	76.2
290.364	69.5
290.832	75.8
291.3	73.9
291.767	72.45
292.234	77
292.702	78.8
293.169	81.55
293.637	78.5
294.104	82.05
294.571	77.65
295.039	81.95
295.506	76.1
295.973	83.3
296.44	83.45
296.908	89.3
297.375	81.85
297.842	84.7
298.309	84.4
298.776	85.9
299.243	87.85
299.71	87.3
300.177	89.9
300.644	90.55
301.111	92.55
301.578	93.4
302.045	92.25
302.512	91.7
302.979	98.45
303.446	99.15
303.913	96.3
304.379	101.9
304.846	101.45
305.313	118.7
305.78	112
306.246	107.05
306.713	110.05
307.18	112
307.646	115.75
308.113	109.65
308.579	117.95
309.046	121.05
309.512	117.4
309.979	121.4
310.445	119.15
310.912	121.5
311.378	129.85
311.845	127.3
312.311	121.85
312.777	125.3
313.244	126.55
313.71	129.9
314.176	134.3
314.642	136.45
315.109	133.85
315.575	131.2
316.041	133.8
316.507	128.55
316.973	145.1
317.439	142.15
317.905	145.05
318.371	145.4
318.837	142.5
319.303	141.25
319.769	139.35
320.235	145.5
320.701	144.35
321.167	139.8
321.633	155.3
322.099	144.65
322.564	151.5
323.03	148.95
323.496	154
323.962	156.05
324.427	159.55
324.893	156.9
325.359	158.4
325.824	154.7
326.29	166
326.755	167.1
327.221	165.8
327.686	174
328.152	171.45
328.617	179.4
329.083	178.35
329.548	180.3
330.014	174.1
330.479	185.85
330.944	178.65
331.41	182.15
331.875	174.5
332.34	179.05
332.805	186.5
333.271	184.5
333.736	188.05
334.201	189.75
334.666	199.95
335.131	204.65
335.596	201.4
336.061	193.75
336.526	198.25
336.991	190.55
337.456	194.6
337.921	184.6
338.386	192
338.851	192.25
339.316	193.9
339.781	189.2
340.246	199.7
340.711	196.15
341.175	202.55
341.64	202
342.105	213.2
342.569	217.75
343.034	217.9
343.499	214.3
343.963	219.65
344.428	224.4
344.893	223.55
345.357	235.65
345.822	230.8
346.286	234.75
346.751	237.6
347.215	245.75
347.679	249.45
348.144	265.3
348.608	264
349.073	265.5
349.537	269.95
350.001	268.35
350.465	270.75
350.93	271.1
351.394	276.45
351.858	273.5
352.322	285.25
352.786	288.4
353.25	287.35
353.715	287.35
354.179	300
354.643	310.5
355.107	310.15
355.571	303.5
356.035	297.95
356.498	300
356.962	296.1
357.426	295.8
357.89	301.15
358.354	294.45
358.818	297.1
359.281	297.45
359.745	301.4
360.209	294.85
360.673	292.15
361.136	298
361.6	294.75
362.064	309.6
362.527	310.75
362.991	314.7
363.454	314.1
363.918	318.95
364.381	321.55
364.845	322.05
365.308	320.2
365.772	329.5
366.235	332.2
366.698	325.85
367.162	321.2
367.625	329.35
368.088	337.45
368.552	328.9
369.015	330.15
369.478	339.65
369.941	338.5
370.404	349.05
370.867	340.4
371.331	339.9
371.794	350.1
372.257	350.35
372.72	350.3
373.183	357.2
373.646	354.9
374.109	361.6
374.572	355.25
375.035	368.4
375.497	367.6
375.96	372.45
376.423	380.75
376.886	383.85
377.349	389.75
377.811	386.45
378.274	395.35
378.737	386.55
379.199	393
379.662	391.9
380.125	402.35
380.587	412.25
381.05	411.35
381.512	413.7
381.975	424.3
382.437	429.8
382.9	425.1
383.362	431.2
383.825	432
384.287	441
384.75	437.05
385.212	443.65
385.674	442.9
386.136	451.4
386.599	441.95
387.061	446.5
387.523	449.35
387.985	451.05
388.447	456.95
388.91	458.95
389.372	458.8
389.834	458.55
390.296	453.65
390.758	456.25
391.22	458.4
391.682	459.75
392.144	458.7
392.606	464
393.068	474.95
393.529	497.25
393.991	508.05
394.453	488.5
394.915	470.95
395.377	463.85
395.838	470.35
396.3	469.45
396.762	480.35
397.224	478.2
397.685	482.7
398.147	483.55
398.608	489.95
399.07	490.05
399.531	496.65
399.993	508.05
400.454	510.5
400.916	514
401.377	520.45
401.839	521.2
402.3	527.9
402.762	544.15
403.223	585.25
403.684	584.4
404.145	563.9
404.607	556.55
405.068	545.55
405.529	552.1
405.99	559.4
406.451	568.95
406.913	563.5
407.374	568.5
407.835	569.45
408.296	580.25
408.757	580.45
409.218	598.5
409.679	598.25
410.14	606.75
410.601	622.45
411.062	625.65
411.522	622.5
411.983	624.2
412.444	631.35
412.905	641.5
413.366	665.5
413.826	692.25
414.287	781.75
414.748	921.6
415.208	941.65
415.669	792.7
416.13	719.1
416.59	704.3
417.051	732.1
417.511	757.3
417.972	813.65
418.432	874.6
418.893	966.95
419.353	929.15
419.814	721.7
420.274	650.5
420.734	639.15
421.195	657.25
421.655	659.25
422.115	671.95
422.576	661.2
423.036	669.15
423.496	696.25
423.956	718.45
424.416	767
424.876	853.7
425.336	854.4
425.797	844.5
426.257	834.8
426.717	791.3
427.177	740
427.637	747.65
428.097	765.3
428.556	804.25
429.016	853.6
429.476	862.8
429.936	849.75
430.396	843.8
430.856	876.9
431.315	889.8
431.775	946.9
432.235	1008.9
432.694	1018.25
433.154	968.15
433.614	948.9
434.073	922
434.533	833.1
434.993	799.3
435.452	802.95
435.912	786.05
436.371	785.6
436.83	778.4
437.29	759.65
437.749	733.4
438.209	730.55
438.668	743.25
439.127	755.9
439.587	739.3
440.046	727.25
440.505	736.9
440.964	747.95
441.424	772.4
441.883	777.8
442.342	744.7
442.801	707
443.26	719.45
443.719	713.75
444.178	704.75
444.637	720.7
445.096	719.05
445.555	730.7
446.014	730.4
446.473	715.8
446.932	726.2
447.391	730.4
447.849	746.4
448.308	732.95
448.767	737.75
449.226	756.25
449.685	767.1
450.143	792.85
450.602	792.05
451.061	754.4
451.519	754.65
451.978	736.65
452.436	732.5
452.895	746.8
453.353	742.7
453.812	735.9
454.27	740.5
454.729	743.45
455.187	749.25
455.646	754.1
456.104	760.15
456.562	763
457.021	769.9
457.479	742.35
457.937	762.45
458.395	787
458.854	778.6
459.312	766.5
459.77	777.8
460.228	783.35
460.686	796
461.144	802.1
461.602	786.85
462.06	791.6
462.518	808.15
462.976	809.55
463.434	816.65
463.892	831.55
464.35	840.1
464.808	851.85
465.266	861
465.724	869.45
466.181	873.4
466.639	868.9
467.097	898
467.555	934.95
468.012	927.25
468.47	946.2
468.928	975.9
469.385	992.05
469.843	1003.95
470.3	996.95
470.758	1028.05
471.215	1048.75
471.673	1073.8
472.13	1098.35
472.588	1127.05
473.045	1120.35
473.503	1139
473.96	1183.85
474.417	1199.45
474.875	1250.5
475.332	1297.3
475.789	1330.7
476.246	1359.95
476.704	1418.15
477.161	1451.55
477.618	1501.4
478.075	1584.4
478.532	1695.25
478.989	1832
479.446	2007.9
479.903	2107.95
480.36	2288.95
480.817	2434.3
481.274	2596.05
481.731	2824.6
482.188	3005.75
482.645	3236.5
483.102	3394.55
483.558	3617.65
484.015	3770.45
484.472	3745.5
484.929	3616.75
485.385	3476.6
485.842	3414.05
486.299	3283.1
486.755	2999.2
487.212	2732.85
487.668	2474.2
488.125	2302.75
488.582	2143.35
489.038	2042.85
489.494	1997.6
489.951	1935.25
490.407	1884.85
490.864	1835.4
491.32	1803.1
491.776	1796.45
492.233	1800.7
492.689	1781.45
493.145	1744.15
493.602	1726.3
494.058	1741.95
494.514	1743.05
494.97	1732.2
495.426	1752.45
495.882	1764.6
496.338	1759.5
496.794	1781.85
497.251	1763.25
497.707	1790.95
498.163	1789.1
498.618	1791.2
499.074	1780.1
499.53	1804.85
499.986	1818.25
500.442	1796.8
500.898	1781.8
501.354	1801.7
501.809	1801.7
502.265	1802.55
502.721	1800.2
503.177	1810
503.632	1823.8
504.088	1822.85
504.543	1851.45
504.999	1868.3
505.455	1854.8
505.91	1838.1
506.366	1844.2
506.821	1845.05
507.277	1843.45
507.732	1862.8
508.187	1843.8
508.643	1861.5
509.098	1871.3
509.553	1899.4
510.009	1911.2
510.464	1948
510.919	1960.6
511.375	1974
511.83	1999.7
512.285	2036.95
512.74	2068.45
513.195	2094.3
513.65	2121.05
514.105	2150.35
514.56	2150.5
515.015	2195.3
515.47	2205.35
515.925	2173.95
516.38	2188.25
516.835	2187.2
517.29	2177.15
517.745	2167.9
518.2	2149.15
518.655	2098.15
519.109	2075.9
519.564	2050.5
520.019	2040.8
520.474	2010.1
520.928	2014.4
521.383	1985
521.838	1989.55
522.292	1973.6
522.747	1953.6
523.201	1949
523.656	1927.65
524.11	1935.05
524.565	1922.15
525.019	1930.55
525.474	1916.9
525.928	1911.75
526.382	1913.55
526.837	1916.95
527.291	1921.5
527.745	1911.75
528.2	1903.2
528.654	1883.25
529.108	1896.2
529.562	1886.5
530.016	1893.65
530.47	1898.4
530.925	1890.25
531.379	1883.2
531.833	1914.3
532.287	1917.2
532.741	1894.9
533.195	1898.1
533.649	1908.4
534.103	1902.7
534.556	1890.65
535.01	1900.2
535.464	1890.2
535.918	1890.3
536.372	1907.55
536.826	1891.75
537.279	1890.9
537.733	1881.15
538.187	1900.15
538.64	1896.05
539.094	1912.25
539.548	1938.55
540.001	1935.6
540.455	1941
540.908	1955
541.362	1977.15
541.815	1991.95
542.269	2012.95
542.722	2020.4
543.175	2039.7
543.629	2059.7
544.082	2069.6
544.536	2095.25
544.989	2080.65
545.442	2095.7
545.895	2097.2
546.349	2093.75
546.802	2102.15
547.255	2108.7
547.708	2113.9
548.161	2135.35
548.614	2135.05
549.067	2139.95
549.52	2125.95
549.973	2108.9
550.426	2108.5
550.879	2097.45
551.332	2099.5
551.785	2125.05
552.238	2145.5
552.691	2134.2
553.144	2163.3
553.596	2200.7
554.049	2218.4
554.502	2266.5
554.955	2296.7
555.407	2324.35
555.86	2310.1
556.313	2284.4
556.765	2267.65
557.218	2236.2
557.67	2234.8
558.123	2200.15
558.576	2195.9
559.028	2189.8
559.48	2216.9
559.933	2193.55
560.385	2142.15
560.838	2080.45
561.29	2006.9
561.742	2000.55
562.195	1953.6
562.647	1940.95
563.099	1929.55
563.551	1917.85
564.004	1935.25
564.456	1910.55
564.908	1892.45
565.36	1844.2
565.812	1806.35
566.264	1780.35
566.716	1765.15
567.168	1736.85
567.62	1734.2
568.072	1718.8
568.524	1718
568.976	1703.3
569.428	1697.05
569.88	1694.25
570.332	1704.75
570.784	1703.9
571.235	1699.25
571.687	1721.25
572.139	1713.05
572.59	1731.05
573.042	1736.9
573.494	1742.85
573.945	1714.6
574.397	1677.05
574.849	1673.7
575.3	1675.6
575.752	1654.8
576.203	1647.4
576.655	1649.15
577.106	1624.55
577.557	1609.35
578.009	1616
578.46	1616.65
578.912	1595.85
579.363	1617.6
579.814	1599.5
580.265	1615.95
580.717	1622.95
581.168	1607.6
581.619	1614.05
582.07	1632.5
582.521	1621.65
582.972	1615.7
583.423	1624
583.875	1624.45
584.326	1645.4
584.777	1664.2
585.227	1695.25
585.678	1711.2
586.129	1728.4
586.58	1746.2
587.031	1767.75
587.482	1810.5
587.933	1827.35
588.384	1824.2
588.834	1811
589.285	1808.65
589.736	1802.4
590.186	1810.6
590.637	1803.15
591.088	1755.8
591.538	1717.6
591.989	1687.8
592.439	1671.55
592.89	1658.8
593.34	1659.8
593.791	1646.6
594.241	1635.45
594.692	1624.25
595.142	1623.35
595.593	1629.15
596.043	1635.1
596.493	1650.75
596.943	1642.15
597.394	1699.3
597.844	1714.1
598.294	1748.5
598.744	1809.7
599.195	1897.6
599.645	1998.1
600.095	2099.5
600.545	2196.65
600.995	2277.4
601.445	2360.6
601.895	2463.1
602.345	2532.6
602.795	2499.1
603.245	2407.2
603.695	2270.25
604.145	2157.5
604.594	2053.7
605.044	1946.65
605.494	1838.65
605.944	1747.9
606.393	1705
606.843	1662.6
607.293	1672.45
607.743	1656.85
608.192	1666.85
608.642	1669
609.091	1666.15
609.541	1664.3
609.99	1653
610.44	1625.8
610.889	1613.1
611.339	1586.8
611.788	1573.1
612.238	1580
612.687	1583.9
613.136	1600.75
613.586	1612.05
614.035	1608.5
614.484	1622.1
614.933	1618.25
615.383	1597.3
615.832	1550.6
616.281	1524.4
616.73	1490.35
617.179	1456.5
617.628	1426.85
618.077	1413.45
618.526	1394.25
618.975	1382.65
619.424	1353.6
619.873	1361.45
620.322	1344.55
620.771	1337.2
621.22	1324.7
621.669	1296.75
622.118	1281.05
622.567	1275.3
623.015	1250.5
623.464	1244.15
623.913	1230.85
624.361	1234.8
624.81	1218.2
625.259	1234.05
625.707	1224
626.156	1235.4
626.604	1250.3
627.053	1256.75
627.501	1248.05
627.95	1256.85
628.398	1273.9
628.847	1259.25
629.295	1256.1
629.744	1243.85
630.192	1226.05
630.64	1211.45
631.089	1191
631.537	1155.15
631.985	1151.2
632.433	1146.95
632.881	1135.45
633.33	1153
633.778	1140.55
634.226	1151.9
634.674	1160
635.122	1173.25
635.57	1187.1
636.018	1205.85
636.466	1204.5
636.914	1205.05
637.362	1227.15
637.81	1249
638.258	1295
638.705	1307.8
639.153	1342.25
639.601	1356.45
640.049	1373.55
640.497	1416.95
640.944	1443.5
641.392	1397.05
641.84	1316.65
642.287	1255.85
642.735	1242.6
643.182	1230.05
643.63	1225.25
644.078	1228.8
644.525	1255.2
644.973	1283.25
645.42	1317.5
645.867	1346.5
646.315	1373.3
646.762	1419.5
647.21	1459.55
647.657	1531.65
648.104	1593.4
648.551	1631.55
648.999	1760.6
649.446	1940.3
649.893	2161
650.34	2526.3
650.787	3111.4
651.234	3995.4
651.682	5510.25
652.129	7777.05
652.576	11025.4
653.023	14491.4
653.47	15536.4
653.917	15536.45
654.363	15536.35
654.81	15533.35
655.257	15534
655.704	13899.15
656.151	8416
656.598	5560.1
657.044	3982.5
657.491	3129.75
657.938	2551.7
658.385	2157.5
658.831	1914.45
659.278	1721.15
659.724	1573.25
660.171	1461.7
660.618	1367.55
661.064	1285.95
661.511	1249.75
661.957	1209.1
662.404	1185.3
662.85	1163.95
663.296	1165.15
663.743	1122.25
664.189	1112.2
664.635	1106.75
665.082	1086.85
665.528	1078.95
665.974	1035.85
666.42	1024.95
666.867	1009.1
667.313	966.6
667.759	959.5
668.205	944.35
668.651	950.15
669.097	945.2
669.543	951.95
669.989	960.35
670.435	968.6
670.881	975.2
671.327	1014.75
671.773	1077.05
672.219	1153.25
672.665	1227.85
673.11	1270.1
673.556	1283.1
674.002	1312.45
674.448	1320.95
674.893	1134.45
675.339	998.25
675.785	916
676.23	871.65
676.676	831.3
677.122	813
677.567	790.9
678.013	764.8
678.458	763.95
678.904	758.5
679.349	746.3
679.794	751.45
680.24	743.7
680.685	735.3
681.131	740.25
681.576	739.75
682.021	746
682.466	753.3
682.912	766.45
683.357	798
683.802	863.9
684.247	940.65
684.692	998.2
685.137	1042.2
685.583	1065.1
686.028	1119.55
686.473	1061.8
686.918	924.5
687.363	852.8
687.807	807.35
688.252	767.15
688.697	741.65
689.142	722.55
689.587	723.35
690.032	741.6
690.477	766.25
690.921	803.6
691.366	844.85
691.811	883.85
692.255	954.45
692.7	1153.1
693.145	1669.55
693.589	2535.65
694.034	3011.7
694.478	3170.85
694.923	2894.35
695.367	4046.1
695.812	2515.1
696.256	1081.05
696.701	790.55
697.145	731
697.59	702.25
698.034	694.1
698.478	683.55
698.922	695.4
699.367	702.55
699.811	741.35
700.255	801.1
700.699	875.3
701.143	947.4
701.588	1006.95
702.032	1046.55
702.476	1078.95
702.92	1160.6
703.364	1517.5
703.808	2311.15
704.252	2881.3
704.696	3024.05
705.14	2824.75
705.584	3834.1
706.027	2180.2
706.471	1104.65
706.915	825.95
707.359	735.55
707.803	691.35
708.246	659.75
708.69	656.25
709.134	648.65
709.577	657.1
710.021	655.9
710.465	650
710.908	640.9
711.352	670.35
711.795	742.2
712.239	792.8
712.682	816.7
713.126	801.75
713.569	887.45
714.012	738.25
714.456	647.95
714.899	609.2
715.342	574.55
715.786	562.85
716.229	545.55
716.672	528.3
717.115	529.4
717.558	530.9
718.002	547.15
718.445	575
718.888	608.25
719.331	618.65
719.774	627.9
720.217	615.85
720.66	584.25
721.103	550.25
721.546	525.6
721.989	509.55
722.432	502.2
722.874	500.2
723.317	504.55
723.76	553.4
724.203	679.6
724.645	903.65
725.088	1061.1
725.531	1035.05
725.974	1126.75
726.416	1013.6
726.859	634.65
727.301	524
727.744	497.3
728.187	504.25
728.629	507.4
729.071	534.55
729.514	566.1
729.956	582.05
730.399	589.15
730.841	589
731.283	574.45
731.726	565
732.168	572.8
732.61	606.75
733.053	653.1
733.495	717.15
733.937	801.95
734.379	934.15
734.821	1196.7
735.263	1902.1
735.705	3417
736.148	4980.6
736.59	4960.9
737.032	5304.25
737.474	4393.75
737.916	1725.2
738.357	905.65
738.799	700.6
739.241	650.95
739.683	659.65
740.125	673.45
740.567	682.25
741.008	724.8
741.45	763.25
741.892	811.5
742.334	809.5
742.775	800.15
743.217	768.4
743.658	655.8
744.1	682.55
744.542	775.4
744.983	816.1
745.425	846.95
745.866	824.55
746.307	676.75
746.749	711.45
747.19	1040.1
747.632	2024.75
748.073	3727.8
748.514	5099
748.956	6750.8
749.397	7866.65
749.838	5448.9
750.279	5111.1
750.72	2704
751.162	1154.35
751.603	663.55
752.044	531.5
752.485	464.75
752.926	450.35
753.367	427
753.808	414.4
754.249	406.65
754.69	405.25
755.131	401
755.572	396.7
756.013	396.4
756.453	398.1
756.894	403.35
757.335	409.35
757.776	414.05
758.216	428.55
758.657	451.15
759.098	500.95
759.538	603.1
759.979	878.15
760.42	1781.35
760.86	4530.6
761.301	9284.6
761.741	10862.6
762.182	12279.2
762.622	8009.75
763.063	2900
763.503	1194.05
763.943	693.4
764.384	543.6
764.824	475.1
765.264	439.3
765.705	415.5
766.145	395.6
766.585	381.75
767.025	368.65
767.465	374
767.906	378.75
768.346	406
768.786	466.4
769.226	687.6
769.666	1379.85
770.106	3080.75
770.546	4347.25
770.986	4864.5
771.426	3691.8
771.866	1562
772.306	707.45
772.745	440.45
773.185	372.75
773.625	365.45
774.065	395.55
774.505	587.65
774.944	1065.9
775.384	1533.9
775.824	1698.45
776.263	1399.1
776.703	745.25
777.142	420.75
777.582	316.9
778.021	279.6
778.461	266.15
778.9	265.6
779.34	261.85
779.779	254.75
780.219	246.95
780.658	240.55
781.097	237.35
781.537	235.25
781.976	234.2
782.415	224.95
782.855	228.15
783.294	227.75
783.733	221.85
784.172	229.1
784.611	229.35
785.05	239.95
785.489	240.3
785.928	244.15
786.367	261.5
786.806	270.25
787.245	293.4
787.684	299
788.123	298.55
788.562	284
789.001	275.1
789.44	270.3
789.879	267.4
790.317	273.5
790.756	289.75
791.195	325.5
791.634	450.9
792.072	802.95
792.511	1954.85
792.95	3573.7
793.388	4269.1
793.827	2790.55
794.265	1304.7
794.704	628.25
795.142	382.85
795.581	317.4
796.019	289.8
796.458	290.95
796.896	289.85
797.334	336.75
797.773	460
798.211	868.55
798.649	1798.9
799.087	2994.85
799.526	4236.35
799.964	4330.9
800.402	3013.45
800.84	1371.15
801.278	677.6
801.716	413.7
802.154	329.55
802.592	312.1
803.03	314.15
803.468	326.65
803.906	324.45
804.344	315.5
804.782	310.2
805.22	309.3
805.658	326.1
806.096	340.35
806.533	383.8
806.971	493.35
807.409	720.3
807.847	1431.5
808.284	3619.4
808.722	6313.75
809.16	8812
809.597	12004.8
810.035	14510.15
810.472	9615.8
810.91	4140
811.347	1869.25
811.785	875.55
812.222	553.35
812.66	431.25
813.097	361.85
813.535	312.8
813.972	285.5
814.409	258.6
814.846	248.8
815.284	234.3
815.721	249.25
816.158	271.9
816.595	375.5
817.032	479.7
817.47	431
817.907	316.5
818.344	269.1
818.781	264.15
819.218	330.95
819.655	506.6
820.092	666.05
820.529	598.35
820.966	474.25
821.403	317.3
821.839	271.15
822.276	302.7
822.713	361.2
823.15	334.85
823.587	342.4
824.023	595.1
824.46	1468.85
824.897	2547.75
825.333	1995.05
825.77	926.75
826.206	486.6
826.643	290.4
827.08	216.65
827.516	189.9
827.953	176.25
828.389	164.9
828.825	156.5
829.262	149.05
829.698	147
830.135	141.95
830.571	137.8
831.007	143.3
831.443	141.15
831.88	141.65
832.316	145.35
832.752	143.9
833.188	147.95
833.624	152.65
834.06	150.95
834.497	149.15
834.933	156.2
835.369	169.8
835.805	176.6
836.241	184.95
836.677	210.3
837.112	234
837.548	294.1
837.984	434.65
838.42	938.05
838.856	2582.15
839.292	5046.1
839.727	3777.8
840.163	2571.05
840.599	3865.5
841.034	5855.65
841.47	2961.1
841.906	1448.9
842.341	783.25
842.777	593.65
843.212	607.4
843.648	387.55
844.083	259.45
844.519	194.3
844.954	160.5
845.39	143.4
845.825	137.25
846.261	136.05
846.696	129.15
847.131	123.5
847.566	129.4
848.002	124.2
848.437	135.75
848.872	138
849.307	180.8
849.742	325.85
850.177	839.6
850.613	1771.8
851.048	1286.95
851.483	595.8
851.918	329.3
852.353	182.15
852.788	128.1
853.223	122.45
853.657	107.55
854.092	108.65
854.527	100.75
854.962	110.55
855.397	120.2
855.832	105.05
856.266	90.85
856.701	91.5
857.136	99.55
857.57	121.3
858.005	153.05
858.44	124.7
858.874	115.65
859.309	117.1
859.743	113
860.178	112.4
860.612	122.6
861.047	172.4
861.481	236.5
861.915	164.45
862.35	119.15
862.784	97.9
863.218	90.4
863.653	101.75
864.087	124.75
864.521	153.3
864.955	246
865.39	415.95
865.824	333.6
866.258	440.45
866.692	674.4
867.126	489.95
867.56	266.95
867.994	169.3
868.428	140.4
868.862	172.35
869.296	158.3
869.73	187.5
870.164	166.2
870.598	154.2
871.031	105.55
871.465	91.2
871.899	81.15
872.333	65.2
872.766	68.2
873.2	72.35
873.634	66.15
874.067	71.15
874.501	71.15
874.935	71.4
875.368	72.85
875.802	63.9
876.235	61.25
876.669	59.9
877.102	52.4
877.535	55.4
877.969	50.8
878.402	51.2
878.836	55.5
879.269	55.6
879.702	52.05
880.135	58.5
880.569	59.95
881.002	56.05
881.435	48.7
881.868	49.45
882.301	43.75
882.734	41.9
883.167	54.05
883.601	49.65
884.034	49.55
884.467	41
884.899	42.15
885.332	35.65
885.765	39.9
886.198	41.4
886.631	40.4
887.064	42.15
887.497	38.75
887.929	42.6
888.362	44
888.795	41.45
889.228	42.15
889.66	39
890.093	40.8
890.526	41.85
890.958	42.2
891.391	41.8
891.823	35.45
892.256	43.65
892.688	38.75
893.121	34.9
893.553	44.55
893.985	34.55
894.418	35.15
894.85	45.1
895.282	40.6
895.715	35.35
896.147	33.4
896.579	34.6
897.011	39.75
897.444	42.35
897.876	33.75
898.308	36.35
898.74	36.4
899.172	41.25
899.604	43.55
900.036	38.85
900.468	38.9
900.9	40.2
901.332	50.8
901.764	56.3
902.196	53.6
902.628	54.55
903.06	77.65
903.491	89.15
903.923	64.2
904.355	65.8
904.787	68.7
905.218	57.85
905.65	52.55
906.082	53
906.513	45
906.945	45.6
907.376	43.65
907.808	44.7
908.239	46.25
908.671	55.2
909.102	60.9
909.534	86.35
909.965	161.2
910.397	421.6
910.828	1183.25
911.259	729.95
911.691	397.65
912.122	232.7
912.553	117.8
912.984	64.95
913.415	51.55
913.847	47.55
914.278	47.9
914.709	41.3
915.14	39.7
915.571	37.8
916.002	37.6
916.433	33.05
916.864	38.75
917.295	40.4
917.726	41.85
918.157	56.3
918.587	55.55
919.018	51.15
919.449	52.95
919.88	63.15
920.311	94.4
920.741	243.55
921.172	439.15
921.603	222.9
922.033	138.15
922.464	91.9
922.895	61
923.325	40.7
923.756	38.45
924.186	48.05
924.617	70.05
925.047	104.45
925.478	94.6
925.908	70.95
926.338	51.75
926.769	37.45
927.199	36.05
927.629	30.9
928.06	35.75
928.49	33.6
928.92	28.2
929.35	26.65
929.78	24.25
930.21	24.3
930.641	17.65
931.071	19.5
931.501	19.35
931.931	15.45
932.361	21.1
932.791	25.9
933.221	24.7
933.651	33.6
934.08	56.6
934.51	34.85
934.94	28.9
935.37	19.2
935.8	20.75
936.229	13.85
936.659	17.25
937.089	37.25
937.519	55
937.948	74.1
938.378	46.45
938.807	27.4
939.237	14.55
939.666	20.15
940.096	9.35
940.525	3.15
940.955	12.3
941.384	10.7
941.814	13.7
942.243	5.9
942.672	8.05
943.102	4.2
943.531	5.65
943.96	4.65
944.39	8.5
944.819	11.25
945.248	12.6
945.677	9.4
946.106	10.55
946.535	11.15
946.964	6.4
947.393	8.45
947.822	10.35
948.251	14.55
948.68	7.95
949.109	10.4
949.538	5.9
949.967	6.55
950.396	7.4
950.825	11.9
951.254	10.4
951.682	4.05
952.111	5.35
952.54	3.8
952.969	7.7
953.397	5.7
953.826	3.3
954.254	12.25
954.683	7.3
955.112	13.05
955.54	6.8
955.969	7.75
956.397	8.65
956.826	3.6
957.254	5.85
957.682	6.5
958.111	10.65
958.539	9.35
958.967	5.45
959.396	10.9
959.824	8.25
960.252	7.15
960.68	5.55
961.109	7.45
961.537	11.1
961.965	3.85
962.393	1.25
962.821	10.25
963.249	6.65
963.677	15.05
964.105	66.6
964.533	127.15
964.961	60.2
965.389	39.05
965.817	16.9
966.245	7.55
966.672	6.85
967.1	11.4
967.528	4.75
967.956	2.3
968.383	7.25
968.811	3.5
969.239	5.45
969.666	6.45
970.094	3.15
970.522	1.45
970.949	4.05
971.377	-4.5
971.804	0.4
972.232	8.25
972.659	4.85
973.087	4.9
973.514	3.4
973.941	-0.2
974.369	2.2
974.796	1.45
975.223	1.75
975.651	5.65
976.078	5.2
976.505	9.95
976.932	32.6
977.359	36.75
977.786	23.5
978.214	16
978.641	7.1
979.068	5.55
979.495	4.35
979.922	2.8
980.349	6.75
980.776	6.6
981.202	2.9
981.629	7.35
982.056	5.1
982.483	-1.9
982.91	7.05
983.337	1.3
983.763	5
984.19	7.2
984.617	-0.6
985.043	6.2
985.47	7.9
985.897	7.15
986.323	5.75
986.75	2.85
987.176	2.6
987.603	1.6
988.029	5.75
988.456	8.1
988.882	-0.9
989.308	-1.3
989.735	1.1
990.161	0.8
990.587	1.7
991.014	0.1
991.44	4.05
991.866	3.05
992.292	2.35
992.719	1.65
993.145	4.35
993.571	6.75
993.997	6.2
994.423	9.1
994.849	-1.7
995.275	1.1
995.701	2.2
996.127	-2.25
996.553	3.1
996.979	0.55
997.405	4.8
997.83	-0.85
998.256	8.2
998.682	6.7
999.108	-0.45
999.534	-0.45
999.959	0.9
1000.385	8.15
1000.811	-1.7
1001.236	-1.9
1001.662	-0.2
1002.087	4.75
1002.513	1.25
1002.938	-1.4
1003.364	2.6
1003.789	7
1004.215	3.05
1004.64	0.3
1005.066	5.45
1005.491	3
1005.916	-1.65
1006.342	4.6
1006.767	2.75
1007.192	6.4
1007.617	6.25
1008.042	-1.9
1008.468	4.75
1008.893	10.05
1009.318	16.6
1009.743	16.65
1010.168	28.65
1010.593	23.9
1011.018	15.85
1011.443	8.55
1011.868	7.95
1012.293	2.55
1012.718	2.6
1013.143	-0.4
1013.567	6.45
1013.992	7.35
1014.417	2.8
1014.842	1
1015.267	0.85
1015.691	2.9
1016.116	1.1
1016.541	12
1016.965	2.25
1017.39	4.05
1017.814	-0.75
1018.239	1.9
1018.663	-3
1019.088	-1.4
1019.512	7.65
1019.937	-0.55
1020.361	3.8
1020.785	-4.1
1021.21	-4.9
1021.634	-1.1
1022.058	-2.05
1022.483	-3.15
1022.907	-1.05
1023.331	-1.95
1023.755	-2.75
1024.179	3.6
1024.604	0.15
1025.028	1.35
1025.452	2.35
1025.876	4.05
1026.3	1.25
1026.724	0.8
1027.148	2.6
1027.572	-3.6
1027.996	3.45
1028.42	2.35
1028.843	3.3
1029.267	0.5
1029.691	6.35
1030.115	-0.15
1030.539	1.2
1030.962	-1.6
1031.386	-2.55
1031.81	-3.65
1032.233	-5.25
1032.657	-6.2
1033.08	-1.85
1033.504	-1.35
1033.927	4.3
1034.351	-5.5
1034.774	-0.95
1035.198	-3.6
1035.621	1.6
1036.045	-2.4
1036.468	1.2
1036.891	-3
1037.315	-0.45
1037.738	-3.05
1038.161	0.45
1038.584	-0.2
1039.008	-6.7
1039.431	-0.65
1039.854	-6.1
1040.277	0.85
1040.7	-2.25
1041.123	-0.85
1041.546	2.55
1041.969	2.55
1042.392	2.85
1042.815	-7.25
1043.238	-3.15
1043.661	-0.5
1044.084	-0.7
1044.507	3.25
1044.93	-1.35
1045.352	1.15
1045.775	0.55
1046.198	3.6
1046.621	0.85
1047.043	0.3
1047.466	1.45
1047.889	-2.1
1048.311	5.1
1048.734	-3.7
1049.156	-2.85
1049.579	0.8
1050.001	-3.3
1050.424	0.1
1050.846	-5.95
1051.269	1.85
1051.691	-1.05
1052.113	0.2
1052.536	-7.35
1052.958	-7.85
1053.38	-2.45
1053.802	-2.15
1054.225	2.2
1054.647	2.1
1055.069	-0.4
1055.491	-0.65
1055.913	0.25
1056.335	-8.6
1056.757	-4.5
1057.179	-1.7
1057.601	-3.2
1058.023	0.4
1058.445	-4.25
1058.867	2.45
1059.289	1
1059.711	-1.5
1060.133	-2.8
1060.555	-3.6
1060.976	1.35
1061.398	-4.3
1061.82	-0.9
1062.241	-2.25
1062.663	0.05
1063.085	-5.65
1063.506	-4.85
1063.928	-3.6
1064.35	-1.6
1064.771	-0.65
1065.193	-4.2
1065.614	-0.5
1066.035	1.5
1066.457	0.15
1066.878	0.4
1067.3	-0.05
1067.721	2.85
1068.142	2.6
1068.564	-1.8
1068.985	-1.1
1069.406	-4.25
1069.827	-1.7
1070.248	0.15
1070.67	-0.6
1071.091	-5.95
1071.512	-4.7
1071.933	-2.35
1072.354	-7.4
1072.775	-4.4
1073.196	-0.3
1073.617	-6.65
1074.038	-0.2
1074.459	-4.6
1074.88	-5.45
1075.3	-2.55
1075.721	1.6
1076.142	-4.65
1076.563	-11.05
1076.983	-0.7
1077.404	-8.15
1077.825	2.05
1078.246	-5.35
1078.666	-5.45
1079.087	-5.55
1079.507	-4.15
1079.928	-3.8
1080.348	-0.4
1080.769	3.55
1081.189	-4.9
1081.61	-4.2
1082.03	-0.8
1082.451	1
1082.871	-0.5
1083.291	-3.9
1083.711	-2.4
1084.132	-2.9
1084.552	-5.1
1084.972	-6.75
1085.392	-1.15
1085.813	0.8
1086.233	-3.55
1086.653	-2.6
1087.073	-0.95
1087.493	-1.8
1087.913	-3.65
1088.333	-4.6
1088.753	-4.1
1089.173	3.2
1089.593	-1
1090.013	-5.5
1090.433	-6.45
1090.852	-4.2
1091.272	-4
1091.692	-3.75
1092.112	-2.7
1092.531	-5.85
1092.951	-0.8
1093.371	-4.85
1093.79	-0.2
1094.21	-0.95
1094.63	-4.9
1095.049	-3.9
1095.469	-10.6
1095.888	1.6
1096.308	-1.45
1096.727	-5.5
1097.146	-7.75
1097.566	-4.15
1097.985	-3.7
1098.405	-4.3
1098.824	-2.45
1099.243	-2.4
1099.662	-0.4
1100.082	-3.05
1100.501	-1.85
1100.92	2.8
1101.339	-0.25
1101.758	-0.15
