Data from MSPlasma+Separation6_Subt14_10-14-36-098.txt Node
Date: Fri Jul 21 10:14:36 EDT 2017
User: Ender
Spectrometer: HR+D1039
Trigger mode: 0
Integration Time (sec): 6.430000E-3
Scans to average: 20
Electric dark correction enabled: true
Nonlinearity correction enabled: false
Boxcar width: 0
XAxis mode: Wavelengths
Number of Pixels in Spectrum: 2048
>>>>>Begin Spectral Data<<<<<
187.836	-1.71
188.309	-1.71
188.782	-1.71
189.255	3.69
189.728	1.84
190.201	-2.41
190.674	-2.46
191.147	-0.81
191.619	-0.56
192.092	-0.81
192.565	-4.66
193.038	0.24
193.511	1.34
193.984	-1.46
194.456	1.84
194.929	1.09
195.402	1.74
195.874	3.04
196.347	0.54
196.82	-1.56
197.292	-1.51
197.765	1.49
198.237	-1.46
198.71	-0.66
199.182	-1.06
199.655	2.99
200.127	2.44
200.6	-3.36
201.072	3.79
201.544	-3.91
202.017	0.79
202.489	-0.86
202.961	-2.56
203.433	-6.01
203.906	-4.66
204.378	-1.26
204.85	-3.96
205.322	-1.11
205.794	1.59
206.266	0.14
206.739	3.19
207.211	4.54
207.683	-1.11
208.155	5.09
208.627	3.39
209.099	1.79
209.57	1.29
210.042	0.59
210.514	4.79
210.986	-1.56
211.458	-3.96
211.93	-0.06
212.402	-0.06
212.873	-0.51
213.345	-2.81
213.817	-1.16
214.288	-2.06
214.76	4.94
215.232	0.24
215.703	1.54
216.175	2.29
216.646	-1.06
217.118	1.24
217.589	-0.61
218.061	2.39
218.532	-2.76
219.004	6.64
219.475	2.39
219.946	6.54
220.418	5.19
220.889	4.24
221.36	7.99
221.832	8.19
222.303	3.09
222.774	2.64
223.245	3.89
223.717	0.84
224.188	3.84
224.659	4.04
225.13	0.44
225.601	4.19
226.072	2.99
226.543	7.09
227.014	2.64
227.485	8.29
227.956	5.04
228.427	10.84
228.898	6.04
229.369	9.69
229.839	10.89
230.31	10.79
230.781	12.19
231.252	9.54
231.722	10.44
232.193	7.29
232.664	10.69
233.135	8.44
233.605	8.89
234.076	19.34
234.546	13.89
235.017	13.89
235.487	14.24
235.958	9.74
236.428	15.24
236.899	10.49
237.369	16.89
237.84	16.39
238.31	18.14
238.78	7.99
239.251	17.89
239.721	13.99
240.191	15.94
240.662	19.39
241.132	17.09
241.602	15.49
242.072	17.39
242.542	15.49
243.013	17.09
243.483	22.64
243.953	17.84
244.423	21.69
244.893	23.39
245.363	24.54
245.833	24.04
246.303	19.64
246.773	26.54
247.243	20.19
247.712	25.99
248.182	29.74
248.652	25.94
249.122	27.04
249.592	29.14
250.061	28.69
250.531	28.14
251.001	30.64
251.471	29.04
251.94	36.29
252.41	29.49
252.879	36.34
253.349	34.09
253.818	30.84
254.288	37.99
254.757	33.44
255.227	37.29
255.696	33.24
256.166	38.04
256.635	35.74
257.105	39.99
257.574	40.19
258.043	35.39
258.513	41.89
258.982	36.49
259.451	41.54
259.92	35.74
260.389	48.89
260.859	39.19
261.328	43.59
261.797	39.19
262.266	47.24
262.735	52.19
263.204	38.39
263.673	46.89
264.142	42.89
264.611	47.14
265.08	48.34
265.549	46.54
266.018	50.94
266.487	50.59
266.955	48.89
267.424	50.74
267.893	56.34
268.362	50.29
268.83	55.39
269.299	47.74
269.768	53.99
270.236	54.19
270.705	61.04
271.174	56.39
271.642	50.24
272.111	57.34
272.579	61.19
273.048	59.19
273.516	63.79
273.985	65.24
274.453	62.14
274.922	59.34
275.39	61.89
275.858	65.29
276.327	62.49
276.795	64.84
277.263	69.44
277.731	67.14
278.2	68.59
278.668	68.69
279.136	73.29
279.604	71.39
280.072	67.59
280.54	71.74
281.008	74.19
281.477	79.14
281.945	72.34
282.413	74.24
282.881	77.89
283.348	69.74
283.816	76.49
284.284	82.54
284.752	79.39
285.22	80.94
285.688	79.19
286.156	86.89
286.623	84.29
287.091	83.14
287.559	84.49
288.026	86.49
288.494	84.24
288.962	90.84
289.429	86.54
289.897	86.29
290.364	89.04
290.832	92.69
291.3	92.04
291.767	93.74
292.234	97.24
292.702	89.69
293.169	91.24
293.637	98.59
294.104	96.19
294.571	97.44
295.039	98.89
295.506	97.94
295.973	100.64
296.44	98.34
296.908	101.79
297.375	105.54
297.842	107.54
298.309	101.79
298.776	109.19
299.243	109.94
299.71	110.79
300.177	104.19
300.644	113.34
301.111	116.29
301.578	115.34
302.045	116.94
302.512	111.09
302.979	115.64
303.446	120.34
303.913	122.14
304.379	127.79
304.846	129.59
305.313	133.64
305.78	133.69
306.246	130.69
306.713	133.89
307.18	134.04
307.646	138.64
308.113	139.79
308.579	135.79
309.046	141.59
309.512	145.14
309.979	147.49
310.445	146.54
310.912	152.24
311.378	155.99
311.845	152.24
312.311	152.34
312.777	148.69
313.244	155.84
313.71	155.39
314.176	160.09
314.642	163.69
315.109	159.79
315.575	159.04
316.041	161.19
316.507	159.29
316.973	168.29
317.439	168.24
317.905	172.79
318.371	169.59
318.837	168.14
319.303	171.54
319.769	171.54
320.235	174.99
320.701	183.29
321.167	171.59
321.633	179.04
322.099	177.84
322.564	178.89
323.03	184.94
323.496	181.19
323.962	187.24
324.427	190.89
324.893	189.19
325.359	190.49
325.824	197.34
326.29	194.49
326.755	190.64
327.221	195.49
327.686	209.49
328.152	210.04
328.617	205.64
329.083	214.14
329.548	215.79
330.014	217.94
330.479	217.19
330.944	215.69
331.41	224.94
331.875	217.19
332.34	217.79
332.805	223.14
333.271	218.74
333.736	224.34
334.201	222.54
334.666	241.99
335.131	240.79
335.596	244.14
336.061	232.64
336.526	238.74
336.991	227.79
337.456	231.19
337.921	234.24
338.386	222.09
338.851	229.74
339.316	226.34
339.781	231.39
340.246	241.04
340.711	238.24
341.175	245.04
341.64	250.89
342.105	249.24
342.569	267.04
343.034	259.14
343.499	260.64
343.963	266.99
344.428	270.94
344.893	272.39
345.357	276.24
345.822	273.99
346.286	279.69
346.751	284.84
347.215	290.19
347.679	299.99
348.144	316.24
348.608	311.84
349.073	314.54
349.537	321.34
350.001	327.74
350.465	325.34
350.93	321.99
351.394	324.79
351.858	333.19
352.322	334.69
352.786	338.89
353.25	339.64
353.715	344.74
354.179	357.04
354.643	361.64
355.107	370.84
355.571	360.99
356.035	365.99
356.498	360.69
356.962	354.44
357.426	360.54
357.89	355.49
358.354	347.64
358.818	347.69
359.281	354.44
359.745	360.54
360.209	355.24
360.673	360.04
361.136	356.34
361.6	362.49
362.064	369.59
362.527	374.54
362.991	380.54
363.454	370.64
363.918	379.74
364.381	380.94
364.845	379.24
365.308	383.94
365.772	388.44
366.235	384.24
366.698	385.74
367.162	381.89
367.625	387.44
368.088	396.79
368.552	393.84
369.015	399.19
369.478	397.04
369.941	400.74
370.404	406.89
370.867	403.29
371.331	408.39
371.794	414.89
372.257	424.34
372.72	419.04
373.183	421.69
373.646	420.94
374.109	424.59
374.572	429.99
375.035	428.54
375.497	438.34
375.96	439.64
376.423	448.34
376.886	450.24
377.349	457.19
377.811	451.94
378.274	462.84
378.737	456.49
379.199	462.99
379.662	465.24
380.125	470.14
380.587	475.34
381.05	481.94
381.512	495.09
381.975	495.09
382.437	510.14
382.9	504.99
383.362	507.69
383.825	511.14
384.287	513.64
384.75	508.89
385.212	516.34
385.674	525.44
386.136	531.19
386.599	521.54
387.061	523.44
387.523	527.84
387.985	533.34
388.447	537.39
388.91	539.49
389.372	539.49
389.834	541.64
390.296	525.99
390.758	539.49
391.22	536.14
391.682	543.04
392.144	548.64
392.606	551.99
393.068	564.29
393.529	587.09
393.991	605.44
394.453	574.39
394.915	560.19
395.377	544.49
395.838	561.49
396.3	557.09
396.762	556.09
397.224	562.59
397.685	558.94
398.147	568.59
398.608	574.79
399.07	579.89
399.531	575.64
399.993	591.49
400.454	603.89
400.916	604.69
401.377	613.19
401.839	618.49
402.3	621.64
402.762	646.29
403.223	684.14
403.684	687.24
404.145	665.09
404.607	650.54
405.068	633.29
405.529	650.44
405.99	664.74
406.451	663.29
406.913	658.89
407.374	669.64
407.835	665.79
408.296	674.84
408.757	680.34
409.218	701.44
409.679	705.19
410.14	708.74
410.601	724.64
411.062	727.19
411.522	737.79
411.983	728.49
412.444	734.29
412.905	750.39
413.366	779.19
413.826	814.94
414.287	910.84
414.748	1091.89
415.208	1113.14
415.669	936.49
416.13	848.54
416.59	829.39
417.051	864.79
417.511	901.59
417.972	965.19
418.432	1041.09
418.893	1155.64
419.353	1112.14
419.814	852.09
420.274	759.99
420.734	752.84
421.195	770.24
421.655	762.39
422.115	785.84
422.576	777.44
423.036	781.24
423.496	819.24
423.956	846.54
424.416	898.49
424.876	1007.19
425.336	1011.19
425.797	994.49
426.257	983.74
426.717	926.54
427.177	865.09
427.637	875.99
428.097	899.64
428.556	935.84
429.016	997.64
429.476	1000.29
429.936	985.89
430.396	983.94
430.856	1000.24
431.315	1017.99
431.775	1090.69
432.235	1184.99
432.694	1196.49
433.154	1124.49
433.614	1103.14
434.073	1066.49
434.533	967.19
434.993	931.59
435.452	935.54
435.912	905.24
436.371	912.19
436.83	901.14
437.29	890.39
437.749	870.99
438.209	858.89
438.668	870.09
439.127	882.54
439.587	864.84
440.046	847.14
440.505	870.04
440.964	864.49
441.424	894.14
441.883	911.04
442.342	865.24
442.801	823.54
443.26	844.94
443.719	836.09
444.178	832.84
444.637	842.19
445.096	850.39
445.555	861.49
446.014	853.74
446.473	852.14
446.932	852.79
447.391	865.24
447.849	883.39
448.308	858.34
448.767	869.69
449.226	884.49
449.685	887.74
450.143	930.09
450.602	935.59
451.061	884.99
451.519	889.59
451.978	867.59
452.436	871.09
452.895	879.39
453.353	880.44
453.812	859.94
454.27	866.49
454.729	868.39
455.187	878.74
455.646	884.14
456.104	876.99
456.562	890.89
457.021	911.39
457.479	870.09
457.937	900.89
458.395	927.84
458.854	912.09
459.312	899.24
459.77	907.09
460.228	921.04
460.686	933.29
461.144	932.29
461.602	923.94
462.06	928.84
462.518	949.69
462.976	940.99
463.434	959.74
463.892	962.24
464.35	971.69
464.808	993.19
465.266	1003.04
465.724	1018.69
466.181	1022.29
466.639	1025.84
467.097	1058.39
467.555	1097.79
468.012	1085.59
468.47	1091.79
468.928	1137.14
469.385	1161.54
469.843	1181.39
470.3	1172.79
470.758	1210.14
471.215	1227.39
471.673	1246.29
472.13	1293.24
472.588	1317.04
473.045	1308.59
473.503	1326.19
473.96	1375.14
474.417	1393.79
474.875	1449.79
475.332	1514.14
475.789	1530.39
476.246	1577.64
476.704	1642.49
477.161	1698.39
477.618	1731.54
478.075	1807.24
478.532	1945.99
478.989	2080.64
479.446	2288.19
479.903	2404.19
480.36	2600.24
480.817	2750.09
481.274	2911.49
481.731	3162.99
482.188	3397.44
482.645	3637.24
483.102	3822.64
483.558	4090.04
484.015	4249.79
484.472	4253.59
484.929	4139.24
485.385	3955.89
485.842	3874.64
486.299	3737.84
486.755	3449.49
487.212	3132.24
487.668	2826.94
488.125	2649.49
488.582	2465.44
489.038	2359.64
489.494	2296.34
489.951	2241.69
490.407	2188.49
490.864	2148.34
491.32	2094.14
491.776	2078.09
492.233	2088.84
492.689	2064.39
493.145	2026.49
493.602	1991.74
494.058	2024.39
494.514	2022.54
494.97	2025.59
495.426	2058.84
495.882	2054.79
496.338	2049.04
496.794	2063.74
497.251	2051.74
497.707	2082.89
498.163	2077.19
498.618	2085.59
499.074	2079.19
499.53	2108.89
499.986	2114.64
500.442	2100.04
500.898	2079.04
501.354	2093.64
501.809	2104.34
502.265	2099.04
502.721	2107.34
503.177	2122.64
503.632	2126.44
504.088	2135.84
504.543	2140.69
504.999	2176.69
505.455	2169.14
505.91	2152.79
506.366	2146.44
506.821	2155.04
507.277	2160.49
507.732	2151.84
508.187	2162.89
508.643	2173.59
509.098	2182.09
509.553	2193.44
510.009	2224.89
510.464	2262.99
510.919	2275.79
511.375	2313.94
511.83	2327.04
512.285	2361.44
512.74	2422.94
513.195	2442.49
513.65	2478.49
514.105	2514.19
514.56	2520.04
515.015	2559.94
515.47	2577.94
515.925	2541.19
516.38	2545.64
516.835	2543.94
517.29	2547.04
517.745	2531.84
518.2	2501.24
518.655	2455.34
519.109	2426.79
519.564	2388.29
520.019	2370.54
520.474	2365.24
520.928	2334.99
521.383	2323.29
521.838	2312.44
522.292	2299.94
522.747	2275.79
523.201	2274.64
523.656	2246.64
524.11	2253.14
524.565	2243.99
525.019	2236.94
525.474	2238.24
525.928	2228.79
526.382	2232.14
526.837	2231.54
527.291	2227.24
527.745	2212.79
528.2	2212.59
528.654	2196.49
529.108	2197.39
529.562	2197.29
530.016	2204.19
530.47	2199.54
530.925	2201.69
531.379	2200.59
531.833	2222.44
532.287	2214.94
532.741	2212.54
533.195	2204.09
533.649	2211.09
534.103	2213.84
534.556	2194.04
535.01	2209.94
535.464	2188.84
535.918	2196.34
536.372	2215.54
536.826	2195.94
537.279	2190.49
537.733	2197.74
538.187	2201.99
538.64	2211.04
539.094	2209.14
539.548	2247.49
540.001	2237.44
540.455	2260.24
540.908	2261.79
541.362	2292.14
541.815	2292.29
542.269	2340.74
542.722	2344.84
543.175	2366.59
543.629	2380.04
544.082	2409.94
544.536	2419.89
544.989	2424.39
545.442	2446.89
545.895	2445.84
546.349	2434.29
546.802	2454.94
547.255	2448.64
547.708	2465.49
548.161	2487.79
548.614	2496.09
549.067	2505.09
549.52	2472.29
549.973	2456.59
550.426	2452.14
550.879	2431.94
551.332	2434.14
551.785	2458.34
552.238	2482.94
552.691	2479.29
553.144	2517.24
553.596	2558.44
554.049	2585.59
554.502	2650.59
554.955	2679.24
555.407	2716.89
555.86	2684.14
556.313	2660.24
556.765	2640.49
557.218	2606.44
557.67	2597.64
558.123	2568.84
558.576	2547.99
559.028	2548.89
559.48	2580.64
559.933	2551.39
560.385	2479.89
560.838	2404.39
561.29	2324.54
561.742	2323.09
562.195	2269.69
562.647	2254.79
563.099	2231.89
563.551	2232.84
564.004	2254.04
564.456	2227.49
564.908	2180.79
565.36	2135.09
565.812	2085.19
566.264	2061.14
566.716	2046.59
567.168	2004.94
567.62	2015.94
568.072	2008.99
568.524	1987.24
568.976	1970.04
569.428	1953.09
569.88	1956.24
570.332	1971.19
570.784	1978.44
571.235	1962.84
571.687	1996.24
572.139	1984.74
572.59	2005.39
573.042	2015.54
573.494	2012.44
573.945	1981.49
574.397	1938.34
574.849	1935.94
575.3	1937.34
575.752	1910.59
576.203	1887.59
576.655	1905.79
577.106	1876.84
577.557	1866.09
578.009	1860.04
578.46	1869.09
578.912	1842.99
579.363	1863.14
579.814	1849.84
580.265	1848.09
580.717	1854.34
581.168	1855.89
581.619	1864.34
582.07	1880.29
582.521	1877.74
582.972	1864.84
583.423	1874.69
583.875	1876.69
584.326	1890.84
584.777	1933.74
585.227	1966.39
585.678	2002.84
586.129	2020.34
586.58	2028.74
587.031	2068.64
587.482	2121.04
587.933	2164.29
588.384	2148.29
588.834	2112.29
589.285	2093.09
589.736	2089.99
590.186	2097.29
590.637	2085.49
591.088	2031.99
591.538	1986.39
591.989	1967.64
592.439	1938.09
592.89	1919.14
593.34	1919.29
593.791	1896.34
594.241	1887.74
594.692	1879.24
595.142	1885.74
595.593	1878.24
596.043	1889.79
596.493	1912.89
596.943	1907.64
597.394	1945.79
597.844	1971.94
598.294	2020.94
598.744	2093.24
599.195	2195.09
599.645	2305.94
600.095	2426.19
600.545	2536.29
600.995	2653.74
601.445	2742.14
601.895	2872.54
602.345	2967.89
602.795	2935.19
603.245	2812.89
603.695	2648.94
604.145	2501.69
604.594	2391.79
605.044	2279.59
605.494	2126.14
605.944	2016.64
606.393	1959.64
606.843	1923.29
607.293	1921.74
607.743	1902.69
608.192	1920.34
608.642	1924.89
609.091	1923.49
609.541	1921.24
609.99	1926.04
610.44	1874.04
610.889	1851.94
611.339	1837.19
611.788	1813.74
612.238	1815.09
612.687	1823.44
613.136	1826.84
613.586	1848.29
614.035	1830.84
614.484	1855.49
614.933	1841.54
615.383	1810.74
615.832	1766.14
616.281	1741.09
616.73	1709.69
617.179	1671.69
617.628	1643.89
618.077	1623.74
618.526	1589.59
618.975	1591.04
619.424	1566.44
619.873	1570.79
620.322	1549.89
620.771	1551.29
621.22	1518.09
621.669	1486.44
622.118	1484.19
622.567	1471.99
623.015	1433.64
623.464	1441.74
623.913	1420.39
624.361	1414.79
624.81	1419.44
625.259	1416.24
625.707	1406.89
626.156	1412.39
626.604	1441.34
627.053	1442.04
627.501	1446.24
627.95	1454.19
628.398	1468.74
628.847	1451.64
629.295	1437.99
629.744	1438.69
630.192	1405.44
630.64	1386.69
631.089	1376.24
631.537	1332.19
631.985	1319.24
632.433	1306.64
632.881	1305.09
633.33	1321.04
633.778	1308.64
634.226	1313.44
634.674	1337.84
635.122	1340.29
635.57	1364.14
636.018	1384.49
636.466	1389.14
636.914	1385.54
637.362	1407.84
637.81	1422.79
638.258	1472.44
638.705	1493.24
639.153	1537.09
639.601	1541.64
640.049	1576.14
640.497	1625.69
640.944	1668.99
641.392	1597.49
641.84	1505.99
642.287	1437.74
642.735	1402.39
643.182	1384.59
643.63	1386.19
644.078	1388.19
644.525	1411.29
644.973	1447.64
645.42	1474.74
645.867	1503.84
646.315	1538.74
646.762	1591.34
647.21	1636.39
647.657	1706.69
648.104	1769.09
648.551	1812.84
648.999	1949.74
649.446	2131.89
649.893	2387.89
650.34	2753.69
650.787	3375.89
651.234	4312.34
651.682	5917.69
652.129	8333.64
652.576	11791.09
653.023	15281.64
653.47	15536.69
653.917	15536.74
654.363	15536.64
654.81	15533.64
655.257	15534.29
655.704	15141.79
656.151	9274.74
656.598	6112.34
657.044	4402.34
657.491	3458.64
657.938	2823.04
658.385	2412.79
658.831	2138.59
659.278	1915.69
659.724	1774.94
660.171	1655.24
660.618	1526.74
661.064	1452.69
661.511	1402.54
661.957	1363.09
662.404	1334.54
662.85	1326.04
663.296	1309.34
663.743	1274.54
664.189	1262.99
664.635	1245.74
665.082	1231.69
665.528	1215.44
665.974	1189.79
666.42	1156.14
666.867	1154.74
667.313	1098.89
667.759	1087.94
668.205	1077.64
668.651	1077.94
669.097	1084.94
669.543	1080.59
669.989	1089.14
670.435	1092.34
670.881	1112.49
671.327	1159.19
671.773	1233.09
672.219	1324.49
672.665	1412.99
673.11	1462.19
673.556	1482.04
674.002	1513.39
674.448	1527.29
674.893	1312.59
675.339	1143.54
675.785	1051.54
676.23	992.14
676.676	961.14
677.122	929.74
677.567	918.59
678.013	875.24
678.458	883.89
678.904	872.89
679.349	860.84
679.794	860.84
680.24	853.59
680.685	850.94
681.131	853.54
681.576	854.39
682.021	868.49
682.466	860.94
682.912	879.09
683.357	921.54
683.802	999.19
684.247	1084.74
684.692	1155.74
685.137	1212.69
685.583	1236.39
686.028	1294.29
686.473	1240.69
686.918	1076.59
687.363	983.49
687.807	937.64
688.252	886.59
688.697	847.49
689.142	823.04
689.587	833.09
690.032	842.79
690.477	877.39
690.921	922.29
691.366	966.34
691.811	1012.29
692.255	1097.94
692.7	1329.84
693.145	1920.69
693.589	2926.24
694.034	3478.84
694.478	3711.34
694.923	3422.74
695.367	4874.99
695.812	2970.79
696.256	1246.39
696.701	906.89
697.145	844.29
697.59	801.84
698.034	789.59
698.478	788.54
698.922	788.79
699.367	816.64
699.811	855.54
700.255	919.09
700.699	1014.79
701.143	1100.04
701.588	1154.44
702.032	1215.49
702.476	1251.29
702.92	1337.54
703.364	1747.39
703.808	2687.94
704.252	3341.24
704.696	3537.34
705.14	3351.34
705.584	4616.34
706.027	2565.24
706.471	1280.34
706.915	955.69
707.359	851.24
707.803	791.24
708.246	764.69
708.69	755.49
709.134	744.99
709.577	746.84
710.021	749.19
710.465	746.59
710.908	737.99
711.352	773.39
711.795	859.84
712.239	921.19
712.682	934.99
713.126	926.89
713.569	1024.94
714.012	846.89
714.456	736.84
714.899	694.54
715.342	663.74
715.786	640.49
716.229	625.79
716.672	611.79
717.115	610.04
717.558	617.34
718.002	633.49
718.445	663.44
718.888	697.04
719.331	711.24
719.774	718.69
720.217	709.49
720.66	676.19
721.103	638.19
721.546	602.09
721.989	587.94
722.432	580.59
722.874	576.59
723.317	577.29
723.76	631.14
724.203	771.69
724.645	1046.14
725.088	1228.14
725.531	1197.89
725.974	1324.59
726.416	1194.64
726.859	734.74
727.301	602.39
727.744	575.64
728.187	578.74
728.629	584.99
729.071	613.39
729.514	647.44
729.956	670.84
730.399	681.34
730.841	686.34
731.283	670.74
731.726	642.34
732.168	662.24
732.61	696.59
733.053	753.99
733.495	835.54
733.937	927.24
734.379	1090.94
734.821	1377.14
735.263	2212.84
735.705	3969.14
736.148	5828.29
736.59	5866.94
737.032	6389.64
737.474	5298.84
737.916	2011.89
738.357	1055.49
738.799	810.09
739.241	749.54
739.683	749.89
740.125	768.29
740.567	767.09
741.008	810.54
741.45	857.34
741.892	893.69
742.334	900.79
742.775	899.74
743.217	852.24
743.658	731.99
744.1	755.94
744.542	859.34
744.983	881.39
745.425	927.64
745.866	904.54
746.307	765.39
746.749	810.84
747.19	1189.54
747.632	2320.69
748.073	4337.04
748.514	6005.74
748.956	7977.64
749.397	9356.94
749.838	6470.34
750.279	6186.99
750.72	3187.19
751.162	1352.29
751.603	770.99
752.044	616.34
752.485	545.74
752.926	510.94
753.367	484.74
753.808	478.44
754.249	468.19
754.69	465.39
755.131	459.04
755.572	456.34
756.013	455.04
756.453	457.99
756.894	467.54
757.335	466.39
757.776	477.29
758.216	490.49
758.657	514.24
759.098	568.69
759.538	692.39
759.979	1003.64
760.42	2043.39
760.86	5240.94
761.301	10801.94
761.741	12722.79
762.182	14598.54
762.622	9535.94
763.063	3396.99
763.503	1387.84
763.943	811.04
764.384	642.09
764.824	562.04
765.264	520.89
765.705	484.54
766.145	456.89
766.585	444.59
767.025	426.19
767.465	430.84
767.906	438.54
768.346	468.64
768.786	543.94
769.226	791.34
769.666	1601.59
770.106	3607.79
770.546	5138.54
770.986	5841.24
771.426	4428.04
771.866	1833.19
772.306	824.64
772.745	510.94
773.185	426.19
773.625	413.04
774.065	440.39
774.505	610.99
774.944	1081.14
775.384	1529.09
775.824	1723.94
776.263	1437.59
776.703	774.54
777.142	457.44
777.582	346.04
778.021	314.39
778.461	306.94
778.9	305.49
779.34	295.59
779.779	287.04
780.219	282.84
780.658	277.19
781.097	276.49
781.537	266.09
781.976	266.14
782.415	262.84
782.855	261.39
783.294	261.54
783.733	258.09
784.172	261.54
784.611	262.24
785.05	272.29
785.489	277.09
785.928	287.89
786.367	293.59
786.806	310.59
787.245	338.74
787.684	345.49
788.123	340.39
788.562	329.34
789.001	315.94
789.44	306.14
789.879	314.49
790.317	312.09
790.756	330.44
791.195	375.89
791.634	508.64
792.072	927.09
792.511	2263.99
792.95	4209.79
793.388	5115.64
793.827	3321.74
794.265	1508.24
794.704	729.84
795.142	444.79
795.581	366.29
796.019	338.49
796.458	337.44
796.896	341.69
797.334	393.94
797.773	525.44
798.211	1015.74
798.649	2107.14
799.087	3551.64
799.526	5013.34
799.964	5213.44
800.402	3581.74
800.84	1608.94
801.278	786.19
801.716	478.19
802.154	389.84
802.592	367.29
803.03	361.84
803.468	378.09
803.906	372.74
804.344	364.49
804.782	366.44
805.22	357.09
805.658	375.39
806.096	396.14
806.533	443.79
806.971	569.79
807.409	829.24
807.847	1654.69
808.284	4226.39
808.722	7403.34
809.16	10437.44
809.597	13938.39
810.035	15538.64
810.472	11437.79
810.91	4846.14
811.347	2170.44
811.785	1025.54
812.222	647.24
812.66	496.09
813.097	420.64
813.535	364.64
813.972	326.24
814.409	300.09
814.846	285.74
815.284	268.44
815.721	282.79
816.158	302.89
816.595	407.64
817.032	509.14
817.47	466.49
817.907	344.74
818.344	298.14
818.781	298.69
819.218	359.29
819.655	535.74
820.092	693.24
820.529	628.59
820.966	494.99
821.403	344.49
821.839	294.44
822.276	329.89
822.713	392.59
823.15	363.39
823.587	389.49
824.023	687.44
824.46	1730.39
824.897	3030.14
825.333	2367.94
825.77	1076.14
826.206	558.89
826.643	335.59
827.08	239.44
827.516	218.14
827.953	205.24
828.389	191.19
828.825	184.64
829.262	176.09
829.698	168.34
830.135	161.79
830.571	164.89
831.007	166.79
831.443	166.59
831.88	163.19
832.316	168.74
832.752	170.04
833.188	171.49
833.624	176.94
834.06	177.89
834.497	176.54
834.933	180.74
835.369	195.14
835.805	208.09
836.241	213.94
836.677	237.94
837.112	272.99
837.548	341.44
837.984	510.49
838.42	1085.64
838.856	3048.84
839.292	6041.89
839.727	4518.39
840.163	2998.59
840.599	4555.99
841.034	7007.54
841.47	3530.89
841.906	1690.99
842.341	898.14
842.777	643.79
843.212	656.74
843.648	408.74
844.083	291.24
844.519	213.59
844.954	185.09
845.39	167.09
845.825	157.44
846.261	157.19
846.696	147.89
847.131	142.39
847.566	139.39
848.002	148.29
848.437	158.14
848.872	161.74
849.307	210.89
849.742	379.59
850.177	987.94
850.613	2124.34
851.048	1528.84
851.483	696.04
851.918	390.04
852.353	214.69
852.788	155.34
853.223	137.54
853.657	122.14
854.092	124.24
854.527	117.44
854.962	125.34
855.397	137.74
855.832	120.09
856.266	106.64
856.701	107.84
857.136	113.44
857.57	135.19
858.005	169.34
858.44	139.89
858.874	133.74
859.309	131.44
859.743	129.79
860.178	129.84
860.612	141.39
861.047	188.19
861.481	256.29
861.915	181.29
862.35	139.49
862.784	107.59
863.218	100.34
863.653	111.54
864.087	139.39
864.521	168.94
864.955	287.44
865.39	493.89
865.824	376.14
866.258	468.64
866.692	709.14
867.126	514.79
867.56	273.84
867.994	178.59
868.428	151.74
868.862	185.54
869.296	168.24
869.73	208.59
870.164	178.89
870.598	158.69
871.031	112.29
871.465	101.34
871.899	84.94
872.333	72.04
872.766	75.69
873.2	79.29
873.634	75.04
874.067	80.29
874.501	84.49
874.935	77.54
875.368	81.99
875.802	76.79
876.235	74.49
876.669	70.29
877.102	58.04
877.535	65.84
877.969	64.74
878.402	64.79
878.836	68.49
879.269	61.89
879.702	61.64
880.135	61.54
880.569	67.49
881.002	58.49
881.435	61.54
881.868	58.09
882.301	56.34
882.734	57.69
883.167	57.64
883.601	56.19
884.034	55.29
884.467	52.59
884.899	52.99
885.332	52.94
885.765	50.89
886.198	44.44
886.631	50.39
887.064	47.29
887.497	52.34
887.929	48.19
888.362	47.29
888.795	48.49
889.228	55.99
889.66	45.34
890.093	49.39
890.526	43.39
890.958	47.19
891.391	50.74
891.823	45.44
892.256	47.49
892.688	46.09
893.121	48.84
893.553	47.79
893.985	45.14
894.418	45.59
894.85	45.39
895.282	46.59
895.715	44.14
896.147	39.09
896.579	40.74
897.011	49.04
897.444	45.49
897.876	39.69
898.308	41.49
898.74	41.74
899.172	42.34
899.604	46.64
900.036	45.24
900.468	45.99
900.9	49.49
901.332	57.44
901.764	56.79
902.196	59.94
902.628	59.54
903.06	84.59
903.491	87.34
903.923	77.79
904.355	76.54
904.787	78.09
905.218	63.74
905.65	60.24
906.082	59.59
906.513	48.54
906.945	56.94
907.376	51.14
907.808	54.34
908.239	58.84
908.671	63.74
909.102	70.34
909.534	100.19
909.965	193.14
910.397	489.59
910.828	1424.84
911.259	867.79
911.691	464.84
912.122	270.39
912.553	138.14
912.984	73.54
913.415	67.69
913.847	65.69
914.278	56.79
914.709	50.89
915.14	48.09
915.571	48.89
916.002	43.64
916.433	45.74
916.864	46.19
917.295	43.34
917.726	50.94
918.157	67.99
918.587	69.34
919.018	65.34
919.449	61.09
919.88	69.24
920.311	107.89
920.741	298.44
921.172	525.74
921.603	261.29
922.033	160.14
922.464	107.59
922.895	65.79
923.325	47.94
923.756	43.29
924.186	54.84
924.617	77.29
925.047	111.14
925.478	99.04
925.908	70.44
926.338	48.59
926.769	40.44
927.199	42.49
927.629	38.39
928.06	42.09
928.49	43.29
928.92	35.04
929.35	33.09
929.78	25.49
930.21	30.19
930.641	22.34
931.071	21.34
931.501	23.04
931.931	21.24
932.361	27.09
932.791	27.24
933.221	30.99
933.651	37.94
934.08	68.04
934.51	38.24
934.94	31.24
935.37	24.64
935.8	20.84
936.229	19.44
936.659	21.79
937.089	40.44
937.519	59.69
937.948	80.34
938.378	48.99
938.807	30.49
939.237	18.84
939.666	17.59
940.096	14.39
940.525	5.04
940.955	16.14
941.384	10.64
941.814	16.94
942.243	15.14
942.672	11.99
943.102	13.74
943.531	7.54
943.96	10.99
944.39	11.94
944.819	17.19
945.248	12.14
945.677	13.04
946.106	10.59
946.535	12.84
946.964	10.99
947.393	6.94
947.822	8.64
948.251	8.84
948.68	12.29
949.109	9.14
949.538	12.69
949.967	9.79
950.396	8.99
950.825	12.54
951.254	7.84
951.682	4.94
952.111	9.24
952.54	6.84
952.969	10.14
953.397	2.24
953.826	5.49
954.254	10.99
954.683	9.89
955.112	10.44
955.54	14.44
955.969	6.84
956.397	9.04
956.826	5.19
957.254	6.09
957.682	9.54
958.111	6.24
958.539	12.04
958.967	3.94
959.396	14.94
959.824	10.79
960.252	6.69
960.68	9.44
961.109	7.69
961.537	16.39
961.965	5.99
962.393	5.44
962.821	8.84
963.249	15.19
963.677	15.69
964.105	87.19
964.533	151.44
964.961	70.09
965.389	43.84
965.817	21.24
966.245	15.04
966.672	5.39
967.1	8.04
967.528	0.54
967.956	5.99
968.383	9.74
968.811	3.39
969.239	4.14
969.666	4.34
970.094	7.24
970.522	1.44
970.949	4.49
971.377	-2.91
971.804	3.69
972.232	4.84
972.659	1.84
973.087	5.19
973.514	3.89
973.941	2.74
974.369	-0.36
974.796	7.39
975.223	4.29
975.651	5.19
976.078	6.19
976.505	12.99
976.932	35.34
977.359	43.39
977.786	28.44
978.214	19.94
978.641	7.89
979.068	6.09
979.495	-0.66
979.922	8.49
980.349	7.84
980.776	9.74
981.202	4.89
981.629	6.49
982.056	6.99
982.483	4.34
982.91	8.19
983.337	0.64
983.763	3.74
984.19	6.04
984.617	4.19
985.043	3.94
985.47	9.49
985.897	4.04
986.323	8.79
986.75	2.84
987.176	3.49
987.603	3.49
988.029	3.24
988.456	5.34
988.882	4.69
989.308	1.74
989.735	1.29
990.161	3.94
990.587	0.94
991.014	3.44
991.44	7.29
991.866	5.44
992.292	0.59
992.719	1.29
993.145	5.94
993.571	4.59
993.997	4.74
994.423	5.09
994.849	-2.11
995.275	1.84
995.701	1.29
996.127	3.54
996.553	3.29
996.979	-0.41
997.405	7.69
997.83	1.19
998.256	2.14
998.682	4.59
999.108	5.64
999.534	-4.81
999.959	3.24
1000.385	4.79
1000.811	-2.16
1001.236	0.24
1001.662	4.19
1002.087	7.89
1002.513	0.94
1002.938	-6.96
1003.364	1.64
1003.789	6.59
1004.215	1.44
1004.64	0.69
1005.066	4.64
1005.491	4.89
1005.916	4.79
1006.342	0.89
1006.767	4.84
1007.192	1.94
1007.617	7.94
1008.042	5.49
1008.468	0.39
1008.893	9.19
1009.318	8.24
1009.743	19.99
1010.168	29.64
1010.593	26.59
1011.018	14.89
1011.443	9.84
1011.868	7.99
1012.293	4.59
1012.718	4.94
1013.143	7.89
1013.567	9.14
1013.992	5.44
1014.417	7.74
1014.842	4.94
1015.267	2.04
1015.691	3.44
1016.116	3.19
1016.541	5.69
1016.965	1.24
1017.39	7.94
1017.814	-2.76
1018.239	-2.96
1018.663	-4.56
1019.088	0.89
1019.512	6.14
1019.937	-3.11
1020.361	4.24
1020.785	0.69
1021.21	-2.71
1021.634	-3.36
1022.058	2.84
1022.483	-0.01
1022.907	-4.76
1023.331	-3.56
1023.755	-2.36
1024.179	0.09
1024.604	-3.71
1025.028	1.14
1025.452	0.79
1025.876	6.34
1026.3	-0.76
1026.724	-1.06
1027.148	3.44
1027.572	1.44
1027.996	3.69
1028.42	0.54
1028.843	3.24
1029.267	-0.76
1029.691	1.89
1030.115	-1.21
1030.539	0.89
1030.962	-0.86
1031.386	3.14
1031.81	0.89
1032.233	-3.56
1032.657	-4.96
1033.08	2.49
1033.504	-2.06
1033.927	-0.61
1034.351	1.19
1034.774	0.54
1035.198	-4.31
1035.621	2.49
1036.045	-0.61
1036.468	5.19
1036.891	1.99
1037.315	4.79
1037.738	-3.36
1038.161	1.24
1038.584	-1.81
1039.008	-5.11
1039.431	0.64
1039.854	-8.71
1040.277	4.49
1040.7	-2.11
1041.123	-0.41
1041.546	-1.86
1041.969	1.49
1042.392	2.89
1042.815	-7.31
1043.238	-1.06
1043.661	-1.66
1044.084	0.44
1044.507	-2.81
1044.93	-2.61
1045.352	0.69
1045.775	1.49
1046.198	6.79
1046.621	1.99
1047.043	1.24
1047.466	2.19
1047.889	-1.51
1048.311	1.59
1048.734	-0.26
1049.156	-2.11
1049.579	0.14
1050.001	-1.81
1050.424	-4.36
1050.846	-3.76
1051.269	-5.01
1051.691	-1.51
1052.113	-1.11
1052.536	0.69
1052.958	-5.71
1053.38	1.44
1053.802	0.89
1054.225	-0.16
1054.647	2.24
1055.069	-2.76
1055.491	3.09
1055.913	-2.71
1056.335	-8.96
1056.757	-5.06
1057.179	-1.11
1057.601	-0.01
1058.023	-1.91
1058.445	-3.11
1058.867	0.24
1059.289	-1.06
1059.711	-0.86
1060.133	-1.71
1060.555	0.24
1060.976	-1.56
1061.398	-2.31
1061.82	-0.21
1062.241	-2.01
1062.663	-1.81
1063.085	-2.86
1063.506	-3.51
1063.928	-2.41
1064.35	-2.51
1064.771	-2.61
1065.193	-0.71
1065.614	-4.86
1066.035	4.89
1066.457	4.04
1066.878	1.99
1067.3	0.64
1067.721	2.94
1068.142	2.64
1068.564	-2.11
1068.985	-2.41
1069.406	-4.76
1069.827	2.49
1070.248	-5.56
1070.67	-3.01
1071.091	-6.46
1071.512	-6.26
1071.933	-4.41
1072.354	-7.31
1072.775	-0.61
1073.196	-4.81
1073.617	-5.01
1074.038	0.09
1074.459	-4.66
1074.88	-1.96
1075.3	-2.76
1075.721	-1.16
1076.142	-1.71
1076.563	-2.51
1076.983	-2.06
1077.404	-4.26
1077.825	0.09
1078.246	-1.81
1078.666	-5.41
1079.087	-4.96
1079.507	-6.61
1079.928	-3.51
1080.348	-6.26
1080.769	-3.91
1081.189	-2.71
1081.61	-9.51
1082.03	1.14
1082.451	-2.76
1082.871	-4.46
1083.291	-3.26
1083.711	-1.56
1084.132	-2.66
1084.552	-5.56
1084.972	-3.61
1085.392	-3.51
1085.813	-0.71
1086.233	-5.31
1086.653	-4.56
1087.073	-3.56
1087.493	-3.86
1087.913	-6.16
1088.333	-6.16
1088.753	-2.16
1089.173	-0.36
1089.593	-2.11
1090.013	-3.81
1090.433	-7.96
1090.852	2.09
1091.272	-9.76
1091.692	-2.56
1092.112	-1.41
1092.531	-3.21
1092.951	-2.91
1093.371	-3.41
1093.79	-4.81
1094.21	-4.56
1094.63	-0.66
1095.049	-0.56
1095.469	-7.56
1095.888	-2.01
1096.308	-0.11
1096.727	-3.56
1097.146	-5.96
1097.566	-3.21
1097.985	-4.61
1098.405	-1.76
1098.824	-4.31
1099.243	-5.91
1099.662	-5.51
1100.082	-3.61
1100.501	1.19
1100.92	3.74
1101.339	-1.11
1101.758	1.94
