Data from MSPlasma+Separation6_Subt14_10-13-48-591.txt Node
Date: Fri Jul 21 10:13:48 EDT 2017
User: Ender
Spectrometer: HR+D1039
Trigger mode: 0
Integration Time (sec): 6.430000E-3
Scans to average: 20
Electric dark correction enabled: true
Nonlinearity correction enabled: false
Boxcar width: 0
XAxis mode: Wavelengths
Number of Pixels in Spectrum: 2048
>>>>>Begin Spectral Data<<<<<
187.836	0.15
188.309	0.15
188.782	0.15
189.255	1.45
189.728	1.25
190.201	-2.7
190.674	-1.45
191.147	0.95
191.619	0.65
192.092	0.75
192.565	-1.8
193.038	3.45
193.511	1.9
193.984	-1.15
194.456	-2.9
194.929	3.9
195.402	-3.45
195.874	-1.05
196.347	2.2
196.82	0.65
197.292	-3.8
197.765	-0.1
198.237	3.05
198.71	-2.2
199.182	0.5
199.655	4.55
200.127	-0.55
200.6	-1.6
201.072	5.6
201.544	-2.85
202.017	0.6
202.489	0.85
202.961	0.1
203.433	-3.2
203.906	-0.15
204.378	1.7
204.85	2.25
205.322	1.7
205.794	5.15
206.266	1.55
206.739	2.7
207.211	-0.95
207.683	-2.2
208.155	2.25
208.627	0.7
209.099	4.95
209.57	3.05
210.042	2.1
210.514	2.85
210.986	-1.85
211.458	0.5
211.93	3.85
212.402	1.2
212.873	-3.85
213.345	-3.15
213.817	3.8
214.288	0.15
214.76	1.55
215.232	1.5
215.703	4.55
216.175	4.65
216.646	3.5
217.118	2.55
217.589	-1.25
218.061	4
218.532	0.75
219.004	7.6
219.475	3.3
219.946	5.15
220.418	7.95
220.889	6
221.36	3.8
221.832	9.65
222.303	6
222.774	6.05
223.245	2.65
223.717	0.35
224.188	5.55
224.659	2.05
225.13	1.8
225.601	3.85
226.072	10.05
226.543	7.15
227.014	4.45
227.485	6.5
227.956	7.45
228.427	14.7
228.898	11.1
229.369	7.3
229.839	9.2
230.31	8.05
230.781	12.85
231.252	9.3
231.722	13.1
232.193	8.4
232.664	12.6
233.135	7.05
233.605	10.25
234.076	9.45
234.546	10.95
235.017	8.85
235.487	13.35
235.958	12.85
236.428	17.9
236.899	11.2
237.369	18.55
237.84	16.3
238.31	19
238.78	9.45
239.251	21.55
239.721	13.75
240.191	13.5
240.662	20.6
241.132	19.15
241.602	20.9
242.072	17.9
242.542	15.55
243.013	16.7
243.483	22.75
243.953	18.5
244.423	21.8
244.893	19.2
245.363	23.7
245.833	18.85
246.303	20.8
246.773	25.25
247.243	23.3
247.712	25.3
248.182	23.05
248.652	29.4
249.122	28.7
249.592	28
250.061	27.15
250.531	27.2
251.001	25.5
251.471	22.35
251.94	30.75
252.41	27.9
252.879	30.95
253.349	35
253.818	29.85
254.288	30.85
254.757	30.2
255.227	33.8
255.696	37.5
256.166	39.1
256.635	35.7
257.105	34.3
257.574	36.25
258.043	32.8
258.513	37.9
258.982	33.45
259.451	40.15
259.92	36.25
260.389	38.75
260.859	38.65
261.328	41.55
261.797	40.2
262.266	42.15
262.735	45.35
263.204	40
263.673	43.1
264.142	37.25
264.611	41.7
265.08	46.85
265.549	41.8
266.018	43.35
266.487	49.9
266.955	45.45
267.424	48.8
267.893	51.7
268.362	55.5
268.83	50.45
269.299	48
269.768	51.85
270.236	52.4
270.705	55.6
271.174	56.35
271.642	49.2
272.111	58.95
272.579	54.75
273.048	58.15
273.516	54.65
273.985	55.5
274.453	60.15
274.922	54.05
275.39	55.55
275.858	58.3
276.327	61.15
276.795	59.4
277.263	61.6
277.731	61.05
278.2	67.65
278.668	67.8
279.136	65.4
279.604	67.35
280.072	63.2
280.54	66.8
281.008	74.2
281.477	71.6
281.945	67.65
282.413	71.95
282.881	68.85
283.348	73.65
283.816	70.9
284.284	75.6
284.752	74
285.22	78.55
285.688	74.3
286.156	75.9
286.623	78.7
287.091	81.6
287.559	81.25
288.026	86.4
288.494	85.65
288.962	86.65
289.429	80.3
289.897	83.25
290.364	79.8
290.832	85
291.3	86.45
291.767	87.45
292.234	84.85
292.702	84.25
293.169	86.15
293.637	90.9
294.104	89.05
294.571	96.85
295.039	94.95
295.506	85.4
295.973	90.2
296.44	89.9
296.908	96.95
297.375	99.4
297.842	96.5
298.309	95.35
298.776	99
299.243	104.45
299.71	98.25
300.177	97.1
300.644	100.3
301.111	101.2
301.578	105.05
302.045	98.4
302.512	105.6
302.979	113.3
303.446	114.4
303.913	114.45
304.379	118.6
304.846	121.35
305.313	125.45
305.78	127.5
306.246	123.55
306.713	120.6
307.18	128.4
307.646	127.9
308.113	129.5
308.579	134.2
309.046	137.3
309.512	136.1
309.979	140.45
310.445	135.4
310.912	139.5
311.378	145.45
311.845	142.5
312.311	136.75
312.777	139.8
313.244	148.5
313.71	147.7
314.176	150.95
314.642	152.95
315.109	149.75
315.575	145.25
316.041	147.9
316.507	154.4
316.973	159.3
317.439	156.5
317.905	158.6
318.371	155.55
318.837	158.1
319.303	163.15
319.769	159.55
320.235	168.15
320.701	168.9
321.167	159.65
321.633	160.85
322.099	160.8
322.564	170.5
323.03	171
323.496	172.95
323.962	175.65
324.427	178.95
324.893	177.15
325.359	182.55
325.824	181.6
326.29	187.5
326.755	183.25
327.221	185.3
327.686	197.2
328.152	196.45
328.617	200.55
329.083	193.75
329.548	203.1
330.014	209
330.479	204.85
330.944	203.55
331.41	213.5
331.875	201.85
332.34	201.25
332.805	208.05
333.271	204.7
333.736	204.6
334.201	214.6
334.666	226.25
335.131	226.75
335.596	230.2
336.061	223.2
336.526	219.7
336.991	212.6
337.456	219.4
337.921	213.7
338.386	213.2
338.851	214.95
339.316	215
339.781	221.05
340.246	222.5
340.711	221.6
341.175	222.15
341.64	235.05
342.105	240.85
342.569	241.5
343.034	239.85
343.499	242.2
343.963	252.25
344.428	252.35
344.893	253.8
345.357	256.35
345.822	259.1
346.286	265.1
346.751	266.65
347.215	267.5
347.679	279.2
348.144	295
348.608	292.8
349.073	298.1
349.537	299.35
350.001	300.95
350.465	307.7
350.93	301.5
351.394	306.4
351.858	301.9
352.322	312.15
352.786	319.95
353.25	312.45
353.715	317.15
354.179	331.7
354.643	343.7
355.107	344.1
355.571	342.3
356.035	337.5
356.498	338.15
356.962	340
357.426	330.45
357.89	330.6
358.354	336
358.818	323.6
359.281	331.95
359.745	333.25
360.209	333.9
360.673	335.45
361.136	336.7
361.6	338.6
362.064	343.75
362.527	355.7
362.991	354.8
363.454	346.8
363.918	353.5
364.381	357.8
364.845	354
365.308	355.45
365.772	365
366.235	363.95
366.698	358.65
367.162	366.7
367.625	368.45
368.088	382.85
368.552	368.55
369.015	375.3
369.478	377.1
369.941	374.95
370.404	386.2
370.867	377
371.331	383.5
371.794	393.8
372.257	398.3
372.72	385.6
373.183	398.1
373.646	399.5
374.109	403.2
374.572	398.05
375.035	402.75
375.497	407.8
375.96	413.2
376.423	423.65
376.886	423.35
377.349	434.45
377.811	436.85
378.274	436.05
378.737	430.35
379.199	434.45
379.662	440.25
380.125	443.55
380.587	450.15
381.05	461.05
381.512	459.65
381.975	466.3
382.437	473.55
382.9	473.85
383.362	475.7
383.825	481.9
384.287	483.85
384.75	480.6
385.212	486.55
385.674	491.6
386.136	495.55
386.599	492.6
387.061	488.55
387.523	491.8
387.985	496.45
388.447	506.05
388.91	502.85
389.372	509.1
389.834	508.2
390.296	499.35
390.758	509.25
391.22	502.2
391.682	509
392.144	510.65
392.606	516.35
393.068	529.6
393.529	550.35
393.991	562.3
394.453	534.65
394.915	525.75
395.377	516.45
395.838	524.2
396.3	523.2
396.762	526.95
397.224	526.9
397.685	522.95
398.147	531.45
398.608	539.35
399.07	547.95
399.531	541
399.993	554.25
400.454	568.15
400.916	565.55
401.377	574.75
401.839	580.05
402.3	583.55
402.762	606.05
403.223	652.05
403.684	652.75
404.145	621
404.607	611.6
405.068	595.15
405.529	613.9
405.99	619.35
406.451	625.3
406.913	616.05
407.374	615.55
407.835	625.75
408.296	641.55
408.757	642.4
409.218	659.55
409.679	668.05
410.14	672.4
410.601	687.85
411.062	682.5
411.522	693.55
411.983	680.65
412.444	695.9
412.905	703.95
413.366	733.45
413.826	767.45
414.287	866.3
414.748	1016.6
415.208	1044.05
415.669	876.85
416.13	793.3
416.59	780.25
417.051	800.45
417.511	843.7
417.972	905.75
418.432	969.55
418.893	1079.25
419.353	1036.5
419.814	800.6
420.274	716.9
420.734	705.2
421.195	730.35
421.655	724.35
422.115	733.35
422.576	730.3
423.036	739.6
423.496	770
423.956	790.55
424.416	849
424.876	953.25
425.336	950.35
425.797	936.85
426.257	918.15
426.717	865.1
427.177	801.8
427.637	812.9
428.097	847.15
428.556	877.4
429.016	939.25
429.476	945.55
429.936	916.85
430.396	919.8
430.856	942.75
431.315	964.1
431.775	1024.55
432.235	1100.2
432.694	1116.4
433.154	1060.65
433.614	1036.95
434.073	996.55
434.533	897.95
434.993	871.55
435.452	876.65
435.912	859.4
436.371	859.15
436.83	847.1
437.29	835.05
437.749	803.7
438.209	805.35
438.668	819.1
439.127	835.75
439.587	819.25
440.046	795.65
440.505	808.6
440.964	819.2
441.424	853.15
441.883	865.75
442.342	819.5
442.801	782.8
443.26	790.4
443.719	787.35
444.178	786.65
444.637	798.75
445.096	803.05
445.555	808.85
446.014	803.85
446.473	801
446.932	806.75
447.391	808.8
447.849	834.9
448.308	819.45
448.767	818.75
449.226	830.8
449.685	846.5
450.143	885.25
450.602	877.95
451.061	832.2
451.519	831.5
451.978	817.95
452.436	820.6
452.895	832.95
453.353	818.95
453.812	808.55
454.27	816.4
454.729	815.85
455.187	824.95
455.646	828.85
456.104	831.25
456.562	838.65
457.021	855.65
457.479	819.55
457.937	852.8
458.395	866.4
458.854	863.65
459.312	850.8
459.77	858.9
460.228	864.1
460.686	876.6
461.144	881.4
461.602	865.5
462.06	883.35
462.518	890.8
462.976	894
463.434	903.85
463.892	911.3
464.35	930.25
464.808	939.55
465.266	959.05
465.724	965.8
466.181	970.1
466.639	962.5
467.097	1002.5
467.555	1033.2
468.012	1027.7
468.47	1035.95
468.928	1071.6
469.385	1093.15
469.843	1113.2
470.3	1105.7
470.758	1138.45
471.215	1148.5
471.673	1183.45
472.13	1212
472.588	1233.7
473.045	1229.25
473.503	1244.7
473.96	1306.15
474.417	1310.4
474.875	1374.05
475.332	1425.25
475.789	1440.75
476.246	1475.95
476.704	1534.35
477.161	1588.95
477.618	1634.95
478.075	1702.6
478.532	1828.3
478.989	1952.25
479.446	2144.7
479.903	2240.25
480.36	2425.05
480.817	2554.1
481.274	2717.4
481.731	2946.9
482.188	3144.85
482.645	3369.7
483.102	3549.55
483.558	3801.35
484.015	3947.35
484.472	3916.55
484.929	3804
485.385	3657.9
485.842	3598.55
486.299	3457.95
486.755	3195.8
487.212	2905.7
487.668	2638.6
488.125	2465.4
488.582	2295.35
489.038	2220.5
489.494	2168.25
489.951	2110.05
490.407	2051.25
490.864	2008.9
491.32	1991.55
491.776	1958.3
492.233	1974.1
492.689	1947.3
493.145	1900.75
493.602	1881.3
494.058	1901.1
494.514	1902.8
494.97	1900.8
495.426	1936.15
495.882	1934.45
496.338	1927.9
496.794	1946.35
497.251	1937.45
497.707	1960.45
498.163	1964.95
498.618	1968.85
499.074	1955.55
499.53	1987
499.986	1996
500.442	1982.6
500.898	1959.1
501.354	1982.7
501.809	1985.35
502.265	1981.4
502.721	1988.6
503.177	1997.35
503.632	2007.9
504.088	2012.2
504.543	2032.75
504.999	2066.65
505.455	2049.4
505.91	2022.9
506.366	2021.35
506.821	2031.55
507.277	2029.75
507.732	2035.9
508.187	2044.5
508.643	2049.15
509.098	2060.95
509.553	2077.3
510.009	2099.25
510.464	2141.95
510.919	2151.6
511.375	2181.9
511.83	2196.55
512.285	2236.2
512.74	2277.2
513.195	2308.55
513.65	2334.3
514.105	2356.5
514.56	2356.25
515.015	2408.95
515.47	2428
515.925	2402.3
516.38	2413.75
516.835	2405.2
517.29	2391.65
517.745	2388
518.2	2352.8
518.655	2317.3
519.109	2293
519.564	2251.2
520.019	2237.5
520.474	2224.05
520.928	2209.35
521.383	2193.5
521.838	2185
522.292	2159.5
522.747	2151.05
523.201	2146.9
523.656	2117.65
524.11	2112
524.565	2113.9
525.019	2116.3
525.474	2115.15
525.928	2096.35
526.382	2113.55
526.837	2100.1
527.291	2111.6
527.745	2106.35
528.2	2110.25
528.654	2066.35
529.108	2082.55
529.562	2088.15
530.016	2088.75
530.47	2079.05
530.925	2064.3
531.379	2087.75
531.833	2106.4
532.287	2092.3
532.741	2076.65
533.195	2088.85
533.649	2094.9
534.103	2095.45
534.556	2074.2
535.01	2087.3
535.464	2071.3
535.918	2077.1
536.372	2097.55
536.826	2095.65
537.279	2070.9
537.733	2069.05
538.187	2080.3
538.64	2079.75
539.094	2097.35
539.548	2134.7
540.001	2116.6
540.455	2127.7
540.908	2148.5
541.362	2163.7
541.815	2175.3
542.269	2215.35
542.722	2212.8
543.175	2224.35
543.629	2245.75
544.082	2255.25
544.536	2292.65
544.989	2292.4
545.442	2304.5
545.895	2296.8
546.349	2297.9
546.802	2312.45
547.255	2298.15
547.708	2321.1
548.161	2341.75
548.614	2329.7
549.067	2353.85
549.52	2331.65
549.973	2311.05
550.426	2311.6
550.879	2303.85
551.332	2305.35
551.785	2330.3
552.238	2338.65
552.691	2347.35
553.144	2365.2
553.596	2410.25
554.049	2444.05
554.502	2485.9
554.955	2519.3
555.407	2553.05
555.86	2527.95
556.313	2502.9
556.765	2489.85
557.218	2448.15
557.67	2439.35
558.123	2417.2
558.576	2406.05
559.028	2403.8
559.48	2436.3
559.933	2412.5
560.385	2343.35
560.838	2259.3
561.29	2199.3
561.742	2192.45
562.195	2139.45
562.647	2128.75
563.099	2115.25
563.551	2098
564.004	2127.9
564.456	2099.65
564.908	2056.45
565.36	2018.9
565.812	1970.5
566.264	1956.45
566.716	1937.45
567.168	1902
567.62	1901.4
568.072	1877.65
568.524	1880.1
568.976	1874.6
569.428	1855.2
569.88	1855.45
570.332	1857.1
570.784	1874.45
571.235	1856.35
571.687	1880.25
572.139	1875.3
572.59	1894.4
573.042	1907.05
573.494	1902.95
573.945	1881.1
574.397	1839.1
574.849	1838.75
575.3	1833.15
575.752	1803.5
576.203	1795.75
576.655	1803.85
577.106	1771.2
577.557	1766.4
578.009	1760.75
578.46	1768.7
578.912	1743.8
579.363	1753.35
579.814	1752.9
580.265	1759.65
580.717	1769.05
581.168	1754.9
581.619	1753.05
582.07	1778.05
582.521	1772.6
582.972	1754.15
583.423	1767.05
583.875	1776.25
584.326	1792.35
584.777	1810.3
585.227	1843.8
585.678	1857.75
586.129	1881.45
586.58	1899.7
587.031	1928.8
587.482	1982.65
587.933	2015.25
588.384	2007.05
588.834	1994.5
589.285	1966.65
589.736	1969.8
590.186	1977.9
590.637	1963.2
591.088	1906.75
591.538	1884.5
591.989	1849.65
592.439	1836
592.89	1813.5
593.34	1800.3
593.791	1794.5
594.241	1776.65
594.692	1779.05
595.142	1777
595.593	1768.45
596.043	1782.25
596.493	1797
596.943	1805.1
597.394	1843.55
597.844	1865.4
598.294	1904.55
598.744	1966
599.195	2060.95
599.645	2169.2
600.095	2297.5
600.545	2389.85
600.995	2489.9
601.445	2588.25
601.895	2704.25
602.345	2775.95
602.795	2745.15
603.245	2635.75
603.695	2496.55
604.145	2357.7
604.594	2254.25
605.044	2137.75
605.494	2006.1
605.944	1897.5
606.393	1848.15
606.843	1815.95
607.293	1821.1
607.743	1790.05
608.192	1815
608.642	1811.7
609.091	1809.15
609.541	1810.05
609.99	1807.35
610.44	1767.95
610.889	1752.95
611.339	1734.45
611.788	1712.5
612.238	1728.3
612.687	1718.05
613.136	1736.8
613.586	1752.25
614.035	1744.65
614.484	1754.5
614.933	1757.15
615.383	1718.5
615.832	1684.25
616.281	1661.95
616.73	1620.7
617.179	1588.5
617.628	1553.9
618.077	1536.05
618.526	1507.95
618.975	1499.55
619.424	1467.25
619.873	1485.45
620.322	1466.7
620.771	1455.05
621.22	1442.1
621.669	1414.75
622.118	1398.65
622.567	1385.05
623.015	1363.55
623.464	1362.15
623.913	1342.25
624.361	1343.35
624.81	1332.75
625.259	1335.35
625.707	1339
626.156	1346.15
626.604	1362.85
627.053	1360.4
627.501	1357.4
627.95	1370.35
628.398	1388.95
628.847	1362.05
629.295	1354.05
629.744	1350.25
630.192	1330.05
630.64	1302.7
631.089	1291.8
631.537	1264.7
631.985	1249.75
632.433	1239.65
632.881	1236.95
633.33	1240.35
633.778	1238.95
634.226	1248.45
634.674	1258.7
635.122	1260.05
635.57	1289.45
636.018	1306.6
636.466	1301.85
636.914	1301
637.362	1319.9
637.81	1344.1
638.258	1391.2
638.705	1411.35
639.153	1450.3
639.601	1461.2
640.049	1495.2
640.497	1527.25
640.944	1568.75
641.392	1509.65
641.84	1428.2
642.287	1367.15
642.735	1334.8
643.182	1313.9
643.63	1319.25
644.078	1320.5
644.525	1339.25
644.973	1377.4
645.42	1403.8
645.867	1425.65
646.315	1448.8
646.762	1508.05
647.21	1554.85
647.657	1622.9
648.104	1676.55
648.551	1714.75
648.999	1838
649.446	1996.65
649.893	2212.9
650.34	2566.3
650.787	3141.25
651.234	4005.95
651.682	5457.4
652.129	7637.7
652.576	10812.85
653.023	14212.5
653.47	15534
653.917	15534.05
654.363	15533.95
654.81	15530.95
655.257	15531.6
655.704	13972.2
656.151	8513.45
656.598	5623.15
657.044	4068.75
657.491	3196.7
657.938	2632.4
658.385	2241.45
658.831	1991.3
659.278	1799.25
659.724	1646.25
660.171	1544.9
660.618	1435.4
661.064	1359.2
661.511	1328.2
661.957	1285.95
662.404	1269.65
662.85	1251.2
663.296	1239.55
663.743	1211.6
664.189	1196.9
664.635	1192.85
665.082	1162.1
665.528	1151.15
665.974	1121.9
666.42	1107.45
666.867	1081.95
667.313	1036.2
667.759	1020.85
668.205	1020.45
668.651	1022
669.097	1020.7
669.543	1029.7
669.989	1037.85
670.435	1034.55
670.881	1049.45
671.327	1095.2
671.773	1167.1
672.219	1255.3
672.665	1324.05
673.11	1386
673.556	1400.3
674.002	1421.95
674.448	1436.95
674.893	1243.65
675.339	1076
675.785	998.85
676.23	947.3
676.676	908.1
677.122	884.6
677.567	862.9
678.013	829.7
678.458	826.55
678.904	825.95
679.349	809.15
679.794	813.5
680.24	808.3
680.685	801.75
681.131	802.95
681.576	806.35
682.021	809.65
682.466	822.9
682.912	822.3
683.357	865.35
683.802	941.2
684.247	1022.05
684.692	1088.95
685.137	1149.6
685.583	1163.35
686.028	1216.65
686.473	1163.25
686.918	1008.95
687.363	921.3
687.807	880.3
688.252	831.45
688.697	806.75
689.142	777.15
689.587	777.65
690.032	798.3
690.477	828.55
690.921	872.65
691.366	913.75
691.811	951.55
692.255	1027.75
692.7	1239.25
693.145	1783.25
693.589	2711.65
694.034	3256.5
694.478	3474.4
694.923	3194.55
695.367	4503.3
695.812	2768.25
696.256	1175.3
696.701	863.65
697.145	792.55
697.59	766.5
698.034	752.95
698.478	744.3
698.922	754.65
699.367	767
699.811	807.45
700.255	863.6
700.699	949.8
701.143	1032.95
701.588	1083.3
702.032	1139.15
702.476	1171.35
702.92	1254.5
703.364	1641.7
703.808	2483.55
704.252	3107.95
704.696	3293.95
705.14	3107.95
705.584	4272.95
706.027	2381.4
706.471	1194.2
706.915	899
707.359	794.55
707.803	746.8
708.246	721
708.69	713.6
709.134	700.8
709.577	701.35
710.021	716.6
710.465	701.9
710.908	693.7
711.352	726.7
711.795	805.8
712.239	870.9
712.682	883.5
713.126	869.75
713.569	968.1
714.012	801.45
714.456	693.35
714.899	660.65
715.342	624.45
715.786	608.4
716.229	594.35
716.672	576.8
717.115	580.6
717.558	581.85
718.002	599.05
718.445	621.85
718.888	659.35
719.331	663.55
719.774	678.15
720.217	671.55
720.66	632.3
721.103	604.15
721.546	571.65
721.989	561.4
722.432	549.95
722.874	542.3
723.317	552.65
723.76	601.6
724.203	724.2
724.645	970.1
725.088	1153.3
725.531	1132.75
725.974	1231.55
726.416	1116.5
726.859	692.55
727.301	571.7
727.744	542
728.187	542.2
728.629	554.1
729.071	583.2
729.514	608.15
729.956	632.85
730.399	645.95
730.841	651.75
731.283	630.65
731.726	619.15
732.168	615.95
732.61	658.4
733.053	700.45
733.495	781.65
733.937	866.05
734.379	1016.6
734.821	1293.95
735.263	2050.9
735.705	3676.85
736.148	5420.1
736.59	5467.7
737.032	5913.95
737.474	4881.55
737.916	1878.4
738.357	987.15
738.799	763.45
739.241	704.7
739.683	715.25
740.125	735.35
740.567	740.15
741.008	787.95
741.45	829.3
741.892	869.75
742.334	876.15
742.775	875.2
743.217	842.4
743.658	707.75
744.1	728.1
744.542	841.85
744.983	886.95
745.425	915.1
745.866	900.05
746.307	742.2
746.749	772.25
747.19	1110.55
747.632	2152.6
748.073	3997.05
748.514	5565.1
748.956	7361.75
749.397	8652.45
749.838	6045.3
750.279	5706.1
750.72	2959.15
751.162	1257.1
751.603	722.95
752.044	583.25
752.485	514.95
752.926	482.55
753.367	461.15
753.808	449.5
754.249	442.7
754.69	436.15
755.131	432.3
755.572	441.55
756.013	428.25
756.453	428.5
756.894	441.4
757.335	447.6
757.776	455.1
758.216	458.9
758.657	493.75
759.098	539.75
759.538	656.3
759.979	944.25
760.42	1893
760.86	4822.85
761.301	10012.7
761.741	11900.3
762.182	13640.05
762.622	8879
763.063	3162.35
763.503	1303.8
763.943	762.65
764.384	604.95
764.824	521.25
765.264	483.9
765.705	452.6
766.145	428.1
766.585	418.85
767.025	402.25
767.465	401.7
767.906	409.6
768.346	442.25
768.786	508.2
769.226	733.7
769.666	1473.8
770.106	3323.4
770.546	4763.95
770.986	5403.95
771.426	4113.9
771.866	1702.85
772.306	773.35
772.745	481.35
773.185	403.2
773.625	395.15
774.065	429.95
774.505	619.1
774.944	1120.85
775.384	1618.35
775.824	1827.4
776.263	1508.05
776.703	796.1
777.142	454.85
777.582	334.85
778.021	305.9
778.461	297.1
778.9	288.65
779.34	281.35
779.779	277.85
780.219	269.05
780.658	262.9
781.097	259.5
781.537	248
781.976	253.65
782.415	251.95
782.855	255.6
783.294	248.75
783.733	240
784.172	248.65
784.611	245.1
785.05	257.75
785.489	265.4
785.928	271.75
786.367	283.7
786.806	294.8
787.245	319.55
787.684	322.35
788.123	323.1
788.562	315
789.001	302.35
789.44	293.25
789.879	293.65
790.317	297.1
790.756	313.9
791.195	351.3
791.634	479.45
792.072	861.1
792.511	2098.55
792.95	3905.6
793.388	4738.55
793.827	3106.9
794.265	1410.25
794.704	677.15
795.142	418.65
795.581	346.5
796.019	318.05
796.458	309.85
796.896	321.4
797.334	368.2
797.773	493.85
798.211	930.3
798.649	1950.85
799.087	3285.5
799.526	4640.65
799.964	4816.1
800.402	3321.35
800.84	1496.1
801.278	728.45
801.716	447.9
802.154	364.35
802.592	351.4
803.03	341.7
803.468	349.45
803.906	354.1
804.344	341.6
804.782	334.6
805.22	340.9
805.658	351.45
806.096	370.5
806.533	416.65
806.971	532.45
807.409	771.1
807.847	1527.8
808.284	3899.55
808.722	6872.3
809.16	9670.95
809.597	13031
810.035	15523.8
810.472	10685.8
810.91	4509.9
811.347	2005.8
811.785	950.5
812.222	602.3
812.66	463.95
813.097	392.95
813.535	344.55
813.972	314.4
814.409	285.05
814.846	275.05
815.284	262.25
815.721	270.6
816.158	294.65
816.595	404.55
817.032	516.7
817.47	476.35
817.907	341.5
818.344	295.8
818.781	290.05
819.218	360.4
819.655	552.65
820.092	724.55
820.529	650.75
820.966	511
821.403	348.15
821.839	292.45
822.276	330.25
822.713	389.8
823.15	361.95
823.587	368.9
824.023	647.5
824.46	1595.55
824.897	2802.2
825.333	2217.95
825.77	1006.5
826.206	526.6
826.643	313.85
827.08	236.95
827.516	205.85
827.953	189.3
828.389	182.65
828.825	171.25
829.262	167
829.698	160.95
830.135	154.6
830.571	155.2
831.007	154.4
831.443	155.05
831.88	156.2
832.316	158.3
832.752	157.4
833.188	160.15
833.624	160.3
834.06	166.4
834.497	166.4
834.933	167.6
835.369	182.45
835.805	193.05
836.241	202.85
836.677	224.7
837.112	262.2
837.548	317.15
837.984	477.35
838.42	1007.55
838.856	2812.55
839.292	5574.6
839.727	4200.55
840.163	2783.25
840.599	4227.3
841.034	6499.2
841.47	3276.6
841.906	1574.55
842.341	849.2
842.777	633.95
843.212	663.8
843.648	412.45
844.083	278.6
844.519	208.2
844.954	180.15
845.39	155.35
845.825	153.75
846.261	147.55
846.696	140.05
847.131	137.2
847.566	135.75
848.002	141.75
848.437	149.85
848.872	149.55
849.307	195.9
849.742	355.3
850.177	918.3
850.613	1956.35
851.048	1435.6
851.483	650.6
851.918	361.6
852.353	201.65
852.788	147.25
853.223	127.2
853.657	118.55
854.092	112.4
854.527	111.8
854.962	123.5
855.397	131.05
855.832	118.05
856.266	106.9
856.701	101.7
857.136	110.1
857.57	133.15
858.005	163.05
858.44	135.1
858.874	121.1
859.309	131.15
859.743	122.65
860.178	118.4
860.612	139.05
861.047	188.65
861.481	264.75
861.915	182.45
862.35	133.1
862.784	106.85
863.218	97.55
863.653	114.05
864.087	137.65
864.521	163.25
864.955	265.9
865.39	460.05
865.824	365.5
866.258	479.8
866.692	754.35
867.126	541.05
867.56	290.8
867.994	181.1
868.428	152.9
868.862	193.95
869.296	178
869.73	216.75
870.164	183.3
870.598	164.25
871.031	114.95
871.465	107.5
871.899	86.2
872.333	77.7
872.766	75.9
873.2	77.15
873.634	72.5
874.067	76.3
874.501	73.8
874.935	76.7
875.368	83.3
875.802	72.85
876.235	70.7
876.669	63.8
877.102	61.45
877.535	61.6
877.969	53.95
878.402	60.45
878.836	59.6
879.269	63.25
879.702	59.25
880.135	62.9
880.569	64.95
881.002	58.1
881.435	60.65
881.868	54.75
882.301	53
882.734	53.2
883.167	60.55
883.601	54.75
884.034	54.8
884.467	47.85
884.899	48.35
885.332	44.3
885.765	50.15
886.198	50.6
886.631	45.7
887.064	51.55
887.497	46.65
887.929	50.85
888.362	46.45
888.795	51
889.228	55.05
889.66	46.95
890.093	46.95
890.526	48
890.958	45.6
891.391	46.1
891.823	41.95
892.256	46.8
892.688	47.1
893.121	44.25
893.553	45.8
893.985	43.9
894.418	37.75
894.85	49.75
895.282	41.2
895.715	41.9
896.147	41.55
896.579	35.3
897.011	45.95
897.444	42.25
897.876	42.2
898.308	37.5
898.74	47.05
899.172	44.45
899.604	43.7
900.036	45
900.468	42.35
900.9	44.4
901.332	56.7
901.764	59.9
902.196	60.65
902.628	61.05
903.06	88
903.491	93.75
903.923	76.3
904.355	74.45
904.787	81.2
905.218	66.7
905.65	58.75
906.082	51.8
906.513	50.2
906.945	49.65
907.376	46.65
907.808	50
908.239	54.25
908.671	64.35
909.102	63.35
909.534	92.45
909.965	176.15
910.397	457.45
910.828	1307.75
911.259	813.75
911.691	434.8
912.122	254.3
912.553	128.1
912.984	73.55
913.415	67.5
913.847	57.9
914.278	56.4
914.709	45.8
915.14	40.6
915.571	46.2
916.002	47.9
916.433	43
916.864	42.4
917.295	44.9
917.726	51.8
918.157	67.25
918.587	67.05
919.018	61.05
919.449	59.15
919.88	69.15
920.311	102.8
920.741	269.9
921.172	481.85
921.603	246.05
922.033	157.25
922.464	102.3
922.895	61.45
923.325	50.45
923.756	39.6
924.186	53.75
924.617	74.7
925.047	113.65
925.478	99.45
925.908	74.5
926.338	55.35
926.769	44.45
927.199	45.4
927.629	39.8
928.06	41.4
928.49	40.5
928.92	38.3
929.35	34.3
929.78	28.4
930.21	23.75
930.641	20.5
931.071	26.5
931.501	27
931.931	24.25
932.361	18.9
932.791	29.25
933.221	25.9
933.651	39.8
934.08	66.45
934.51	39
934.94	32.55
935.37	21.55
935.8	22.3
936.229	20.6
936.659	21.3
937.089	37.7
937.519	61.7
937.948	79.95
938.378	42.15
938.807	32.85
939.237	19.3
939.666	18.4
940.096	13.45
940.525	12.95
940.955	17.6
941.384	12.65
941.814	13.55
942.243	10.85
942.672	12.55
943.102	6.5
943.531	10.1
943.96	12.5
944.39	9.85
944.819	16.85
945.248	7.55
945.677	11.75
946.106	12.2
946.535	13.15
946.964	11.4
947.393	9.5
947.822	11.9
948.251	14.65
948.68	18.6
949.109	13.6
949.538	9.75
949.967	13.15
950.396	6.95
950.825	7.85
951.254	12.45
951.682	5.2
952.111	7.8
952.54	9.45
952.969	7.85
953.397	4.6
953.826	8.05
954.254	13.9
954.683	11.95
955.112	10.8
955.54	8.85
955.969	6.2
956.397	10.05
956.826	4.9
957.254	11.45
957.682	7.05
958.111	9
958.539	8.15
958.967	7.5
959.396	14.65
959.824	11.35
960.252	11.1
960.68	6.05
961.109	10.75
961.537	10.65
961.965	5.75
962.393	5.35
962.821	11.5
963.249	9.05
963.677	14.45
964.105	82.85
964.533	143.15
964.961	72.65
965.389	39.95
965.817	22.2
966.245	11.55
966.672	9.8
967.1	9.7
967.528	6.05
967.956	5.05
968.383	9.3
968.811	4.35
969.239	7.4
969.666	6
970.094	6.75
970.522	0.4
970.949	6.45
971.377	1.8
971.804	3.4
972.232	6.2
972.659	2.8
973.087	5.15
973.514	1.95
973.941	5.85
974.369	1.55
974.796	5.5
975.223	5.35
975.651	6.7
976.078	9.65
976.505	13.65
976.932	32.85
977.359	43.65
977.786	25.15
978.214	20
978.641	6.55
979.068	4.8
979.495	4.55
979.922	7.2
980.349	10.05
980.776	6.15
981.202	7.35
981.629	8.7
982.056	11.35
982.483	2.9
982.91	9.6
983.337	1.2
983.763	6.55
984.19	6.6
984.617	3.25
985.043	3.7
985.47	8.35
985.897	5.25
986.323	9.6
986.75	5.95
987.176	4.9
987.603	3.8
988.029	2.85
988.456	5.6
988.882	4.7
989.308	-0.3
989.735	-0.55
990.161	4.75
990.587	1.7
991.014	7.6
991.44	6.4
991.866	2.5
992.292	0.75
992.719	5.55
993.145	8.2
993.571	6.85
993.997	5.05
994.423	2.15
994.849	-0.15
995.275	0.1
995.701	4.85
996.127	-0.5
996.553	2.35
996.979	-0.15
997.405	7.1
997.83	1.6
998.256	4.5
998.682	5.2
999.108	8.15
999.534	-3.1
999.959	3.35
1000.385	7.05
1000.811	0.7
1001.236	-0.65
1001.662	-0.35
1002.087	4.45
1002.513	3.05
1002.938	1.1
1003.364	9.2
1003.789	6.8
1004.215	2.75
1004.64	4.2
1005.066	2.4
1005.491	6.95
1005.916	5.4
1006.342	4.25
1006.767	0.25
1007.192	5.15
1007.617	4.3
1008.042	1.55
1008.468	3.3
1008.893	6.8
1009.318	11.35
1009.743	20.55
1010.168	34.2
1010.593	26.65
1011.018	22.25
1011.443	9
1011.868	8.55
1012.293	6.85
1012.718	2.9
1013.143	2.2
1013.567	9.1
1013.992	4.15
1014.417	5
1014.842	0.85
1015.267	-1.15
1015.691	5.8
1016.116	2.1
1016.541	3.05
1016.965	2.8
1017.39	-0.35
1017.814	0
1018.239	0.6
1018.663	-0.45
1019.088	-7.15
1019.512	8.15
1019.937	1
1020.361	-0.1
1020.785	-2.85
1021.21	-2.45
1021.634	1.5
1022.058	1.45
1022.483	-3.75
1022.907	-1.5
1023.331	-2.8
1023.755	1.35
1024.179	0.65
1024.604	-4.05
1025.028	2.7
1025.452	3.25
1025.876	3.9
1026.3	0.95
1026.724	-1.95
1027.148	1.5
1027.572	4.2
1027.996	2.7
1028.42	3.35
1028.843	-1.3
1029.267	-1.2
1029.691	-0.15
1030.115	-2.3
1030.539	-4.25
1030.962	-2.25
1031.386	-0.1
1031.81	1.2
1032.233	-4.7
1032.657	-7.6
1033.08	-0.7
1033.504	-0.5
1033.927	0.1
1034.351	-1.65
1034.774	-2.2
1035.198	-2
1035.621	2.9
1036.045	-1.8
1036.468	5.05
1036.891	2.95
1037.315	5.6
1037.738	-0.8
1038.161	2
1038.584	0
1039.008	-3.25
1039.431	-0.55
1039.854	-4.35
1040.277	0.6
1040.7	-1.8
1041.123	-0.45
1041.546	-4.2
1041.969	2.1
1042.392	8.45
1042.815	-6.35
1043.238	-1.8
1043.661	1.8
1044.084	-1.4
1044.507	-1.1
1044.93	-0.85
1045.352	3.55
1045.775	4
1046.198	-0.5
1046.621	3.85
1047.043	1.2
1047.466	0.45
1047.889	-2.35
1048.311	5.3
1048.734	-3
1049.156	-1.75
1049.579	-0.25
1050.001	-1.2
1050.424	-0.45
1050.846	-5.3
1051.269	0
1051.691	0.8
1052.113	0.7
1052.536	-0.1
1052.958	-5.9
1053.38	3.45
1053.802	-0.1
1054.225	-2.5
1054.647	-4.35
1055.069	-0.4
1055.491	-3.95
1055.913	0.2
1056.335	-10.3
1056.757	-4.1
1057.179	-2.5
1057.601	-3.45
1058.023	-0.5
1058.445	-9.4
1058.867	2.5
1059.289	-2.7
1059.711	-2.55
1060.133	-0.35
1060.555	-5.05
1060.976	-0.9
1061.398	-0.15
1061.82	-1.3
1062.241	-4.2
1062.663	1
1063.085	-3.85
1063.506	-5.65
1063.928	0.8
1064.35	-1
1064.771	-1.35
1065.193	-8.15
1065.614	-4.25
1066.035	1.75
1066.457	3.3
1066.878	-1.65
1067.3	-3.8
1067.721	2.4
1068.142	1.9
1068.564	0.75
1068.985	-3.85
1069.406	-2.15
1069.827	-3.35
1070.248	-3.35
1070.67	-4.8
1071.091	-2.95
1071.512	-2.15
1071.933	-3.6
1072.354	-6.35
1072.775	-2.3
1073.196	-1.85
1073.617	-6.55
1074.038	-3.95
1074.459	-2.55
1074.88	-2.55
1075.3	-1.65
1075.721	-1.35
1076.142	-2
1076.563	-5.8
1076.983	-0.65
1077.404	-7.4
1077.825	0.2
1078.246	-1.1
1078.666	-2.25
1079.087	-1.15
1079.507	-5.45
1079.928	1.05
1080.348	-5.4
1080.769	2.85
1081.189	-0.95
1081.61	-4.95
1082.03	0.55
1082.451	0.4
1082.871	-1.95
1083.291	-2.4
1083.711	-3.5
1084.132	0.05
1084.552	-3.05
1084.972	-6.8
1085.392	1
1085.813	1.45
1086.233	-3.35
1086.653	-1.1
1087.073	-1.2
1087.493	-6.4
1087.913	-8.95
1088.333	-1.6
1088.753	2.6
1089.173	1.55
1089.593	-1.6
1090.013	-3.45
1090.433	-4.35
1090.852	-0.55
1091.272	-4.15
1091.692	-1.45
1092.112	-4.15
1092.531	-2.95
1092.951	-0.55
1093.371	-2.25
1093.79	-2.4
1094.21	-2.75
1094.63	-0.4
1095.049	-0.3
1095.469	-8.55
1095.888	-0.35
1096.308	-3.7
1096.727	-0.9
1097.146	-1.8
1097.566	-0.3
1097.985	-2.15
1098.405	-0.5
1098.824	0.45
1099.243	-5.85
1099.662	-6
1100.082	-2.55
1100.501	-2.6
1100.92	3.85
1101.339	2.4
1101.758	2.8
