Data from MSPlasma+Separation6_Subt14_10-13-22-874.txt Node
Date: Fri Jul 21 10:13:22 EDT 2017
User: Ender
Spectrometer: HR+D1039
Trigger mode: 0
Integration Time (sec): 6.430000E-3
Scans to average: 20
Electric dark correction enabled: true
Nonlinearity correction enabled: false
Boxcar width: 0
XAxis mode: Wavelengths
Number of Pixels in Spectrum: 2048
>>>>>Begin Spectral Data<<<<<
187.836	3.26
188.309	3.26
188.782	3.26
189.255	3.41
189.728	2.81
190.201	-5.04
190.674	-1.69
191.147	-4.74
191.619	0.76
192.092	-4.84
192.565	1.36
193.038	2.31
193.511	2.91
193.984	-0.59
194.456	-1.19
194.929	2.81
195.402	-0.14
195.874	-1.39
196.347	-0.44
196.82	1.21
197.292	-1.44
197.765	-2.09
198.237	-6.99
198.71	-6.84
199.182	1.61
199.655	1.91
200.127	0.31
200.6	-2.74
201.072	3.46
201.544	-4.39
202.017	3.76
202.489	2.71
202.961	1.06
203.433	-6.04
203.906	-1.04
204.378	-2.94
204.85	-3.14
205.322	-2.69
205.794	-0.04
206.266	0.26
206.739	7.06
207.211	1.91
207.683	-0.29
208.155	1.76
208.627	0.46
209.099	5.91
209.57	6.71
210.042	3.16
210.514	3.16
210.986	-1.14
211.458	-1.04
211.93	-1.34
212.402	2.01
212.873	-4.24
213.345	-3.04
213.817	4.26
214.288	-1.29
214.76	3.56
215.232	1.86
215.703	2.46
216.175	1.71
216.646	3.46
217.118	1.31
217.589	-1.39
218.061	6.86
218.532	1.11
219.004	3.71
219.475	3.51
219.946	5.11
220.418	5.66
220.889	4.41
221.36	6.06
221.832	6.66
222.303	5.11
222.774	5.31
223.245	6.06
223.717	5.36
224.188	7.31
224.659	4.96
225.13	3.26
225.601	7.36
226.072	5.11
226.543	9.26
227.014	6.86
227.485	9.91
227.956	10.26
228.427	14.11
228.898	8.76
229.369	6.41
229.839	8.51
230.31	10.46
230.781	11.91
231.252	9.01
231.722	12.11
232.193	10.96
232.664	6.81
233.135	11.11
233.605	11.71
234.076	17.16
234.546	13.91
235.017	12.71
235.487	10.56
235.958	12.56
236.428	20.81
236.899	10.56
237.369	19.91
237.84	17.11
238.31	21.91
238.78	10.01
239.251	14.71
239.721	13.96
240.191	12.71
240.662	18.91
241.132	14.36
241.602	20.96
242.072	19.16
242.542	14.81
243.013	18.71
243.483	21.11
243.953	17.46
244.423	23.81
244.893	20.26
245.363	20.46
245.833	22.96
246.303	22.01
246.773	25.11
247.243	20.01
247.712	26.76
248.182	26.46
248.652	29.36
249.122	24.36
249.592	27.01
250.061	27.61
250.531	24.71
251.001	28.36
251.471	30.36
251.94	28.06
252.41	29.86
252.879	31.61
253.349	37.06
253.818	32.86
254.288	34.81
254.757	32.31
255.227	38.91
255.696	30.61
256.166	40.01
256.635	40.51
257.105	30.01
257.574	38.86
258.043	34.96
258.513	41.01
258.982	36.21
259.451	41.56
259.92	30.66
260.389	42.81
260.859	35.91
261.328	44.06
261.797	41.86
262.266	46.66
262.735	46.61
263.204	45.31
263.673	48.31
264.142	46.16
264.611	45.81
265.08	51.41
265.549	43.81
266.018	46.16
266.487	51.51
266.955	48.11
267.424	51.81
267.893	55.21
268.362	54.61
268.83	53.86
269.299	50.46
269.768	55.31
270.236	55.96
270.705	59.96
271.174	53.66
271.642	53.01
272.111	60.91
272.579	59.41
273.048	61.11
273.516	66.01
273.985	60.01
274.453	59.96
274.922	60.21
275.39	60.61
275.858	64.71
276.327	64.21
276.795	61.31
277.263	63.81
277.731	68.51
278.2	71.91
278.668	61.41
279.136	67.91
279.604	68.61
280.072	70.21
280.54	70.31
281.008	77.51
281.477	71.56
281.945	72.61
282.413	74.66
282.881	78.51
283.348	74.86
283.816	73.61
284.284	79.81
284.752	78.26
285.22	79.86
285.688	80.91
286.156	80.66
286.623	78.21
287.091	76.81
287.559	88.26
288.026	90.91
288.494	84.91
288.962	91.16
289.429	87.71
289.897	89.56
290.364	84.06
290.832	88.91
291.3	90.96
291.767	88.36
292.234	100.41
292.702	92.61
293.169	94.11
293.637	93.01
294.104	98.46
294.571	99.31
295.039	97.71
295.506	94.91
295.973	98.96
296.44	97.46
296.908	105.21
297.375	107.41
297.842	106.41
298.309	99.81
298.776	105.66
299.243	109.46
299.71	105.96
300.177	108.11
300.644	108.96
301.111	112.81
301.578	111.66
302.045	111.66
302.512	111.76
302.979	121.41
303.446	120.51
303.913	122.71
304.379	122.31
304.846	126.71
305.313	131.41
305.78	127.56
306.246	130.91
306.713	138.51
307.18	138.51
307.646	137.76
308.113	135.41
308.579	139.61
309.046	143.91
309.512	144.41
309.979	150.81
310.445	145.46
310.912	145.36
311.378	152.01
311.845	152.61
312.311	150.36
312.777	155.21
313.244	157.91
313.71	159.01
314.176	161.11
314.642	161.46
315.109	164.26
315.575	157.56
316.041	171.36
316.507	164.16
316.973	169.11
317.439	178.26
317.905	172.96
318.371	169.56
318.837	169.96
319.303	174.21
319.769	175.11
320.235	181.61
320.701	184.41
321.167	176.96
321.633	180.51
322.099	183.01
322.564	186.46
323.03	184.81
323.496	183.96
323.962	192.01
324.427	193.36
324.893	188.11
325.359	197.71
325.824	198.51
326.29	198.76
326.755	196.81
327.221	208.06
327.686	217.61
328.152	213.51
328.617	218.56
329.083	214.21
329.548	219.66
330.014	218.46
330.479	221.96
330.944	220.36
331.41	234.51
331.875	214.96
332.34	217.36
332.805	223.36
333.271	223.86
333.736	224.66
334.201	230.01
334.666	248.01
335.131	251.66
335.596	250.71
336.061	241.61
336.526	242.91
336.991	234.71
337.456	237.96
337.921	231.96
338.386	234.71
338.851	234.41
339.316	241.66
339.781	238.86
340.246	240.61
340.711	247.46
341.175	254.91
341.64	255.91
342.105	258.66
342.569	271.46
343.034	266.01
343.499	267.11
343.963	268.56
344.428	276.21
344.893	278.31
345.357	280.26
345.822	284.66
346.286	293.26
346.751	294.61
347.215	300.36
347.679	307.21
348.144	325.31
348.608	324.61
349.073	323.71
349.537	337.26
350.001	339.01
350.465	330.56
350.93	340.56
351.394	340.51
351.858	333.41
352.322	343.56
352.786	345.51
353.25	355.46
353.715	355.81
354.179	370.26
354.643	380.86
355.107	387.16
355.571	374.21
356.035	362.16
356.498	372.66
356.962	372.96
357.426	368.76
357.89	373.06
358.354	366.26
358.818	363.21
359.281	373.01
359.745	366.16
360.209	371.21
360.673	372.71
361.136	376.21
361.6	378.16
362.064	385.86
362.527	389.26
362.991	388.16
363.454	388.91
363.918	398.16
364.381	397.76
364.845	397.46
365.308	398.61
365.772	409.16
366.235	406.51
366.698	404.96
367.162	404.31
367.625	412.96
368.088	416.11
368.552	410.71
369.015	421.31
369.478	418.91
369.941	425.36
370.404	429.56
370.867	420.86
371.331	432.51
371.794	435.96
372.257	435.86
372.72	438.01
373.183	439.36
373.646	439.31
374.109	442.51
374.572	447.06
375.035	453.31
375.497	452.76
375.96	462.46
376.423	466.11
376.886	471.36
377.349	485.96
377.811	479.46
378.274	482.96
378.737	476.26
379.199	488.46
379.662	497.61
380.125	497.96
380.587	503.76
381.05	509.31
381.512	508.36
381.975	525.76
382.437	532.21
382.9	532.41
383.362	536.16
383.825	539.11
384.287	542.21
384.75	540.21
385.212	544.91
385.674	553.76
386.136	552.96
386.599	552.61
387.061	544.91
387.523	552.91
387.985	564.31
388.447	573.51
388.91	566.11
389.372	571.01
389.834	571.61
390.296	559.91
390.758	568.96
391.22	574.56
391.682	577.76
392.144	577.61
392.606	575.66
393.068	597.06
393.529	617.41
393.991	637.11
394.453	602.41
394.915	586.46
395.377	579.16
395.838	584.76
396.3	592.41
396.762	596.86
397.224	590.76
397.685	591.51
398.147	592.96
398.608	606.06
399.07	615.56
399.531	612.86
399.993	626.11
400.454	643.51
400.916	630.96
401.377	650.66
401.839	654.36
402.3	657.31
402.762	679.16
403.223	721.56
403.684	730.71
404.145	707.61
404.607	689.36
405.068	670.11
405.529	683.41
405.99	700.71
406.451	704.46
406.913	698.81
407.374	704.81
407.835	699.66
408.296	713.91
408.757	720.86
409.218	738.01
409.679	742.86
410.14	748.81
410.601	772.41
411.062	763.01
411.522	769.61
411.983	773.01
412.444	779.86
412.905	790.51
413.366	820.81
413.826	850.51
414.287	951.51
414.748	1130.31
415.208	1155.16
415.669	967.61
416.13	884.56
416.59	868.21
417.051	892.61
417.511	931.16
417.972	999.96
418.432	1073.76
418.893	1190.06
419.353	1137.26
419.814	883.51
420.274	783.31
420.734	778.61
421.195	815.41
421.655	802.61
422.115	816.81
422.576	815.06
423.036	829.11
423.496	852.31
423.956	889.86
424.416	941.26
424.876	1044.26
425.336	1055.91
425.797	1033.26
426.257	1027.86
426.717	969.81
427.177	905.66
427.637	925.76
428.097	952.36
428.556	992.31
429.016	1059.76
429.476	1076.31
429.936	1061.01
430.396	1060.31
430.856	1077.96
431.315	1102.71
431.775	1178.96
432.235	1264.41
432.694	1277.86
433.154	1213.91
433.614	1191.91
434.073	1150.51
434.533	1041.86
434.993	994.96
435.452	991.71
435.912	977.31
436.371	964.06
436.83	948.01
437.29	938.91
437.749	908.41
438.209	899.66
438.668	912.66
439.127	930.76
439.587	903.41
440.046	888.41
440.505	903.16
440.964	907.46
441.424	947.61
441.883	954.01
442.342	910.01
442.801	862.86
443.26	872.51
443.719	873.91
444.178	872.51
444.637	876.91
445.096	883.66
445.555	889.26
446.014	888.01
446.473	884.76
446.932	880.11
447.391	892.36
447.849	908.26
448.308	891.31
448.767	900.41
449.226	908.86
449.685	926.21
450.143	964.06
450.602	959.06
451.061	911.11
451.519	913.46
451.978	896.06
452.436	898.31
452.895	909.21
453.353	903.11
453.812	885.76
454.27	891.61
454.729	897.06
455.187	903.46
455.646	904.76
456.104	906.26
456.562	922.51
457.021	944.66
457.479	900.01
457.937	929.81
458.395	957.61
458.854	940.81
459.312	934.86
459.77	935.61
460.228	948.41
460.686	964.36
461.144	968.21
461.602	955.11
462.06	950.21
462.518	974.71
462.976	975.66
463.434	983.36
463.892	1003.81
464.35	1015.41
464.808	1031.66
465.266	1038.11
465.724	1051.26
466.181	1055.66
466.639	1047.71
467.097	1090.11
467.555	1133.76
468.012	1123.06
468.47	1135.36
468.928	1167.56
469.385	1207.91
469.843	1224.76
470.3	1207.51
470.758	1246.81
471.215	1269.36
471.673	1296.51
472.13	1337.71
472.588	1355.06
473.045	1354.01
473.503	1385.11
473.96	1438.01
474.417	1461.61
474.875	1509.11
475.332	1572.26
475.789	1608.91
476.246	1660.76
476.704	1727.71
477.161	1777.31
477.618	1832.01
478.075	1936.91
478.532	2080.36
478.989	2251.26
479.446	2481.21
479.903	2621.91
480.36	2867.56
480.817	3034.76
481.274	3229.26
481.731	3532.26
482.188	3785.91
482.645	4073.26
483.102	4313.31
483.558	4601.61
484.015	4801.76
484.472	4771.96
484.929	4630.76
485.385	4409.31
485.842	4336.56
486.299	4155.61
486.755	3810.86
487.212	3447.81
487.668	3095.81
488.125	2867.61
488.582	2645.06
489.038	2536.96
489.494	2453.51
489.951	2357.51
490.407	2311.51
490.864	2259.16
491.32	2200.41
491.776	2195.06
492.233	2193.56
492.689	2152.41
493.145	2103.31
493.602	2069.01
494.058	2094.76
494.514	2097.16
494.97	2087.91
495.426	2119.76
495.882	2114.91
496.338	2107.06
496.794	2119.91
497.251	2106.86
497.707	2133.21
498.163	2134.21
498.618	2139.31
499.074	2129.81
499.53	2160.26
499.986	2161.36
500.442	2146.86
500.898	2124.01
501.354	2160.96
501.809	2153.76
502.265	2150.06
502.721	2148.56
503.177	2171.06
503.632	2164.11
504.088	2185.11
504.543	2199.26
504.999	2232.11
505.455	2221.71
505.91	2193.81
506.366	2196.86
506.821	2208.06
507.277	2191.61
507.732	2204.11
508.187	2209.71
508.643	2218.26
509.098	2225.66
509.553	2243.76
510.009	2269.11
510.464	2319.01
510.919	2333.21
511.375	2342.86
511.83	2364.06
512.285	2403.71
512.74	2460.71
513.195	2480.81
513.65	2520.06
514.105	2545.06
514.56	2546.61
515.015	2587.06
515.47	2600.61
515.925	2564.31
516.38	2574.96
516.835	2588.66
517.29	2571.46
517.745	2572.71
518.2	2542.26
518.655	2488.51
519.109	2462.31
519.564	2423.61
520.019	2409.96
520.474	2394.61
520.928	2378.91
521.383	2353.26
521.838	2356.01
522.292	2339.71
522.747	2317.76
523.201	2313.26
523.656	2294.96
524.11	2284.01
524.565	2267.06
525.019	2278.11
525.474	2274.56
525.928	2258.46
526.382	2276.86
526.837	2269.91
527.291	2273.11
527.745	2252.01
528.2	2251.76
528.654	2229.56
529.108	2240.06
529.562	2242.06
530.016	2237.46
530.47	2246.81
530.925	2225.01
531.379	2231.81
531.833	2247.81
532.287	2244.21
532.741	2235.61
533.195	2233.86
533.649	2255.06
534.103	2245.11
534.556	2234.16
535.01	2246.41
535.464	2232.76
535.918	2228.51
536.372	2247.31
536.826	2238.56
537.279	2219.01
537.733	2224.56
538.187	2232.26
538.64	2233.46
539.094	2257.26
539.548	2278.61
540.001	2266.56
540.455	2293.01
540.908	2303.46
541.362	2318.76
541.815	2341.76
542.269	2370.91
542.722	2372.81
543.175	2389.26
543.629	2413.86
544.082	2433.31
544.536	2454.71
544.989	2442.06
545.442	2473.81
545.895	2463.46
546.349	2464.11
546.802	2474.61
547.255	2466.96
547.708	2483.21
548.161	2507.96
548.614	2499.61
549.067	2516.71
549.52	2515.46
549.973	2483.31
550.426	2476.51
550.879	2464.11
551.332	2465.61
551.785	2483.41
552.238	2496.46
552.691	2498.86
553.144	2552.36
553.596	2585.46
554.049	2612.21
554.502	2664.81
554.955	2685.61
555.407	2721.01
555.86	2689.46
556.313	2672.91
556.765	2660.01
557.218	2607.41
557.67	2614.26
558.123	2590.61
558.576	2573.96
559.028	2566.26
559.48	2588.46
559.933	2570.66
560.385	2508.66
560.838	2427.06
561.29	2364.01
561.742	2351.01
562.195	2295.41
562.647	2275.31
563.099	2261.51
563.551	2252.86
564.004	2259.71
564.456	2253.26
564.908	2205.76
565.36	2153.76
565.812	2112.16
566.264	2099.11
566.716	2068.21
567.168	2032.86
567.62	2028.86
568.072	2024.86
568.524	2004.61
568.976	2004.76
569.428	1983.31
569.88	1988.11
570.332	1992.96
570.784	1998.51
571.235	1983.41
571.687	2005.36
572.139	1999.41
572.59	2020.31
573.042	2040.46
573.494	2032.61
573.945	2007.66
574.397	1966.06
574.849	1961.71
575.3	1960.06
575.752	1936.51
576.203	1920.16
576.655	1928.06
577.106	1886.11
577.557	1879.86
578.009	1877.91
578.46	1879.46
578.912	1867.56
579.363	1881.46
579.814	1879.26
580.265	1879.01
580.717	1883.11
581.168	1871.66
581.619	1887.01
582.07	1899.61
582.521	1893.51
582.972	1880.86
583.423	1893.01
583.875	1902.71
584.326	1917.51
584.777	1940.06
585.227	1968.26
585.678	1999.46
586.129	2004.31
586.58	2033.71
587.031	2070.36
587.482	2112.96
587.933	2137.41
588.384	2138.81
588.834	2111.01
589.285	2113.26
589.736	2097.46
590.186	2108.86
590.637	2094.31
591.088	2043.66
591.538	2011.06
591.989	1972.61
592.439	1959.46
592.89	1927.61
593.34	1924.66
593.791	1919.21
594.241	1907.96
594.692	1895.56
595.142	1898.01
595.593	1885.31
596.043	1900.51
596.493	1926.21
596.943	1910.06
597.394	1973.56
597.844	1988.31
598.294	2036.21
598.744	2102.26
599.195	2200.56
599.645	2308.76
600.095	2428.36
600.545	2533.21
600.995	2640.66
601.445	2730.86
601.895	2870.91
602.345	2934.01
602.795	2908.11
603.245	2792.56
603.695	2638.36
604.145	2514.56
604.594	2382.71
605.044	2265.86
605.494	2133.51
605.944	2019.26
606.393	1966.76
606.843	1942.91
607.293	1931.16
607.743	1919.91
608.192	1934.36
608.642	1938.91
609.091	1932.81
609.541	1925.26
609.99	1930.96
610.44	1887.21
610.889	1865.56
611.339	1840.51
611.788	1817.21
612.238	1837.81
612.687	1842.51
613.136	1847.91
613.586	1863.26
614.035	1862.36
614.484	1888.76
614.933	1871.01
615.383	1829.91
615.832	1793.41
616.281	1768.36
616.73	1724.26
617.179	1689.11
617.628	1667.86
618.077	1648.16
618.526	1616.31
618.975	1598.61
619.424	1575.71
619.873	1572.86
620.322	1553.51
620.771	1559.41
621.22	1533.21
621.669	1510.46
622.118	1490.76
622.567	1482.21
623.015	1460.51
623.464	1457.46
623.913	1433.21
624.361	1433.71
624.81	1429.91
625.259	1435.06
625.707	1420.76
626.156	1432.36
626.604	1455.66
627.053	1454.81
627.501	1456.91
627.95	1460.16
628.398	1471.21
628.847	1455.16
629.295	1444.86
629.744	1442.21
630.192	1418.16
630.64	1400.86
631.089	1383.46
631.537	1335.56
631.985	1341.76
632.433	1331.01
632.881	1316.16
633.33	1341.91
633.778	1326.16
634.226	1339.36
634.674	1348.56
635.122	1359.26
635.57	1375.66
636.018	1408.16
636.466	1400.71
636.914	1399.11
637.362	1422.06
637.81	1438.81
638.258	1480.06
638.705	1511.51
639.153	1554.96
639.601	1575.21
640.049	1600.86
640.497	1646.61
640.944	1670.61
641.392	1618.36
641.84	1535.31
642.287	1473.61
642.735	1440.36
643.182	1433.51
643.63	1442.36
644.078	1448.81
644.525	1459.86
644.973	1515.61
645.42	1538.16
645.867	1568.01
646.315	1614.01
646.762	1677.61
647.21	1725.41
647.657	1817.41
648.104	1896.61
648.551	1969.41
648.999	2129.36
649.446	2334.66
649.893	2648.21
650.34	3106.76
650.787	3833.86
651.234	4975.01
651.682	6836.41
652.129	9665.46
652.576	13586.76
653.023	15528.91
653.47	15532.11
653.917	15532.16
654.363	15532.06
654.81	15529.06
655.257	15529.71
655.704	15533.51
656.151	10695.81
656.598	7040.46
657.044	5018.81
657.491	3905.16
657.938	3145.81
658.385	2659.06
658.831	2337.46
659.278	2086.31
659.724	1897.16
660.171	1752.76
660.618	1633.31
661.064	1535.01
661.511	1481.86
661.957	1437.66
662.404	1405.81
662.85	1380.61
663.296	1365.36
663.743	1322.96
664.189	1311.76
664.635	1292.21
665.082	1274.96
665.528	1246.61
665.974	1213.86
666.42	1185.76
666.867	1179.66
667.313	1120.71
667.759	1113.06
668.205	1105.11
668.651	1095.76
669.097	1101.71
669.543	1109.21
669.989	1120.11
670.435	1128.56
670.881	1129.36
671.327	1178.11
671.773	1250.21
672.219	1344.41
672.665	1418.06
673.11	1466.06
673.556	1488.11
674.002	1512.16
674.448	1527.51
674.893	1322.26
675.339	1145.86
675.785	1059.31
676.23	1007.46
676.676	967.66
677.122	940.36
677.567	912.96
678.013	880.71
678.458	884.66
678.904	881.01
679.349	870.81
679.794	869.81
680.24	859.71
680.685	850.46
681.131	858.36
681.576	851.76
682.021	863.71
682.466	876.46
682.912	877.86
683.357	921.51
683.802	1008.76
684.247	1083.26
684.692	1154.81
685.137	1195.41
685.583	1229.61
686.028	1288.76
686.473	1225.31
686.918	1070.46
687.363	974.76
687.807	931.46
688.252	887.81
688.697	854.76
689.142	827.26
689.587	825.51
690.032	848.11
690.477	881.71
690.921	919.91
691.366	965.21
691.811	1009.46
692.255	1086.96
692.7	1314.96
693.145	1882.66
693.589	2873.96
694.034	3422.21
694.478	3658.26
694.923	3353.26
695.367	4710.81
695.812	2915.51
696.256	1235.76
696.701	911.66
697.145	841.61
697.59	806.26
698.034	796.41
698.478	793.41
698.922	805.26
699.367	811.66
699.811	847.36
700.255	925.21
700.699	998.11
701.143	1085.91
701.588	1154.56
702.032	1204.01
702.476	1248.21
702.92	1332.36
703.364	1728.21
703.808	2624.56
704.252	3289.31
704.696	3473.91
705.14	3265.41
705.584	4444.71
706.027	2491.41
706.471	1266.61
706.915	945.31
707.359	848.36
707.803	787.51
708.246	758.56
708.69	759.66
709.134	746.16
709.577	746.31
710.021	745.91
710.465	748.86
710.908	739.81
711.352	770.76
711.795	853.21
712.239	918.41
712.682	934.56
713.126	921.21
713.569	1022.91
714.012	843.91
714.456	742.66
714.899	698.61
715.342	667.66
715.786	641.96
716.229	624.11
716.672	617.06
717.115	613.81
717.558	612.61
718.002	627.81
718.445	661.76
718.888	690.36
719.331	704.66
719.774	719.76
720.217	707.76
720.66	673.86
721.103	639.71
721.546	603.61
721.989	592.81
722.432	574.76
722.874	576.31
723.317	591.61
723.76	636.71
724.203	776.56
724.645	1040.56
725.088	1212.56
725.531	1187.71
725.974	1292.46
726.416	1162.56
726.859	734.01
727.301	600.76
727.744	573.71
728.187	569.21
728.629	585.01
729.071	614.86
729.514	646.11
729.956	663.91
730.399	677.76
730.841	679.01
731.283	667.01
731.726	645.51
732.168	660.91
732.61	694.51
733.053	744.11
733.495	822.21
733.937	910.36
734.379	1064.46
734.821	1362.96
735.263	2148.76
735.705	3850.11
736.148	5687.46
736.59	5736.11
737.032	6165.56
737.474	5108.86
737.916	1974.81
738.357	1046.01
738.799	800.86
739.241	738.26
739.683	748.16
740.125	773.36
740.567	779.71
741.008	823.76
741.45	868.61
741.892	918.46
742.334	927.11
742.775	917.36
743.217	887.01
743.658	739.66
744.1	768.71
744.542	891.06
744.983	929.26
745.425	971.26
745.866	944.41
746.307	775.21
746.749	813.56
747.19	1174.31
747.632	2268.51
748.073	4213.61
748.514	5848.41
748.956	7719.26
749.397	9077.11
749.838	6309.26
750.279	5973.06
750.72	3106.96
751.162	1323.26
751.603	762.76
752.044	616.41
752.485	541.51
752.926	514.51
753.367	491.51
753.808	477.16
754.249	468.21
754.69	462.96
755.131	456.61
755.572	457.06
756.013	456.11
756.453	455.21
756.894	464.26
757.335	465.16
757.776	471.36
758.216	485.66
758.657	516.36
759.098	571.91
759.538	686.41
759.979	995.21
760.42	1978.86
760.86	5073.66
761.301	10498.46
761.741	12441.36
762.182	14119.26
762.622	9266.96
763.063	3316.96
763.503	1364.51
763.943	800.31
764.384	637.91
764.824	549.36
765.264	508.51
765.705	480.31
766.145	453.61
766.585	442.91
767.025	428.26
767.465	429.56
767.906	440.16
768.346	460.31
768.786	532.16
769.226	777.36
769.666	1551.46
770.106	3480.86
770.546	5010.91
770.986	5651.36
771.426	4281.36
771.866	1783.96
772.306	815.76
772.745	511.06
773.185	431.66
773.625	418.26
774.065	454.16
774.505	657.51
774.944	1175.56
775.384	1706.56
775.824	1914.61
776.263	1585.26
776.703	831.41
777.142	478.61
777.582	355.61
778.021	325.21
778.461	312.01
778.9	307.16
779.34	298.21
779.779	285.16
780.219	282.21
780.658	270.21
781.097	271.46
781.537	262.81
781.976	262.16
782.415	265.21
782.855	266.26
783.294	261.26
783.733	259.31
784.172	260.61
784.611	259.81
785.05	268.36
785.489	278.51
785.928	285.71
786.367	293.71
786.806	307.71
787.245	333.56
787.684	344.71
788.123	341.16
788.562	326.91
789.001	315.36
789.44	311.21
789.879	308.71
790.317	312.26
790.756	329.56
791.195	373.06
791.634	507.36
792.072	897.01
792.511	2192.26
792.95	4083.61
793.388	4950.86
793.827	3252.71
794.265	1483.46
794.704	714.91
795.142	441.36
795.581	361.86
796.019	332.01
796.458	331.46
796.896	335.46
797.334	384.61
797.773	510.71
798.211	975.56
798.649	2036.81
799.087	3408.76
799.526	4868.61
799.964	5015.26
800.402	3479.76
800.84	1565.36
801.278	772.96
801.716	472.31
802.154	384.66
802.592	362.06
803.03	363.41
803.468	365.81
803.906	371.91
804.344	359.61
804.782	351.06
805.22	349.86
805.658	369.96
806.096	390.76
806.533	443.31
806.971	561.26
807.409	817.11
807.847	1605.76
808.284	4078.71
808.722	7173.26
809.16	10081.76
809.597	13568.36
810.035	15534.06
810.472	11140.21
810.91	4730.46
811.347	2116.91
811.785	1001.51
812.222	628.66
812.66	491.41
813.097	412.76
813.535	360.66
813.972	326.21
814.409	300.66
814.846	284.71
815.284	274.36
815.721	287.16
816.158	311.41
816.595	422.41
817.032	542.61
817.47	488.71
817.907	351.81
818.344	309.91
818.781	308.81
819.218	373.56
819.655	579.96
820.092	755.51
820.529	682.66
820.966	530.66
821.403	363.16
821.839	311.21
822.276	346.56
822.713	416.06
823.15	377.01
823.587	393.71
824.023	679.21
824.46	1672.71
824.897	2926.46
825.333	2308.91
825.77	1061.16
826.206	555.56
826.643	328.01
827.08	246.56
827.516	217.71
827.953	200.96
828.389	194.51
828.825	182.91
829.262	175.51
829.698	167.31
830.135	160.61
830.571	160.71
831.007	161.16
831.443	165.11
831.88	162.41
832.316	167.66
832.752	164.76
833.188	171.31
833.624	176.76
834.06	175.11
834.497	176.26
834.933	177.11
835.369	191.81
835.805	202.76
836.241	214.41
836.677	235.61
837.112	271.81
837.548	339.06
837.984	496.56
838.42	1048.21
838.856	2917.66
839.292	5784.41
839.727	4391.91
840.163	2904.81
840.599	4400.16
841.034	6733.86
841.47	3436.46
841.906	1652.21
842.341	889.86
842.777	664.91
843.212	698.06
843.648	434.46
844.083	297.36
844.519	222.56
844.954	185.46
845.39	164.01
845.825	158.41
846.261	156.21
846.696	147.96
847.131	146.96
847.566	142.76
848.002	144.41
848.437	152.36
848.872	162.81
849.307	198.46
849.742	367.06
850.177	947.26
850.613	2035.76
851.048	1497.91
851.483	686.31
851.918	379.61
852.353	211.31
852.788	149.66
853.223	138.86
853.657	125.96
854.092	123.91
854.527	120.06
854.962	131.96
855.397	136.51
855.832	126.86
856.266	112.01
856.701	106.86
857.136	116.11
857.57	142.11
858.005	171.21
858.44	143.81
858.874	137.96
859.309	136.76
859.743	129.81
860.178	126.31
860.612	145.06
861.047	196.26
861.481	273.86
861.915	191.91
862.35	137.51
862.784	111.21
863.218	104.76
863.653	115.26
864.087	141.46
864.521	174.16
864.955	281.51
865.39	481.96
865.824	380.66
866.258	497.51
866.692	768.96
867.126	567.46
867.56	305.21
867.994	192.01
868.428	163.51
868.862	197.31
869.296	183.01
869.73	225.91
870.164	192.46
870.598	173.76
871.031	120.61
871.465	109.11
871.899	81.81
872.333	77.51
872.766	74.71
873.2	85.76
873.634	79.66
874.067	79.01
874.501	80.06
874.935	82.21
875.368	79.61
875.802	74.36
876.235	69.06
876.669	67.91
877.102	63.91
877.535	60.66
877.969	64.56
878.402	65.26
878.836	64.96
879.269	62.71
879.702	63.16
880.135	66.51
880.569	68.46
881.002	57.76
881.435	62.96
881.868	60.71
882.301	55.66
882.734	57.06
883.167	57.56
883.601	54.21
884.034	56.06
884.467	51.36
884.899	57.01
885.332	51.16
885.765	49.71
886.198	49.91
886.631	49.86
887.064	52.91
887.497	50.21
887.929	52.41
888.362	49.71
888.795	47.16
889.228	52.11
889.66	51.51
890.093	46.11
890.526	52.26
890.958	47.51
891.391	47.51
891.823	47.36
892.256	51.81
892.688	51.96
893.121	41.21
893.553	45.61
893.985	42.96
894.418	44.81
894.85	47.01
895.282	47.66
895.715	41.86
896.147	43.86
896.579	36.46
897.011	51.41
897.444	42.06
897.876	41.46
898.308	44.81
898.74	46.41
899.172	47.06
899.604	46.11
900.036	44.56
900.468	41.71
900.9	51.91
901.332	60.06
901.764	62.41
902.196	59.61
902.628	60.71
903.06	89.91
903.491	97.91
903.923	81.06
904.355	78.06
904.787	80.01
905.218	67.46
905.65	59.31
906.082	57.96
906.513	53.31
906.945	51.81
907.376	50.66
907.808	54.81
908.239	57.96
908.671	65.41
909.102	71.36
909.534	102.96
909.965	180.81
910.397	471.66
910.828	1358.96
911.259	847.11
911.691	451.71
912.122	261.01
912.553	137.46
912.984	78.76
913.415	66.91
913.847	56.26
914.278	56.46
914.709	47.21
915.14	42.36
915.571	51.56
916.002	49.06
916.433	43.01
916.864	43.01
917.295	52.81
917.726	50.36
918.157	67.61
918.587	73.61
919.018	61.01
919.449	59.66
919.88	68.86
920.311	106.41
920.741	286.46
921.172	501.76
921.603	257.91
922.033	165.06
922.464	105.01
922.895	73.36
923.325	49.36
923.756	47.26
924.186	59.01
924.617	84.51
925.047	123.86
925.478	106.51
925.908	77.31
926.338	58.41
926.769	46.81
927.199	41.56
927.629	37.61
928.06	42.86
928.49	42.31
928.92	35.51
929.35	36.91
929.78	26.46
930.21	24.26
930.641	18.71
931.071	24.96
931.501	22.66
931.931	21.86
932.361	22.26
932.791	24.71
933.221	27.06
933.651	38.86
934.08	66.66
934.51	44.31
934.94	36.71
935.37	28.41
935.8	23.21
936.229	21.66
936.659	21.06
937.089	45.81
937.519	63.66
937.948	89.71
938.378	49.41
938.807	28.11
939.237	24.61
939.666	18.76
940.096	11.81
940.525	8.11
940.955	15.91
941.384	13.16
941.814	9.56
942.243	14.56
942.672	12.66
943.102	6.46
943.531	10.26
943.96	11.31
944.39	12.31
944.819	14.21
945.248	9.06
945.677	13.51
946.106	12.06
946.535	13.26
946.964	9.91
947.393	6.96
947.822	10.21
948.251	13.26
948.68	12.81
949.109	8.41
949.538	9.86
949.967	12.16
950.396	11.01
950.825	9.71
951.254	11.61
951.682	5.06
952.111	8.26
952.54	10.11
952.969	8.16
953.397	10.46
953.826	8.41
954.254	9.76
954.683	7.01
955.112	12.56
955.54	9.56
955.969	4.46
956.397	10.51
956.826	4.51
957.254	8.61
957.682	10.81
958.111	12.91
958.539	5.46
958.967	8.11
959.396	10.81
959.824	7.26
960.252	10.51
960.68	8.96
961.109	9.51
961.537	10.66
961.965	3.26
962.393	5.11
962.821	9.36
963.249	10.86
963.677	18.31
964.105	87.01
964.533	147.81
964.961	70.21
965.389	42.86
965.817	24.71
966.245	8.26
966.672	12.86
967.1	11.41
967.528	2.66
967.956	3.01
968.383	4.21
968.811	5.11
969.239	4.46
969.666	6.21
970.094	5.56
970.522	4.46
970.949	5.96
971.377	1.11
971.804	5.11
972.232	-0.04
972.659	3.36
973.087	6.26
973.514	4.01
973.941	6.21
974.369	3.61
974.796	3.16
975.223	3.71
975.651	10.31
976.078	5.71
976.505	11.01
976.932	31.11
977.359	44.16
977.786	25.96
978.214	19.11
978.641	7.81
979.068	5.91
979.495	7.81
979.922	3.71
980.349	5.51
980.776	6.81
981.202	7.86
981.629	8.96
982.056	4.11
982.483	-0.69
982.91	8.81
983.337	0.16
983.763	5.56
984.19	8.01
984.617	3.96
985.043	7.16
985.47	9.21
985.897	7.31
986.323	8.71
986.75	4.36
987.176	6.26
987.603	5.06
988.029	4.06
988.456	8.81
988.882	5.41
989.308	3.81
989.735	4.31
990.161	3.81
990.587	4.06
991.014	5.11
991.44	4.36
991.866	5.96
992.292	3.41
992.719	2.66
993.145	4.06
993.571	6.56
993.997	6.16
994.423	9.96
994.849	-1.94
995.275	6.41
995.701	5.26
996.127	-3.89
996.553	1.71
996.979	3.16
997.405	8.86
997.83	5.56
998.256	4.76
998.682	5.26
999.108	5.21
999.534	-2.04
999.959	-1.19
1000.385	9.86
1000.811	-0.24
1001.236	-4.19
1001.662	-0.59
1002.087	9.06
1002.513	3.91
1002.938	1.36
1003.364	2.46
1003.789	4.36
1004.215	-0.29
1004.64	-0.74
1005.066	5.11
1005.491	7.71
1005.916	5.56
1006.342	6.46
1006.767	6.21
1007.192	9.21
1007.617	7.81
1008.042	3.81
1008.468	7.16
1008.893	9.41
1009.318	17.81
1009.743	20.06
1010.168	35.01
1010.593	26.21
1011.018	13.86
1011.443	11.91
1011.868	8.26
1012.293	6.06
1012.718	-1.69
1013.143	2.46
1013.567	2.31
1013.992	5.41
1014.417	3.71
1014.842	0.16
1015.267	1.16
1015.691	8.01
1016.116	0.96
1016.541	1.26
1016.965	7.16
1017.39	4.41
1017.814	1.76
1018.239	-4.94
1018.663	-4.44
1019.088	-4.79
1019.512	5.01
1019.937	-1.34
1020.361	2.31
1020.785	2.06
1021.21	-3.14
1021.634	-3.89
1022.058	3.21
1022.483	0.26
1022.907	0.61
1023.331	2.01
1023.755	-3.14
1024.179	3.51
1024.604	1.11
1025.028	2.86
1025.452	3.56
1025.876	0.96
1026.3	2.81
1026.724	-5.24
1027.148	1.71
1027.572	1.96
1027.996	5.71
1028.42	3.51
1028.843	-0.84
1029.267	1.31
1029.691	-0.14
1030.115	-0.04
1030.539	-2.64
1030.962	-6.69
1031.386	1.01
1031.81	-3.04
1032.233	0.11
1032.657	-6.04
1033.08	5.26
1033.504	2.21
1033.927	0.16
1034.351	-0.54
1034.774	0.26
1035.198	-0.14
1035.621	1.36
1036.045	-1.89
1036.468	4.11
1036.891	-1.14
1037.315	1.56
1037.738	1.76
1038.161	3.96
1038.584	-0.49
1039.008	-4.04
1039.431	-2.39
1039.854	-3.19
1040.277	2.76
1040.7	-4.64
1041.123	-1.49
1041.546	2.16
1041.969	3.31
1042.392	0.01
1042.815	-10.19
1043.238	-4.59
1043.661	-2.24
1044.084	-5.54
1044.507	0.31
1044.93	-0.44
1045.352	-0.34
1045.775	6.61
1046.198	4.11
1046.621	2.06
1047.043	-4.39
1047.466	2.21
1047.889	-1.89
1048.311	2.01
1048.734	2.16
1049.156	0.76
1049.579	-1.09
1050.001	-0.99
1050.424	-4.64
1050.846	-1.24
1051.269	-5.59
1051.691	1.11
1052.113	0.96
1052.536	-0.99
1052.958	-4.79
1053.38	2.36
1053.802	1.26
1054.225	1.16
1054.647	4.61
1055.069	-1.89
1055.491	1.31
1055.913	2.36
1056.335	-8.79
1056.757	-6.74
1057.179	-0.69
1057.601	-1.89
1058.023	-0.99
1058.445	-4.99
1058.867	5.01
1059.289	0.61
1059.711	-5.24
1060.133	3.21
1060.555	0.11
1060.976	0.11
1061.398	-4.04
1061.82	0.26
1062.241	0.11
1062.663	1.66
1063.085	-5.39
1063.506	-6.64
1063.928	-6.19
1064.35	-1.39
1064.771	2.81
1065.193	-3.74
1065.614	-4.94
1066.035	2.21
1066.457	3.86
1066.878	4.31
1067.3	-0.29
1067.721	1.36
1068.142	6.41
1068.564	5.86
1068.985	2.91
1069.406	-4.69
1069.827	0.86
1070.248	-1.54
1070.67	-3.09
1071.091	-5.44
1071.512	-3.09
1071.933	-2.84
1072.354	-7.34
1072.775	-2.34
1073.196	0.21
1073.617	-4.79
1074.038	-0.64
1074.459	-2.44
1074.88	-4.14
1075.3	1.31
1075.721	-1.44
1076.142	-3.04
1076.563	-3.34
1076.983	2.96
1077.404	-5.69
1077.825	1.21
1078.246	-7.74
1078.666	-6.39
1079.087	-3.34
1079.507	-4.39
1079.928	0.01
1080.348	-1.84
1080.769	1.76
1081.189	-2.64
1081.61	-5.74
1082.03	0.46
1082.451	-2.54
1082.871	-2.59
1083.291	-0.14
1083.711	-1.94
1084.132	-5.69
1084.552	-3.84
1084.972	-6.49
1085.392	-4.14
1085.813	-2.79
1086.233	-2.34
1086.653	4.56
1087.073	-5.24
1087.493	-3.49
1087.913	-4.64
1088.333	-0.24
1088.753	1.41
1089.173	-1.69
1089.593	-0.79
1090.013	-5.79
1090.433	-6.59
1090.852	4.61
1091.272	-3.19
1091.692	-2.09
1092.112	-3.29
1092.531	-6.54
1092.951	-1.99
1093.371	-4.94
1093.79	-2.34
1094.21	-3.79
1094.63	-0.34
1095.049	-2.84
1095.469	-8.79
1095.888	-0.69
1096.308	-1.09
1096.727	-4.04
1097.146	-3.64
1097.566	-3.24
1097.985	-2.74
1098.405	-0.69
1098.824	-2.04
1099.243	-5.64
1099.662	-4.04
1100.082	0.36
1100.501	0.01
1100.92	2.46
1101.339	-0.79
1101.758	-3.14
