Data from MSPlasma+Separation6_Subt14_10-14-01-964.txt Node
Date: Fri Jul 21 10:14:01 EDT 2017
User: Ender
Spectrometer: HR+D1039
Trigger mode: 0
Integration Time (sec): 6.430000E-3
Scans to average: 20
Electric dark correction enabled: true
Nonlinearity correction enabled: false
Boxcar width: 0
XAxis mode: Wavelengths
Number of Pixels in Spectrum: 2048
>>>>>Begin Spectral Data<<<<<
187.836	-4.33
188.309	-4.33
188.782	-4.33
189.255	1.82
189.728	1.07
190.201	-1.33
190.674	0.22
191.147	-4.03
191.619	0.97
192.092	-0.03
192.565	-0.73
193.038	2.52
193.511	0.72
193.984	2.77
194.456	-1.43
194.929	-0.43
195.402	-0.28
195.874	2.47
196.347	2.47
196.82	-0.33
197.292	-3.83
197.765	-0.18
198.237	-4.53
198.71	-2.63
199.182	0.92
199.655	3.87
200.127	-0.58
200.6	-0.03
201.072	3.67
201.544	-2.48
202.017	2.82
202.489	2.12
202.961	-1.98
203.433	1.07
203.906	2.72
204.378	-0.28
204.85	-0.68
205.322	-1.98
205.794	-0.83
206.266	-3.68
206.739	5.42
207.211	-2.43
207.683	3.17
208.155	1.02
208.627	1.37
209.099	3.02
209.57	-0.68
210.042	1.82
210.514	0.67
210.986	-0.98
211.458	-1.98
211.93	1.37
212.402	-0.53
212.873	-2.68
213.345	-1.78
213.817	2.42
214.288	0.82
214.76	1.47
215.232	-0.58
215.703	4.32
216.175	5.02
216.646	2.77
217.118	2.42
217.589	2.42
218.061	1.02
218.532	-3.33
219.004	8.12
219.475	1.22
219.946	4.22
220.418	3.82
220.889	0.22
221.36	8.82
221.832	8.62
222.303	4.02
222.774	5.22
223.245	0.07
223.717	0.77
224.188	1.92
224.659	4.92
225.13	-3.28
225.601	6.07
226.072	8.27
226.543	7.07
227.014	5.42
227.485	3.97
227.956	6.67
228.427	10.37
228.898	6.52
229.369	9.17
229.839	6.37
230.31	11.77
230.781	9.32
231.252	16.37
231.722	9.02
232.193	7.17
232.664	9.47
233.135	9.22
233.605	7.47
234.076	13.47
234.546	11.02
235.017	13.57
235.487	10.82
235.958	10.47
236.428	15.62
236.899	13.07
237.369	15.82
237.84	15.92
238.31	16.22
238.78	13.67
239.251	17.32
239.721	15.22
240.191	12.72
240.662	14.32
241.132	14.57
241.602	17.62
242.072	15.27
242.542	18.12
243.013	15.82
243.483	20.42
243.953	18.82
244.423	16.57
244.893	19.12
245.363	20.57
245.833	26.57
246.303	18.52
246.773	26.62
247.243	22.47
247.712	19.27
248.182	21.57
248.652	25.02
249.122	27.22
249.592	25.87
250.061	30.42
250.531	26.17
251.001	26.17
251.471	28.37
251.94	29.02
252.41	27.77
252.879	26.47
253.349	36.37
253.818	30.02
254.288	36.97
254.757	32.77
255.227	35.42
255.696	31.42
256.166	36.67
256.635	35.32
257.105	39.57
257.574	36.57
258.043	38.72
258.513	35.22
258.982	33.72
259.451	32.97
259.92	34.27
260.389	40.22
260.859	39.92
261.328	43.02
261.797	38.02
262.266	38.72
262.735	47.87
263.204	40.97
263.673	45.07
264.142	37.12
264.611	42.22
265.08	44.72
265.549	40.67
266.018	46.42
266.487	47.37
266.955	45.92
267.424	48.22
267.893	50.42
268.362	55.37
268.83	47.07
269.299	49.32
269.768	50.87
270.236	52.67
270.705	54.57
271.174	56.27
271.642	49.52
272.111	53.82
272.579	55.57
273.048	49.07
273.516	55.47
273.985	55.07
274.453	50.52
274.922	53.97
275.39	56.57
275.858	59.72
276.327	60.67
276.795	60.27
277.263	61.22
277.731	64.62
278.2	64.82
278.668	59.52
279.136	67.82
279.604	60.97
280.072	66.37
280.54	64.87
281.008	69.42
281.477	66.92
281.945	68.22
282.413	68.72
282.881	69.12
283.348	72.32
283.816	69.62
284.284	70.52
284.752	73.62
285.22	71.87
285.688	73.97
286.156	75.27
286.623	77.62
287.091	75.17
287.559	79.92
288.026	83.47
288.494	82.47
288.962	83.32
289.429	84.47
289.897	81.42
290.364	78.62
290.832	85.37
291.3	86.62
291.767	85.97
292.234	87.12
292.702	81.82
293.169	89.67
293.637	89.62
294.104	96.22
294.571	93.47
295.039	96.02
295.506	88.87
295.973	95.37
296.44	91.72
296.908	97.07
297.375	95.22
297.842	97.62
298.309	92.82
298.776	96.67
299.243	102.52
299.71	99.57
300.177	101.52
300.644	96.12
301.111	102.72
301.578	103.57
302.045	107.82
302.512	106.42
302.979	112.57
303.446	113.52
303.913	112.07
304.379	115.42
304.846	118.72
305.313	129.92
305.78	126.52
306.246	123.02
306.713	121.57
307.18	125.22
307.646	127.97
308.113	126.12
308.579	130.62
309.046	135.92
309.512	134.07
309.979	138.37
310.445	137.22
310.912	139.27
311.378	143.12
311.845	143.77
312.311	135.87
312.777	140.52
313.244	139.87
313.71	147.67
314.176	154.92
314.642	150.67
315.109	150.77
315.575	147.87
316.041	151.52
316.507	149.47
316.973	157.97
317.439	156.07
317.905	160.37
318.371	153.47
318.837	156.37
319.303	160.57
319.769	155.72
320.235	162.07
320.701	162.57
321.167	166.67
321.633	166.82
322.099	167.67
322.564	166.52
323.03	165.32
323.496	175.22
323.962	173.82
324.427	174.87
324.893	169.62
325.359	180.67
325.824	176.67
326.29	185.07
326.755	183.37
327.221	181.17
327.686	191.87
328.152	193.42
328.617	194.62
329.083	197.97
329.548	202.97
330.014	203.47
330.479	198.52
330.944	202.37
331.41	207.82
331.875	200.32
332.34	197.97
332.805	206.42
333.271	211.02
333.736	206.72
334.201	205.07
334.666	221.37
335.131	228.42
335.596	225.12
336.061	210.42
336.526	217.07
336.991	214.62
337.456	212.57
337.921	215.77
338.386	212.17
338.851	212.77
339.316	209.47
339.781	212.22
340.246	223.52
340.711	218.27
341.175	230.12
341.64	235.82
342.105	237.57
342.569	240.72
343.034	235.62
343.499	241.32
343.963	244.52
344.428	246.27
344.893	244.27
345.357	258.17
345.822	253.67
346.286	260.42
346.751	263.92
347.215	269.77
347.679	275.82
348.144	291.92
348.608	290.57
349.073	292.07
349.537	299.82
350.001	299.97
350.465	306.92
350.93	297.92
351.394	306.12
351.858	306.62
352.322	309.67
352.786	315.42
353.25	314.87
353.715	320.67
354.179	333.72
354.643	337.52
355.107	345.02
355.571	335.62
356.035	332.92
356.498	328.92
356.962	332.67
357.426	327.02
357.89	329.67
358.354	324.42
358.818	325.97
359.281	329.27
359.745	334.27
360.209	330.37
360.673	330.07
361.136	329.27
361.6	334.27
362.064	344.72
362.527	347.12
362.991	352.37
363.454	345.07
363.918	350.42
364.381	353.27
364.845	356.47
365.308	354.17
365.772	358.47
366.235	357.37
366.698	355.02
367.162	355.57
367.625	365.17
368.088	375.57
368.552	369.32
369.015	362.77
369.478	376.92
369.941	370.77
370.404	382.52
370.867	373.62
371.331	384.47
371.794	391.07
372.257	387.52
372.72	387.22
373.183	392.32
373.646	393.32
374.109	393.07
374.572	395.57
375.035	401.17
375.497	405.62
375.96	410.07
376.423	414.07
376.886	423.42
377.349	424.32
377.811	428.92
378.274	429.77
378.737	421.92
379.199	429.17
379.662	433.92
380.125	440.87
380.587	448.12
381.05	448.12
381.512	453.52
381.975	463.27
382.437	477.37
382.9	468.02
383.362	468.12
383.825	473.32
384.287	473.92
384.75	476.27
385.212	481.52
385.674	485.72
386.136	494.72
386.599	483.97
387.061	494.32
387.523	493.72
387.985	490.37
388.447	498.62
388.91	496.47
389.372	499.52
389.834	501.92
390.296	495.07
390.758	504.42
391.22	497.47
391.682	506.72
392.144	503.32
392.606	507.47
393.068	515.67
393.529	553.87
393.991	563.97
394.453	538.02
394.915	516.77
395.377	509.42
395.838	509.47
396.3	516.12
396.762	528.47
397.224	518.42
397.685	518.52
398.147	528.27
398.608	532.92
399.07	536.27
399.531	542.17
399.993	553.82
400.454	560.72
400.916	557.82
401.377	570.57
401.839	574.37
402.3	579.97
402.762	602.47
403.223	637.12
403.684	641.57
404.145	619.82
404.607	607.67
405.068	592.27
405.529	601.62
405.99	616.62
406.451	622.42
406.913	616.97
407.374	618.02
407.835	616.17
408.296	631.37
408.757	633.57
409.218	651.22
409.679	657.27
410.14	665.07
410.601	679.92
411.062	682.17
411.522	684.32
411.983	685.87
412.444	686.27
412.905	701.87
413.366	721.37
413.826	756.57
414.287	853.42
414.748	1010.07
415.208	1026.57
415.669	862.47
416.13	796.77
416.59	766.57
417.051	795.22
417.511	833.97
417.972	896.12
418.432	961.92
418.893	1066.67
419.353	1016.57
419.814	792.52
420.274	712.77
420.734	699.02
421.195	723.37
421.655	718.82
422.115	734.32
422.576	725.42
423.036	730.52
423.496	758.17
423.956	786.07
424.416	839.07
424.876	940.07
425.336	935.87
425.797	925.37
426.257	910.37
426.717	864.52
427.177	810.42
427.637	808.62
428.097	839.27
428.556	865.87
429.016	931.47
429.476	936.67
429.936	918.77
430.396	915.92
430.856	943.32
431.315	954.67
431.775	1024.77
432.235	1101.67
432.694	1109.52
433.154	1054.72
433.614	1038.47
434.073	994.02
434.533	900.12
434.993	871.92
435.452	869.77
435.912	850.02
436.371	849.62
436.83	839.12
437.29	820.92
437.749	801.72
438.209	796.62
438.668	814.97
439.127	821.47
439.587	810.22
440.046	789.22
440.505	809.22
440.964	810.72
441.424	837.52
441.883	852.57
442.342	806.22
442.801	777.97
443.26	780.97
443.719	776.67
444.178	775.42
444.637	780.22
445.096	780.42
445.555	798.82
446.014	797.12
446.473	787.27
446.932	791.77
447.391	800.42
447.849	810.27
448.308	803.17
448.767	809.57
449.226	821.92
449.685	833.62
450.143	864.22
450.602	873.57
451.061	820.97
451.519	820.42
451.978	803.57
452.436	806.92
452.895	814.17
453.353	815.57
453.812	801.77
454.27	800.87
454.729	804.57
455.187	816.87
455.646	826.97
456.104	820.12
456.562	829.92
457.021	839.27
457.479	807.52
457.937	838.57
458.395	858.82
458.854	850.22
459.312	840.32
459.77	852.27
460.228	853.37
460.686	864.37
461.144	865.87
461.602	860.17
462.06	859.42
462.518	881.97
462.976	883.62
463.434	886.57
463.892	899.22
464.35	918.62
464.808	929.47
465.266	945.47
465.724	954.12
466.181	952.52
466.639	953.32
467.097	981.92
467.555	1021.72
468.012	1010.87
468.47	1017.62
468.928	1059.02
469.385	1084.97
469.843	1092.22
470.3	1085.82
470.758	1127.42
471.215	1139.52
471.673	1163.42
472.13	1198.12
472.588	1228.97
473.045	1210.52
473.503	1230.37
473.96	1293.42
474.417	1293.67
474.875	1356.37
475.332	1411.17
475.789	1436.92
476.246	1475.62
476.704	1529.47
477.161	1576.17
477.618	1612.87
478.075	1705.62
478.532	1830.27
478.989	1957.77
479.446	2156.57
479.903	2258.82
480.36	2454.47
480.817	2593.82
481.274	2751.17
481.731	3000.27
482.188	3204.72
482.645	3435.57
483.102	3632.27
483.558	3872.47
484.015	4035.07
484.472	4006.42
484.929	3883.52
485.385	3746.92
485.842	3672.47
486.299	3540.52
486.755	3252.02
487.212	2939.37
487.668	2660.37
488.125	2488.77
488.582	2300.72
489.038	2225.52
489.494	2155.12
489.951	2100.42
490.407	2046.87
490.864	2007.47
491.32	1964.97
491.776	1948.47
492.233	1958.92
492.689	1940.52
493.145	1895.57
493.602	1863.32
494.058	1883.62
494.514	1891.77
494.97	1894.87
495.426	1912.22
495.882	1913.07
496.338	1910.37
496.794	1923.82
497.251	1908.62
497.707	1946.27
498.163	1946.77
498.618	1953.12
499.074	1939.32
499.53	1963.47
499.986	1967.57
500.442	1958.87
500.898	1944.97
501.354	1952.97
501.809	1966.97
502.265	1961.67
502.721	1959.57
503.177	1969.52
503.632	1983.72
504.088	1983.72
504.543	2009.12
504.999	2035.37
505.455	2028.47
505.91	2000.77
506.366	2012.82
506.821	2005.77
507.277	1990.97
507.732	2005.87
508.187	2010.97
508.643	2018.72
509.098	2031.07
509.553	2047.47
510.009	2081.57
510.464	2113.57
510.919	2136.47
511.375	2140.12
511.83	2175.07
512.285	2201.17
512.74	2255.37
513.195	2283.87
513.65	2309.67
514.105	2329.82
514.56	2341.57
515.015	2392.12
515.47	2400.07
515.925	2358.07
516.38	2375.47
516.835	2377.47
517.29	2367.02
517.745	2367.62
518.2	2331.47
518.655	2292.82
519.109	2261.32
519.564	2229.52
520.019	2205.92
520.474	2195.92
520.928	2183.02
521.383	2159.82
521.838	2154.77
522.292	2134.32
522.747	2124.62
523.201	2123.02
523.656	2092.12
524.11	2088.42
524.565	2087.87
525.019	2080.37
525.474	2090.17
525.928	2073.87
526.382	2078.72
526.837	2076.22
527.291	2091.12
527.745	2070.52
528.2	2082.22
528.654	2053.97
529.108	2052.77
529.562	2052.87
530.016	2047.72
530.47	2056.22
530.925	2063.52
531.379	2048.32
531.833	2072.32
532.287	2070.52
532.741	2056.97
533.195	2051.37
533.649	2065.82
534.103	2077.22
534.556	2057.17
535.01	2067.87
535.464	2050.42
535.918	2057.57
536.372	2080.67
536.826	2055.42
537.279	2044.67
537.733	2043.62
538.187	2060.17
538.64	2053.52
539.094	2068.82
539.548	2087.32
540.001	2093.97
540.455	2097.72
540.908	2116.32
541.362	2143.42
541.815	2143.57
542.269	2198.17
542.722	2186.82
543.175	2206.57
543.629	2212.52
544.082	2231.97
544.536	2255.67
544.989	2267.72
545.442	2279.97
545.895	2262.42
546.349	2267.12
546.802	2289.52
547.255	2272.27
547.708	2288.37
548.161	2312.97
548.614	2317.97
549.067	2335.57
549.52	2310.32
549.973	2274.57
550.426	2282.57
550.879	2270.52
551.332	2281.72
551.785	2305.52
552.238	2319.77
552.691	2314.82
553.144	2358.87
553.596	2381.87
554.049	2407.52
554.502	2447.67
554.955	2492.87
555.407	2535.62
555.86	2493.17
556.313	2476.97
556.765	2457.77
557.218	2412.87
557.67	2412.92
558.123	2391.57
558.576	2371.12
559.028	2377.52
559.48	2402.52
559.933	2381.52
560.385	2323.37
560.838	2248.82
561.29	2183.72
561.742	2168.42
562.195	2125.57
562.647	2109.07
563.099	2098.37
563.551	2077.57
564.004	2101.02
564.456	2069.27
564.908	2044.62
565.36	1990.07
565.812	1946.07
566.264	1933.87
566.716	1911.52
567.168	1878.57
567.62	1878.17
568.072	1884.17
568.524	1861.57
568.976	1857.17
569.428	1835.57
569.88	1825.42
570.332	1846.62
570.784	1837.32
571.235	1831.32
571.687	1855.72
572.139	1862.72
572.59	1865.37
573.042	1879.82
573.494	1880.97
573.945	1848.52
574.397	1819.32
574.849	1815.92
575.3	1815.07
575.752	1789.52
576.203	1777.27
576.655	1781.77
577.106	1759.12
577.557	1747.47
578.009	1741.97
578.46	1745.02
578.912	1737.37
579.363	1745.72
579.814	1731.77
580.265	1742.07
580.717	1739.97
581.168	1739.42
581.619	1741.47
582.07	1759.27
582.521	1747.02
582.972	1737.72
583.423	1755.52
583.875	1752.32
584.326	1772.97
584.777	1795.02
585.227	1826.42
585.678	1845.77
586.129	1869.22
586.58	1872.32
587.031	1909.42
587.482	1958.97
587.933	1982.92
588.384	1980.12
588.834	1960.27
589.285	1954.12
589.736	1956.32
590.186	1963.22
590.637	1939.47
591.088	1891.02
591.538	1863.52
591.989	1823.22
592.439	1807.42
592.89	1793.97
593.34	1779.22
593.791	1775.27
594.241	1763.17
594.692	1760.97
595.142	1761.97
595.593	1762.67
596.043	1768.12
596.493	1787.87
596.943	1775.92
597.394	1827.07
597.844	1841.52
598.294	1884.62
598.744	1962.27
599.195	2035.57
599.645	2157.62
600.095	2274.12
600.545	2366.27
600.995	2471.62
601.445	2556.17
601.895	2664.72
602.345	2746.82
602.795	2725.27
603.245	2608.67
603.695	2467.77
604.145	2338.62
604.594	2232.62
605.044	2120.12
605.494	1980.97
605.944	1885.32
606.393	1837.12
606.843	1803.12
607.293	1805.32
607.743	1787.22
608.192	1798.02
608.642	1798.52
609.091	1795.67
609.541	1792.42
609.99	1788.17
610.44	1756.17
610.889	1748.22
611.339	1724.02
611.788	1688.07
612.238	1698.77
612.687	1715.97
613.136	1728.12
613.586	1735.02
614.035	1731.42
614.484	1748.57
614.933	1755.57
615.383	1713.22
615.832	1667.17
616.281	1653.97
616.73	1608.72
617.179	1569.52
617.628	1538.42
618.077	1523.12
618.526	1504.17
618.975	1492.27
619.424	1463.37
619.873	1463.87
620.322	1455.22
620.771	1446.57
621.22	1419.87
621.669	1397.67
622.118	1383.27
622.567	1373.32
623.015	1351.57
623.464	1348.32
623.913	1331.52
624.361	1333.37
624.81	1324.37
625.259	1325.22
625.707	1318.92
626.156	1328.22
626.604	1354.12
627.053	1352.17
627.501	1354.82
627.95	1355.02
628.398	1368.37
628.847	1365.67
629.295	1349.22
629.744	1336.02
630.192	1310.37
630.64	1300.12
631.089	1279.77
631.537	1248.22
631.985	1237.62
632.433	1237.87
632.881	1217.72
633.33	1231.87
633.778	1233.47
634.226	1244.57
634.674	1258.77
635.122	1257.67
635.57	1281.52
636.018	1295.67
636.466	1295.57
636.914	1299.67
637.362	1319.92
637.81	1335.17
638.258	1380.72
638.705	1397.02
639.153	1442.52
639.601	1449.17
640.049	1482.02
640.497	1514.97
640.944	1555.77
641.392	1504.17
641.84	1415.92
642.287	1357.77
642.735	1327.22
643.182	1314.92
643.63	1314.72
644.078	1322.42
644.525	1334.07
644.973	1379.22
645.42	1402.57
645.867	1436.77
646.315	1459.77
646.762	1511.12
647.21	1560.17
647.657	1638.47
648.104	1694.12
648.551	1732.22
648.999	1876.47
649.446	2053.22
649.893	2277.17
650.34	2652.17
650.787	3248.97
651.234	4164.17
651.682	5717.82
652.129	8025.67
652.576	11392.57
653.023	14891.92
653.47	15534.92
653.917	15534.97
654.363	15534.87
654.81	15531.87
655.257	15532.52
655.704	14658.07
656.151	8912.27
656.598	5883.87
657.044	4223.47
657.491	3312.97
657.938	2700.02
658.385	2297.42
658.831	2037.12
659.278	1824.27
659.724	1685.62
660.171	1566.12
660.618	1457.42
661.064	1386.97
661.511	1340.22
661.957	1293.17
662.404	1266.12
662.85	1255.57
663.296	1236.92
663.743	1211.62
664.189	1192.82
664.635	1184.32
665.082	1167.12
665.528	1153.22
665.974	1115.22
666.42	1101.22
666.867	1085.57
667.313	1031.42
667.759	1020.77
668.205	1017.92
668.651	1022.37
669.097	1010.22
669.543	1019.77
669.989	1036.07
670.435	1028.57
670.881	1041.87
671.327	1077.92
671.773	1161.07
672.219	1248.77
672.665	1327.52
673.11	1372.52
673.556	1384.32
674.002	1413.17
674.448	1425.32
674.893	1231.22
675.339	1076.32
675.785	994.22
676.23	938.87
676.676	891.72
677.122	872.27
677.567	847.77
678.013	829.97
678.458	825.47
678.904	817.97
679.349	813.87
679.794	804.32
680.24	807.02
680.685	796.87
681.131	797.82
681.576	797.27
682.021	808.77
682.466	810.07
682.912	820.67
683.357	864.22
683.802	935.97
684.247	1016.12
684.692	1081.22
685.137	1125.07
685.583	1154.72
686.028	1197.47
686.473	1153.52
686.918	1002.37
687.363	910.57
687.807	861.87
688.252	829.52
688.697	801.17
689.142	770.12
689.587	779.37
690.032	786.47
690.477	818.07
690.921	855.67
691.366	908.42
691.811	946.17
692.255	1017.97
692.7	1233.77
693.145	1763.42
693.589	2698.57
694.034	3214.92
694.478	3439.77
694.923	3145.77
695.367	4466.12
695.812	2727.02
696.256	1158.52
696.701	850.02
697.145	787.82
697.59	759.32
698.034	745.12
698.478	744.52
698.922	744.22
699.367	761.07
699.811	805.72
700.255	864.62
700.699	938.72
701.143	1012.37
701.588	1083.87
702.032	1130.92
702.476	1167.92
702.92	1244.02
703.364	1621.77
703.808	2481.42
704.252	3079.57
704.696	3256.92
705.14	3082.17
705.584	4223.82
706.027	2362.72
706.471	1188.82
706.915	888.57
707.359	795.17
707.803	744.07
708.246	707.77
708.69	711.17
709.134	698.52
709.577	694.12
710.021	704.27
710.465	698.37
710.908	694.67
711.352	716.42
711.795	798.72
712.239	859.92
712.682	884.67
713.126	861.02
713.569	963.07
714.012	793.62
714.456	690.57
714.899	655.87
715.342	622.57
715.786	608.67
716.229	585.67
716.672	571.52
717.115	566.27
717.558	583.57
718.002	598.92
718.445	620.57
718.888	652.12
719.331	663.92
719.774	674.92
720.217	666.12
720.66	633.72
721.103	605.67
721.546	571.72
721.989	552.22
722.432	539.57
722.874	541.92
723.317	547.72
723.76	595.82
724.203	728.97
724.645	970.37
725.088	1136.12
725.531	1124.87
725.974	1227.77
726.416	1108.17
726.859	687.87
727.301	563.02
727.744	542.52
728.187	545.32
728.629	555.17
729.071	574.77
729.514	610.17
729.956	624.52
730.399	639.87
730.841	636.07
731.283	621.22
731.726	609.92
732.168	618.22
732.61	654.02
733.053	695.97
733.495	771.07
733.937	852.87
734.379	1013.87
734.821	1285.47
735.263	2028.22
735.705	3649.62
736.148	5362.82
736.59	5392.92
737.032	5851.77
737.474	4859.17
737.916	1875.17
738.357	987.02
738.799	753.97
739.241	694.97
739.683	712.52
740.125	724.92
740.567	730.17
741.008	781.62
741.45	820.97
741.892	864.62
742.334	866.12
742.775	868.82
743.217	828.12
743.658	697.62
744.1	721.27
744.542	837.22
744.983	867.37
745.425	915.67
745.866	891.07
746.307	728.42
746.749	766.57
747.19	1102.77
747.632	2132.47
748.073	3969.77
748.514	5496.82
748.956	7301.27
749.397	8573.97
749.838	5965.47
750.279	5670.57
750.72	2945.12
751.162	1244.92
751.603	724.32
752.044	575.72
752.485	511.37
752.926	476.02
753.367	462.82
753.808	447.32
754.249	433.22
754.69	432.27
755.131	426.37
755.572	432.82
756.013	424.77
756.453	419.62
756.894	439.02
757.335	436.47
757.776	449.52
758.216	460.22
758.657	482.37
759.098	541.42
759.538	652.52
759.979	928.17
760.42	1878.87
760.86	4807.57
761.301	9944.97
761.741	11776.12
762.182	13500.17
762.622	8793.02
763.063	3137.92
763.503	1285.27
763.943	757.42
764.384	599.67
764.824	514.62
765.264	477.87
765.705	456.07
766.145	424.47
766.585	411.22
767.025	394.87
767.465	401.37
767.906	405.82
768.346	434.17
768.786	503.82
769.226	737.02
769.666	1475.92
770.106	3301.72
770.546	4739.07
770.986	5357.57
771.426	4050.07
771.866	1691.72
772.306	770.72
772.745	475.57
773.185	405.27
773.625	394.17
774.065	424.87
774.505	609.62
774.944	1100.92
775.384	1600.47
775.824	1802.42
776.263	1481.27
776.703	782.22
777.142	445.22
777.582	333.22
778.021	299.42
778.461	288.72
778.9	290.07
779.34	275.07
779.779	266.87
780.219	266.92
780.658	258.42
781.097	256.92
781.537	251.22
781.976	253.82
782.415	247.37
782.855	246.02
783.294	248.02
783.733	238.67
784.172	244.17
784.611	248.62
785.05	253.87
785.489	254.57
785.928	271.12
786.367	271.97
786.806	291.22
787.245	313.77
787.684	325.17
788.123	322.22
788.562	308.62
789.001	299.02
789.44	291.57
789.879	288.02
790.317	294.02
790.756	307.22
791.195	352.67
791.634	477.32
792.072	847.82
792.511	2092.47
792.95	3866.72
793.388	4694.32
793.827	3066.22
794.265	1403.22
794.704	680.82
795.142	415.12
795.581	340.32
796.019	313.02
796.458	310.27
796.896	316.82
797.334	370.92
797.773	482.37
798.211	912.92
798.649	1933.07
799.087	3251.67
799.526	4590.27
799.964	4743.82
800.402	3291.32
800.84	1482.02
801.278	727.02
801.716	440.17
802.154	366.17
802.592	337.72
803.03	343.67
803.468	345.97
803.906	344.82
804.344	338.42
804.782	335.67
805.22	334.47
805.658	349.67
806.096	371.82
806.533	413.97
806.971	526.67
807.409	774.07
807.847	1531.52
808.284	3865.52
808.722	6805.27
809.16	9555.32
809.597	12901.72
810.035	15474.42
810.472	10559.37
810.91	4478.47
811.347	2005.32
811.785	949.67
812.222	597.82
812.66	458.92
813.097	388.97
813.535	337.42
813.972	302.62
814.409	282.72
814.846	268.82
815.284	257.47
815.721	263.77
816.158	290.32
816.595	401.27
817.032	517.92
817.47	462.72
817.907	330.97
818.344	287.97
818.781	289.22
819.218	354.62
819.655	542.37
820.092	718.32
820.529	650.72
820.966	504.67
821.403	343.97
821.839	289.77
822.276	323.97
822.713	386.32
823.15	357.12
823.587	368.42
824.023	633.17
824.46	1586.22
824.897	2769.02
825.333	2187.37
825.77	996.77
826.206	522.17
826.643	307.47
827.08	228.82
827.516	203.67
827.953	190.97
828.389	181.32
828.825	169.12
829.262	166.92
829.698	159.37
830.135	152.02
830.571	147.02
831.007	151.87
831.443	150.22
831.88	157.02
832.316	163.02
832.752	161.07
833.188	158.12
833.624	163.42
834.06	167.42
834.497	164.67
834.933	167.77
835.369	185.62
835.805	192.67
836.241	197.67
836.677	220.57
837.112	260.67
837.548	321.17
837.984	467.07
838.42	1002.47
838.856	2781.67
839.292	5524.82
839.727	4154.42
840.163	2761.87
840.599	4175.47
841.034	6435.97
841.47	3252.47
841.906	1570.87
842.341	839.52
842.777	633.12
843.212	654.82
843.648	410.97
844.083	280.77
844.519	212.17
844.954	169.67
845.39	153.87
845.825	151.62
846.261	143.92
846.696	138.42
847.131	136.22
847.566	136.32
848.002	133.72
848.437	148.07
848.872	150.92
849.307	194.92
849.742	349.67
850.177	907.57
850.613	1947.07
851.048	1413.87
851.483	647.62
851.918	357.37
852.353	198.07
852.788	143.87
853.223	128.32
853.657	115.72
854.092	115.02
854.527	111.27
854.962	118.57
855.397	137.67
855.832	113.12
856.266	100.82
856.701	101.42
857.136	111.37
857.57	133.07
858.005	164.47
858.44	141.42
858.874	126.67
859.309	125.92
859.743	123.12
860.178	123.02
860.612	134.22
861.047	182.82
861.481	263.12
861.915	177.07
862.35	133.82
862.784	106.02
863.218	101.27
863.653	109.07
864.087	134.27
864.521	161.02
864.955	264.07
865.39	460.37
865.824	365.22
866.258	477.97
866.692	730.77
867.126	534.17
867.56	284.32
867.994	184.57
868.428	156.57
868.862	191.27
869.296	175.17
869.73	214.77
870.164	181.37
870.598	164.82
871.031	118.97
871.465	101.77
871.899	82.62
872.333	69.82
872.766	73.42
873.2	73.47
873.634	70.22
874.067	77.77
874.501	77.12
874.935	75.42
875.368	71.32
875.802	70.22
876.235	66.92
876.669	66.22
877.102	57.47
877.535	60.07
877.969	61.97
878.402	61.52
878.836	62.82
879.269	55.67
879.702	57.67
880.135	60.57
880.569	62.92
881.002	54.27
881.435	57.17
881.868	55.67
882.301	53.02
882.734	51.22
883.167	55.67
883.601	56.17
884.034	55.22
884.467	41.42
884.899	49.47
885.332	45.52
885.765	47.42
886.198	49.27
886.631	44.17
887.064	45.52
887.497	42.52
887.929	46.67
888.362	45.77
888.795	43.52
889.228	45.92
889.66	47.07
890.093	45.42
890.526	45.72
890.958	49.07
891.391	48.12
891.823	45.42
892.256	46.17
892.688	46.67
893.121	43.22
893.553	42.92
893.985	42.92
894.418	40.37
894.85	46.97
895.282	42.87
895.715	39.17
896.147	34.82
896.579	38.97
897.011	47.02
897.444	47.12
897.876	33.02
898.308	40.12
898.74	43.97
899.172	43.62
899.604	42.82
900.036	42.67
900.468	38.02
900.9	49.47
901.332	58.87
901.764	58.37
902.196	54.02
902.628	54.52
903.06	84.77
903.491	91.37
903.923	75.77
904.355	72.32
904.787	76.82
905.218	66.07
905.65	61.27
906.082	51.22
906.513	50.42
906.945	53.17
907.376	50.42
907.808	52.57
908.239	54.87
908.671	59.57
909.102	69.32
909.534	92.07
909.965	180.97
910.397	460.22
910.828	1300.67
911.259	802.17
911.691	432.62
912.122	250.92
912.553	130.17
912.984	71.92
913.415	63.47
913.847	58.82
914.278	56.02
914.709	46.02
915.14	46.17
915.571	45.67
916.002	43.87
916.433	43.62
916.864	40.32
917.295	42.22
917.726	50.07
918.157	59.87
918.587	62.87
919.018	62.47
919.449	59.12
919.88	67.92
920.311	101.77
920.741	268.62
921.172	474.82
921.603	244.32
922.033	149.87
922.464	98.07
922.895	66.77
923.325	43.87
923.756	40.22
924.186	56.47
924.617	75.52
925.047	112.82
925.478	99.22
925.908	75.02
926.338	56.12
926.769	41.92
927.199	39.92
927.629	38.12
928.06	44.02
928.49	41.37
928.92	35.27
929.35	33.72
929.78	26.32
930.21	22.72
930.641	22.52
931.071	22.12
931.501	22.27
931.931	15.67
932.361	18.97
932.791	25.47
933.221	26.62
933.651	41.37
934.08	63.67
934.51	38.22
934.94	31.92
935.37	26.17
935.8	22.57
936.229	19.07
936.659	20.12
937.089	44.12
937.519	60.22
937.948	82.02
938.378	48.37
938.807	29.27
939.237	17.27
939.666	19.52
940.096	13.12
940.525	10.27
940.955	15.67
941.384	12.07
941.814	8.52
942.243	13.27
942.672	7.92
943.102	8.07
943.531	8.82
943.96	8.32
944.39	12.72
944.819	12.52
945.248	7.37
945.677	9.67
946.106	11.47
946.535	11.27
946.964	10.32
947.393	7.42
947.822	9.67
948.251	12.12
948.68	12.67
949.109	13.12
949.538	12.42
949.967	13.12
950.396	8.12
950.825	12.42
951.254	9.82
951.682	4.92
952.111	5.62
952.54	5.32
952.969	6.22
953.397	5.12
953.826	5.47
954.254	9.52
954.683	11.82
955.112	12.52
955.54	7.37
955.969	7.62
956.397	7.22
956.826	6.92
957.254	7.42
957.682	9.47
958.111	8.52
958.539	11.37
958.967	8.32
959.396	10.82
959.824	7.32
960.252	8.52
960.68	8.27
961.109	7.67
961.537	17.87
961.965	3.32
962.393	10.37
962.821	9.62
963.249	10.37
963.677	15.72
964.105	80.62
964.533	139.47
964.961	66.92
965.389	39.02
965.817	21.32
966.245	16.22
966.672	11.27
967.1	8.92
967.528	1.52
967.956	6.42
968.383	7.57
968.811	5.57
969.239	7.17
969.666	7.57
970.094	7.77
970.522	3.62
970.949	6.87
971.377	-3.48
971.804	2.82
972.232	5.82
972.659	2.87
973.087	6.87
973.514	3.92
973.941	0.87
974.369	1.82
974.796	2.57
975.223	3.67
975.651	8.02
976.078	5.27
976.505	13.32
976.932	34.52
977.359	40.77
977.786	25.42
978.214	21.97
978.641	7.87
979.068	6.72
979.495	3.37
979.922	7.02
980.349	8.02
980.776	7.77
981.202	2.97
981.629	10.32
982.056	8.02
982.483	-5.28
982.91	10.27
983.337	0.52
983.763	3.62
984.19	5.82
984.617	3.27
985.043	7.02
985.47	7.07
985.897	9.12
986.323	9.57
986.75	4.72
987.176	4.02
987.603	4.92
988.029	4.47
988.456	9.82
988.882	-0.33
989.308	-1.53
989.735	0.47
990.161	3.52
990.587	1.67
991.014	3.42
991.44	5.97
991.866	3.02
992.292	3.47
992.719	1.42
993.145	5.02
993.571	3.67
993.997	3.12
994.423	10.92
994.849	-3.13
995.275	5.57
995.701	3.87
996.127	-3.13
996.553	2.07
996.979	-1.18
997.405	7.27
997.83	8.82
998.256	6.12
998.682	0.37
999.108	6.92
999.534	-2.08
999.959	2.17
1000.385	4.37
1000.811	-2.58
1001.236	-3.03
1001.662	-1.93
1002.087	10.82
1002.513	0.97
1002.938	4.87
1003.364	4.02
1003.789	1.52
1004.215	3.87
1004.64	4.37
1005.066	7.02
1005.491	5.47
1005.916	3.22
1006.342	5.57
1006.767	4.52
1007.192	6.22
1007.617	5.12
1008.042	4.42
1008.468	-0.23
1008.893	4.32
1009.318	9.47
1009.743	18.77
1010.168	31.37
1010.593	27.77
1011.018	15.87
1011.443	8.52
1011.868	9.72
1012.293	5.02
1012.718	1.47
1013.143	0.62
1013.567	4.62
1013.992	2.82
1014.417	5.82
1014.842	1.57
1015.267	0.72
1015.691	2.92
1016.116	3.47
1016.541	2.02
1016.965	4.12
1017.39	4.92
1017.814	-2.48
1018.239	0.97
1018.663	-5.53
1019.088	-2.03
1019.512	2.82
1019.937	-0.73
1020.361	0.52
1020.785	-2.88
1021.21	-3.38
1021.634	2.02
1022.058	2.52
1022.483	-0.78
1022.907	1.07
1023.331	4.37
1023.755	-2.13
1024.179	2.92
1024.604	3.52
1025.028	2.97
1025.452	0.52
1025.876	1.62
1026.3	0.52
1026.724	-2.03
1027.148	2.87
1027.572	-4.03
1027.996	1.32
1028.42	-1.18
1028.843	1.57
1029.267	-2.83
1029.691	1.17
1030.115	-3.38
1030.539	-0.68
1030.962	-1.78
1031.386	0.92
1031.81	0.27
1032.233	0.42
1032.657	-1.63
1033.08	-0.63
1033.504	-3.38
1033.927	-2.83
1034.351	-0.58
1034.774	-0.28
1035.198	-2.43
1035.621	1.02
1036.045	0.77
1036.468	3.17
1036.891	-2.68
1037.315	3.47
1037.738	-0.38
1038.161	-0.13
1038.584	-1.53
1039.008	-2.28
1039.431	-0.23
1039.854	-5.08
1040.277	3.47
1040.7	-1.73
1041.123	-0.78
1041.546	3.07
1041.969	1.07
1042.392	2.97
1042.815	-6.83
1043.238	-1.93
1043.661	-0.98
1044.084	-2.88
1044.507	-6.98
1044.93	-3.03
1045.352	-0.78
1045.775	1.82
1046.198	2.57
1046.621	1.32
1047.043	1.37
1047.466	1.97
1047.889	1.32
1048.311	9.17
1048.734	-0.63
1049.156	0.42
1049.579	-3.38
1050.001	-3.13
1050.424	-2.03
1050.846	-6.63
1051.269	-1.18
1051.691	-4.13
1052.113	1.77
1052.536	1.47
1052.958	-7.48
1053.38	-1.53
1053.802	-1.68
1054.225	0.67
1054.647	1.67
1055.069	-1.13
1055.491	1.47
1055.913	-0.33
1056.335	-9.73
1056.757	-3.08
1057.179	-5.73
1057.601	0.07
1058.023	-0.08
1058.445	-0.18
1058.867	3.62
1059.289	-0.53
1059.711	-5.18
1060.133	-3.18
1060.555	1.37
1060.976	-4.88
1061.398	-1.48
1061.82	0.92
1062.241	-1.63
1062.663	1.72
1063.085	-5.23
1063.506	-3.88
1063.928	-4.08
1064.35	2.02
1064.771	-0.63
1065.193	-4.23
1065.614	-1.48
1066.035	1.12
1066.457	4.22
1066.878	0.07
1067.3	-0.28
1067.721	1.07
1068.142	8.97
1068.564	1.17
1068.985	-2.48
1069.406	-3.98
1069.827	-0.08
1070.248	-1.48
1070.67	-4.83
1071.091	-9.68
1071.512	-4.28
1071.933	-0.13
1072.354	-9.78
1072.775	0.27
1073.196	-1.13
1073.617	-3.23
1074.038	5.07
1074.459	-3.48
1074.88	1.82
1075.3	-3.03
1075.721	0.82
1076.142	-6.23
1076.563	-5.33
1076.983	0.87
1077.404	-8.53
1077.825	-1.98
1078.246	-8.88
1078.666	-4.88
1079.087	-6.03
1079.507	-2.48
1079.928	-3.28
1080.348	-4.23
1080.769	0.42
1081.189	-1.73
1081.61	-7.48
1082.03	1.42
1082.451	1.37
1082.871	-5.48
1083.291	-6.33
1083.711	-2.33
1084.132	-1.78
1084.552	-4.33
1084.972	-5.38
1085.392	-3.43
1085.813	0.27
1086.233	-0.43
1086.653	3.27
1087.073	-3.88
1087.493	-2.43
1087.913	-3.28
1088.333	-3.23
1088.753	-0.53
1089.173	4.67
1089.593	1.22
1090.013	-1.18
1090.433	-2.03
1090.852	2.12
1091.272	-6.13
1091.692	-1.38
1092.112	-1.73
1092.531	-5.03
1092.951	-4.03
1093.371	-0.03
1093.79	-1.33
1094.21	-2.08
1094.63	-2.68
1095.049	-3.43
1095.469	-6.53
1095.888	-0.98
1096.308	-0.98
1096.727	-2.98
1097.146	-2.78
1097.566	-1.08
1097.985	-3.03
1098.405	-3.38
1098.824	-1.48
1099.243	-2.38
1099.662	-0.83
1100.082	-0.83
1100.501	-2.03
1100.92	4.62
1101.339	1.27
1101.758	1.72
