Data from MSPlasma+Separation6_Subt14_10-14-17-583.txt Node
Date: Fri Jul 21 10:14:17 EDT 2017
User: Ender
Spectrometer: HR+D1039
Trigger mode: 0
Integration Time (sec): 6.430000E-3
Scans to average: 20
Electric dark correction enabled: true
Nonlinearity correction enabled: false
Boxcar width: 0
XAxis mode: Wavelengths
Number of Pixels in Spectrum: 2048
>>>>>Begin Spectral Data<<<<<
187.836	-0.34
188.309	-0.34
188.782	-0.34
189.255	2.16
189.728	2.56
190.201	-3.44
190.674	2.91
191.147	-3.59
191.619	-1.74
192.092	-0.04
192.565	-0.59
193.038	0.96
193.511	0.36
193.984	1.96
194.456	1.41
194.929	-1.24
195.402	-3.59
195.874	2.26
196.347	-1.34
196.82	1.46
197.292	-4.24
197.765	-4.14
198.237	-4.54
198.71	-3.34
199.182	1.01
199.655	-0.84
200.127	-0.14
200.6	-5.54
201.072	2.16
201.544	2.46
202.017	3.71
202.489	0.96
202.961	-1.19
203.433	-5.54
203.906	-0.24
204.378	-1.79
204.85	-0.44
205.322	-0.54
205.794	4.01
206.266	-5.39
206.739	1.01
207.211	-2.59
207.683	-1.19
208.155	2.06
208.627	0.31
209.099	2.81
209.57	1.41
210.042	1.01
210.514	-1.24
210.986	1.31
211.458	-4.29
211.93	2.21
212.402	0.16
212.873	0.16
213.345	-3.59
213.817	2.66
214.288	0.76
214.76	2.71
215.232	1.16
215.703	0.16
216.175	3.26
216.646	3.81
217.118	5.76
217.589	0.01
218.061	-0.44
218.532	-0.04
219.004	3.06
219.475	2.76
219.946	0.31
220.418	2.86
220.889	4.41
221.36	7.16
221.832	6.16
222.303	0.76
222.774	1.51
223.245	6.01
223.717	1.31
224.188	-1.64
224.659	0.66
225.13	4.16
225.601	-3.14
226.072	3.21
226.543	8.56
227.014	3.26
227.485	7.86
227.956	6.01
228.427	9.01
228.898	7.56
229.369	10.96
229.839	4.71
230.31	8.96
230.781	5.41
231.252	8.11
231.722	7.01
232.193	5.21
232.664	10.51
233.135	8.91
233.605	9.86
234.076	9.36
234.546	10.26
235.017	10.61
235.487	9.91
235.958	12.66
236.428	16.81
236.899	8.76
237.369	21.26
237.84	17.21
238.31	17.91
238.78	11.06
239.251	9.26
239.721	9.56
240.191	11.31
240.662	19.26
241.132	16.46
241.602	19.56
242.072	10.51
242.542	13.81
243.013	14.46
243.483	17.86
243.953	19.86
244.423	20.21
244.893	18.06
245.363	20.66
245.833	15.36
246.303	14.31
246.773	20.91
247.243	18.16
247.712	20.91
248.182	21.86
248.652	23.86
249.122	26.06
249.592	22.41
250.061	22.56
250.531	23.51
251.001	25.11
251.471	32.56
251.94	29.41
252.41	28.91
252.879	28.81
253.349	31.11
253.818	29.11
254.288	32.96
254.757	30.56
255.227	31.66
255.696	28.21
256.166	35.21
256.635	31.86
257.105	33.76
257.574	36.21
258.043	29.71
258.513	38.96
258.982	30.51
259.451	38.66
259.92	32.51
260.389	34.01
260.859	40.51
261.328	40.61
261.797	41.11
262.266	45.36
262.735	44.11
263.204	39.06
263.673	41.51
264.142	35.41
264.611	39.31
265.08	41.16
265.549	43.61
266.018	41.61
266.487	45.51
266.955	40.36
267.424	42.01
267.893	50.91
268.362	44.01
268.83	44.31
269.299	46.81
269.768	51.06
270.236	52.26
270.705	51.46
271.174	48.71
271.642	48.16
272.111	52.56
272.579	52.56
273.048	50.41
273.516	54.61
273.985	53.61
274.453	50.66
274.922	55.26
275.39	50.26
275.858	59.46
276.327	62.16
276.795	58.21
277.263	61.71
277.731	57.31
278.2	60.31
278.668	59.96
279.136	61.56
279.604	60.91
280.072	62.56
280.54	60.71
281.008	70.11
281.477	66.11
281.945	65.26
282.413	63.51
282.881	72.16
283.348	69.21
283.816	71.96
284.284	73.86
284.752	72.26
285.22	75.46
285.688	74.66
286.156	72.81
286.623	75.01
287.091	76.86
287.559	76.21
288.026	79.26
288.494	79.36
288.962	79.66
289.429	78.61
289.897	80.86
290.364	76.56
290.832	77.51
291.3	76.06
291.767	81.31
292.234	83.46
292.702	83.81
293.169	88.86
293.637	87.61
294.104	86.76
294.571	87.91
295.039	90.61
295.506	80.06
295.973	92.01
296.44	87.11
296.908	95.96
297.375	94.51
297.842	95.41
298.309	94.91
298.776	93.76
299.243	93.56
299.71	96.01
300.177	99.01
300.644	99.11
301.111	101.26
301.578	102.86
302.045	101.56
302.512	108.96
302.979	106.76
303.446	109.01
303.913	104.06
304.379	111.76
304.846	117.91
305.313	120.46
305.78	119.01
306.246	121.36
306.713	116.01
307.18	123.46
307.646	125.66
308.113	122.61
308.579	130.06
309.046	128.56
309.512	123.21
309.979	130.41
310.445	131.01
310.912	136.11
311.378	139.11
311.845	140.21
312.311	134.11
312.777	134.96
313.244	139.66
313.71	144.36
314.176	146.31
314.642	148.81
315.109	146.56
315.575	136.71
316.041	144.61
316.507	143.71
316.973	153.31
317.439	153.51
317.905	151.31
318.371	148.11
318.837	153.36
319.303	151.81
319.769	149.91
320.235	158.41
320.701	159.26
321.167	158.76
321.633	161.46
322.099	159.36
322.564	158.06
323.03	162.56
323.496	168.36
323.962	163.21
324.427	175.71
324.893	167.36
325.359	170.76
325.824	174.46
326.29	184.56
326.755	174.76
327.221	178.16
327.686	188.86
328.152	187.46
328.617	188.86
329.083	190.56
329.548	194.61
330.014	196.91
330.479	196.36
330.944	195.61
331.41	197.36
331.875	193.16
332.34	194.56
332.805	203.91
333.271	198.91
333.736	200.26
334.201	204.46
334.666	222.86
335.131	219.01
335.596	216.81
336.061	208.01
336.526	208.86
336.991	204.86
337.456	202.76
337.921	202.36
338.386	200.81
338.851	205.66
339.316	209.16
339.781	208.21
340.246	214.96
340.711	211.81
341.175	224.06
341.64	227.41
342.105	226.11
342.569	237.06
343.034	234.06
343.499	234.16
343.963	241.41
344.428	239.06
344.893	236.81
345.357	243.36
345.822	247.81
346.286	251.46
346.751	249.11
347.215	260.81
347.679	268.56
348.144	279.31
348.608	280.81
349.073	283.11
349.537	292.36
350.001	290.51
350.465	290.91
350.93	289.56
351.394	295.06
351.858	294.41
352.322	299.66
352.786	302.66
353.25	303.71
353.715	310.01
354.179	317.81
354.643	326.51
355.107	328.96
355.571	320.91
356.035	325.16
356.498	321.61
356.962	319.31
357.426	318.41
357.89	323.86
358.354	317.76
358.818	316.11
359.281	316.06
359.745	318.01
360.209	318.01
360.673	318.81
361.136	316.61
361.6	324.66
362.064	330.66
362.527	340.41
362.991	340.31
363.454	336.56
363.918	342.66
364.381	348.11
364.845	339.06
365.308	343.91
365.772	348.76
366.235	348.31
366.698	344.16
367.162	345.41
367.625	354.51
368.088	362.71
368.552	355.51
369.015	355.91
369.478	366.66
369.941	358.31
370.404	370.11
370.867	362.11
371.331	373.81
371.794	378.71
372.257	381.21
372.72	376.76
373.183	382.71
373.646	378.16
374.109	377.41
374.572	382.66
375.035	390.46
375.497	389.31
375.96	398.16
376.423	397.51
376.886	409.71
377.349	415.66
377.811	412.91
378.274	414.76
378.737	406.81
379.199	419.76
379.662	418.81
380.125	426.21
380.587	432.51
381.05	437.16
381.512	438.21
381.975	451.16
382.437	458.56
382.9	457.96
383.362	459.16
383.825	458.96
384.287	469.41
384.75	462.06
385.212	466.06
385.674	473.81
386.136	477.91
386.599	472.16
387.061	473.61
387.523	476.86
387.985	470.36
388.447	483.96
388.91	485.66
389.372	482.76
389.834	489.01
390.296	476.76
390.758	486.86
391.22	488.51
391.682	486.81
392.144	486.56
392.606	494.66
393.068	504.61
393.529	533.91
393.991	540.26
394.453	516.81
394.915	506.31
395.377	499.76
395.838	505.11
396.3	503.36
396.762	512.06
397.224	508.96
397.685	501.56
398.147	514.81
398.608	515.06
399.07	524.06
399.531	522.41
399.993	539.21
400.454	546.76
400.916	537.71
401.377	552.56
401.839	558.46
402.3	560.71
402.762	589.36
403.223	621.01
403.684	616.21
404.145	598.76
404.607	586.31
405.068	577.91
405.529	588.61
405.99	600.01
406.451	606.81
406.913	594.61
407.374	602.26
407.835	600.41
408.296	614.91
408.757	611.56
409.218	632.41
409.679	642.81
410.14	645.76
410.601	660.81
411.062	668.11
411.522	663.96
411.983	663.56
412.444	668.06
412.905	678.81
413.366	699.36
413.826	738.66
414.287	828.96
414.748	976.21
415.208	997.66
415.669	837.71
416.13	765.11
416.59	744.81
417.051	772.61
417.511	813.96
417.972	866.96
418.432	927.56
418.893	1022.81
419.353	975.66
419.814	767.06
420.274	685.21
420.734	678.71
421.195	703.21
421.655	694.01
422.115	710.11
422.576	705.66
423.036	708.91
423.496	737.01
423.956	761.96
424.416	822.01
424.876	916.96
425.336	911.91
425.797	897.61
426.257	883.16
426.717	839.11
427.177	783.36
427.637	788.41
428.097	831.81
428.556	857.61
429.016	911.66
429.476	919.86
429.936	904.81
430.396	901.71
430.856	917.26
431.315	943.51
431.775	1006.11
432.235	1077.81
432.694	1094.51
433.154	1035.76
433.614	1010.16
434.073	979.61
434.533	887.66
434.993	852.16
435.452	853.96
435.912	839.96
436.371	837.06
436.83	826.96
437.29	811.06
437.749	785.41
438.209	776.91
438.668	787.41
439.127	799.61
439.587	785.11
440.046	762.06
440.505	785.71
440.964	785.16
441.424	810.36
441.883	834.01
442.342	783.56
442.801	750.56
443.26	755.91
443.719	750.46
444.178	750.81
444.637	760.01
445.096	764.76
445.555	771.06
446.014	772.26
446.473	767.26
446.932	770.11
447.391	766.96
447.849	786.96
448.308	781.01
448.767	787.31
449.226	801.91
449.685	810.16
450.143	844.11
450.602	837.16
451.061	793.76
451.519	803.01
451.978	789.36
452.436	778.71
452.895	804.21
453.353	789.86
453.812	775.86
454.27	774.06
454.729	782.21
455.187	797.41
455.646	795.91
456.104	795.36
456.562	816.86
457.021	821.41
457.479	783.61
457.937	809.26
458.395	834.06
458.854	821.16
459.312	813.81
459.77	819.36
460.228	827.06
460.686	848.36
461.144	847.21
461.602	832.56
462.06	831.31
462.518	855.31
462.976	854.96
463.434	872.66
463.892	874.56
464.35	893.81
464.808	908.21
465.266	911.71
465.724	925.06
466.181	929.21
466.639	924.46
467.097	957.51
467.555	1004.21
468.012	992.41
468.47	1000.31
468.928	1028.31
469.385	1059.06
469.843	1071.16
470.3	1060.46
470.758	1097.81
471.215	1109.76
471.673	1135.31
472.13	1166.46
472.588	1192.31
473.045	1194.61
473.503	1216.01
473.96	1249.76
474.417	1274.31
474.875	1329.91
475.332	1382.31
475.789	1411.51
476.246	1447.26
476.704	1504.56
477.161	1551.31
477.618	1600.31
478.075	1681.96
478.532	1802.31
478.989	1949.31
479.446	2143.86
479.903	2270.96
480.36	2456.11
480.817	2611.31
481.274	2779.51
481.731	3026.76
482.188	3270.11
482.645	3508.31
483.102	3698.21
483.558	3949.36
484.015	4118.56
484.472	4066.41
484.929	3951.21
485.385	3786.26
485.842	3706.46
486.299	3562.81
486.755	3266.91
487.212	2948.26
487.668	2659.41
488.125	2474.61
488.582	2289.91
489.038	2210.96
489.494	2144.56
489.951	2073.56
490.407	2011.21
490.864	1977.51
491.32	1938.66
491.776	1917.71
492.233	1909.91
492.689	1893.96
493.145	1848.71
493.602	1825.31
494.058	1854.66
494.514	1852.31
494.97	1850.01
495.426	1875.01
495.882	1879.16
496.338	1864.01
496.794	1882.86
497.251	1887.16
497.707	1904.41
498.163	1901.46
498.618	1907.71
499.074	1900.86
499.53	1922.56
499.986	1921.41
500.442	1902.11
500.898	1880.21
501.354	1908.41
501.809	1909.31
502.265	1913.76
502.721	1920.26
503.177	1945.31
503.632	1934.36
504.088	1929.31
504.543	1967.06
504.999	1981.71
505.455	1972.01
505.91	1947.46
506.366	1965.66
506.821	1967.06
507.277	1951.81
507.732	1965.51
508.187	1965.46
508.643	1981.81
509.098	1988.81
509.553	2002.01
510.009	2019.81
510.464	2071.61
510.919	2079.31
511.375	2112.81
511.83	2113.26
512.285	2160.21
512.74	2203.86
513.195	2238.21
513.65	2270.66
514.105	2292.96
514.56	2301.11
515.015	2332.66
515.47	2347.11
515.925	2309.16
516.38	2325.71
516.835	2324.11
517.29	2322.46
517.745	2309.76
518.2	2273.56
518.655	2243.86
519.109	2214.81
519.564	2188.76
520.019	2161.81
520.474	2148.26
520.928	2132.76
521.383	2115.21
521.838	2109.41
522.292	2099.06
522.747	2087.56
523.201	2080.86
523.656	2053.61
524.11	2048.51
524.565	2042.96
525.019	2042.71
525.474	2040.76
525.928	2024.11
526.382	2034.11
526.837	2028.16
527.291	2046.61
527.745	2030.41
528.2	2031.71
528.654	2005.01
529.108	2012.06
529.562	2029.21
530.016	2008.76
530.47	2005.61
530.925	2004.06
531.379	2005.01
531.833	2034.16
532.287	2032.16
532.741	2018.76
533.195	2016.16
533.649	2020.96
534.103	2034.26
534.556	2010.51
535.01	2029.11
535.464	2017.81
535.918	2023.21
536.372	2041.26
536.826	2024.76
537.279	2004.81
537.733	2008.21
538.187	2028.91
538.64	2012.21
539.094	2039.76
539.548	2062.51
540.001	2040.51
540.455	2066.21
540.908	2071.36
541.362	2098.91
541.815	2105.86
542.269	2153.36
542.722	2143.76
543.175	2170.11
543.629	2174.41
544.082	2190.51
544.536	2218.16
544.989	2226.56
545.442	2234.36
545.895	2222.21
546.349	2218.71
546.802	2238.36
547.255	2232.16
547.708	2246.56
548.161	2261.86
548.614	2265.21
549.067	2281.66
549.52	2273.56
549.973	2242.51
550.426	2247.06
550.879	2240.26
551.332	2237.21
551.785	2253.91
552.238	2273.51
552.691	2269.61
553.144	2307.66
553.596	2347.11
554.049	2378.41
554.502	2418.46
554.955	2447.76
555.407	2484.01
555.86	2456.81
556.313	2431.81
556.765	2401.86
557.218	2374.51
557.67	2377.96
558.123	2357.46
558.576	2341.21
559.028	2330.36
559.48	2353.91
559.933	2340.36
560.385	2268.76
560.838	2196.76
561.29	2140.31
561.742	2122.11
562.195	2082.96
562.647	2067.66
563.099	2057.51
563.551	2040.91
564.004	2054.51
564.456	2037.31
564.908	2002.11
565.36	1956.36
565.812	1913.86
566.264	1902.56
566.716	1881.06
567.168	1848.56
567.62	1839.91
568.072	1840.66
568.524	1810.66
568.976	1812.16
569.428	1804.86
569.88	1797.66
570.332	1813.31
570.784	1815.01
571.235	1808.21
571.687	1830.56
572.139	1829.86
572.59	1838.76
573.042	1849.51
573.494	1842.41
573.945	1821.51
574.397	1787.36
574.849	1782.41
575.3	1792.61
575.752	1755.31
576.203	1737.76
576.655	1761.86
577.106	1732.81
577.557	1715.61
578.009	1709.21
578.46	1716.11
578.912	1690.46
579.363	1709.31
579.814	1720.36
580.265	1715.36
580.717	1705.71
581.168	1710.61
581.619	1730.86
582.07	1734.26
582.521	1723.11
582.972	1708.01
583.423	1718.61
583.875	1725.86
584.326	1743.66
584.777	1766.76
585.227	1798.01
585.678	1825.76
586.129	1833.06
586.58	1850.71
587.031	1875.06
587.482	1917.76
587.933	1939.46
588.384	1946.51
588.834	1922.76
589.285	1913.16
589.736	1925.21
590.186	1924.81
590.637	1902.91
591.088	1860.86
591.538	1828.66
591.989	1808.56
592.439	1782.66
592.89	1757.96
593.34	1753.71
593.791	1742.66
594.241	1739.66
594.692	1733.46
595.142	1739.16
595.593	1722.51
596.043	1738.11
596.493	1753.36
596.943	1747.96
597.394	1799.61
597.844	1820.81
598.294	1866.76
598.744	1924.06
599.195	2004.26
599.645	2113.81
600.095	2220.71
600.545	2335.11
600.995	2421.01
601.445	2507.66
601.895	2623.31
602.345	2689.36
602.795	2681.86
603.245	2573.76
603.695	2421.51
604.145	2302.26
604.594	2195.01
605.044	2093.81
605.494	1945.11
605.944	1852.11
606.393	1812.96
606.843	1772.56
607.293	1774.31
607.743	1749.66
608.192	1764.21
608.642	1768.21
609.091	1775.16
609.541	1759.21
609.99	1767.01
610.44	1726.51
610.889	1705.56
611.339	1691.21
611.788	1662.66
612.238	1683.26
612.687	1680.96
613.136	1688.36
613.586	1701.41
614.035	1693.31
614.484	1714.46
614.933	1712.61
615.383	1674.16
615.832	1634.61
616.281	1623.86
616.73	1587.01
617.179	1546.51
617.628	1520.11
618.077	1502.41
618.526	1474.06
618.975	1465.71
619.424	1441.91
619.873	1443.26
620.322	1424.91
620.771	1423.21
621.22	1405.56
621.669	1377.11
622.118	1369.56
622.567	1354.11
623.015	1331.51
623.464	1330.16
623.913	1308.01
624.361	1315.81
624.81	1296.46
625.259	1309.26
625.707	1304.36
626.156	1314.31
626.604	1324.86
627.053	1331.56
627.501	1325.31
627.95	1338.36
628.398	1351.31
628.847	1332.56
629.295	1337.11
629.744	1318.61
630.192	1304.26
630.64	1278.61
631.089	1257.21
631.537	1230.06
631.985	1220.81
632.433	1218.61
632.881	1207.36
633.33	1217.36
633.778	1215.11
634.226	1226.66
634.674	1236.51
635.122	1238.86
635.57	1266.21
636.018	1276.91
636.466	1273.91
636.914	1276.31
637.362	1298.46
637.81	1322.91
638.258	1369.36
638.705	1374.11
639.153	1420.26
639.601	1439.21
640.049	1465.71
640.497	1509.71
640.944	1525.01
641.392	1479.96
641.84	1401.26
642.287	1344.86
642.735	1308.46
643.182	1297.66
643.63	1294.96
644.078	1302.11
644.525	1328.31
644.973	1362.46
645.42	1392.96
645.867	1430.11
646.315	1462.61
646.762	1513.81
647.21	1558.36
647.657	1645.01
648.104	1711.16
648.551	1752.51
648.999	1906.36
649.446	2075.11
649.893	2325.01
650.34	2731.71
650.787	3369.16
651.234	4341.36
651.682	5996.21
652.129	8462.96
652.576	11995.51
653.023	15469.96
653.47	15535.91
653.917	15535.96
654.363	15535.86
654.81	15532.86
655.257	15533.51
655.704	15289.36
656.151	9334.76
656.598	6116.96
657.044	4371.96
657.491	3422.21
657.938	2777.31
658.385	2347.76
658.831	2076.86
659.278	1844.51
659.724	1684.71
660.171	1566.46
660.618	1467.26
661.064	1390.51
661.511	1333.36
661.957	1289.56
662.404	1272.41
662.85	1250.01
663.296	1232.21
663.743	1200.26
664.189	1191.46
664.635	1176.56
665.082	1150.91
665.528	1137.76
665.974	1107.56
666.42	1084.06
666.867	1075.31
667.313	1021.86
667.759	1012.51
668.205	1006.86
668.651	1014.11
669.097	1009.01
669.543	1016.01
669.989	1024.06
670.435	1022.86
670.881	1038.41
671.327	1079.66
671.773	1152.66
672.219	1221.01
672.665	1307.91
673.11	1347.26
673.556	1359.76
674.002	1394.26
674.448	1407.11
674.893	1198.76
675.339	1051.41
675.785	967.06
676.23	924.91
676.676	888.36
677.122	862.21
677.567	831.01
678.013	808.46
678.458	812.41
678.904	808.61
679.349	792.06
679.794	792.61
680.24	790.86
680.685	785.21
681.131	782.41
681.576	791.06
682.021	789.26
682.466	794.46
682.912	801.91
683.357	840.66
683.802	914.36
684.247	1001.66
684.692	1066.21
685.137	1113.86
685.583	1125.26
686.028	1174.21
686.473	1129.91
686.918	975.41
687.363	906.31
687.807	850.91
688.252	809.61
688.697	783.91
689.142	763.41
689.587	764.56
690.032	778.81
690.477	801.36
690.921	846.91
691.366	897.16
691.811	927.91
692.255	994.61
692.7	1215.21
693.145	1755.76
693.589	2674.41
694.034	3169.31
694.478	3364.51
694.923	3078.41
695.367	4338.96
695.812	2689.51
696.256	1139.06
696.701	833.41
697.145	771.86
697.59	744.96
698.034	727.76
698.478	731.21
698.922	739.06
699.367	752.41
699.811	784.86
700.255	846.51
700.699	923.71
701.143	1009.56
701.588	1063.96
702.032	1102.46
702.476	1147.46
702.92	1221.61
703.364	1596.96
703.808	2443.16
704.252	3041.71
704.696	3192.96
705.14	3025.26
705.584	4127.26
706.027	2318.46
706.471	1169.36
706.915	872.81
707.359	774.81
707.803	734.01
708.246	705.86
708.69	706.71
709.134	689.66
709.577	692.56
710.021	686.86
710.465	691.01
710.908	677.76
711.352	706.41
711.795	785.06
712.239	847.66
712.682	865.21
713.126	845.41
713.569	946.66
714.012	786.76
714.456	678.86
714.899	644.11
715.342	617.56
715.786	589.86
716.229	574.01
716.672	563.56
717.115	565.96
717.558	564.81
718.002	582.31
718.445	605.51
718.888	632.81
719.331	649.26
719.774	661.51
720.217	646.81
720.66	623.91
721.103	588.01
721.546	555.86
721.989	548.06
722.432	533.01
722.874	535.51
723.317	536.71
723.76	588.31
724.203	713.51
724.645	953.31
725.088	1113.11
725.531	1103.51
725.974	1208.31
726.416	1082.16
726.859	677.46
727.301	560.91
727.744	527.91
728.187	523.96
728.629	539.01
729.071	568.36
729.514	594.56
729.956	619.01
730.399	628.86
730.841	634.16
731.283	613.01
731.726	602.01
732.168	607.01
732.61	633.51
733.053	686.61
733.495	757.71
733.937	847.96
734.379	988.71
734.821	1268.56
735.263	2001.61
735.705	3608.86
736.148	5259.21
736.59	5277.31
737.032	5702.51
737.474	4717.56
737.916	1836.96
738.357	964.91
738.799	743.51
739.241	682.61
739.683	696.11
740.125	712.86
740.567	719.71
741.008	764.66
741.45	810.31
741.892	849.61
742.334	846.11
742.775	840.81
743.217	810.51
743.658	687.61
744.1	709.26
744.542	817.66
744.983	857.11
745.425	892.46
745.866	868.51
746.307	717.01
746.749	754.96
747.19	1082.56
747.632	2105.71
748.073	3919.11
748.514	5427.16
748.956	7173.06
749.397	8412.11
749.838	5826.36
750.279	5522.06
750.72	2881.26
751.162	1233.46
751.603	706.46
752.044	559.96
752.485	502.66
752.926	474.11
753.367	455.21
753.808	443.66
754.249	434.01
754.69	429.26
755.131	423.86
755.572	419.66
756.013	415.81
756.453	423.31
756.894	437.16
757.335	431.36
757.776	441.11
758.216	456.36
758.657	478.66
759.098	525.61
759.538	641.86
759.979	924.76
760.42	1857.96
760.86	4755.86
761.301	9796.41
761.741	11555.26
762.182	13153.41
762.622	8591.51
763.063	3075.31
763.503	1261.61
763.943	739.21
764.384	585.01
764.824	506.16
765.264	473.96
765.705	447.76
766.145	415.11
766.585	410.66
767.025	387.46
767.465	393.66
767.906	399.46
768.346	423.06
768.786	495.86
769.226	723.06
769.666	1459.16
770.106	3267.96
770.546	4642.61
770.986	5201.51
771.426	3966.11
771.866	1656.56
772.306	756.96
772.745	467.01
773.185	396.01
773.625	386.31
774.065	417.86
774.505	603.21
774.944	1086.81
775.384	1565.21
775.824	1758.26
776.263	1440.41
776.703	763.96
777.142	435.41
777.582	326.86
778.021	302.66
778.461	283.71
778.9	285.01
779.34	276.21
779.779	260.51
780.219	259.71
780.658	256.96
781.097	252.26
781.537	244.71
781.976	246.01
782.415	244.11
782.855	244.46
783.294	240.96
783.733	239.76
784.172	239.96
784.611	241.91
785.05	246.36
785.489	258.66
785.928	264.16
786.367	273.51
786.806	289.46
787.245	301.66
787.684	318.31
788.123	316.81
788.562	303.91
789.001	292.41
789.44	287.71
789.879	282.46
790.317	290.51
790.756	309.01
791.195	352.71
791.634	471.76
792.072	846.91
792.511	2057.41
792.95	3811.71
793.388	4586.51
793.827	3005.96
794.265	1377.11
794.704	661.96
795.142	413.86
795.581	335.71
796.019	299.21
796.458	307.16
796.896	311.26
797.334	355.26
797.773	484.11
798.211	920.81
798.649	1897.81
799.087	3197.96
799.526	4511.81
799.964	4637.01
800.402	3210.96
800.84	1461.36
801.278	720.16
801.716	436.21
802.154	355.41
802.592	332.21
803.03	331.36
803.468	340.11
803.906	340.71
804.344	329.71
804.782	327.46
805.22	330.61
805.658	343.06
806.096	361.56
806.533	410.81
806.971	523.31
807.409	755.96
807.847	1507.41
808.284	3812.46
808.722	6696.36
809.16	9402.76
809.597	12710.51
810.035	15363.06
810.472	10323.51
810.91	4388.36
811.347	1960.91
811.785	932.01
812.222	595.46
812.66	446.96
813.097	390.31
813.535	334.76
813.972	302.36
814.409	278.96
814.846	270.66
815.284	251.41
815.721	260.46
816.158	284.46
816.595	396.01
817.032	499.31
817.47	455.11
817.907	327.56
818.344	283.56
818.781	280.56
819.218	350.91
819.655	538.21
820.092	693.46
820.529	626.06
820.966	486.86
821.403	336.16
821.839	289.16
822.276	314.61
822.713	379.51
823.15	355.91
823.587	370.86
824.023	635.21
824.46	1554.01
824.897	2710.61
825.333	2124.16
825.77	985.66
826.206	510.26
826.643	300.96
827.08	227.31
827.516	191.11
827.953	192.11
828.389	178.71
828.825	171.96
829.262	163.31
829.698	154.96
830.135	148.51
830.571	148.11
831.007	153.96
831.443	150.71
831.88	152.81
832.316	153.76
832.752	155.71
833.188	157.01
833.624	156.11
834.06	167.91
834.497	161.06
834.933	164.86
835.369	184.51
835.805	188.06
836.241	197.06
836.677	212.16
837.112	248.41
837.548	316.96
837.984	462.11
838.42	988.36
838.856	2741.96
839.292	5402.71
839.727	4063.31
840.163	2723.46
840.599	4104.71
841.034	6255.71
841.47	3169.96
841.906	1533.81
842.341	828.61
842.777	614.96
843.212	635.31
843.648	397.96
844.083	266.36
844.519	203.76
844.954	169.41
845.39	152.56
845.825	147.56
846.261	137.56
846.696	135.36
847.131	126.76
847.566	130.91
848.002	132.31
848.437	149.91
848.872	150.01
849.307	190.46
849.742	344.31
850.177	893.31
850.613	1905.66
851.048	1383.61
851.483	635.41
851.918	353.66
852.353	196.56
852.788	138.36
853.223	124.66
853.657	114.26
854.092	108.11
854.527	109.31
854.962	120.56
855.397	130.66
855.832	112.01
856.266	102.46
856.701	97.66
857.136	108.56
857.57	132.51
858.005	155.16
858.44	134.61
858.874	124.46
859.309	123.86
859.743	119.61
860.178	117.56
860.612	134.01
861.047	180.31
861.481	259.31
861.915	175.61
862.35	131.66
862.784	102.76
863.218	96.41
863.653	109.26
864.087	128.96
864.521	160.01
864.955	261.31
865.39	450.46
865.824	351.56
866.258	464.01
866.692	715.11
867.126	516.21
867.56	277.26
867.994	178.16
868.428	147.96
868.862	183.91
869.296	170.11
869.73	207.36
870.164	179.36
870.598	154.21
871.031	111.46
871.465	94.61
871.899	81.76
872.333	70.21
872.766	72.91
873.2	76.41
873.634	65.01
874.067	74.76
874.501	72.21
874.935	70.71
875.368	73.86
875.802	72.86
876.235	67.51
876.669	65.56
877.102	58.91
877.535	60.21
877.969	60.26
878.402	60.41
878.836	61.31
879.269	59.36
879.702	54.31
880.135	60.51
880.569	67.56
881.002	54.86
881.435	56.46
881.868	54.96
882.301	48.36
882.734	48.16
883.167	57.31
883.601	54.76
884.034	53.81
884.467	44.41
884.899	46.91
885.332	43.76
885.765	44.56
886.198	43.36
886.631	52.61
887.064	48.56
887.497	47.76
887.929	44.36
888.362	41.36
888.795	43.16
889.228	51.56
889.66	45.61
890.093	42.06
890.526	41.66
890.958	43.36
891.391	44.51
891.823	46.51
892.256	43.36
892.688	45.11
893.121	39.86
893.553	47.01
893.985	41.56
894.418	37.86
894.85	44.46
895.282	38.31
895.715	38.76
896.147	37.21
896.579	38.11
897.011	42.31
897.444	41.96
897.876	34.81
898.308	36.11
898.74	40.41
899.172	43.66
899.604	40.71
900.036	39.06
900.468	40.56
900.9	43.06
901.332	54.46
901.764	58.26
902.196	58.86
902.628	56.36
903.06	84.66
903.491	94.71
903.923	75.36
904.355	73.86
904.787	75.31
905.218	59.11
905.65	58.56
906.082	54.86
906.513	48.71
906.945	45.36
907.376	49.61
907.808	51.61
908.239	52.86
908.671	54.61
909.102	61.76
909.534	92.26
909.965	174.71
910.397	449.46
910.828	1270.01
911.259	783.21
911.691	424.76
912.122	250.41
912.553	122.91
912.984	71.91
913.415	57.26
913.847	53.96
914.278	51.76
914.709	39.01
915.14	42.91
915.571	47.41
916.002	43.91
916.433	42.66
916.864	37.01
917.295	44.16
917.726	52.21
918.157	59.51
918.587	61.56
919.018	58.26
919.449	51.41
919.88	63.01
920.311	94.71
920.741	261.81
921.172	468.81
921.603	237.11
922.033	150.61
922.464	96.46
922.895	64.61
923.325	38.61
923.756	36.71
924.186	51.91
924.617	73.11
925.047	112.01
925.478	98.96
925.908	70.16
926.338	50.66
926.769	43.86
927.199	38.86
927.629	37.01
928.06	35.76
928.49	40.11
928.92	30.76
929.35	24.06
929.78	24.26
930.21	27.41
930.641	21.46
931.071	22.31
931.501	20.11
931.931	20.71
932.361	20.76
932.791	24.46
933.221	23.41
933.651	39.71
934.08	64.31
934.51	36.31
934.94	31.91
935.37	27.36
935.8	18.66
936.229	19.61
936.659	22.66
937.089	38.96
937.519	62.11
937.948	79.11
938.378	46.41
938.807	26.46
939.237	20.41
939.666	19.86
940.096	15.81
940.525	11.66
940.955	15.06
941.384	11.61
941.814	11.71
942.243	9.16
942.672	6.86
943.102	7.31
943.531	9.06
943.96	9.61
944.39	11.26
944.819	15.86
945.248	10.66
945.677	8.36
946.106	9.71
946.535	12.31
946.964	10.51
947.393	5.91
947.822	8.81
948.251	11.56
948.68	17.11
949.109	10.36
949.538	7.36
949.967	9.56
950.396	8.26
950.825	9.21
951.254	11.61
951.682	7.81
952.111	7.06
952.54	8.26
952.969	7.36
953.397	2.81
953.826	3.51
954.254	7.36
954.683	9.51
955.112	6.96
955.54	8.36
955.969	11.11
956.397	11.11
956.826	7.66
957.254	3.71
957.682	6.86
958.111	8.21
958.539	10.06
958.967	9.36
959.396	8.61
959.824	10.71
960.252	9.51
960.68	6.96
961.109	7.91
961.537	13.16
961.965	1.26
962.393	1.16
962.821	7.06
963.249	8.86
963.677	16.56
964.105	79.46
964.533	137.56
964.961	69.51
965.389	43.81
965.817	20.01
966.245	11.51
966.672	8.96
967.1	11.51
967.528	1.91
967.956	-0.14
968.383	9.16
968.811	3.06
969.239	4.01
969.666	12.41
970.094	4.71
970.522	3.51
970.949	6.01
971.377	0.86
971.804	6.71
972.232	4.16
972.659	5.81
973.087	8.01
973.514	1.56
973.941	0.61
974.369	0.76
974.796	1.91
975.223	1.61
975.651	7.21
976.078	5.91
976.505	11.21
976.932	30.46
977.359	41.76
977.786	26.26
978.214	19.31
978.641	10.11
979.068	6.31
979.495	6.61
979.922	5.46
980.349	5.01
980.776	5.81
981.202	2.41
981.629	10.66
982.056	7.26
982.483	-1.34
982.91	8.16
983.337	1.81
983.763	1.51
984.19	5.31
984.617	2.21
985.043	6.76
985.47	9.26
985.897	9.01
986.323	12.76
986.75	-0.09
987.176	6.91
987.603	5.86
988.029	2.61
988.456	6.91
988.882	3.11
989.308	-1.64
989.735	-1.64
990.161	4.11
990.587	3.06
991.014	2.76
991.44	5.46
991.866	-0.14
992.292	3.11
992.719	0.21
993.145	4.71
993.571	3.16
993.997	4.61
994.423	5.96
994.849	1.06
995.275	4.81
995.701	1.61
996.127	-0.79
996.553	1.76
996.979	0.11
997.405	8.36
997.83	2.91
998.256	4.26
998.682	5.51
999.108	6.41
999.534	-2.94
999.959	2.16
1000.385	6.91
1000.811	-0.04
1001.236	-2.79
1001.662	-1.04
1002.087	12.71
1002.513	1.11
1002.938	3.46
1003.364	3.66
1003.789	3.66
1004.215	-1.49
1004.64	1.46
1005.066	7.26
1005.491	4.81
1005.916	6.11
1006.342	2.21
1006.767	4.41
1007.192	7.96
1007.617	5.61
1008.042	0.86
1008.468	2.06
1008.893	7.51
1009.318	11.76
1009.743	17.41
1010.168	29.21
1010.593	25.61
1011.018	17.71
1011.443	13.31
1011.868	8.56
1012.293	4.21
1012.718	2.66
1013.143	2.11
1013.567	6.51
1013.992	4.41
1014.417	4.46
1014.842	5.76
1015.267	0.31
1015.691	4.96
1016.116	3.61
1016.541	3.26
1016.965	0.26
1017.39	2.71
1017.814	-0.99
1018.239	2.66
1018.663	-0.54
1019.088	0.26
1019.512	6.56
1019.937	-2.04
1020.361	2.71
1020.785	-3.74
1021.21	-2.14
1021.634	-2.19
1022.058	0.76
1022.483	1.01
1022.907	-6.34
1023.331	0.36
1023.755	-2.04
1024.179	-2.59
1024.604	3.46
1025.028	0.41
1025.452	2.81
1025.876	4.86
1026.3	4.06
1026.724	-1.54
1027.148	3.21
1027.572	0.06
1027.996	4.96
1028.42	1.91
1028.843	-2.84
1029.267	-3.14
1029.691	2.56
1030.115	-1.04
1030.539	0.21
1030.962	-2.34
1031.386	-0.94
1031.81	-2.89
1032.233	-5.39
1032.657	-6.44
1033.08	3.26
1033.504	-1.99
1033.927	-1.54
1034.351	1.01
1034.774	-3.84
1035.198	-4.14
1035.621	-3.04
1036.045	-6.24
1036.468	4.01
1036.891	0.61
1037.315	5.06
1037.738	2.96
1038.161	1.66
1038.584	1.06
1039.008	-4.99
1039.431	-4.49
1039.854	-2.74
1040.277	5.51
1040.7	1.56
1041.123	0.11
1041.546	-3.59
1041.969	3.76
1042.392	0.86
1042.815	-8.14
1043.238	-2.14
1043.661	0.71
1044.084	-2.09
1044.507	-2.89
1044.93	-0.04
1045.352	-0.29
1045.775	0.16
1046.198	2.51
1046.621	5.26
1047.043	-3.34
1047.466	0.41
1047.889	2.11
1048.311	1.71
1048.734	3.26
1049.156	0.46
1049.579	-2.09
1050.001	-2.24
1050.424	-1.94
1050.846	-4.69
1051.269	-1.44
1051.691	-1.34
1052.113	0.41
1052.536	-0.14
1052.958	-4.14
1053.38	-2.39
1053.802	0.51
1054.225	1.76
1054.647	-1.24
1055.069	2.56
1055.491	-0.24
1055.913	-0.44
1056.335	-10.89
1056.757	-4.14
1057.179	-3.74
1057.601	-1.09
1058.023	2.41
1058.445	-6.79
1058.867	-2.04
1059.289	-3.44
1059.711	-4.94
1060.133	-1.34
1060.555	-2.99
1060.976	0.11
1061.398	-5.84
1061.82	-0.74
1062.241	-1.84
1062.663	-2.14
1063.085	-5.84
1063.506	-3.44
1063.928	-3.69
1064.35	-0.54
1064.771	0.96
1065.193	-0.79
1065.614	-0.89
1066.035	1.41
1066.457	7.71
1066.878	0.76
1067.3	-1.64
1067.721	-0.89
1068.142	4.11
1068.564	-0.14
1068.985	-2.64
1069.406	-4.59
1069.827	-0.69
1070.248	-2.19
1070.67	-1.84
1071.091	-4.19
1071.512	-2.44
1071.933	-3.34
1072.354	-6.89
1072.775	-4.34
1073.196	-0.24
1073.617	-2.64
1074.038	0.31
1074.459	-7.14
1074.88	-3.64
1075.3	-1.84
1075.721	0.36
1076.142	-1.64
1076.563	-3.59
1076.983	0.16
1077.404	-4.14
1077.825	0.96
1078.246	-5.44
1078.666	-6.99
1079.087	-1.04
1079.507	-4.14
1079.928	-0.39
1080.348	-3.49
1080.769	-0.34
1081.189	-2.64
1081.61	-9.24
1082.03	2.46
1082.451	0.71
1082.871	-8.39
1083.291	-2.04
1083.711	-2.94
1084.132	-3.39
1084.552	-10.14
1084.972	-8.04
1085.392	-0.84
1085.813	-2.09
1086.233	-2.99
1086.653	-0.09
1087.073	-3.69
1087.493	1.06
1087.913	-2.19
1088.333	-4.79
1088.753	-1.24
1089.173	0.81
1089.593	-2.59
1090.013	-5.29
1090.433	-9.69
1090.852	-0.19
1091.272	-2.19
1091.692	1.76
1092.112	-5.09
1092.531	-7.84
1092.951	-0.74
1093.371	-7.64
1093.79	-5.24
1094.21	-5.39
1094.63	2.86
1095.049	-3.49
1095.469	-7.99
1095.888	-0.39
1096.308	-0.29
1096.727	-4.54
1097.146	-4.54
1097.566	-4.44
1097.985	-7.44
1098.405	-4.04
1098.824	-0.39
1099.243	-2.34
1099.662	-3.79
1100.082	-4.94
1100.501	-2.84
1100.92	1.51
1101.339	-0.64
1101.758	2.76
