Data from MSPlasma+Separation6_Subt14_10-14-26-839.txt Node
Date: Fri Jul 21 10:14:26 EDT 2017
User: Ender
Spectrometer: HR+D1039
Trigger mode: 0
Integration Time (sec): 6.430000E-3
Scans to average: 20
Electric dark correction enabled: true
Nonlinearity correction enabled: false
Boxcar width: 0
XAxis mode: Wavelengths
Number of Pixels in Spectrum: 2048
>>>>>Begin Spectral Data<<<<<
187.836	0.97
188.309	0.97
188.782	0.97
189.255	-0.08
189.728	2.27
190.201	0.52
190.674	-1.98
191.147	0.12
191.619	2.77
192.092	-3.38
192.565	-3.88
193.038	3.92
193.511	2.97
193.984	-3.23
194.456	-3.93
194.929	1.57
195.402	-0.93
195.874	2.32
196.347	3.22
196.82	2.52
197.292	-6.98
197.765	-0.73
198.237	-3.58
198.71	-5.78
199.182	1.22
199.655	5.02
200.127	1.27
200.6	1.22
201.072	2.42
201.544	0.47
202.017	3.27
202.489	5.27
202.961	-1.73
203.433	-3.68
203.906	-0.53
204.378	-1.08
204.85	1.57
205.322	1.72
205.794	3.77
206.266	0.62
206.739	5.87
207.211	0.57
207.683	-2.73
208.155	1.97
208.627	0.67
209.099	8.27
209.57	5.92
210.042	3.02
210.514	8.47
210.986	0.77
211.458	-4.23
211.93	3.47
212.402	-1.18
212.873	-2.38
213.345	-0.33
213.817	5.22
214.288	-1.93
214.76	6.07
215.232	-0.88
215.703	2.97
216.175	1.32
216.646	9.37
217.118	4.37
217.589	-2.03
218.061	2.92
218.532	-4.03
219.004	3.67
219.475	5.42
219.946	3.87
220.418	7.07
220.889	5.47
221.36	4.77
221.832	4.97
222.303	7.57
222.774	5.82
223.245	2.32
223.717	4.62
224.188	4.62
224.659	7.52
225.13	-0.03
225.601	6.37
226.072	5.87
226.543	7.82
227.014	7.37
227.485	8.52
227.956	2.17
228.427	15.52
228.898	10.97
229.369	8.72
229.839	6.92
230.31	8.42
230.781	10.47
231.252	13.67
231.722	9.72
232.193	11.62
232.664	11.27
233.135	12.47
233.605	11.47
234.076	19.62
234.546	10.97
235.017	14.32
235.487	12.67
235.958	9.77
236.428	17.92
236.899	12.92
237.369	22.02
237.84	20.12
238.31	20.32
238.78	11.47
239.251	16.27
239.721	16.67
240.191	20.92
240.662	19.77
241.132	17.17
241.602	24.62
242.072	18.82
242.542	16.82
243.013	16.72
243.483	25.37
243.953	16.97
244.423	20.02
244.893	22.02
245.363	23.97
245.833	19.67
246.303	22.42
246.773	28.17
247.243	25.42
247.712	25.57
248.182	28.92
248.652	29.47
249.122	27.92
249.592	26.47
250.061	29.02
250.531	26.37
251.001	28.87
251.471	32.27
251.94	32.22
252.41	30.67
252.879	33.07
253.349	39.37
253.818	32.52
254.288	39.12
254.757	35.62
255.227	37.37
255.696	36.57
256.166	41.17
256.635	40.97
257.105	35.82
257.574	41.92
258.043	41.62
258.513	44.22
258.982	38.32
259.451	40.97
259.92	42.77
260.389	46.52
260.859	41.02
261.328	44.82
261.797	39.62
262.266	46.42
262.735	46.77
263.204	41.82
263.673	45.27
264.142	44.72
264.611	44.97
265.08	45.87
265.549	45.17
266.018	50.42
266.487	53.17
266.955	46.42
267.424	51.22
267.893	54.77
268.362	56.37
268.83	54.22
269.299	52.27
269.768	55.62
270.236	57.97
270.705	57.82
271.174	56.02
271.642	50.92
272.111	56.27
272.579	57.92
273.048	62.82
273.516	63.07
273.985	63.67
274.453	60.62
274.922	61.62
275.39	61.62
275.858	70.07
276.327	65.22
276.795	63.37
277.263	68.77
277.731	67.22
278.2	67.87
278.668	68.72
279.136	71.62
279.604	71.32
280.072	66.17
280.54	71.27
281.008	77.02
281.477	72.82
281.945	72.72
282.413	74.82
282.881	80.07
283.348	78.77
283.816	78.62
284.284	78.97
284.752	83.62
285.22	86.37
285.688	81.37
286.156	85.92
286.623	83.97
287.091	84.77
287.559	87.37
288.026	90.02
288.494	86.62
288.962	90.42
289.429	88.32
289.897	86.12
290.364	86.87
290.832	92.72
291.3	91.52
291.767	91.37
292.234	96.12
292.702	93.77
293.169	92.17
293.637	98.87
294.104	98.22
294.571	98.82
295.039	97.97
295.506	97.42
295.973	102.72
296.44	102.42
296.908	101.22
297.375	106.32
297.842	100.72
298.309	103.82
298.776	106.42
299.243	107.57
299.71	106.22
300.177	109.52
300.644	113.52
301.111	108.62
301.578	113.02
302.045	111.72
302.512	118.02
302.979	120.47
303.446	121.57
303.913	120.67
304.379	123.82
304.846	126.27
305.313	134.42
305.78	135.97
306.246	135.02
306.713	132.12
307.18	136.52
307.646	138.92
308.113	136.52
308.579	143.27
309.046	145.77
309.512	144.12
309.979	145.52
310.445	143.62
310.912	147.72
311.378	152.27
311.845	157.92
312.311	153.57
312.777	151.52
313.244	159.67
313.71	157.12
314.176	163.92
314.642	164.12
315.109	164.12
315.575	163.22
316.041	162.02
316.507	157.97
316.973	169.12
317.439	166.52
317.905	173.12
318.371	170.37
318.837	166.67
319.303	177.37
319.769	168.72
320.235	179.77
320.701	176.57
321.167	177.42
321.633	177.77
322.099	180.07
322.564	180.02
323.03	185.42
323.496	187.47
323.962	189.12
324.427	193.92
324.893	185.42
325.359	196.47
325.824	193.92
326.29	201.77
326.755	195.52
327.221	200.17
327.686	208.97
328.152	203.37
328.617	209.02
329.083	213.77
329.548	214.17
330.014	215.72
330.479	218.97
330.944	220.92
331.41	225.52
331.875	214.87
332.34	210.47
332.805	219.32
333.271	217.37
333.736	222.42
334.201	216.82
334.666	237.97
335.131	247.27
335.596	245.97
336.061	236.52
336.526	230.32
336.991	229.52
337.456	227.42
337.921	223.52
338.386	223.27
338.851	225.72
339.316	231.77
339.781	227.82
340.246	229.32
340.711	237.22
341.175	243.92
341.64	241.32
342.105	251.77
342.569	263.07
343.034	255.97
343.499	258.52
343.963	265.12
344.428	272.07
344.893	271.87
345.357	277.07
345.822	280.32
346.286	279.52
346.751	280.82
347.215	284.62
347.679	298.52
348.144	312.37
348.608	313.27
349.073	314.57
349.537	321.52
350.001	324.67
350.465	325.17
350.93	326.27
351.394	324.52
351.858	328.37
352.322	333.52
352.786	334.07
353.25	344.22
353.715	346.22
354.179	359.87
354.643	367.12
355.107	371.27
355.571	361.82
356.035	359.02
356.498	366.22
356.962	352.77
357.426	356.57
357.89	353.42
358.354	355.52
358.818	353.57
359.281	357.02
359.745	353.82
360.209	353.97
360.673	356.57
361.136	351.92
361.6	358.42
362.064	369.92
362.527	380.72
362.991	376.87
363.454	374.52
363.918	376.07
364.381	383.32
364.845	382.07
365.308	378.02
365.772	387.12
366.235	385.47
366.698	383.62
367.162	385.32
367.625	392.92
368.088	403.32
368.552	397.42
369.015	394.62
369.478	397.07
369.941	402.87
370.404	413.72
370.867	401.27
371.331	402.32
371.794	421.32
372.257	422.57
372.72	417.72
373.183	428.12
373.646	421.27
374.109	424.27
374.572	429.97
375.035	431.27
375.497	431.97
375.96	440.82
376.423	448.37
376.886	452.27
377.349	460.82
377.811	453.67
378.274	460.32
378.737	450.32
379.199	457.72
379.662	466.07
380.125	469.82
380.587	480.77
381.05	480.77
381.512	490.82
381.975	500.77
382.437	511.97
382.9	503.12
383.362	509.37
383.825	517.72
384.287	521.07
384.75	511.57
385.212	517.47
385.674	517.77
386.136	527.47
386.599	518.97
387.061	527.17
387.523	525.42
387.985	529.72
388.447	536.22
388.91	537.97
389.372	536.72
389.834	542.42
390.296	526.12
390.758	535.67
391.22	534.32
391.682	541.22
392.144	538.22
392.606	551.37
393.068	562.22
393.529	593.17
393.991	602.57
394.453	575.87
394.915	559.02
395.377	545.37
395.838	545.47
396.3	553.82
396.762	561.62
397.224	560.27
397.685	557.87
398.147	564.42
398.608	576.17
399.07	580.97
399.531	584.87
399.993	596.37
400.454	595.77
400.916	601.72
401.377	612.57
401.839	615.87
402.3	619.07
402.762	648.22
403.223	689.77
403.684	685.37
404.145	667.42
404.607	650.02
405.068	631.77
405.529	645.57
405.99	665.52
406.451	668.02
406.913	653.07
407.374	665.27
407.835	660.47
408.296	683.32
408.757	676.07
409.218	696.42
409.679	703.42
410.14	699.22
410.601	726.27
411.062	722.92
411.522	732.92
411.983	723.62
412.444	731.37
412.905	752.52
413.366	770.72
413.826	811.27
414.287	904.27
414.748	1089.52
415.208	1111.47
415.669	935.07
416.13	841.22
416.59	826.77
417.051	853.92
417.511	896.82
417.972	963.32
418.432	1036.12
418.893	1138.87
419.353	1100.22
419.814	856.97
420.274	758.17
420.734	740.32
421.195	774.42
421.655	768.12
422.115	777.72
422.576	780.92
423.036	789.27
423.496	816.72
423.956	841.42
424.416	901.97
424.876	1011.87
425.336	1012.07
425.797	988.77
426.257	977.72
426.717	923.62
427.177	858.12
427.637	869.02
428.097	898.17
428.556	938.32
429.016	1000.87
429.476	1010.27
429.936	986.17
430.396	986.67
430.856	1006.97
431.315	1023.27
431.775	1101.32
432.235	1181.97
432.694	1196.87
433.154	1133.97
433.614	1114.67
434.073	1069.22
434.533	972.77
434.993	934.97
435.452	928.72
435.912	918.62
436.371	913.27
436.83	893.22
437.29	889.72
437.749	858.72
438.209	857.62
438.668	866.42
439.127	880.32
439.587	860.17
440.046	836.42
440.505	865.47
440.964	868.22
441.424	892.22
441.883	910.62
442.342	860.47
442.801	829.27
443.26	837.52
443.719	830.27
444.178	823.87
444.637	834.22
445.096	851.62
445.555	851.47
446.014	849.12
446.473	847.42
446.932	848.07
447.391	856.17
447.849	866.82
448.308	856.17
448.767	864.97
449.226	879.02
449.685	891.87
450.143	931.72
450.602	922.92
451.061	868.72
451.519	878.82
451.978	870.57
452.436	868.22
452.895	870.92
453.353	865.52
453.812	862.82
454.27	869.47
454.729	866.57
455.187	880.47
455.646	874.27
456.104	873.97
456.562	883.22
457.021	899.17
457.479	863.52
457.937	898.72
458.395	915.62
458.854	904.22
459.312	887.82
459.77	900.97
460.228	918.87
460.686	920.17
461.144	924.72
461.602	909.97
462.06	919.67
462.518	943.12
462.976	938.32
463.434	950.97
463.892	962.97
464.35	979.97
464.808	987.32
465.266	1000.37
465.724	1013.67
466.181	1017.72
466.639	1018.12
467.097	1052.52
467.555	1088.92
468.012	1077.87
468.47	1089.47
468.928	1126.12
469.385	1155.57
469.843	1167.27
470.3	1163.77
470.758	1204.07
471.215	1219.22
471.673	1249.57
472.13	1283.62
472.588	1305.17
473.045	1295.32
473.503	1311.87
473.96	1373.87
474.417	1391.97
474.875	1449.87
475.332	1501.37
475.789	1521.72
476.246	1566.97
476.704	1638.42
477.161	1686.12
477.618	1726.97
478.075	1823.37
478.532	1949.27
478.989	2093.47
479.446	2310.42
479.903	2426.17
480.36	2629.07
480.817	2780.22
481.274	2960.37
481.731	3221.77
482.188	3441.02
482.645	3701.92
483.102	3897.97
483.558	4183.37
484.015	4358.12
484.472	4343.37
484.929	4215.42
485.385	4045.12
485.842	3962.82
486.299	3821.97
486.755	3502.52
487.212	3171.47
487.668	2862.52
488.125	2655.62
488.582	2475.12
489.038	2367.97
489.494	2316.22
489.951	2234.67
490.407	2189.67
490.864	2146.27
491.32	2104.67
491.776	2090.37
492.233	2094.77
492.689	2054.42
493.145	2026.12
493.602	1979.02
494.058	2014.62
494.514	2021.62
494.97	2015.07
495.426	2043.42
495.882	2049.27
496.338	2030.52
496.794	2047.82
497.251	2052.97
497.707	2082.52
498.163	2073.12
498.618	2073.57
499.074	2064.17
499.53	2085.22
499.986	2088.87
500.442	2079.47
500.898	2064.72
501.354	2086.32
501.809	2084.22
502.265	2089.92
502.721	2078.82
503.177	2108.82
503.632	2098.07
504.088	2127.92
504.543	2134.32
504.999	2154.32
505.455	2149.07
505.91	2121.12
506.366	2136.12
506.821	2141.57
507.277	2125.17
507.732	2130.42
508.187	2132.97
508.643	2157.02
509.098	2161.72
509.553	2200.07
510.009	2210.87
510.464	2243.82
510.919	2259.87
511.375	2295.17
511.83	2305.07
512.285	2342.92
512.74	2389.47
513.195	2420.47
513.65	2462.67
514.105	2490.97
514.56	2495.42
515.015	2541.97
515.47	2558.72
515.925	2520.77
516.38	2543.32
516.835	2531.42
517.29	2518.22
517.745	2516.92
518.2	2487.92
518.655	2442.52
519.109	2410.27
519.564	2369.02
520.019	2361.12
520.474	2342.02
520.928	2339.72
521.383	2306.82
521.838	2295.37
522.292	2277.82
522.747	2254.37
523.201	2255.32
523.656	2233.57
524.11	2223.42
524.565	2206.42
525.019	2218.17
525.474	2218.32
525.928	2211.77
526.382	2209.72
526.837	2204.47
527.291	2210.92
527.745	2193.37
528.2	2195.72
528.654	2177.47
529.108	2179.67
529.562	2196.52
530.016	2182.82
530.47	2188.92
530.925	2175.92
531.379	2180.97
531.833	2208.02
532.287	2196.37
532.741	2185.87
533.195	2186.22
533.649	2185.87
534.103	2200.32
534.556	2178.37
535.01	2193.37
535.464	2181.47
535.918	2188.32
536.372	2200.27
536.826	2186.27
537.279	2174.07
537.733	2182.52
538.187	2188.17
538.64	2187.57
539.094	2198.77
539.548	2234.07
540.001	2224.67
540.455	2238.42
540.908	2249.72
541.362	2268.07
541.815	2284.22
542.269	2335.92
542.722	2333.12
543.175	2355.27
543.629	2367.22
544.082	2373.62
544.536	2411.37
544.989	2401.07
545.442	2432.42
545.895	2422.42
546.349	2424.87
546.802	2424.32
547.255	2416.42
547.708	2429.77
548.161	2462.22
548.614	2461.52
549.067	2481.32
549.52	2468.82
549.973	2434.02
550.426	2432.62
550.879	2412.27
551.332	2415.87
551.785	2435.17
552.238	2457.62
552.691	2457.42
553.144	2497.92
553.596	2536.77
554.049	2554.82
554.502	2621.62
554.955	2658.47
555.407	2691.52
555.86	2658.17
556.313	2627.12
556.765	2603.92
557.218	2579.12
557.67	2583.02
558.123	2536.27
558.576	2527.47
559.028	2511.22
559.48	2547.17
559.933	2528.77
560.385	2470.42
560.838	2382.12
561.29	2326.57
561.742	2299.77
562.195	2242.07
562.647	2243.57
563.099	2221.27
563.551	2202.72
564.004	2235.52
564.456	2202.12
564.908	2168.82
565.36	2122.37
565.812	2069.97
566.264	2051.47
566.716	2036.87
567.168	1988.62
567.62	1996.92
568.072	1987.62
568.524	1973.57
568.976	1960.67
569.428	1935.52
569.88	1938.42
570.332	1958.67
570.784	1960.07
571.235	1959.12
571.687	1973.57
572.139	1967.62
572.59	1987.22
573.042	1992.37
573.494	1997.97
573.945	1966.32
574.397	1931.07
574.849	1918.92
575.3	1930.42
575.752	1900.72
576.203	1883.57
576.655	1897.22
577.106	1868.52
577.557	1852.62
578.009	1848.32
578.46	1845.77
578.912	1826.62
579.363	1841.02
579.814	1838.67
580.265	1834.87
580.717	1849.92
581.168	1844.22
581.619	1853.67
582.07	1877.62
582.521	1857.57
582.972	1848.47
583.423	1848.87
583.875	1859.17
584.326	1883.07
584.777	1898.92
585.227	1930.87
585.678	1963.72
586.129	1991.07
586.58	1990.77
587.031	2028.27
587.482	2083.27
587.933	2095.82
588.384	2098.97
588.834	2069.52
589.285	2072.32
589.736	2075.92
590.186	2077.12
590.637	2052.77
591.088	2010.37
591.538	1982.67
591.989	1942.62
592.439	1923.72
592.89	1904.87
593.34	1892.72
593.791	1891.82
594.241	1869.37
594.692	1859.52
595.142	1863.42
595.593	1860.17
596.043	1871.72
596.493	1887.92
596.943	1873.72
597.394	1937.67
597.844	1956.77
598.294	2003.97
598.744	2072.17
599.195	2177.52
599.645	2291.77
600.095	2401.42
600.545	2506.72
600.995	2622.62
601.445	2701.72
601.895	2844.47
602.345	2925.27
602.795	2891.72
603.245	2788.82
603.695	2622.32
604.145	2499.02
604.594	2357.77
605.044	2250.52
605.494	2101.82
605.944	1999.12
606.393	1942.72
606.843	1913.62
607.293	1899.77
607.743	1895.52
608.192	1913.67
608.642	1905.32
609.091	1897.72
609.541	1901.17
609.99	1900.02
610.44	1860.17
610.889	1839.82
611.339	1818.62
611.788	1794.47
612.238	1806.02
612.687	1813.77
613.136	1821.12
613.586	1834.77
614.035	1820.37
614.484	1857.42
614.933	1845.97
615.383	1806.02
615.832	1768.92
616.281	1745.37
616.73	1703.07
617.179	1671.07
617.628	1641.62
618.077	1613.32
618.526	1584.37
618.975	1577.27
619.424	1551.87
619.873	1559.27
620.322	1539.12
620.771	1527.72
621.22	1516.27
621.669	1484.22
622.118	1468.72
622.567	1453.22
623.015	1421.27
623.464	1421.37
623.913	1399.52
624.361	1416.92
624.81	1407.62
625.259	1411.67
625.707	1398.22
626.156	1405.17
626.604	1434.27
627.053	1425.42
627.501	1432.92
627.95	1438.32
628.398	1452.47
628.847	1434.57
629.295	1431.22
629.744	1419.82
630.192	1393.72
630.64	1390.97
631.089	1358.17
631.537	1326.72
631.985	1320.62
632.433	1318.17
632.881	1298.87
633.33	1316.87
633.778	1305.57
634.226	1314.07
634.674	1326.42
635.122	1338.72
635.57	1363.57
636.018	1378.72
636.466	1374.77
636.914	1380.02
637.362	1392.72
637.81	1424.87
638.258	1472.02
638.705	1483.32
639.153	1529.72
639.601	1542.07
640.049	1571.57
640.497	1610.52
640.944	1652.67
641.392	1601.52
641.84	1506.22
642.287	1437.72
642.735	1403.07
643.182	1386.97
643.63	1387.52
644.078	1384.87
644.525	1422.47
644.973	1453.82
645.42	1476.62
645.867	1512.12
646.315	1540.57
646.762	1602.07
647.21	1640.62
647.657	1724.72
648.104	1793.52
648.551	1844.67
648.999	1985.27
649.446	2171.72
649.893	2425.62
650.34	2827.52
650.787	3468.77
651.234	4458.57
651.682	6122.52
652.129	8629.02
652.576	12214.57
653.023	15522.22
653.47	15537.22
653.917	15537.27
654.363	15537.17
654.81	15534.17
655.257	15534.82
655.704	15528.27
656.151	9629.27
656.598	6335.67
657.044	4525.37
657.491	3567.32
657.938	2891.22
658.385	2451.67
658.831	2178.62
659.278	1949.12
659.724	1791.02
660.171	1670.02
660.618	1549.92
661.064	1461.22
661.511	1419.82
661.957	1366.37
662.404	1350.62
662.85	1339.07
663.296	1304.72
663.743	1273.37
664.189	1263.67
664.635	1254.77
665.082	1234.52
665.528	1212.42
665.974	1175.22
666.42	1163.82
666.867	1144.77
667.313	1098.22
667.759	1090.22
668.205	1084.87
668.651	1078.62
669.097	1077.27
669.543	1081.42
669.989	1091.37
670.435	1087.07
670.881	1105.62
671.327	1146.67
671.773	1229.62
672.219	1318.37
672.665	1401.92
673.11	1449.42
673.556	1466.77
674.002	1488.32
674.448	1516.92
674.893	1308.37
675.339	1133.62
675.785	1042.52
676.23	991.02
676.676	946.12
677.122	931.72
677.567	898.57
678.013	871.97
678.458	867.12
678.904	859.97
679.349	852.32
679.794	850.17
680.24	844.12
680.685	846.37
681.131	848.47
681.576	853.57
682.021	847.47
682.466	859.57
682.912	871.12
683.357	918.92
683.802	987.52
684.247	1072.92
684.692	1150.02
685.137	1199.12
685.583	1216.12
686.028	1279.57
686.473	1232.27
686.918	1055.47
687.363	965.97
687.807	916.82
688.252	875.42
688.697	849.37
689.142	826.97
689.587	826.37
690.032	834.17
690.477	862.97
690.921	907.27
691.366	957.47
691.811	1002.27
692.255	1082.97
692.7	1311.62
693.145	1891.97
693.589	2874.87
694.034	3435.52
694.478	3665.87
694.923	3370.52
695.367	4801.67
695.812	2931.77
696.256	1231.97
696.701	892.97
697.145	839.97
697.59	806.37
698.034	788.97
698.478	787.22
698.922	796.57
699.367	807.57
699.811	841.27
700.255	920.27
700.699	992.67
701.143	1097.97
701.588	1146.72
702.032	1202.62
702.476	1235.77
702.92	1318.72
703.364	1728.17
703.808	2645.47
704.252	3283.62
704.696	3485.47
705.14	3293.32
705.584	4544.87
706.027	2515.57
706.471	1263.67
706.915	946.12
707.359	841.02
707.803	786.12
708.246	757.07
708.69	749.77
709.134	744.02
709.577	733.77
710.021	743.22
710.465	739.17
710.908	733.12
711.352	765.22
711.795	846.42
712.239	909.47
712.682	931.07
713.126	916.82
713.569	1015.57
714.012	835.47
714.456	728.92
714.899	689.77
715.342	658.72
715.786	637.27
716.229	616.02
716.672	603.07
717.115	605.82
717.558	607.37
718.002	632.17
718.445	652.17
718.888	690.77
719.331	701.87
719.774	718.62
720.217	704.92
720.66	665.42
721.103	638.32
721.546	606.82
721.989	578.97
722.432	576.17
722.874	571.72
723.317	585.02
723.76	630.47
724.203	773.37
724.645	1031.02
725.088	1212.32
725.531	1193.72
725.974	1302.92
726.416	1179.52
726.859	733.77
727.301	602.77
727.744	575.27
728.187	570.97
728.629	585.57
729.071	614.02
729.514	639.87
729.956	664.92
730.399	674.77
730.841	686.72
731.283	666.57
731.726	646.77
732.168	651.92
732.61	688.87
733.053	743.82
733.495	814.97
733.937	902.27
734.379	1078.52
734.821	1376.47
735.263	2167.62
735.705	3907.77
736.148	5725.57
736.59	5756.27
737.032	6277.32
737.474	5205.32
737.916	1986.62
738.357	1040.77
738.799	802.17
739.241	741.07
739.683	742.87
740.125	760.42
740.567	769.07
741.008	817.42
741.45	857.67
741.892	898.32
742.334	901.57
742.775	894.57
743.217	868.37
743.658	731.02
744.1	755.02
744.542	864.07
744.983	896.17
745.425	939.57
745.866	910.22
746.307	762.17
746.749	811.12
747.19	1179.12
747.632	2284.47
748.073	4239.47
748.514	5909.02
748.956	7820.92
749.397	9203.52
749.838	6366.82
750.279	6076.72
750.72	3143.42
751.162	1328.42
751.603	768.07
752.044	614.47
752.485	548.82
752.926	507.67
753.367	490.87
753.808	475.17
754.249	466.77
754.69	460.02
755.131	449.67
755.572	448.37
756.013	454.47
756.453	459.82
756.894	466.07
757.335	463.07
757.776	468.17
758.216	489.02
758.657	516.97
759.098	564.82
759.538	696.02
759.979	990.12
760.42	2010.07
760.86	5152.87
761.301	10638.77
761.741	12535.27
762.182	14386.72
762.622	9427.27
763.063	3351.12
763.503	1372.42
763.943	805.87
764.384	634.47
764.824	553.52
765.264	502.27
765.705	476.62
766.145	455.67
766.585	437.22
767.025	423.92
767.465	426.27
767.906	429.47
768.346	463.02
768.786	532.42
769.226	777.62
769.666	1571.47
770.106	3534.27
770.546	5056.37
770.986	5736.62
771.426	4359.32
771.866	1802.02
772.306	817.57
772.745	507.97
773.185	429.82
773.625	418.52
774.065	442.62
774.505	638.32
774.944	1133.77
775.384	1637.87
775.824	1844.62
776.263	1522.12
776.703	803.07
777.142	465.52
777.582	348.52
778.021	324.32
778.461	302.07
778.9	304.97
779.34	296.17
779.779	284.77
780.219	279.37
780.658	276.52
781.097	276.82
781.537	267.12
781.976	262.87
782.415	258.67
782.855	267.27
783.294	256.37
783.733	255.07
784.172	265.32
784.611	261.27
785.05	269.02
785.489	279.62
785.928	283.42
786.367	291.92
786.806	312.97
787.245	330.32
787.684	346.37
788.123	341.47
788.562	326.22
789.001	318.27
789.44	307.12
789.879	313.27
790.317	312.92
790.756	333.37
791.195	373.22
791.634	505.77
792.072	914.42
792.511	2241.82
792.95	4140.37
793.388	5031.72
793.827	3272.62
794.265	1496.37
794.704	719.42
795.142	442.27
795.581	362.02
796.019	330.77
796.458	326.47
796.896	339.52
797.334	388.02
797.773	524.52
798.211	995.77
798.649	2070.82
799.087	3505.97
799.526	4950.82
799.964	5088.67
800.402	3535.22
800.84	1589.12
801.278	780.22
801.716	477.67
802.154	387.02
802.592	359.92
803.03	362.37
803.468	369.72
803.906	375.62
804.344	360.22
804.782	356.22
805.22	356.07
805.658	369.47
806.096	392.42
806.533	443.12
806.971	565.62
807.409	817.82
807.847	1634.07
808.284	4151.17
808.722	7281.07
809.16	10265.22
809.597	13761.47
810.035	15539.17
810.472	11278.62
810.91	4789.27
811.347	2129.67
811.785	1007.32
812.222	638.37
812.66	487.72
813.097	414.12
813.535	362.07
813.972	325.87
814.409	302.47
814.846	284.57
815.284	276.37
815.721	276.22
816.158	309.62
816.595	413.27
817.032	522.82
817.47	474.82
817.907	352.27
818.344	304.52
818.781	299.07
819.218	356.47
819.655	551.27
820.092	707.87
820.529	643.67
820.966	508.02
821.403	357.27
821.839	301.52
822.276	332.42
822.713	398.72
823.15	376.32
823.587	385.87
824.023	682.77
824.46	1705.37
824.897	2985.52
825.333	2343.22
825.77	1069.22
826.206	557.47
826.643	329.57
827.08	241.42
827.516	209.47
827.953	198.57
828.389	192.12
828.825	179.32
829.262	182.57
829.698	169.62
830.135	161.72
830.571	160.12
831.007	164.47
831.443	164.27
831.88	160.92
832.316	172.17
832.752	169.02
833.188	172.52
833.624	169.77
834.06	172.82
834.497	178.57
834.933	176.22
835.369	195.27
835.805	205.52
836.241	210.32
836.677	234.92
837.112	273.47
837.548	337.12
837.984	500.32
838.42	1072.72
838.856	2999.37
839.292	5935.07
839.727	4431.82
840.163	2953.92
840.599	4489.87
841.034	6891.57
841.47	3468.47
841.906	1665.92
842.341	897.12
842.777	656.32
843.212	680.12
843.648	426.62
844.083	287.17
844.519	218.97
844.954	184.42
845.39	164.82
845.825	155.57
846.261	150.92
846.696	150.72
847.131	143.02
847.566	147.82
848.002	150.52
848.437	152.62
848.872	162.87
849.307	209.32
849.742	376.32
850.177	968.67
850.613	2087.12
851.048	1509.37
851.483	687.67
851.918	377.97
852.353	212.32
852.788	153.02
853.223	133.07
853.657	122.47
854.092	119.02
854.527	117.92
854.962	125.17
855.397	138.87
855.832	120.82
856.266	108.47
856.701	104.87
857.136	115.67
857.57	138.52
858.005	170.32
858.44	142.42
858.874	132.22
859.309	135.37
859.743	128.97
860.178	125.97
860.612	137.27
861.047	188.62
861.481	266.52
861.915	182.07
862.35	133.97
862.784	113.12
863.218	103.97
863.653	112.77
864.087	141.72
864.521	168.42
864.955	280.52
865.39	485.17
865.824	378.52
866.258	476.62
866.692	724.77
867.126	523.67
867.56	279.82
867.994	178.07
868.428	155.92
868.862	190.82
869.296	172.22
869.73	210.47
870.164	186.82
870.598	167.72
871.031	121.52
871.465	105.92
871.899	85.07
872.333	76.57
872.766	78.62
873.2	77.47
873.634	75.42
874.067	78.87
874.501	81.67
874.935	82.47
875.368	80.67
875.802	75.42
876.235	72.62
876.669	71.72
877.102	60.92
877.535	60.42
877.969	63.07
878.402	65.42
878.836	62.52
879.269	58.52
879.702	58.72
880.135	60.47
880.569	63.52
881.002	58.12
881.435	59.87
881.868	53.42
882.301	56.22
882.734	54.17
883.167	56.82
883.601	58.92
884.034	53.32
884.467	51.72
884.899	50.97
885.332	46.67
885.765	47.92
886.198	52.12
886.631	52.27
887.064	53.22
887.497	48.42
887.929	50.32
888.362	50.62
888.795	48.67
889.228	53.02
889.66	51.12
890.093	48.17
890.526	47.52
890.958	45.27
891.391	50.92
891.823	48.47
892.256	42.62
892.688	44.87
893.121	44.82
893.553	46.32
893.985	41.92
894.418	44.62
894.85	50.07
895.282	43.47
895.715	43.77
896.147	39.17
896.579	40.97
897.011	48.02
897.444	46.67
897.876	39.62
898.308	42.32
898.74	46.12
899.172	47.72
899.604	44.97
900.036	46.02
900.468	41.12
900.9	50.37
901.332	59.27
901.764	61.97
902.196	57.37
902.628	58.12
903.06	91.92
903.491	91.97
903.923	80.62
904.355	75.77
904.787	81.47
905.218	64.42
905.65	63.32
906.082	55.82
906.513	52.82
906.945	53.67
907.376	54.47
907.808	53.77
908.239	57.37
908.671	62.97
909.102	72.57
909.534	100.37
909.965	187.22
910.397	484.12
910.828	1397.62
911.259	855.82
911.691	464.22
912.122	264.27
912.553	136.47
912.984	81.77
913.415	70.12
913.847	61.52
914.278	57.92
914.709	48.67
915.14	46.57
915.571	43.37
916.002	51.12
916.433	46.42
916.864	45.22
917.295	46.87
917.726	52.02
918.157	71.37
918.587	69.22
919.018	64.47
919.449	59.07
919.88	71.67
920.311	109.17
920.741	289.87
921.172	513.02
921.603	259.57
922.033	163.92
922.464	106.62
922.895	69.12
923.325	50.07
923.756	43.77
924.186	55.72
924.617	78.42
925.047	118.92
925.478	108.02
925.908	78.32
926.338	53.02
926.769	45.72
927.199	43.62
927.629	39.42
928.06	40.72
928.49	42.07
928.92	33.67
929.35	37.02
929.78	24.77
930.21	27.77
930.641	25.37
931.071	28.77
931.501	23.22
931.931	23.92
932.361	23.52
932.791	27.32
933.221	25.02
933.651	40.82
934.08	69.17
934.51	43.57
934.94	31.77
935.37	28.17
935.8	25.42
936.229	23.97
936.659	24.67
937.089	41.32
937.519	59.77
937.948	83.82
938.378	50.62
938.807	29.77
939.237	16.72
939.666	21.37
940.096	14.02
940.525	7.72
940.955	16.12
941.384	10.97
941.814	14.22
942.243	11.87
942.672	11.32
943.102	11.87
943.531	10.52
943.96	8.92
944.39	10.02
944.819	14.42
945.248	11.47
945.677	13.27
946.106	14.52
946.535	11.12
946.964	17.07
947.393	7.87
947.822	9.37
948.251	13.97
948.68	11.12
949.109	11.77
949.538	11.52
949.967	11.32
950.396	11.82
950.825	11.92
951.254	10.52
951.682	7.87
952.111	4.67
952.54	6.17
952.969	7.72
953.397	8.47
953.826	4.72
954.254	11.22
954.683	12.02
955.112	10.52
955.54	9.77
955.969	7.27
956.397	13.52
956.826	7.62
957.254	10.02
957.682	11.67
958.111	8.37
958.539	12.27
958.967	4.42
959.396	8.87
959.824	7.27
960.252	5.77
960.68	7.07
961.109	9.47
961.537	13.77
961.965	6.47
962.393	7.82
962.821	7.57
963.249	9.92
963.677	17.27
964.105	87.37
964.533	147.47
964.961	76.02
965.389	42.97
965.817	26.37
966.245	13.07
966.672	11.02
967.1	12.07
967.528	5.27
967.956	8.17
968.383	12.12
968.811	8.32
969.239	5.37
969.666	11.52
970.094	5.92
970.522	5.87
970.949	10.87
971.377	1.47
971.804	1.37
972.232	4.32
972.659	4.07
973.087	5.92
973.514	1.57
973.941	0.77
974.369	2.52
974.796	3.17
975.223	5.47
975.651	8.87
976.078	9.67
976.505	15.12
976.932	38.72
977.359	43.02
977.786	26.42
978.214	23.72
978.641	6.87
979.068	6.92
979.495	4.47
979.922	7.72
980.349	4.92
980.776	5.32
981.202	7.17
981.629	12.52
982.056	8.92
982.483	2.02
982.91	9.87
983.337	4.92
983.763	7.27
984.19	10.97
984.617	3.67
985.043	3.12
985.47	8.27
985.897	7.27
986.323	11.77
986.75	3.97
987.176	1.12
987.603	6.92
988.029	4.82
988.456	9.27
988.882	4.82
989.308	-0.18
989.735	0.27
990.161	2.37
990.587	7.32
991.014	7.42
991.44	4.27
991.866	5.07
992.292	6.07
992.719	4.27
993.145	7.02
993.571	2.82
993.997	8.42
994.423	4.57
994.849	-0.48
995.275	0.17
995.701	3.87
996.127	-1.13
996.553	1.97
996.979	2.27
997.405	4.22
997.83	4.77
998.256	2.32
998.682	0.22
999.108	8.47
999.534	-2.68
999.959	0.37
1000.385	4.12
1000.811	3.57
1001.236	1.32
1001.662	2.17
1002.087	7.42
1002.513	5.22
1002.938	1.62
1003.364	4.62
1003.789	7.62
1004.215	0.42
1004.64	4.32
1005.066	8.37
1005.491	5.27
1005.916	5.17
1006.342	4.57
1006.767	1.82
1007.192	9.32
1007.617	9.12
1008.042	3.52
1008.468	4.67
1008.893	6.97
1009.318	9.17
1009.743	14.27
1010.168	29.57
1010.593	25.17
1011.018	18.22
1011.443	12.62
1011.868	9.67
1012.293	8.82
1012.718	3.47
1013.143	5.12
1013.567	9.37
1013.992	4.02
1014.417	6.92
1014.842	0.97
1015.267	1.32
1015.691	4.17
1016.116	6.87
1016.541	6.52
1016.965	4.07
1017.39	4.97
1017.814	-0.28
1018.239	2.22
1018.663	-8.28
1019.088	-0.13
1019.512	5.12
1019.937	1.92
1020.361	2.92
1020.785	-0.18
1021.21	-4.23
1021.634	2.02
1022.058	4.87
1022.483	-0.28
1022.907	0.12
1023.331	3.27
1023.755	0.22
1024.179	1.57
1024.604	-1.48
1025.028	2.67
1025.452	3.42
1025.876	4.62
1026.3	2.37
1026.724	-3.28
1027.148	4.42
1027.572	3.87
1027.996	7.37
1028.42	-0.43
1028.843	3.32
1029.267	0.62
1029.691	2.07
1030.115	-2.03
1030.539	4.37
1030.962	-1.23
1031.386	-1.63
1031.81	-3.48
1032.233	-4.88
1032.657	0.37
1033.08	3.82
1033.504	-4.18
1033.927	0.37
1034.351	-0.98
1034.774	-0.43
1035.198	-2.43
1035.621	-0.43
1036.045	1.47
1036.468	6.37
1036.891	-0.18
1037.315	5.67
1037.738	-0.13
1038.161	0.87
1038.584	-4.88
1039.008	-5.13
1039.431	-1.18
1039.854	-3.18
1040.277	2.32
1040.7	-0.58
1041.123	1.77
1041.546	-1.68
1041.969	0.47
1042.392	-0.33
1042.815	-9.58
1043.238	-3.13
1043.661	0.07
1044.084	-2.48
1044.507	-1.28
1044.93	-3.58
1045.352	0.87
1045.775	6.42
1046.198	3.22
1046.621	3.72
1047.043	-1.03
1047.466	8.82
1047.889	-0.08
1048.311	-0.23
1048.734	-2.03
1049.156	-2.73
1049.579	-1.08
1050.001	-2.08
1050.424	0.67
1050.846	-4.63
1051.269	-4.33
1051.691	1.97
1052.113	2.67
1052.536	0.32
1052.958	-4.53
1053.38	0.82
1053.802	6.22
1054.225	0.82
1054.647	5.62
1055.069	-1.68
1055.491	2.27
1055.913	0.57
1056.335	-6.93
1056.757	-3.33
1057.179	-1.43
1057.601	-3.93
1058.023	0.42
1058.445	-2.68
1058.867	2.72
1059.289	-1.83
1059.711	-1.48
1060.133	2.12
1060.555	-2.73
1060.976	0.67
1061.398	1.72
1061.82	2.72
1062.241	-3.23
1062.663	-0.78
1063.085	-3.38
1063.506	-7.18
1063.928	3.07
1064.35	0.42
1064.771	1.67
1065.193	-6.18
1065.614	-2.88
1066.035	7.52
1066.457	3.27
1066.878	2.52
1067.3	-0.13
1067.721	1.57
1068.142	0.92
1068.564	2.77
1068.985	1.47
1069.406	-2.83
1069.827	1.77
1070.248	-2.18
1070.67	-1.48
1071.091	-3.68
1071.512	0.27
1071.933	-1.13
1072.354	-9.23
1072.775	-4.38
1073.196	-0.13
1073.617	-6.03
1074.038	-4.28
1074.459	-3.28
1074.88	0.27
1075.3	-1.83
1075.721	-0.83
1076.142	-4.63
1076.563	-5.33
1076.983	0.57
1077.404	-2.33
1077.825	4.92
1078.246	-5.13
1078.666	-3.33
1079.087	-1.43
1079.507	-2.83
1079.928	-4.28
1080.348	-2.68
1080.769	3.42
1081.189	2.72
1081.61	-5.73
1082.03	3.97
1082.451	2.02
1082.871	-3.33
1083.291	0.82
1083.711	0.97
1084.132	-2.63
1084.552	-5.78
1084.972	-2.38
1085.392	-1.88
1085.813	-0.43
1086.233	-7.78
1086.653	1.32
1087.073	-3.78
1087.493	-3.63
1087.913	-3.08
1088.333	-0.83
1088.753	2.47
1089.173	3.57
1089.593	3.02
1090.013	-0.38
1090.433	-2.13
1090.852	1.52
1091.272	-8.83
1091.692	-1.73
1092.112	-5.48
1092.531	-3.83
1092.951	-3.83
1093.371	-4.13
1093.79	-4.83
1094.21	-2.63
1094.63	0.22
1095.049	-1.58
1095.469	-7.83
1095.888	1.07
1096.308	0.42
1096.727	-2.18
1097.146	-1.58
1097.566	-1.28
1097.985	-1.88
1098.405	2.22
1098.824	-0.38
1099.243	-8.03
1099.662	-1.98
1100.082	-4.78
1100.501	-0.98
1100.92	3.57
1101.339	3.77
1101.758	4.72
