Data from MSPlasma+Separation6_Subt14_10-13-51-677.txt Node
Date: Fri Jul 21 10:13:51 EDT 2017
User: Ender
Spectrometer: HR+D1039
Trigger mode: 0
Integration Time (sec): 6.430000E-3
Scans to average: 20
Electric dark correction enabled: true
Nonlinearity correction enabled: false
Boxcar width: 0
XAxis mode: Wavelengths
Number of Pixels in Spectrum: 2048
>>>>>Begin Spectral Data<<<<<
187.836	1.87
188.309	1.87
188.782	1.87
189.255	-1.88
189.728	0.17
190.201	-1.28
190.674	3.52
191.147	0.22
191.619	-0.63
192.092	0.02
192.565	-5.88
193.038	1.37
193.511	2.57
193.984	-1.98
194.456	2.72
194.929	-0.83
195.402	-1.68
195.874	1.72
196.347	0.32
196.82	2.07
197.292	-0.13
197.765	-2.83
198.237	-2.13
198.71	-5.23
199.182	1.17
199.655	1.77
200.127	2.07
200.6	-1.93
201.072	3.92
201.544	1.62
202.017	1.32
202.489	4.87
202.961	0.42
203.433	2.27
203.906	1.77
204.378	1.42
204.85	0.37
205.322	-1.88
205.794	5.22
206.266	-0.03
206.739	3.72
207.211	-3.63
207.683	1.17
208.155	2.42
208.627	1.82
209.099	5.32
209.57	2.67
210.042	3.92
210.514	4.32
210.986	2.62
211.458	1.47
211.93	2.72
212.402	3.17
212.873	-3.68
213.345	-2.08
213.817	7.37
214.288	-4.38
214.76	2.17
215.232	0.27
215.703	-1.53
216.175	4.37
216.646	2.32
217.118	4.27
217.589	1.27
218.061	1.27
218.532	-0.43
219.004	5.42
219.475	4.07
219.946	0.27
220.418	8.32
220.889	4.37
221.36	3.67
221.832	4.07
222.303	9.52
222.774	5.92
223.245	1.72
223.717	5.52
224.188	5.97
224.659	3.27
225.13	5.42
225.601	5.92
226.072	7.07
226.543	11.22
227.014	4.52
227.485	5.27
227.956	13.27
228.427	14.32
228.898	11.22
229.369	10.77
229.839	10.27
230.31	14.82
230.781	7.17
231.252	13.62
231.722	12.52
232.193	9.32
232.664	14.52
233.135	9.77
233.605	9.57
234.076	15.87
234.546	10.87
235.017	11.22
235.487	9.22
235.958	13.37
236.428	17.07
236.899	11.47
237.369	18.02
237.84	15.47
238.31	19.87
238.78	14.27
239.251	16.87
239.721	12.82
240.191	17.57
240.662	22.37
241.132	12.02
241.602	20.07
242.072	21.37
242.542	14.32
243.013	21.57
243.483	23.32
243.953	20.07
244.423	19.57
244.893	20.72
245.363	27.72
245.833	24.07
246.303	23.47
246.773	26.82
247.243	25.52
247.712	24.52
248.182	27.22
248.652	29.52
249.122	31.97
249.592	29.27
250.061	22.17
250.531	26.82
251.001	28.17
251.471	27.27
251.94	26.52
252.41	28.37
252.879	32.02
253.349	38.12
253.818	30.72
254.288	33.37
254.757	31.62
255.227	38.47
255.696	34.17
256.166	37.62
256.635	40.77
257.105	34.37
257.574	36.72
258.043	32.62
258.513	36.97
258.982	36.42
259.451	41.37
259.92	37.42
260.389	42.72
260.859	42.67
261.328	43.52
261.797	43.72
262.266	47.82
262.735	51.42
263.204	37.02
263.673	44.27
264.142	43.42
264.611	42.72
265.08	47.27
265.549	42.77
266.018	50.77
266.487	48.47
266.955	48.32
267.424	55.77
267.893	57.02
268.362	51.12
268.83	47.87
269.299	50.22
269.768	51.27
270.236	55.37
270.705	58.07
271.174	55.72
271.642	49.97
272.111	53.32
272.579	55.62
273.048	57.82
273.516	60.67
273.985	60.87
274.453	60.82
274.922	65.37
275.39	54.72
275.858	61.47
276.327	64.27
276.795	65.97
277.263	63.32
277.731	67.12
278.2	69.57
278.668	68.02
279.136	72.12
279.604	65.17
280.072	65.62
280.54	73.62
281.008	77.17
281.477	74.42
281.945	73.72
282.413	69.62
282.881	73.52
283.348	71.87
283.816	77.47
284.284	78.47
284.752	79.17
285.22	84.07
285.688	80.52
286.156	80.77
286.623	81.52
287.091	80.37
287.559	82.37
288.026	86.07
288.494	86.67
288.962	89.87
289.429	84.07
289.897	86.67
290.364	83.87
290.832	87.97
291.3	87.87
291.767	87.42
292.234	89.02
292.702	92.07
293.169	98.87
293.637	91.47
294.104	92.27
294.571	92.62
295.039	100.57
295.506	94.42
295.973	99.92
296.44	97.22
296.908	100.02
297.375	96.42
297.842	101.57
298.309	100.02
298.776	96.52
299.243	108.12
299.71	105.92
300.177	110.12
300.644	108.72
301.111	107.87
301.578	112.02
302.045	111.17
302.512	108.62
302.979	114.12
303.446	117.57
303.913	119.32
304.379	118.67
304.846	122.77
305.313	127.62
305.78	133.72
306.246	125.92
306.713	129.87
307.18	132.27
307.646	133.77
308.113	135.22
308.579	136.82
309.046	139.02
309.512	140.97
309.979	139.77
310.445	135.27
310.912	142.52
311.378	147.37
311.845	144.12
312.311	144.67
312.777	143.87
313.244	149.57
313.71	154.52
314.176	158.97
314.642	154.17
315.109	155.57
315.575	152.72
316.041	152.27
316.507	160.27
316.973	161.37
317.439	166.12
317.905	165.97
318.371	160.67
318.837	162.47
319.303	168.67
319.769	160.77
320.235	173.62
320.701	175.87
321.167	170.32
321.633	171.47
322.099	169.97
322.564	175.57
323.03	175.02
323.496	175.37
323.962	178.67
324.427	180.77
324.893	182.72
325.359	188.62
325.824	186.47
326.29	194.32
326.755	190.57
327.221	189.87
327.686	200.97
328.152	205.17
328.617	208.87
329.083	204.52
329.548	207.67
330.014	207.77
330.479	206.52
330.944	218.22
331.41	220.12
331.875	208.57
332.34	206.97
332.805	214.87
333.271	217.07
333.736	214.47
334.201	221.32
334.666	234.22
335.131	231.87
335.596	231.37
336.061	224.12
336.526	231.67
336.991	225.82
337.456	216.32
337.921	221.87
338.386	218.42
338.851	223.02
339.316	218.47
339.781	222.27
340.246	230.37
340.711	234.92
341.175	237.37
341.64	244.42
342.105	245.02
342.569	250.27
343.034	249.42
343.499	252.42
343.963	257.42
344.428	256.42
344.893	258.27
345.357	262.47
345.822	265.97
346.286	269.57
346.751	276.82
347.215	275.67
347.679	283.07
348.144	301.07
348.608	302.37
349.073	300.67
349.537	313.62
350.001	311.02
350.465	312.52
350.93	311.02
351.394	318.82
351.858	314.07
352.322	326.07
352.786	323.72
353.25	322.07
353.715	328.67
354.179	342.07
354.643	351.52
355.107	357.47
355.571	344.97
356.035	344.42
356.498	343.12
356.962	343.67
357.426	347.37
357.89	349.07
358.354	339.02
358.818	339.22
359.281	345.37
359.745	344.12
360.209	338.77
360.673	342.07
361.136	342.97
361.6	345.87
362.064	354.02
362.527	365.47
362.991	359.32
363.454	365.37
363.918	363.42
364.381	363.02
364.845	362.92
365.308	364.22
365.772	372.82
366.235	367.47
366.698	376.32
367.162	370.47
367.625	375.47
368.088	384.42
368.552	377.87
369.015	380.27
369.478	388.57
369.941	391.92
370.404	393.52
370.867	388.72
371.331	392.47
371.794	400.42
372.257	402.67
372.72	401.22
373.183	400.57
373.646	404.42
374.109	406.32
374.572	407.67
375.035	414.17
375.497	419.32
375.96	427.32
376.423	434.02
376.886	430.77
377.349	437.42
377.811	440.02
378.274	440.77
378.737	442.52
379.199	443.72
379.662	449.57
380.125	462.12
380.587	463.07
381.05	471.27
381.512	472.12
381.975	482.67
382.437	490.22
382.9	484.32
383.362	489.72
383.825	491.87
384.287	493.72
384.75	494.02
385.212	503.72
385.674	502.72
386.136	506.12
386.599	504.02
387.061	504.02
387.523	512.82
387.985	513.82
388.447	520.77
388.91	517.47
389.372	520.27
389.834	528.27
390.296	505.57
390.758	516.97
391.22	518.92
391.682	523.32
392.144	521.27
392.606	526.57
393.068	544.17
393.529	566.62
393.991	577.17
394.453	550.02
394.915	538.87
395.377	525.32
395.838	528.27
396.3	538.27
396.762	539.17
397.224	531.37
397.685	533.92
398.147	545.22
398.608	555.42
399.07	557.82
399.531	560.92
399.993	574.52
400.454	584.87
400.916	582.32
401.377	591.02
401.839	597.02
402.3	598.82
402.762	614.92
403.223	671.82
403.684	667.67
404.145	638.22
404.607	627.32
405.068	613.62
405.529	625.77
405.99	639.37
406.451	647.27
406.913	635.47
407.374	637.72
407.835	639.92
408.296	652.02
408.757	654.47
409.218	677.22
409.679	687.02
410.14	684.67
410.601	695.82
411.062	700.67
411.522	702.02
411.983	703.07
412.444	714.77
412.905	724.47
413.366	753.12
413.826	781.42
414.287	874.92
414.748	1044.67
415.208	1067.47
415.669	887.52
416.13	817.82
416.59	802.27
417.051	824.17
417.511	863.37
417.972	928.27
418.432	990.07
418.893	1100.82
419.353	1066.12
419.814	822.77
420.274	735.27
420.734	724.52
421.195	743.17
421.655	734.02
422.115	755.12
422.576	753.17
423.036	757.72
423.496	778.42
423.956	810.12
424.416	870.97
424.876	978.32
425.336	972.52
425.797	954.17
426.257	935.92
426.717	888.82
427.177	832.32
427.637	839.57
428.097	864.67
428.556	899.82
429.016	957.92
429.476	959.92
429.936	946.77
430.396	948.72
430.856	970.77
431.315	996.62
431.775	1059.77
432.235	1134.32
432.694	1147.82
433.154	1088.37
433.614	1075.52
434.073	1035.37
434.533	931.87
434.993	892.62
435.452	901.42
435.912	886.02
436.371	888.22
436.83	876.47
437.29	853.77
437.749	824.92
438.209	825.82
438.668	834.17
439.127	849.32
439.587	842.82
440.046	817.97
440.505	827.67
440.964	840.07
441.424	864.57
441.883	883.02
442.342	838.12
442.801	797.47
443.26	799.12
443.719	804.77
444.178	794.47
444.637	811.42
445.096	820.72
445.555	826.62
446.014	822.72
446.473	816.22
446.932	820.42
447.391	828.87
447.849	847.42
448.308	826.97
448.767	835.32
449.226	852.87
449.685	863.42
450.143	901.32
450.602	899.37
451.061	851.47
451.519	851.52
451.978	845.72
452.436	842.17
452.895	848.27
453.353	842.67
453.812	829.42
454.27	830.67
454.729	831.62
455.187	841.72
455.646	836.62
456.104	846.97
456.562	860.02
457.021	883.57
457.479	842.67
457.937	866.47
458.395	894.02
458.854	876.62
459.312	862.92
459.77	881.42
460.228	890.27
460.686	896.97
461.144	901.62
461.602	882.47
462.06	895.07
462.518	916.42
462.976	908.42
463.434	920.47
463.892	931.87
464.35	947.17
464.808	962.37
465.266	969.22
465.724	980.77
466.181	986.02
466.639	978.87
467.097	1024.87
467.555	1062.92
468.012	1049.27
468.47	1056.92
468.928	1097.42
469.385	1110.77
469.843	1139.82
470.3	1126.72
470.758	1167.07
471.215	1181.12
471.673	1203.32
472.13	1231.72
472.588	1260.52
473.045	1258.97
473.503	1282.87
473.96	1327.92
474.417	1341.62
474.875	1399.67
475.332	1446.92
475.789	1482.17
476.246	1515.82
476.704	1573.97
477.161	1613.47
477.618	1661.47
478.075	1761.97
478.532	1876.22
478.989	2021.27
479.446	2224.17
479.903	2316.62
480.36	2539.12
480.817	2662.47
481.274	2823.12
481.731	3080.12
482.188	3291.32
482.645	3546.92
483.102	3731.07
483.558	3986.27
484.015	4139.77
484.472	4106.22
484.929	4001.42
485.385	3849.62
485.842	3769.97
486.299	3629.87
486.755	3364.87
487.212	3036.77
487.668	2741.22
488.125	2565.02
488.582	2376.07
489.038	2290.27
489.494	2232.37
489.951	2156.62
490.407	2114.47
490.864	2065.27
491.32	2022.97
491.776	2024.12
492.233	2020.07
492.689	1986.82
493.145	1961.37
493.602	1933.27
494.058	1948.82
494.514	1949.72
494.97	1953.12
495.426	1978.67
495.882	1977.42
496.338	1975.27
496.794	1988.27
497.251	1988.47
497.707	2004.42
498.163	2006.67
498.618	2003.77
499.074	2008.07
499.53	2030.72
499.986	2033.32
500.442	2022.32
500.898	1999.82
501.354	2020.67
501.809	2020.27
502.265	2019.07
502.721	2042.97
503.177	2035.37
503.632	2048.72
504.088	2051.97
504.543	2082.67
504.999	2089.67
505.455	2086.42
505.91	2070.12
506.366	2077.72
506.821	2075.52
507.277	2063.72
507.732	2078.12
508.187	2078.32
508.643	2093.47
509.098	2090.57
509.553	2124.37
510.009	2134.72
510.464	2182.62
510.919	2191.92
511.375	2216.52
511.83	2239.52
512.285	2279.52
512.74	2335.67
513.195	2346.07
513.65	2389.42
514.105	2418.92
514.56	2429.97
515.015	2457.92
515.47	2470.32
515.925	2450.62
516.38	2467.22
516.835	2456.57
517.29	2443.22
517.745	2444.87
518.2	2399.72
518.655	2372.97
519.109	2323.32
519.564	2298.77
520.019	2288.02
520.474	2272.57
520.928	2257.67
521.383	2236.57
521.838	2233.67
522.292	2222.42
522.747	2201.32
523.201	2186.07
523.656	2178.27
524.11	2163.72
524.565	2156.52
525.019	2148.37
525.474	2156.27
525.928	2143.77
526.382	2154.22
526.837	2139.57
527.291	2154.02
527.745	2132.32
528.2	2147.72
528.654	2112.67
529.108	2120.92
529.562	2118.22
530.016	2121.67
530.47	2132.72
530.925	2110.62
531.379	2117.62
531.833	2132.77
532.287	2136.42
532.741	2135.77
533.195	2124.32
533.649	2134.72
534.103	2134.07
534.556	2118.77
535.01	2134.77
535.464	2126.22
535.918	2131.62
536.372	2138.72
536.826	2135.42
537.279	2120.42
537.733	2121.12
538.187	2124.57
538.64	2129.62
539.094	2138.77
539.548	2163.82
540.001	2170.32
540.455	2184.52
540.908	2184.97
541.362	2201.62
541.815	2228.37
542.269	2271.62
542.722	2248.77
543.175	2287.87
543.629	2299.17
544.082	2309.62
544.536	2330.57
544.989	2337.42
545.442	2363.97
545.895	2354.32
546.349	2348.12
546.802	2352.07
547.255	2355.12
547.708	2364.52
548.161	2385.82
548.614	2388.82
549.067	2405.62
549.52	2381.62
549.973	2366.32
550.426	2351.92
550.879	2352.47
551.332	2356.12
551.785	2371.32
552.238	2389.82
552.691	2395.32
553.144	2437.22
553.596	2466.27
554.049	2480.42
554.502	2540.92
554.955	2565.92
555.407	2616.72
555.86	2588.02
556.313	2560.22
556.765	2541.72
557.218	2500.12
557.67	2494.77
558.123	2468.32
558.576	2462.87
559.028	2443.17
559.48	2475.07
559.933	2457.52
560.385	2392.07
560.838	2308.97
561.29	2255.22
561.742	2235.82
562.195	2189.42
562.647	2161.47
563.099	2158.27
563.551	2150.37
564.004	2160.17
564.456	2145.27
564.908	2105.87
565.36	2050.37
565.812	2006.82
566.264	2004.12
566.716	1971.17
567.168	1942.32
567.62	1939.67
568.072	1924.32
568.524	1922.47
568.976	1917.47
569.428	1895.07
569.88	1887.37
570.332	1915.92
570.784	1897.62
571.235	1900.22
571.687	1922.17
572.139	1925.72
572.59	1930.97
573.042	1938.32
573.494	1938.02
573.945	1910.57
574.397	1877.37
574.849	1873.12
575.3	1873.02
575.752	1841.17
576.203	1837.72
576.655	1841.52
577.106	1821.77
577.557	1808.17
578.009	1792.12
578.46	1802.12
578.912	1784.52
579.363	1798.37
579.814	1787.27
580.265	1789.57
580.717	1797.57
581.168	1793.67
581.619	1796.82
582.07	1810.77
582.521	1810.37
582.972	1797.57
583.423	1801.92
583.875	1802.62
584.326	1820.77
584.777	1862.12
585.227	1880.12
585.678	1912.32
586.129	1923.82
586.58	1953.82
587.031	1973.57
587.482	2022.07
587.933	2055.17
588.384	2059.22
588.834	2022.82
589.285	2014.12
589.736	2015.97
590.186	2023.37
590.637	1994.17
591.088	1954.97
591.538	1923.17
591.989	1892.07
592.439	1873.92
592.89	1846.72
593.34	1848.07
593.791	1832.47
594.241	1819.72
594.692	1818.17
595.142	1810.72
595.593	1801.52
596.043	1817.92
596.493	1845.17
596.943	1838.07
597.394	1889.27
597.844	1908.72
598.294	1955.92
598.744	2016.07
599.195	2108.27
599.645	2228.32
600.095	2329.47
600.545	2442.22
600.995	2535.12
601.445	2629.82
601.895	2753.02
602.345	2842.87
602.795	2796.22
603.245	2693.47
603.695	2549.37
604.145	2425.42
604.594	2296.17
605.044	2181.47
605.494	2048.12
605.944	1934.57
606.393	1893.22
606.843	1863.27
607.293	1853.57
607.743	1844.32
608.192	1868.47
608.642	1845.12
609.091	1850.57
609.541	1837.72
609.99	1844.47
610.44	1813.17
610.889	1800.37
611.339	1767.62
611.788	1741.87
612.238	1759.87
612.687	1766.52
613.136	1770.47
613.586	1788.22
614.035	1782.12
614.484	1798.22
614.933	1803.02
615.383	1752.92
615.832	1718.42
616.281	1695.82
616.73	1659.62
617.179	1620.22
617.628	1594.07
618.077	1566.97
618.526	1550.12
618.975	1535.77
619.424	1506.82
619.873	1518.07
620.322	1498.32
620.771	1491.17
621.22	1475.07
621.669	1451.97
622.118	1428.67
622.567	1420.42
623.015	1386.47
623.464	1392.02
623.913	1372.27
624.361	1374.92
624.81	1366.82
625.259	1366.27
625.707	1360.72
626.156	1366.72
626.604	1384.22
627.053	1387.57
627.501	1389.17
627.95	1400.12
628.398	1407.37
628.847	1390.17
629.295	1386.02
629.744	1390.22
630.192	1362.52
630.64	1336.72
631.089	1322.07
631.537	1291.27
631.985	1270.57
632.433	1271.67
632.881	1276.07
633.33	1281.32
633.778	1268.42
634.226	1285.07
634.674	1293.47
635.122	1297.07
635.57	1326.22
636.018	1339.17
636.466	1342.77
636.914	1336.12
637.362	1364.02
637.81	1385.02
638.258	1426.07
638.705	1437.82
639.153	1487.77
639.601	1498.57
640.049	1519.02
640.497	1574.37
640.944	1602.77
641.392	1544.82
641.84	1463.17
642.287	1398.07
642.735	1376.37
643.182	1347.82
643.63	1352.77
644.078	1356.02
644.525	1373.77
644.973	1420.52
645.42	1437.02
645.867	1465.47
646.315	1504.72
646.762	1567.02
647.21	1601.12
647.657	1679.47
648.104	1740.22
648.551	1779.27
648.999	1920.47
649.446	2085.42
649.893	2334.27
650.34	2712.92
650.787	3325.07
651.234	4242.67
651.682	5820.82
652.129	8159.07
652.576	11538.37
653.023	15089.82
653.47	15534.52
653.917	15534.57
654.363	15534.47
654.81	15531.47
655.257	15532.12
655.704	14942.47
656.151	9108.67
656.598	6006.77
657.044	4319.57
657.491	3397.97
657.938	2764.52
658.385	2360.87
658.831	2088.92
659.278	1878.57
659.724	1727.67
660.171	1621.27
660.618	1495.12
661.064	1410.72
661.511	1367.77
661.957	1331.72
662.404	1308.62
662.85	1288.17
663.296	1282.02
663.743	1245.42
664.189	1229.62
664.635	1224.67
665.082	1196.82
665.528	1179.07
665.974	1143.02
666.42	1137.97
666.867	1113.32
667.313	1064.97
667.759	1051.82
668.205	1043.42
668.651	1044.92
669.097	1040.22
669.543	1054.32
669.989	1065.67
670.435	1070.42
670.881	1070.32
671.327	1126.27
671.773	1203.12
672.219	1280.12
672.665	1367.37
673.11	1403.72
673.556	1432.32
674.002	1461.57
674.448	1476.02
674.893	1263.57
675.339	1098.72
675.785	1015.27
676.23	965.87
676.676	927.62
677.122	901.42
677.567	874.22
678.013	850.72
678.458	850.17
678.904	838.72
679.349	831.87
679.794	831.02
680.24	828.77
680.685	820.12
681.131	825.92
681.576	826.67
682.021	834.67
682.466	840.62
682.912	841.37
683.357	881.87
683.802	960.77
684.247	1051.82
684.692	1114.92
685.137	1166.12
685.583	1181.92
686.028	1248.47
686.473	1182.82
686.918	1030.97
687.363	941.37
687.807	901.67
688.252	851.12
688.697	822.07
689.142	801.07
689.587	798.42
690.032	815.32
690.477	843.17
690.921	881.67
691.366	936.82
691.811	967.22
692.255	1050.57
692.7	1267.82
693.145	1814.92
693.589	2778.87
694.034	3319.97
694.478	3540.27
694.923	3238.92
695.367	4608.92
695.812	2823.37
696.256	1190.97
696.701	869.72
697.145	813.17
697.59	778.57
698.034	770.07
698.478	767.77
698.922	772.42
699.367	785.27
699.811	823.02
700.255	886.97
700.699	967.42
701.143	1047.52
701.588	1116.47
702.032	1165.27
702.476	1197.67
702.92	1290.07
703.364	1671.52
703.808	2543.12
704.252	3181.87
704.696	3360.62
705.14	3186.27
705.584	4373.77
706.027	2439.77
706.471	1225.07
706.915	918.07
707.359	818.42
707.803	759.17
708.246	733.52
708.69	731.82
709.134	719.52
709.577	717.52
710.021	723.67
710.465	719.82
710.908	719.07
711.352	741.77
711.795	827.22
712.239	884.67
712.682	905.17
713.126	888.47
713.569	988.12
714.012	813.97
714.456	707.42
714.899	675.82
715.342	649.77
715.786	615.37
716.229	606.32
716.672	593.02
717.115	593.57
717.558	592.27
718.002	609.17
718.445	643.27
718.888	670.97
719.331	685.32
719.774	695.02
720.217	685.82
720.66	653.37
721.103	614.17
721.546	581.27
721.989	570.77
722.432	560.97
722.874	559.82
723.317	565.02
723.76	605.27
724.203	746.32
724.645	999.47
725.088	1166.92
725.531	1150.32
725.974	1260.82
726.416	1131.87
726.859	709.97
727.301	580.87
727.744	548.02
728.187	558.22
728.629	566.77
729.071	588.37
729.514	619.77
729.956	640.72
730.399	660.92
730.841	656.42
731.283	648.97
731.726	630.22
732.168	633.72
732.61	666.42
733.053	720.07
733.495	800.37
733.937	887.42
734.379	1030.22
734.821	1319.62
735.263	2094.12
735.705	3739.87
736.148	5533.92
736.59	5580.72
737.032	6052.32
737.474	5010.62
737.916	1918.67
738.357	1009.42
738.799	783.82
739.241	717.02
739.683	730.52
740.125	754.42
740.567	757.57
741.008	799.17
741.45	850.12
741.892	888.82
742.334	896.47
742.775	893.97
743.217	858.87
743.658	721.82
744.1	745.52
744.542	865.87
744.983	894.97
745.425	940.52
745.866	921.77
746.307	743.02
746.749	791.62
747.19	1136.77
747.632	2199.27
748.073	4083.52
748.514	5696.42
748.956	7537.72
749.397	8856.07
749.838	6144.57
750.279	5864.57
750.72	3045.22
751.162	1279.27
751.603	740.92
752.044	599.72
752.485	526.07
752.926	499.32
753.367	472.12
753.808	461.57
754.249	449.47
754.69	449.52
755.131	446.62
755.572	438.42
756.013	436.92
756.453	443.62
756.894	448.47
757.335	449.07
757.776	461.62
758.216	475.92
758.657	494.07
759.098	557.27
759.538	669.62
759.979	956.97
760.42	1922.27
760.86	4941.12
761.301	10218.17
761.741	12135.27
762.182	13932.17
762.622	9069.57
763.063	3231.52
763.503	1325.67
763.943	773.37
764.384	614.17
764.824	534.07
765.264	495.77
765.705	462.67
766.145	439.52
766.585	419.52
767.025	409.57
767.465	418.92
767.906	423.27
768.346	449.82
768.786	517.32
769.226	755.52
769.666	1508.27
770.106	3394.47
770.546	4879.52
770.986	5541.72
771.426	4205.57
771.866	1746.72
772.306	799.82
772.745	492.57
773.185	418.07
773.625	408.87
774.065	436.72
774.505	629.22
774.944	1125.72
775.384	1638.22
775.824	1850.07
776.263	1525.52
776.703	800.87
777.142	457.27
777.582	344.87
778.021	311.67
778.461	298.47
778.9	291.67
779.34	285.52
779.779	282.72
780.219	273.77
780.658	264.92
781.097	266.77
781.537	260.37
781.976	262.57
782.415	253.22
782.855	260.32
783.294	256.52
783.733	247.92
784.172	257.27
784.611	252.32
785.05	257.62
785.489	269.17
785.928	275.22
786.367	285.97
786.806	296.72
787.245	322.92
787.684	341.17
788.123	327.37
788.562	328.87
789.001	309.52
789.44	297.27
789.879	294.82
790.317	301.57
790.756	319.07
791.195	366.42
791.634	489.72
792.072	878.97
792.511	2158.92
792.95	4004.32
793.388	4852.52
793.827	3163.22
794.265	1438.42
794.704	698.77
795.142	428.87
795.581	345.22
796.019	319.47
796.458	323.17
796.896	330.27
797.334	375.67
797.773	505.37
798.211	950.77
798.649	1987.17
799.087	3363.52
799.526	4749.37
799.964	4924.32
800.402	3395.52
800.84	1532.92
801.278	749.42
801.716	453.22
802.154	373.52
802.592	349.67
803.03	347.72
803.468	358.72
803.906	360.12
804.344	351.97
804.782	342.42
805.22	343.82
805.658	355.07
806.096	379.57
806.533	426.77
806.971	542.02
807.409	789.37
807.847	1559.92
808.284	3980.52
808.722	7015.02
809.16	9875.67
809.597	13279.27
810.035	15536.47
810.472	10917.92
810.91	4609.72
811.347	2065.17
811.785	976.07
812.222	609.27
812.66	467.37
813.097	403.42
813.535	349.17
813.972	317.52
814.409	286.72
814.846	275.27
815.284	268.92
815.721	276.02
816.158	297.17
816.595	415.27
817.032	533.37
817.47	479.32
817.907	339.77
818.344	297.22
818.781	296.02
819.218	357.57
819.655	557.62
820.092	732.37
820.529	660.37
820.966	517.82
821.403	356.97
821.839	301.02
822.276	332.07
822.713	393.12
823.15	367.32
823.587	376.37
824.023	656.42
824.46	1628.07
824.897	2895.82
825.333	2262.92
825.77	1038.72
826.206	538.97
826.643	315.77
827.08	237.32
827.516	213.57
827.953	194.72
828.389	188.77
828.825	182.57
829.262	170.47
829.698	166.62
830.135	154.92
830.571	154.67
831.007	158.82
831.443	159.12
831.88	156.37
832.316	168.47
832.752	169.92
833.188	165.47
833.624	169.97
834.06	170.52
834.497	166.27
834.933	180.17
835.369	189.67
835.805	203.02
836.241	207.82
836.677	226.67
837.112	266.47
837.548	325.12
837.984	486.62
838.42	1030.77
838.856	2858.77
839.292	5708.42
839.727	4305.47
840.163	2848.22
840.599	4319.72
841.034	6618.17
841.47	3359.47
841.906	1609.12
842.341	865.07
842.777	640.07
843.212	673.87
843.648	420.27
844.083	288.72
844.519	215.67
844.954	181.62
845.39	155.77
845.825	150.52
846.261	145.27
846.696	143.82
847.131	137.87
847.566	139.67
848.002	141.32
848.437	150.47
848.872	155.52
849.307	199.72
849.742	360.27
850.177	936.02
850.613	2010.42
851.048	1461.32
851.483	669.32
851.918	364.67
852.353	202.87
852.788	147.97
853.223	133.82
853.657	121.82
854.092	119.12
854.527	113.07
854.962	128.27
855.397	136.72
855.832	118.62
856.266	110.57
856.701	108.82
857.136	114.72
857.57	136.87
858.005	169.42
858.44	138.72
858.874	131.92
859.309	129.47
859.743	132.82
860.178	124.22
860.612	138.32
861.047	187.77
861.481	266.72
861.915	184.07
862.35	140.87
862.784	111.42
863.218	104.57
863.653	115.02
864.087	138.07
864.521	167.12
864.955	272.37
865.39	474.42
865.824	373.62
866.258	484.92
866.692	755.82
867.126	545.47
867.56	293.37
867.994	183.57
868.428	153.32
868.862	192.67
869.296	173.57
869.73	213.47
870.164	182.22
870.598	167.82
871.031	123.02
871.465	106.87
871.899	85.07
872.333	68.97
872.766	75.12
873.2	79.87
873.634	72.17
874.067	77.27
874.501	76.62
874.935	78.87
875.368	82.62
875.802	73.77
876.235	67.12
876.669	69.52
877.102	60.87
877.535	61.47
877.969	57.97
878.402	64.77
878.836	59.82
879.269	63.62
879.702	60.02
880.135	56.37
880.569	64.52
881.002	59.52
881.435	60.52
881.868	57.77
882.301	59.12
882.734	53.47
883.167	61.32
883.601	56.67
884.034	53.82
884.467	53.12
884.899	55.62
885.332	44.82
885.765	51.17
886.198	47.02
886.631	48.82
887.064	52.72
887.497	49.87
887.929	51.32
888.362	43.42
888.795	48.17
889.228	51.32
889.66	46.37
890.093	46.52
890.526	48.72
890.958	53.07
891.391	49.67
891.823	40.32
892.256	45.27
892.688	47.57
893.121	41.47
893.553	48.62
893.985	45.22
894.418	41.22
894.85	44.97
895.282	46.67
895.715	43.27
896.147	39.67
896.579	37.37
897.011	44.12
897.444	47.32
897.876	39.97
898.308	39.72
898.74	40.77
899.172	46.17
899.604	47.32
900.036	47.07
900.468	42.57
900.9	51.57
901.332	57.72
901.764	58.97
902.196	58.27
902.628	56.17
903.06	89.27
903.491	95.97
903.923	77.12
904.355	73.62
904.787	81.42
905.218	67.47
905.65	59.52
906.082	55.57
906.513	49.22
906.945	49.87
907.376	50.52
907.808	47.97
908.239	57.12
908.671	63.17
909.102	69.87
909.534	102.42
909.965	184.02
910.397	467.12
910.828	1345.02
911.259	837.02
911.691	444.22
912.122	260.47
912.553	134.92
912.984	79.17
913.415	68.67
913.847	56.37
914.278	54.32
914.709	45.62
915.14	46.27
915.571	46.82
916.002	44.57
916.433	43.57
916.864	43.37
917.295	45.82
917.726	52.02
918.157	67.97
918.587	66.57
919.018	62.92
919.449	58.47
919.88	67.07
920.311	103.57
920.741	285.17
921.172	497.97
921.603	248.27
922.033	162.82
922.464	101.67
922.895	67.92
923.325	45.77
923.756	44.42
924.186	54.02
924.617	77.37
925.047	114.02
925.478	106.77
925.908	79.52
926.338	52.87
926.769	46.92
927.199	44.62
927.629	37.32
928.06	42.22
928.49	43.52
928.92	38.27
929.35	33.12
929.78	27.12
930.21	26.02
930.641	20.77
931.071	26.97
931.501	23.37
931.931	21.02
932.361	22.97
932.791	28.92
933.221	26.92
933.651	37.87
934.08	67.72
934.51	37.62
934.94	35.37
935.37	25.32
935.8	25.37
936.229	18.72
936.659	22.22
937.089	42.77
937.519	63.17
937.948	86.17
938.378	51.17
938.807	24.32
939.237	19.22
939.666	16.07
940.096	16.27
940.525	8.42
940.955	17.27
941.384	10.12
941.814	11.22
942.243	12.72
942.672	11.67
943.102	9.77
943.531	11.12
943.96	15.42
944.39	10.77
944.819	13.07
945.248	11.07
945.677	12.17
946.106	10.62
946.535	11.67
946.964	9.42
947.393	9.12
947.822	7.32
948.251	14.62
948.68	12.97
949.109	14.22
949.538	10.57
949.967	10.07
950.396	9.72
950.825	13.42
951.254	12.87
951.682	4.77
952.111	7.12
952.54	12.17
952.969	9.77
953.397	7.52
953.826	8.92
954.254	13.77
954.683	9.82
955.112	11.07
955.54	5.97
955.969	7.37
956.397	11.97
956.826	6.82
957.254	9.47
957.682	9.82
958.111	9.32
958.539	11.67
958.967	7.77
959.396	12.22
959.824	9.02
960.252	7.72
960.68	8.52
961.109	12.92
961.537	8.37
961.965	2.42
962.393	9.37
962.821	11.42
963.249	12.87
963.677	16.67
964.105	83.67
964.533	142.32
964.961	71.87
965.389	45.17
965.817	21.92
966.245	12.27
966.672	4.72
967.1	7.42
967.528	7.37
967.956	6.82
968.383	9.87
968.811	6.82
969.239	8.07
969.666	6.62
970.094	13.67
970.522	3.02
970.949	7.67
971.377	-0.33
971.804	0.87
972.232	9.17
972.659	7.22
973.087	6.37
973.514	3.17
973.941	2.42
974.369	2.02
974.796	5.32
975.223	0.57
975.651	11.07
976.078	5.12
976.505	13.17
976.932	36.82
977.359	42.87
977.786	26.07
978.214	22.57
978.641	8.32
979.068	7.47
979.495	7.17
979.922	8.32
980.349	8.12
980.776	11.47
981.202	3.17
981.629	14.17
982.056	7.77
982.483	1.92
982.91	5.02
983.337	4.37
983.763	2.97
984.19	8.52
984.617	4.72
985.043	5.32
985.47	10.12
985.897	10.72
986.323	9.47
986.75	2.92
987.176	5.77
987.603	4.57
988.029	3.62
988.456	7.57
988.882	0.62
989.308	-4.33
989.735	4.02
990.161	3.97
990.587	-0.03
991.014	2.47
991.44	5.52
991.866	4.87
992.292	6.32
992.719	2.37
993.145	5.62
993.571	4.72
993.997	9.62
994.423	4.47
994.849	-4.78
995.275	2.42
995.701	5.02
996.127	-1.03
996.553	-0.68
996.979	5.67
997.405	8.27
997.83	1.92
998.256	7.17
998.682	1.72
999.108	5.27
999.534	-3.83
999.959	1.67
1000.385	6.87
1000.811	3.82
1001.236	0.87
1001.662	1.37
1002.087	11.22
1002.513	3.47
1002.938	2.07
1003.364	6.72
1003.789	9.37
1004.215	4.27
1004.64	6.52
1005.066	4.42
1005.491	2.22
1005.916	7.57
1006.342	4.52
1006.767	5.77
1007.192	7.57
1007.617	1.17
1008.042	3.52
1008.468	2.77
1008.893	6.12
1009.318	12.22
1009.743	15.07
1010.168	30.97
1010.593	27.17
1011.018	18.82
1011.443	11.52
1011.868	8.17
1012.293	3.57
1012.718	-0.88
1013.143	6.12
1013.567	3.57
1013.992	4.12
1014.417	5.92
1014.842	1.37
1015.267	3.57
1015.691	6.47
1016.116	-0.08
1016.541	1.72
1016.965	2.97
1017.39	5.12
1017.814	0.47
1018.239	-0.83
1018.663	-2.73
1019.088	2.02
1019.512	6.12
1019.937	-0.03
1020.361	-0.83
1020.785	2.77
1021.21	-1.98
1021.634	2.67
1022.058	3.02
1022.483	-1.18
1022.907	-0.23
1023.331	-1.93
1023.755	-2.23
1024.179	3.52
1024.604	-3.03
1025.028	-0.58
1025.452	0.67
1025.876	2.92
1026.3	1.02
1026.724	-1.58
1027.148	2.42
1027.572	0.87
1027.996	5.22
1028.42	5.32
1028.843	2.02
1029.267	-0.08
1029.691	4.17
1030.115	0.07
1030.539	0.92
1030.962	-5.88
1031.386	1.37
1031.81	1.07
1032.233	-1.53
1032.657	-4.08
1033.08	1.27
1033.504	0.97
1033.927	-0.28
1034.351	-0.43
1034.774	-2.43
1035.198	-3.58
1035.621	1.22
1036.045	1.02
1036.468	6.07
1036.891	3.07
1037.315	6.77
1037.738	1.32
1038.161	2.62
1038.584	-0.58
1039.008	-2.83
1039.431	-0.58
1039.854	-4.88
1040.277	5.97
1040.7	-3.38
1041.123	1.47
1041.546	0.27
1041.969	4.92
1042.392	5.42
1042.815	-2.68
1043.238	-3.33
1043.661	1.52
1044.084	5.22
1044.507	-1.73
1044.93	-1.98
1045.352	2.37
1045.775	1.27
1046.198	-0.53
1046.621	8.02
1047.043	-0.58
1047.466	-0.78
1047.889	0.97
1048.311	3.87
1048.734	2.22
1049.156	3.12
1049.579	-5.33
1050.001	-2.23
1050.424	3.72
1050.846	-2.23
1051.269	-2.88
1051.691	-2.58
1052.113	0.47
1052.536	1.37
1052.958	-4.83
1053.38	-0.38
1053.802	5.27
1054.225	2.37
1054.647	4.32
1055.069	-0.33
1055.491	0.57
1055.913	2.52
1056.335	-5.08
1056.757	-1.18
1057.179	-1.13
1057.601	-0.18
1058.023	2.07
1058.445	-1.63
1058.867	6.12
1059.289	0.22
1059.711	-2.48
1060.133	1.57
1060.555	-1.28
1060.976	7.92
1061.398	-3.38
1061.82	0.62
1062.241	-0.03
1062.663	0.22
1063.085	-5.18
1063.506	-5.93
1063.928	-1.78
1064.35	-2.93
1064.771	-0.88
1065.193	-3.93
1065.614	-0.13
1066.035	2.67
1066.457	8.07
1066.878	1.12
1067.3	1.37
1067.721	3.17
1068.142	1.12
1068.564	-0.33
1068.985	1.37
1069.406	-3.13
1069.827	-0.88
1070.248	-2.83
1070.67	-4.13
1071.091	-5.73
1071.512	-0.68
1071.933	-2.98
1072.354	-8.98
1072.775	0.47
1073.196	-1.18
1073.617	-6.93
1074.038	0.07
1074.459	-2.68
1074.88	-1.38
1075.3	-1.23
1075.721	3.37
1076.142	-0.68
1076.563	-3.03
1076.983	0.62
1077.404	-9.98
1077.825	1.87
1078.246	-5.38
1078.666	-1.18
1079.087	-2.83
1079.507	-3.43
1079.928	1.97
1080.348	-0.73
1080.769	1.47
1081.189	-0.43
1081.61	-3.63
1082.03	4.12
1082.451	-1.48
1082.871	-8.58
1083.291	-1.78
1083.711	-2.28
1084.132	-3.63
1084.552	-4.08
1084.972	-5.38
1085.392	-4.88
1085.813	1.62
1086.233	-4.13
1086.653	2.12
1087.073	-6.18
1087.493	-1.83
1087.913	-7.58
1088.333	-1.98
1088.753	0.47
1089.173	2.47
1089.593	-2.83
1090.013	-2.93
1090.433	-3.38
1090.852	-1.78
1091.272	-5.68
1091.692	2.77
1092.112	-1.03
1092.531	-2.53
1092.951	1.42
1093.371	-5.83
1093.79	-6.43
1094.21	-2.98
1094.63	-1.53
1095.049	-2.58
1095.469	-8.93
1095.888	-1.63
1096.308	3.07
1096.727	1.57
1097.146	-2.58
1097.566	-3.38
1097.985	0.77
1098.405	-1.03
1098.824	0.37
1099.243	-4.78
1099.662	-5.33
1100.082	-2.38
1100.501	-0.13
1100.92	5.87
1101.339	-0.58
1101.758	3.67
