Data from MSPlasma+Separation6_Subt14_10-13-44-477.txt Node
Date: Fri Jul 21 10:13:44 EDT 2017
User: Ender
Spectrometer: HR+D1039
Trigger mode: 0
Integration Time (sec): 6.430000E-3
Scans to average: 20
Electric dark correction enabled: true
Nonlinearity correction enabled: false
Boxcar width: 0
XAxis mode: Wavelengths
Number of Pixels in Spectrum: 2048
>>>>>Begin Spectral Data<<<<<
187.836	-0.94
188.309	-0.94
188.782	-0.94
189.255	-0.09
189.728	2.01
190.201	-1.29
190.674	2.16
191.147	-1.94
191.619	1.26
192.092	-1.14
192.565	-1.69
193.038	3.26
193.511	3.96
193.984	-0.04
194.456	0.06
194.929	-3.94
195.402	-1.34
195.874	-0.29
196.347	1.41
196.82	2.76
197.292	-5.64
197.765	-0.39
198.237	-2.29
198.71	-3.84
199.182	-0.14
199.655	4.11
200.127	2.01
200.6	-1.14
201.072	0.66
201.544	1.66
202.017	1.36
202.489	0.86
202.961	-0.84
203.433	-4.54
203.906	1.96
204.378	-0.79
204.85	-1.44
205.322	1.46
205.794	5.36
206.266	-4.74
206.739	2.86
207.211	-1.14
207.683	1.26
208.155	0.66
208.627	0.51
209.099	4.76
209.57	1.76
210.042	0.96
210.514	-1.79
210.986	-1.49
211.458	-7.14
211.93	5.36
212.402	3.51
212.873	0.41
213.345	-6.24
213.817	5.01
214.288	-4.59
214.76	1.91
215.232	1.36
215.703	-3.74
216.175	-1.39
216.646	4.91
217.118	0.26
217.589	-0.74
218.061	-0.39
218.532	-0.34
219.004	8.36
219.475	4.46
219.946	3.06
220.418	4.01
220.889	1.76
221.36	5.26
221.832	8.31
222.303	4.61
222.774	1.01
223.245	-1.54
223.717	1.36
224.188	-0.74
224.659	5.51
225.13	2.06
225.601	3.06
226.072	6.61
226.543	8.41
227.014	1.56
227.485	6.21
227.956	6.16
228.427	11.51
228.898	5.66
229.369	6.46
229.839	6.71
230.31	5.71
230.781	11.91
231.252	11.01
231.722	10.41
232.193	7.91
232.664	9.31
233.135	9.86
233.605	9.91
234.076	14.61
234.546	8.86
235.017	10.26
235.487	9.76
235.958	10.26
236.428	17.11
236.899	9.41
237.369	16.36
237.84	12.26
238.31	12.96
238.78	8.31
239.251	14.26
239.721	11.36
240.191	12.16
240.662	15.66
241.132	11.21
241.602	15.81
242.072	13.41
242.542	12.86
243.013	13.31
243.483	20.91
243.953	11.26
244.423	15.86
244.893	14.81
245.363	19.56
245.833	13.41
246.303	20.46
246.773	21.86
247.243	17.01
247.712	20.21
248.182	22.81
248.652	18.01
249.122	22.81
249.592	20.51
250.061	19.91
250.531	22.26
251.001	18.96
251.471	23.66
251.94	22.76
252.41	26.31
252.879	24.01
253.349	32.26
253.818	21.11
254.288	30.26
254.757	25.51
255.227	30.76
255.696	30.21
256.166	29.26
256.635	29.56
257.105	31.51
257.574	31.36
258.043	31.41
258.513	30.36
258.982	28.56
259.451	37.16
259.92	25.96
260.389	32.16
260.859	33.41
261.328	34.26
261.797	29.86
262.266	34.56
262.735	35.11
263.204	32.96
263.673	33.96
264.142	33.81
264.611	35.86
265.08	38.31
265.549	36.31
266.018	36.56
266.487	39.16
266.955	35.01
267.424	41.51
267.893	42.71
268.362	40.81
268.83	33.01
269.299	39.51
269.768	40.26
270.236	42.51
270.705	47.56
271.174	39.36
271.642	40.06
272.111	43.81
272.579	41.01
273.048	47.86
273.516	46.31
273.985	50.06
274.453	45.76
274.922	41.46
275.39	38.86
275.858	51.36
276.327	45.91
276.795	49.61
277.263	51.56
277.731	49.41
278.2	52.11
278.668	55.21
279.136	57.16
279.604	50.66
280.072	50.16
280.54	53.26
281.008	59.51
281.477	54.31
281.945	56.86
282.413	51.26
282.881	65.06
283.348	59.51
283.816	64.46
284.284	65.46
284.752	64.21
285.22	66.96
285.688	62.46
286.156	67.11
286.623	64.16
287.091	62.36
287.559	65.06
288.026	65.31
288.494	70.41
288.962	71.76
289.429	65.01
289.897	66.26
290.364	68.16
290.832	71.76
291.3	69.71
291.767	71.71
292.234	68.96
292.702	68.31
293.169	74.61
293.637	79.26
294.104	72.86
294.571	74.51
295.039	80.36
295.506	74.51
295.973	81.56
296.44	73.01
296.908	80.11
297.375	77.26
297.842	83.81
298.309	80.51
298.776	81.06
299.243	86.21
299.71	84.06
300.177	81.86
300.644	79.86
301.111	81.01
301.578	89.56
302.045	85.86
302.512	86.51
302.979	91.56
303.446	90.21
303.913	93.66
304.379	97.06
304.846	95.11
305.313	102.21
305.78	102.21
306.246	102.41
306.713	104.66
307.18	105.31
307.646	108.51
308.113	105.96
308.579	112.16
309.046	111.11
309.512	112.36
309.979	113.31
310.445	104.06
310.912	111.91
311.378	121.76
311.845	117.41
312.311	113.06
312.777	120.01
313.244	122.16
313.71	122.31
314.176	124.01
314.642	128.46
315.109	124.16
315.575	127.36
316.041	125.21
316.507	121.71
316.973	132.16
317.439	131.76
317.905	132.91
318.371	131.96
318.837	136.21
319.303	131.21
319.769	129.21
320.235	138.01
320.701	139.56
321.167	138.11
321.633	136.91
322.099	134.16
322.564	137.76
323.03	135.96
323.496	137.41
323.962	146.76
324.427	145.16
324.893	147.01
325.359	154.26
325.824	153.56
326.29	158.66
326.755	150.26
327.221	150.76
327.686	166.56
328.152	161.56
328.617	166.11
329.083	160.46
329.548	167.96
330.014	166.61
330.479	172.16
330.944	171.71
331.41	173.96
331.875	170.91
332.34	172.91
332.805	175.71
333.271	179.06
333.736	176.86
334.201	175.66
334.666	189.36
335.131	191.41
335.596	191.66
336.061	184.01
336.526	184.71
336.991	181.66
337.456	181.96
337.921	179.76
338.386	179.71
338.851	181.21
339.316	174.81
339.781	179.36
340.246	187.41
340.711	184.96
341.175	192.61
341.64	192.66
342.105	197.41
342.569	211.41
343.034	199.01
343.499	201.16
343.963	212.71
344.428	210.71
344.893	209.86
345.357	219.01
345.822	222.51
346.286	222.76
346.751	227.96
347.215	222.76
347.679	239.41
348.144	247.96
348.608	248.56
349.073	248.96
349.537	257.01
350.001	257.86
350.465	255.21
350.93	260.01
351.394	257.91
351.858	260.36
352.322	265.51
352.786	264.01
353.25	267.56
353.715	274.81
354.179	287.31
354.643	290.86
355.107	293.61
355.571	288.91
356.035	281.36
356.498	288.31
356.962	285.91
357.426	281.46
357.89	275.61
358.354	278.81
358.818	278.31
359.281	279.16
359.745	283.26
360.209	278.61
360.673	279.81
361.136	284.06
361.6	287.41
362.064	293.21
362.527	298.86
362.991	300.81
363.454	295.11
363.918	303.46
364.381	314.91
364.845	300.51
365.308	304.41
365.772	310.06
366.235	311.26
366.698	308.21
367.162	306.51
367.625	314.91
368.088	323.46
368.552	313.16
369.015	313.41
369.478	319.56
369.941	326.36
370.404	328.31
370.867	323.51
371.331	332.26
371.794	336.26
372.257	336.16
372.72	336.86
373.183	339.11
373.646	339.81
374.109	339.31
374.572	346.96
375.035	345.91
375.497	350.01
375.96	353.91
376.423	363.51
376.886	372.06
377.349	373.21
377.811	371.96
378.274	374.86
378.737	365.91
379.199	375.41
379.662	375.31
380.125	384.36
380.587	388.81
381.05	398.11
381.512	400.06
381.975	402.96
382.437	417.06
382.9	411.06
383.362	413.76
383.825	416.56
384.287	423.11
384.75	414.41
385.212	423.76
385.674	425.76
386.136	430.86
386.599	423.46
387.061	427.61
387.523	427.76
387.985	431.56
388.447	437.31
388.91	433.41
389.372	437.31
389.834	439.86
390.296	433.81
390.758	442.51
391.22	435.21
391.682	441.06
392.144	435.01
392.606	448.21
393.068	455.61
393.529	483.16
393.991	483.06
394.453	471.41
394.915	451.86
395.377	442.81
395.838	451.21
396.3	454.16
396.762	454.41
397.224	459.26
397.685	456.46
398.147	465.21
398.608	469.81
399.07	479.91
399.531	477.01
399.993	481.86
400.454	494.21
400.916	487.61
401.377	503.36
401.839	501.96
402.3	507.06
402.762	529.01
403.223	567.61
403.684	564.61
404.145	539.01
404.607	531.81
405.068	521.66
405.529	528.86
405.99	540.71
406.451	538.36
406.913	540.91
407.374	542.46
407.835	541.96
408.296	560.31
408.757	556.06
409.218	570.16
409.679	580.26
410.14	580.01
410.601	596.36
411.062	600.56
411.522	597.66
411.983	610.31
412.444	617.46
412.905	627.96
413.366	642.31
413.826	674.51
414.287	754.16
414.748	895.51
415.208	903.46
415.669	766.66
416.13	706.01
416.59	683.41
417.051	708.11
417.511	736.11
417.972	789.96
418.432	847.71
418.893	928.81
419.353	888.46
419.814	698.76
420.274	629.41
420.734	617.41
421.195	647.81
421.655	637.21
422.115	654.41
422.576	653.71
423.036	658.21
423.496	679.76
423.956	703.66
424.416	743.96
424.876	824.81
425.336	831.81
425.797	815.91
426.257	803.96
426.717	755.51
427.177	709.26
427.637	723.21
428.097	751.61
428.556	775.91
429.016	819.56
429.476	824.66
429.936	809.41
430.396	819.86
430.856	823.91
431.315	846.56
431.775	900.01
432.235	965.86
432.694	973.56
433.154	921.26
433.614	903.16
434.073	873.31
434.533	792.96
434.993	761.61
435.452	768.61
435.912	748.61
436.371	756.96
436.83	745.66
437.29	735.46
437.749	712.86
438.209	713.86
438.668	728.01
439.127	743.56
439.587	728.41
440.046	705.26
440.505	715.36
440.964	723.36
441.424	743.01
441.883	754.21
442.342	721.61
442.801	694.36
443.26	704.31
443.719	697.16
444.178	698.91
444.637	706.26
445.096	698.21
445.555	711.61
446.014	716.86
446.473	712.21
446.932	708.81
447.391	711.61
447.849	723.36
448.308	720.11
448.767	727.41
449.226	734.31
449.685	749.41
450.143	781.11
450.602	770.21
451.061	736.26
451.519	743.06
451.978	724.21
452.436	726.26
452.895	731.06
453.353	735.26
453.812	715.61
454.27	726.26
454.729	721.06
455.187	737.86
455.646	730.21
456.104	739.96
456.562	746.26
457.021	755.71
457.479	728.41
457.937	745.01
458.395	770.91
458.854	766.31
459.312	751.26
459.77	763.76
460.228	769.86
460.686	783.11
461.144	790.71
461.602	773.51
462.06	778.16
462.518	797.46
462.976	786.51
463.434	796.71
463.892	804.91
464.35	827.16
464.808	834.96
465.266	847.36
465.724	857.91
466.181	863.61
466.639	863.06
467.097	884.36
467.555	919.76
468.012	918.61
468.47	920.91
468.928	959.11
469.385	976.81
469.843	993.36
470.3	980.81
470.758	1006.86
471.215	1033.16
471.673	1060.61
472.13	1082.61
472.588	1101.16
473.045	1103.06
473.503	1109.76
473.96	1165.61
474.417	1174.91
474.875	1225.41
475.332	1262.71
475.789	1287.31
476.246	1318.41
476.704	1381.46
477.161	1411.21
477.618	1454.86
478.075	1522.96
478.532	1636.46
478.989	1746.41
479.446	1924.76
479.903	2007.31
480.36	2176.06
480.817	2292.51
481.274	2416.51
481.731	2639.21
482.188	2796.01
482.645	2991.41
483.102	3129.86
483.558	3331.16
484.015	3442.21
484.472	3407.86
484.929	3305.96
485.385	3198.61
485.842	3130.71
486.299	3022.56
486.755	2793.86
487.212	2543.66
487.668	2308.56
488.125	2162.31
488.582	2026.01
489.038	1956.81
489.494	1920.51
489.951	1855.11
490.407	1826.36
490.864	1787.11
491.32	1748.71
491.776	1748.66
492.233	1757.36
492.689	1735.01
493.145	1703.41
493.602	1687.46
494.058	1702.76
494.514	1698.06
494.97	1699.46
495.426	1729.46
495.882	1723.46
496.338	1722.01
496.794	1726.81
497.251	1727.31
497.707	1753.96
498.163	1750.31
498.618	1761.21
499.074	1749.61
499.53	1776.46
499.986	1782.96
500.442	1770.76
500.898	1747.76
501.354	1763.41
501.809	1782.76
502.265	1765.16
502.721	1780.56
503.177	1785.16
503.632	1794.16
504.088	1796.21
504.543	1818.56
504.999	1838.66
505.455	1828.56
505.91	1804.16
506.366	1812.86
506.821	1806.56
507.277	1806.86
507.732	1812.71
508.187	1812.71
508.643	1831.46
509.098	1847.71
509.553	1864.96
510.009	1879.81
510.464	1907.86
510.919	1924.41
511.375	1951.11
511.83	1965.56
512.285	1997.46
512.74	2033.16
513.195	2061.91
513.65	2093.31
514.105	2119.61
514.56	2122.21
515.015	2158.86
515.47	2161.86
515.925	2145.36
516.38	2139.61
516.835	2163.96
517.29	2131.91
517.745	2137.96
518.2	2108.01
518.655	2065.61
519.109	2051.61
519.564	2013.81
520.019	2003.51
520.474	1983.01
520.928	1970.46
521.383	1957.56
521.838	1952.81
522.292	1941.41
522.747	1926.46
523.201	1921.91
523.656	1905.91
524.11	1895.11
524.565	1889.61
525.019	1893.86
525.474	1883.31
525.928	1868.11
526.382	1883.51
526.837	1883.86
527.291	1879.96
527.745	1881.71
528.2	1877.56
528.654	1857.46
529.108	1867.31
529.562	1862.06
530.016	1863.91
530.47	1866.11
530.925	1857.96
531.379	1858.61
531.833	1885.01
532.287	1878.91
532.741	1876.96
533.195	1862.01
533.649	1865.36
534.103	1881.21
534.556	1848.36
535.01	1878.71
535.464	1861.26
535.918	1854.56
536.372	1884.96
536.826	1868.71
537.279	1866.11
537.733	1863.96
538.187	1870.06
538.64	1865.01
539.094	1887.46
539.548	1905.71
540.001	1900.46
540.455	1920.06
540.908	1929.86
541.362	1930.31
541.815	1951.11
542.269	1983.06
542.722	1983.16
543.175	2006.71
543.629	2022.06
544.082	2031.11
544.536	2055.46
544.989	2056.51
545.442	2065.81
545.895	2063.11
546.349	2067.46
546.802	2087.76
547.255	2073.66
547.708	2084.16
548.161	2099.21
548.614	2104.71
549.067	2111.11
549.52	2090.61
549.973	2079.51
550.426	2079.61
550.879	2074.81
551.332	2067.51
551.785	2089.66
552.238	2111.01
552.691	2109.81
553.144	2137.16
553.596	2170.76
554.049	2195.76
554.502	2232.66
554.955	2265.36
555.407	2299.96
555.86	2270.86
556.313	2253.01
556.765	2245.36
557.218	2212.46
557.67	2201.76
558.123	2170.86
558.576	2166.36
559.028	2156.71
559.48	2176.61
559.933	2157.06
560.385	2096.91
560.838	2039.61
561.29	1979.76
561.742	1967.71
562.195	1925.96
562.647	1921.01
563.099	1901.11
563.551	1890.11
564.004	1903.61
564.456	1887.71
564.908	1851.26
565.36	1805.86
565.812	1775.41
566.264	1767.76
566.716	1740.51
567.168	1707.91
567.62	1712.51
568.072	1700.61
568.524	1687.56
568.976	1676.01
569.428	1670.61
569.88	1665.16
570.332	1683.71
570.784	1692.01
571.235	1678.71
571.687	1690.86
572.139	1689.86
572.59	1713.11
573.042	1722.66
573.494	1711.71
573.945	1692.56
574.397	1658.76
574.849	1648.41
575.3	1656.71
575.752	1626.56
576.203	1615.61
576.655	1619.71
577.106	1601.31
577.557	1588.66
578.009	1580.56
578.46	1587.96
578.912	1576.11
579.363	1592.46
579.814	1588.36
580.265	1585.81
580.717	1592.26
581.168	1585.01
581.619	1584.56
582.07	1613.21
582.521	1598.01
582.972	1586.66
583.423	1598.16
583.875	1601.46
584.326	1620.76
584.777	1644.16
585.227	1675.16
585.678	1700.56
586.129	1715.36
586.58	1726.66
587.031	1744.11
587.482	1784.06
587.933	1816.31
588.384	1817.96
588.834	1780.81
589.285	1783.06
589.736	1780.86
590.186	1779.51
590.637	1763.56
591.088	1722.31
591.538	1693.71
591.989	1675.31
592.439	1655.16
592.89	1631.96
593.34	1620.71
593.791	1622.26
594.241	1611.66
594.692	1609.76
595.142	1608.96
595.593	1608.81
596.043	1610.41
596.493	1635.51
596.943	1630.76
597.394	1666.56
597.844	1691.41
598.294	1728.76
598.744	1795.21
599.195	1871.51
599.645	1983.06
600.095	2064.06
600.545	2178.36
600.995	2261.81
601.445	2329.36
601.895	2438.86
602.345	2495.11
602.795	2459.21
603.245	2374.91
603.695	2242.31
604.145	2124.41
604.594	2018.96
605.044	1917.91
605.494	1802.31
605.944	1711.61
606.393	1670.06
606.843	1649.91
607.293	1653.76
607.743	1634.01
608.192	1650.36
608.642	1645.26
609.091	1636.16
609.541	1631.01
609.99	1632.86
610.44	1600.31
610.889	1593.71
611.339	1558.91
611.788	1545.91
612.238	1571.81
612.687	1565.76
613.136	1578.21
613.586	1589.41
614.035	1578.51
614.484	1585.21
614.933	1583.16
615.383	1557.96
615.832	1515.46
616.281	1501.31
616.73	1466.96
617.179	1428.56
617.628	1407.51
618.077	1390.46
618.526	1375.76
618.975	1360.16
619.424	1331.26
619.873	1342.76
620.322	1330.71
620.771	1327.36
621.22	1297.31
621.669	1276.51
622.118	1263.51
622.567	1251.41
623.015	1236.81
623.464	1232.51
623.913	1213.71
624.361	1212.81
624.81	1207.71
625.259	1214.76
625.707	1202.56
626.156	1220.91
626.604	1227.11
627.053	1228.01
627.501	1228.61
627.95	1234.96
628.398	1249.36
628.847	1237.31
629.295	1240.06
629.744	1220.11
630.192	1205.56
630.64	1189.46
631.089	1171.56
631.537	1144.66
631.985	1128.56
632.433	1125.91
632.881	1117.66
633.33	1133.31
633.778	1116.96
634.226	1136.16
634.674	1152.31
635.122	1155.21
635.57	1165.91
636.018	1182.66
636.466	1185.26
636.914	1174.21
637.362	1203.06
637.81	1227.06
638.258	1264.41
638.705	1282.81
639.153	1315.71
639.601	1325.66
640.049	1347.41
640.497	1390.86
640.944	1413.81
641.392	1364.66
641.84	1281.66
642.287	1229.81
642.735	1204.26
643.182	1196.36
643.63	1199.61
644.078	1194.36
644.525	1199.86
644.973	1252.71
645.42	1269.41
645.867	1293.96
646.315	1321.26
646.762	1365.21
647.21	1404.56
647.657	1466.91
648.104	1515.61
648.551	1549.46
648.999	1655.76
649.446	1825.56
649.893	2021.31
650.34	2341.96
650.787	2855.26
651.234	3641.66
651.682	4999.11
652.129	7027.76
652.576	9903.41
653.023	13093.76
653.47	14924.56
653.917	15522.26
654.363	15533.96
654.81	15530.96
655.257	15531.61
655.704	12183.56
656.151	7405.26
656.598	4910.21
657.044	3553.71
657.491	2836.71
657.938	2323.81
658.385	1993.41
658.831	1776.26
659.278	1602.16
659.724	1478.11
660.171	1398.36
660.618	1289.26
661.064	1227.96
661.511	1191.91
661.957	1161.01
662.404	1146.36
662.85	1130.91
663.296	1112.66
663.743	1099.11
664.189	1076.66
664.635	1078.96
665.082	1052.56
665.528	1040.06
665.974	1006.86
666.42	999.86
666.867	983.66
667.313	945.41
667.759	938.81
668.205	930.01
668.651	931.46
669.097	932.16
669.543	929.81
669.989	948.21
670.435	949.91
670.881	955.86
671.327	1003.96
671.773	1067.96
672.219	1151.26
672.665	1214.41
673.11	1246.91
673.556	1260.96
674.002	1283.31
674.448	1292.61
674.893	1115.31
675.339	976.86
675.785	899.01
676.23	858.61
676.676	815.41
677.122	797.76
677.567	778.61
678.013	755.41
678.458	749.66
678.904	743.06
679.349	735.91
679.794	732.06
680.24	738.61
680.685	721.41
681.131	733.16
681.576	727.51
682.021	732.41
682.466	737.46
682.912	744.06
683.357	788.71
683.802	854.76
684.247	934.96
684.692	989.96
685.137	1025.56
685.583	1048.01
686.028	1106.81
686.473	1046.46
686.918	913.41
687.363	829.71
687.807	789.21
688.252	753.46
688.697	724.56
689.142	708.31
689.587	712.31
690.032	726.51
690.477	753.41
690.921	795.96
691.366	827.06
691.811	866.91
692.255	935.56
692.7	1138.71
693.145	1663.36
693.589	2519.11
694.034	2986.16
694.478	3147.16
694.923	2843.11
695.367	3911.86
695.812	2443.96
696.256	1055.96
696.701	776.51
697.145	724.41
697.59	691.61
698.034	680.76
698.478	676.36
698.922	687.01
699.367	701.81
699.811	735.96
700.255	795.71
700.699	867.26
701.143	943.01
701.588	989.61
702.032	1022.06
702.476	1064.21
702.92	1138.56
703.364	1504.51
703.808	2301.96
704.252	2869.01
704.696	2975.36
705.14	2772.36
705.584	3698.41
706.027	2130.66
706.471	1076.31
706.915	810.66
707.359	721.51
707.803	679.61
708.246	652.51
708.69	652.91
709.134	644.21
709.577	642.21
710.021	642.56
710.465	640.36
710.908	635.21
711.352	662.41
711.795	736.51
712.239	782.86
712.682	795.46
713.126	785.31
713.569	867.71
714.012	721.21
714.456	625.96
714.899	596.86
715.342	566.81
715.786	546.61
716.229	534.46
716.672	527.71
717.115	521.01
717.558	529.01
718.002	548.71
718.445	563.16
718.888	593.16
719.331	602.81
719.774	611.81
720.217	600.81
720.66	573.61
721.103	542.71
721.546	517.96
721.989	496.41
722.432	490.16
722.874	493.66
723.317	500.06
723.76	543.91
724.203	672.36
724.645	897.26
725.088	1047.91
725.531	1017.56
725.974	1094.41
726.416	994.01
726.859	626.16
727.301	511.11
727.744	490.11
728.187	484.06
728.629	502.61
729.071	525.56
729.514	548.36
729.956	571.61
730.399	586.01
730.841	582.16
731.283	571.11
731.726	557.91
732.168	567.66
732.61	596.41
733.053	645.81
733.495	703.56
733.937	782.11
734.379	921.86
734.821	1189.11
735.263	1881.96
735.705	3398.21
736.148	4938.66
736.59	4881.16
737.032	5149.41
737.474	4288.41
737.916	1698.61
738.357	896.86
738.799	688.21
739.241	639.66
739.683	644.06
740.125	656.46
740.567	672.46
741.008	713.71
741.45	747.36
741.892	791.76
742.334	792.71
742.775	788.26
743.217	758.11
743.658	644.01
744.1	666.96
744.542	770.26
744.983	793.26
745.425	822.46
745.866	794.81
746.307	666.06
746.749	708.86
747.19	1022.66
747.632	1997.01
748.073	3703.86
748.514	5063.46
748.956	6647.66
749.397	7707.76
749.838	5360.96
750.279	4955.66
750.72	2640.86
751.162	1135.91
751.603	657.36
752.044	524.31
752.485	467.76
752.926	441.66
753.367	424.36
753.808	408.16
754.249	402.26
754.69	390.21
755.131	395.31
755.572	396.86
756.013	390.51
756.453	389.66
756.894	404.51
757.335	406.26
757.776	408.31
758.216	419.96
758.657	444.51
759.098	493.06
759.538	602.86
759.979	864.11
760.42	1753.41
760.86	4489.31
761.301	9181.86
761.741	10690.81
762.182	11877.26
762.622	7773.96
763.063	2850.31
763.503	1175.16
763.943	684.76
764.384	544.26
764.824	472.71
765.264	439.06
765.705	411.81
766.145	389.76
766.585	374.76
767.025	365.46
767.465	368.16
767.906	376.81
768.346	399.06
768.786	463.61
769.226	680.21
769.666	1371.41
770.106	3047.01
770.546	4293.66
770.986	4720.86
771.426	3582.36
771.866	1542.11
772.306	698.91
772.745	439.06
773.185	370.41
773.625	360.46
774.065	391.11
774.505	560.21
774.944	1018.31
775.384	1453.46
775.824	1589.86
776.263	1306.01
776.703	700.11
777.142	404.21
777.582	300.41
778.021	274.91
778.461	261.26
778.9	263.31
779.34	256.16
779.779	245.76
780.219	238.06
780.658	232.96
781.097	233.06
781.537	231.71
781.976	227.61
782.415	223.71
782.855	226.71
783.294	225.56
783.733	220.01
784.172	224.66
784.611	225.56
785.05	232.46
785.489	238.46
785.928	238.01
786.367	249.06
786.806	269.16
787.245	285.51
787.684	287.41
788.123	289.86
788.562	280.66
789.001	267.66
789.44	260.21
789.879	263.01
790.317	269.31
790.756	276.41
791.195	321.76
791.634	441.06
792.072	789.86
792.511	1919.86
792.95	3521.06
793.388	4145.56
793.827	2716.56
794.265	1273.21
794.704	622.96
795.142	384.91
795.581	315.11
796.019	278.61
796.458	282.46
796.896	285.71
797.334	331.91
797.773	452.16
798.211	850.46
798.649	1770.16
799.087	2938.56
799.526	4147.76
799.964	4241.41
800.402	2924.21
800.84	1350.31
801.278	664.46
801.716	402.71
802.154	328.01
802.592	309.16
803.03	306.81
803.468	317.91
803.906	316.46
804.344	308.61
804.782	297.66
805.22	306.51
805.658	317.71
806.096	333.56
806.533	377.16
806.971	489.51
807.409	704.91
807.847	1401.56
808.284	3531.86
808.722	6158.36
809.16	8565.46
809.597	11750.66
810.035	14108.26
810.472	9312.36
810.91	4036.61
811.347	1829.51
811.785	861.61
812.222	542.71
812.66	420.71
813.097	355.66
813.535	308.26
813.972	278.51
814.409	262.81
814.846	247.36
815.284	236.21
815.721	242.96
816.158	266.26
816.595	366.26
817.032	461.96
817.47	427.51
817.907	302.91
818.344	265.56
818.781	267.21
819.218	325.76
819.655	493.11
820.092	636.41
820.529	575.61
820.966	453.26
821.403	310.36
821.839	269.46
822.276	298.06
822.713	355.11
823.15	322.11
823.587	339.41
824.023	587.26
824.46	1444.16
824.897	2469.21
825.333	1931.11
825.77	910.16
826.206	483.91
826.643	284.21
827.08	209.46
827.516	182.31
827.953	171.41
828.389	164.51
828.825	159.56
829.262	150.76
829.698	145.71
830.135	136.26
830.571	133.96
831.007	140.56
831.443	138.66
831.88	142.56
832.316	142.81
832.752	142.86
833.188	147.76
833.624	150.71
834.06	148.36
834.497	145.51
834.933	151.01
835.369	166.81
835.805	174.51
836.241	183.66
836.677	204.91
837.112	231.26
837.548	295.61
837.984	434.91
838.42	920.06
838.856	2524.06
839.292	4889.41
839.727	3677.61
840.163	2522.41
840.599	3780.51
841.034	5659.71
841.47	2893.06
841.906	1422.56
842.341	764.31
842.777	568.21
843.212	583.01
843.648	368.51
844.083	247.96
844.519	187.91
844.954	155.66
845.39	142.76
845.825	136.31
846.261	127.61
846.696	130.26
847.131	115.46
847.566	120.96
848.002	120.31
848.437	134.71
848.872	137.16
849.307	175.26
849.742	319.46
850.177	817.41
850.613	1726.86
851.048	1253.56
851.483	581.26
851.918	322.86
852.353	177.96
852.788	124.21
853.223	116.16
853.657	105.41
854.092	103.21
854.527	100.86
854.962	110.76
855.397	124.46
855.832	107.56
856.266	96.36
856.701	99.61
857.136	94.81
857.57	121.31
858.005	148.01
858.44	120.46
858.874	109.81
859.309	114.06
859.743	107.56
860.178	109.21
860.612	123.51
861.047	169.16
861.481	232.31
861.915	162.66
862.35	118.06
862.784	91.26
863.218	92.31
863.653	98.51
864.087	121.66
864.521	147.61
864.955	234.66
865.39	408.56
865.824	321.26
866.258	428.91
866.692	651.26
867.126	470.61
867.56	253.96
867.994	163.76
868.428	138.81
868.862	165.81
869.296	151.96
869.73	187.61
870.164	160.56
870.598	144.71
871.031	100.36
871.465	90.81
871.899	72.41
872.333	63.11
872.766	67.31
873.2	64.66
873.634	64.36
874.067	67.16
874.501	66.91
874.935	68.56
875.368	68.31
875.802	65.21
876.235	58.31
876.669	60.71
877.102	52.26
877.535	49.11
877.969	52.41
878.402	55.01
878.836	53.81
879.269	53.16
879.702	55.71
880.135	53.56
880.569	53.81
881.002	48.21
881.435	55.21
881.868	51.06
882.301	49.66
882.734	43.41
883.167	48.21
883.601	48.26
884.034	45.01
884.467	45.76
884.899	48.56
885.332	37.81
885.765	43.01
886.198	45.96
886.631	44.06
887.064	39.76
887.497	40.06
887.929	44.31
888.362	40.26
888.795	42.36
889.228	43.66
889.66	40.16
890.093	37.56
890.526	43.71
890.958	43.81
891.391	42.86
891.823	38.06
892.256	40.46
892.688	42.46
893.121	39.56
893.553	39.11
893.985	39.26
894.418	35.36
894.85	39.71
895.282	39.51
895.715	35.26
896.147	29.31
896.579	33.11
897.011	41.41
897.444	40.96
897.876	34.11
898.308	35.16
898.74	39.86
899.172	41.46
899.604	36.71
900.036	36.06
900.468	32.91
900.9	39.76
901.332	45.71
901.764	50.11
902.196	53.01
902.628	50.31
903.06	79.46
903.491	83.46
903.923	68.76
904.355	67.41
904.787	69.41
905.218	55.46
905.65	49.71
906.082	50.06
906.513	45.81
906.945	42.66
907.376	47.21
907.808	43.56
908.239	50.81
908.671	56.01
909.102	56.46
909.534	84.16
909.965	160.46
910.397	410.76
910.828	1149.11
911.259	717.96
911.691	386.21
912.122	227.06
912.553	118.11
912.984	67.21
913.415	59.16
913.847	44.61
914.278	46.26
914.709	43.56
915.14	39.31
915.571	44.31
916.002	41.81
916.433	33.36
916.864	39.31
917.295	39.56
917.726	44.51
918.157	56.26
918.587	56.71
919.018	51.86
919.449	50.46
919.88	60.76
920.311	86.11
920.741	240.51
921.172	422.31
921.603	217.71
922.033	144.76
922.464	92.61
922.895	57.51
923.325	38.96
923.756	38.56
924.186	46.56
924.617	68.71
925.047	98.21
925.478	89.06
925.908	67.41
926.338	49.06
926.769	40.06
927.199	36.71
927.629	31.06
928.06	36.06
928.49	31.46
928.92	33.31
929.35	28.51
929.78	20.81
930.21	20.16
930.641	18.66
931.071	23.36
931.501	17.71
931.931	18.46
932.361	18.66
932.791	20.86
933.221	22.46
933.651	34.06
934.08	55.66
934.51	32.01
934.94	31.46
935.37	24.66
935.8	21.46
936.229	14.96
936.659	15.56
937.089	30.21
937.519	50.76
937.948	71.76
938.378	46.16
938.807	23.16
939.237	14.36
939.666	14.46
940.096	14.71
940.525	8.11
940.955	12.11
941.384	11.31
941.814	10.56
942.243	6.36
942.672	5.71
943.102	7.61
943.531	6.71
943.96	9.71
944.39	10.31
944.819	12.86
945.248	6.76
945.677	11.76
946.106	6.51
946.535	10.46
946.964	10.36
947.393	8.06
947.822	7.41
948.251	13.96
948.68	13.06
949.109	7.26
949.538	6.91
949.967	12.01
950.396	11.86
950.825	11.71
951.254	8.06
951.682	6.31
952.111	4.66
952.54	4.51
952.969	9.46
953.397	5.41
953.826	5.51
954.254	13.36
954.683	14.31
955.112	13.36
955.54	7.56
955.969	1.46
956.397	9.16
956.826	3.51
957.254	5.36
957.682	6.71
958.111	5.71
958.539	8.86
958.967	4.31
959.396	11.41
959.824	3.61
960.252	8.71
960.68	8.56
961.109	10.86
961.537	12.76
961.965	4.51
962.393	4.61
962.821	9.76
963.249	9.71
963.677	12.66
964.105	76.16
964.533	121.71
964.961	65.31
965.389	39.91
965.817	19.56
966.245	10.01
966.672	8.46
967.1	10.21
967.528	2.76
967.956	1.36
968.383	7.06
968.811	5.06
969.239	6.46
969.666	4.26
970.094	6.81
970.522	5.46
970.949	2.31
971.377	-3.34
971.804	3.61
972.232	2.71
972.659	3.46
973.087	8.51
973.514	1.01
973.941	0.16
974.369	-0.49
974.796	3.01
975.223	0.51
975.651	5.41
976.078	6.01
976.505	11.11
976.932	25.46
977.359	35.91
977.786	21.91
978.214	17.86
978.641	7.36
979.068	3.96
979.495	6.01
979.922	6.11
980.349	6.21
980.776	6.21
981.202	6.71
981.629	10.41
982.056	8.11
982.483	-2.54
982.91	6.16
983.337	2.36
983.763	8.01
984.19	10.11
984.617	4.21
985.043	3.51
985.47	10.31
985.897	7.91
986.323	12.41
986.75	8.11
987.176	3.76
987.603	3.66
988.029	5.96
988.456	8.51
988.882	1.36
989.308	1.81
989.735	-0.69
990.161	3.21
990.587	0.96
991.014	3.71
991.44	5.76
991.866	5.66
992.292	2.06
992.719	5.61
993.145	8.91
993.571	7.21
993.997	5.26
994.423	7.56
994.849	-2.14
995.275	6.46
995.701	4.06
996.127	-0.44
996.553	2.06
996.979	1.01
997.405	3.56
997.83	3.16
998.256	4.06
998.682	5.76
999.108	4.71
999.534	-2.49
999.959	5.11
1000.385	3.96
1000.811	-1.54
1001.236	1.11
1001.662	-0.09
1002.087	7.36
1002.513	5.41
1002.938	-5.04
1003.364	2.51
1003.789	5.11
1004.215	-0.79
1004.64	0.21
1005.066	3.36
1005.491	5.71
1005.916	0.21
1006.342	3.71
1006.767	3.46
1007.192	6.71
1007.617	2.21
1008.042	4.41
1008.468	2.96
1008.893	7.36
1009.318	9.41
1009.743	16.76
1010.168	24.96
1010.593	22.31
1011.018	13.26
1011.443	11.01
1011.868	13.91
1012.293	5.41
1012.718	3.46
1013.143	1.21
1013.567	9.21
1013.992	2.41
1014.417	4.46
1014.842	4.96
1015.267	1.86
1015.691	6.96
1016.116	8.26
1016.541	3.06
1016.965	-0.49
1017.39	3.56
1017.814	-3.39
1018.239	-2.09
1018.663	-4.69
1019.088	-3.39
1019.512	9.61
1019.937	2.66
1020.361	5.36
1020.785	1.41
1021.21	-5.49
1021.634	-3.29
1022.058	5.11
1022.483	-5.69
1022.907	-5.39
1023.331	-5.39
1023.755	-4.39
1024.179	0.76
1024.604	-2.04
1025.028	-0.89
1025.452	2.46
1025.876	5.16
1026.3	1.26
1026.724	-2.34
1027.148	2.46
1027.572	0.21
1027.996	3.06
1028.42	-0.24
1028.843	-2.69
1029.267	-2.79
1029.691	1.76
1030.115	1.01
1030.539	-3.94
1030.962	4.16
1031.386	3.41
1031.81	0.26
1032.233	0.61
1032.657	-5.94
1033.08	0.16
1033.504	-0.59
1033.927	0.91
1034.351	0.46
1034.774	0.86
1035.198	-4.69
1035.621	0.31
1036.045	-3.69
1036.468	6.06
1036.891	-1.79
1037.315	4.66
1037.738	-1.54
1038.161	1.26
1038.584	-0.29
1039.008	-0.39
1039.431	0.56
1039.854	-2.54
1040.277	5.06
1040.7	0.06
1041.123	0.11
1041.546	-1.24
1041.969	-0.04
1042.392	6.16
1042.815	-4.79
1043.238	-1.44
1043.661	-0.29
1044.084	0.26
1044.507	3.41
1044.93	-1.29
1045.352	0.46
1045.775	2.36
1046.198	5.11
1046.621	3.21
1047.043	-1.24
1047.466	2.16
1047.889	-2.84
1048.311	2.96
1048.734	-1.04
1049.156	-0.54
1049.579	-3.64
1050.001	-3.64
1050.424	-2.54
1050.846	-2.34
1051.269	-1.89
1051.691	-1.24
1052.113	-0.74
1052.536	-0.34
1052.958	-2.34
1053.38	5.11
1053.802	1.76
1054.225	4.96
1054.647	1.26
1055.069	-2.09
1055.491	3.86
1055.913	4.46
1056.335	-9.34
1056.757	-6.64
1057.179	-6.59
1057.601	-2.64
1058.023	-0.59
1058.445	-4.49
1058.867	1.76
1059.289	1.56
1059.711	-1.39
1060.133	2.06
1060.555	-1.94
1060.976	0.86
1061.398	-4.24
1061.82	-3.54
1062.241	-1.09
1062.663	-5.84
1063.085	-2.94
1063.506	-6.89
1063.928	-2.94
1064.35	0.96
1064.771	3.21
1065.193	-3.09
1065.614	-3.39
1066.035	2.11
1066.457	3.96
1066.878	3.76
1067.3	-0.94
1067.721	-0.29
1068.142	2.21
1068.564	1.26
1068.985	-0.39
1069.406	-8.39
1069.827	-2.64
1070.248	-2.64
1070.67	-6.89
1071.091	-3.79
1071.512	2.11
1071.933	-2.39
1072.354	-8.99
1072.775	-3.09
1073.196	0.46
1073.617	-2.29
1074.038	-2.19
1074.459	-3.24
1074.88	-0.14
1075.3	2.76
1075.721	-1.39
1076.142	-4.09
1076.563	-9.09
1076.983	-2.24
1077.404	-8.24
1077.825	-0.44
1078.246	-4.34
1078.666	-2.89
1079.087	-3.59
1079.507	-3.99
1079.928	-0.89
1080.348	-0.79
1080.769	2.71
1081.189	-1.69
1081.61	-6.64
1082.03	4.46
1082.451	0.46
1082.871	-8.04
1083.291	-1.99
1083.711	0.66
1084.132	-1.54
1084.552	-2.74
1084.972	-4.34
1085.392	-5.59
1085.813	-1.54
1086.233	-2.09
1086.653	3.71
1087.073	-2.64
1087.493	-3.29
1087.913	-4.14
1088.333	-2.64
1088.753	2.56
1089.173	6.51
1089.593	2.71
1090.013	0.51
1090.433	-2.29
1090.852	1.26
1091.272	-4.49
1091.692	0.81
1092.112	-3.34
1092.531	-4.99
1092.951	-3.59
1093.371	0.26
1093.79	-5.14
1094.21	-2.29
1094.63	-4.44
1095.049	-3.84
1095.469	-11.79
1095.888	0.21
1096.308	1.01
1096.727	-7.59
1097.146	-5.54
1097.566	0.46
1097.985	0.86
1098.405	-0.69
1098.824	0.11
1099.243	-0.39
1099.662	-0.54
1100.082	-2.39
1100.501	-2.24
1100.92	3.96
1101.339	3.01
1101.758	3.46
