Data from MSPlasma+Separation6_Subt14_10-13-55-792.txt Node
Date: Fri Jul 21 10:13:55 EDT 2017
User: Ender
Spectrometer: HR+D1039
Trigger mode: 0
Integration Time (sec): 6.430000E-3
Scans to average: 20
Electric dark correction enabled: true
Nonlinearity correction enabled: false
Boxcar width: 0
XAxis mode: Wavelengths
Number of Pixels in Spectrum: 2048
>>>>>Begin Spectral Data<<<<<
187.836	0.65
188.309	0.65
188.782	0.65
189.255	1.8
189.728	1.1
190.201	0.6
190.674	-0.1
191.147	-4.2
191.619	3.15
192.092	-3.05
192.565	-2.3
193.038	0.65
193.511	4.6
193.984	2.2
194.456	-2.45
194.929	-0.3
195.402	-1.9
195.874	-0.4
196.347	2.3
196.82	2.75
197.292	-4.7
197.765	0.9
198.237	-3
198.71	-4.45
199.182	-3.05
199.655	1.45
200.127	5.05
200.6	0.1
201.072	6.9
201.544	-1.5
202.017	2.6
202.489	1.05
202.961	-0.8
203.433	-1.1
203.906	-1.05
204.378	1.25
204.85	-3.2
205.322	1.45
205.794	8.15
206.266	-2.5
206.739	4.65
207.211	-1.75
207.683	0.1
208.155	1.05
208.627	1.8
209.099	1.85
209.57	-1.65
210.042	2.6
210.514	2.2
210.986	0.3
211.458	-3.55
211.93	4.75
212.402	1.7
212.873	-0.15
213.345	-1.4
213.817	4.1
214.288	-2.95
214.76	3.05
215.232	3.3
215.703	1.8
216.175	3.5
216.646	3.9
217.118	5.95
217.589	-3.4
218.061	0.25
218.532	0.1
219.004	2.65
219.475	1.65
219.946	2.15
220.418	5.5
220.889	0.2
221.36	5.8
221.832	3.15
222.303	5.2
222.774	4.15
223.245	3.3
223.717	2.45
224.188	4.05
224.659	5
225.13	0.1
225.601	3.85
226.072	3.75
226.543	4.85
227.014	6.55
227.485	7.85
227.956	11.95
228.427	13.45
228.898	7.05
229.369	8
229.839	9.1
230.31	9.8
230.781	10.4
231.252	8.15
231.722	8.45
232.193	14
232.664	7.85
233.135	7.5
233.605	8.65
234.076	16.15
234.546	10.6
235.017	11.8
235.487	13.6
235.958	11.75
236.428	14.4
236.899	8.85
237.369	17.9
237.84	16.95
238.31	21.85
238.78	10.75
239.251	12.85
239.721	15.4
240.191	13.95
240.662	19.95
241.132	17.35
241.602	22.45
242.072	17.15
242.542	15.9
243.013	13.1
243.483	22.6
243.953	15.35
244.423	20.8
244.893	22
245.363	20.35
245.833	22.95
246.303	19.25
246.773	25.25
247.243	19.4
247.712	26.35
248.182	23.35
248.652	24.55
249.122	25.35
249.592	25.65
250.061	22.05
250.531	24.3
251.001	29.9
251.471	25.25
251.94	25.8
252.41	28.8
252.879	26.4
253.349	33.55
253.818	33
254.288	35.85
254.757	31.55
255.227	35.2
255.696	33.05
256.166	35.05
256.635	37.85
257.105	31.8
257.574	37.35
258.043	33.95
258.513	36.05
258.982	32.3
259.451	41.9
259.92	37.3
260.389	37.25
260.859	41.8
261.328	39.8
261.797	39.65
262.266	39.25
262.735	46.6
263.204	38.25
263.673	48.7
264.142	41.6
264.611	39.7
265.08	45.2
265.549	41.75
266.018	46.5
266.487	43.95
266.955	43.5
267.424	48.95
267.893	52
268.362	50.4
268.83	44.85
269.299	52.55
269.768	52.9
270.236	51.4
270.705	51.9
271.174	52.85
271.642	57.25
272.111	55.9
272.579	51.4
273.048	51.75
273.516	60.7
273.985	53.35
274.453	58
274.922	55.8
275.39	57.15
275.858	59.05
276.327	60
276.795	58.15
277.263	58.35
277.731	62.15
278.2	64.85
278.668	60.9
279.136	66.5
279.604	66.55
280.072	68
280.54	61.3
281.008	74.8
281.477	71.3
281.945	75.25
282.413	70.65
282.881	78.7
283.348	74.5
283.816	72.65
284.284	72.7
284.752	75.1
285.22	81.75
285.688	73.85
286.156	81.35
286.623	75.85
287.091	75.9
287.559	77.1
288.026	82.6
288.494	82.95
288.962	84.65
289.429	84.4
289.897	78.8
290.364	80.85
290.832	88.65
291.3	87.15
291.767	87.7
292.234	88.15
292.702	84.2
293.169	86
293.637	94.25
294.104	83.85
294.571	88.7
295.039	93.1
295.506	86.55
295.973	92.35
296.44	91.25
296.908	97.85
297.375	96.7
297.842	101.3
298.309	93.55
298.776	97.55
299.243	99.7
299.71	99
300.177	104.55
300.644	102.4
301.111	107.6
301.578	107.05
302.045	103.75
302.512	104.85
302.979	113.3
303.446	110.85
303.913	118
304.379	119.8
304.846	118.2
305.313	125.6
305.78	122.25
306.246	125.85
306.713	121.95
307.18	130.5
307.646	128.1
308.113	131.5
308.579	136.85
309.046	137.15
309.512	133.9
309.979	136.5
310.445	136.55
310.912	138.4
311.378	144.4
311.845	138.25
312.311	140.15
312.777	141.4
313.244	150.3
313.71	153.15
314.176	148.05
314.642	150.95
315.109	150.6
315.575	152.4
316.041	151.7
316.507	145.55
316.973	151.35
317.439	158.9
317.905	156.05
318.371	160.95
318.837	158.9
319.303	165.3
319.769	162.5
320.235	166.25
320.701	168.75
321.167	166.3
321.633	163.15
322.099	163.55
322.564	167.55
323.03	170.7
323.496	170.55
323.962	176
324.427	179.4
324.893	175.55
325.359	181.9
325.824	183.85
326.29	191.15
326.755	187.15
327.221	185.65
327.686	192.25
328.152	192
328.617	197.65
329.083	199
329.548	200.3
330.014	201.45
330.479	209.35
330.944	204.95
331.41	210.55
331.875	199.05
332.34	207.6
332.805	211.75
333.271	208.7
333.736	205.25
334.201	211.9
334.666	226.1
335.131	229.2
335.596	226.95
336.061	215.45
336.526	221.45
336.991	214.6
337.456	217.5
337.921	212
338.386	211.2
338.851	217.6
339.316	214.1
339.781	211.9
340.246	220.15
340.711	223.55
341.175	226.15
341.64	237.9
342.105	241.6
342.569	243.75
343.034	235.8
343.499	240.45
343.963	253.75
344.428	248.15
344.893	247.35
345.357	260.1
345.822	255.95
346.286	264.6
346.751	262.15
347.215	271.9
347.679	277.95
348.144	294
348.608	292.8
349.073	297.3
349.537	301.65
350.001	301.7
350.465	302.05
350.93	302.1
351.394	309.1
351.858	307.35
352.322	315.65
352.786	319.05
353.25	315.3
353.715	320.6
354.179	329.95
354.643	340.3
355.107	348.45
355.571	343.35
356.035	337
356.498	336.25
356.962	334.6
357.426	339.75
357.89	333.95
358.354	321.35
358.818	328.2
359.281	329.6
359.745	332.65
360.209	329.9
360.673	333.1
361.136	330.45
361.6	331.15
362.064	339.6
362.527	353
362.991	347.45
363.454	343.8
363.918	354.55
364.381	354.4
364.845	360.15
365.308	356.5
365.772	365.5
366.235	365.4
366.698	363.35
367.162	359.95
367.625	367.35
368.088	373.7
368.552	369.9
369.015	375.05
369.478	378.45
369.941	376.9
370.404	388
370.867	375.85
371.331	382.3
371.794	395.1
372.257	392.85
372.72	389.15
373.183	393.15
373.646	406.45
374.109	394.1
374.572	397.25
375.035	401.6
375.497	405.05
375.96	416.4
376.423	422.05
376.886	422.9
377.349	429.2
377.811	428.55
378.274	427.5
378.737	429.45
379.199	438.65
379.662	436.3
380.125	440.95
380.587	455.45
381.05	454.3
381.512	458.55
381.975	474.8
382.437	479.1
382.9	469.95
383.362	474.35
383.825	484.55
384.287	481.55
384.75	483.3
385.212	486.8
385.674	491.95
386.136	490.55
386.599	485.8
387.061	485.65
387.523	494.55
387.985	497.15
388.447	503.45
388.91	499.8
389.372	506.05
389.834	504.3
390.296	496.3
390.758	507.05
391.22	500.95
391.682	502.9
392.144	512.65
392.606	517.95
393.068	525.75
393.529	555.45
393.991	560.95
394.453	538.4
394.915	521.9
395.377	521.4
395.838	517.3
396.3	512.2
396.762	529
397.224	529.55
397.685	523.6
398.147	527.25
398.608	539.65
399.07	544.8
399.531	543.2
399.993	560.2
400.454	565.5
400.916	556.1
401.377	580.1
401.839	581.95
402.3	578.65
402.762	608.95
403.223	642.85
403.684	647.5
404.145	615.2
404.607	622.35
405.068	598.2
405.529	605
405.99	618.8
406.451	623.1
406.913	616.4
407.374	616.9
407.835	615.15
408.296	640.55
408.757	639.3
409.218	659.5
409.679	660.9
410.14	667.65
410.601	681.6
411.062	689.15
411.522	689.9
411.983	686.3
412.444	691.3
412.905	708.4
413.366	736.85
413.826	767.75
414.287	857.7
414.748	1021.75
415.208	1044.3
415.669	874.45
416.13	796.1
416.59	776.3
417.051	805.95
417.511	837.05
417.972	895.4
418.432	964.2
418.893	1069.65
419.353	1023.75
419.814	799.05
420.274	706.85
420.734	702.6
421.195	721.05
421.655	722.65
422.115	740.5
422.576	730.2
423.036	735.95
423.496	763.85
423.956	792.05
424.416	845.2
424.876	944.15
425.336	948.95
425.797	935.4
426.257	923.8
426.717	872.8
427.177	811.15
427.637	816.85
428.097	841.9
428.556	876.85
429.016	932.85
429.476	938.65
429.936	927.35
430.396	924.45
430.856	946.75
431.315	962.2
431.775	1030
432.235	1100.55
432.694	1122.9
433.154	1058.7
433.614	1038.8
434.073	1004.75
434.533	904.7
434.993	869.45
435.452	872.35
435.912	863
436.371	858.45
436.83	851.9
437.29	824.9
437.749	806.2
438.209	800.55
438.668	821.25
439.127	840
439.587	816.95
440.046	800.55
440.505	818.35
440.964	820.5
441.424	845.15
441.883	869.8
442.342	823.15
442.801	776.45
443.26	793.8
443.719	782.9
444.178	788.4
444.637	791
445.096	801.45
445.555	807.55
446.014	804.6
446.473	794.45
446.932	796.95
447.391	810
447.849	817.45
448.308	810.8
448.767	815.75
449.226	831.7
449.685	848.85
450.143	868.9
450.602	877.6
451.061	823.35
451.519	833
451.978	817.35
452.436	826.3
452.895	825.5
453.353	820.65
453.812	813.8
454.27	816.6
454.729	816.4
455.187	829.65
455.646	830.85
456.104	835.3
456.562	837.95
457.021	851.85
457.479	822.5
457.937	845.25
458.395	866.3
458.854	863.95
459.312	845.85
459.77	857.15
460.228	868.85
460.686	879.85
461.144	876.15
461.602	866.4
462.06	868.65
462.518	881.75
462.976	891.3
463.434	897.05
463.892	911.85
464.35	924.9
464.808	937.85
465.266	941.3
465.724	956.35
466.181	967.8
466.639	952
467.097	998.65
467.555	1032.2
468.012	1023.05
468.47	1033.05
468.928	1064.2
469.385	1095.15
469.843	1104.9
470.3	1099.55
470.758	1132.5
471.215	1155.35
471.673	1178.85
472.13	1214.95
472.588	1233.6
473.045	1229.7
473.503	1246
473.96	1296.05
474.417	1307.95
474.875	1377.55
475.332	1424.6
475.789	1438.65
476.246	1480.15
476.704	1543.45
477.161	1587.7
477.618	1630.05
478.075	1710.3
478.532	1839.25
478.989	1969.1
479.446	2151.9
479.903	2253.5
480.36	2445.3
480.817	2572.85
481.274	2740.9
481.731	2974.7
482.188	3182.8
482.645	3411.75
483.102	3596.25
483.558	3830.4
484.015	4004.6
484.472	3969
484.929	3846.65
485.385	3707.25
485.842	3635.1
486.299	3503.95
486.755	3232.05
487.212	2925.55
487.668	2651.35
488.125	2482.3
488.582	2308.95
489.038	2232.8
489.494	2157.4
489.951	2104.6
490.407	2049.75
490.864	2010.65
491.32	1966
491.776	1968.7
492.233	1969.25
492.689	1946.75
493.145	1917.4
493.602	1878.45
494.058	1897.95
494.514	1905.95
494.97	1910.35
495.426	1931.45
495.882	1937.1
496.338	1931.15
496.794	1953.25
497.251	1946.15
497.707	1963.2
498.163	1971.5
498.618	1957.8
499.074	1963.1
499.53	1980.85
499.986	1988.95
500.442	1980.65
500.898	1952.35
501.354	1968.55
501.809	1974.05
502.265	1977.65
502.721	1984.9
503.177	1990.2
503.632	1995.3
504.088	1999.15
504.543	2030.1
504.999	2046.4
505.455	2042.75
505.91	2022
506.366	2022.85
506.821	2022.25
507.277	2030.75
507.732	2032.1
508.187	2030.9
508.643	2049.05
509.098	2046.3
509.553	2065.9
510.009	2097.15
510.464	2137.6
510.919	2133.9
511.375	2174.15
511.83	2194.35
512.285	2231.8
512.74	2268.4
513.195	2301.75
513.65	2343.1
514.105	2357.75
514.56	2368.35
515.015	2417.65
515.47	2416.5
515.925	2396.15
516.38	2397.7
516.835	2409.5
517.29	2389.9
517.745	2389.75
518.2	2365.1
518.655	2310.45
519.109	2273.7
519.564	2250.5
520.019	2237.75
520.474	2223.05
520.928	2204.85
521.383	2179.25
521.838	2176
522.292	2169.05
522.747	2152.45
523.201	2145.95
523.656	2105.1
524.11	2120.4
524.565	2102.7
525.019	2108.35
525.474	2110.7
525.928	2096.8
526.382	2095.45
526.837	2094.05
527.291	2104.85
527.745	2097.1
528.2	2088.75
528.654	2074.1
529.108	2073.6
529.562	2086.15
530.016	2074.8
530.47	2086.45
530.925	2074
531.379	2074.2
531.833	2097.3
532.287	2099.4
532.741	2076.15
533.195	2079.95
533.649	2090.4
534.103	2086.95
534.556	2074.25
535.01	2079.65
535.464	2070
535.918	2081.55
536.372	2092.25
536.826	2079.75
537.279	2070.4
537.733	2067.05
538.187	2083.4
538.64	2077.95
539.094	2091.25
539.548	2125.45
540.001	2111.8
540.455	2110.6
540.908	2140.05
541.362	2147.5
541.815	2164.85
542.269	2210.1
542.722	2199.95
543.175	2251.05
543.629	2240.65
544.082	2259.5
544.536	2265.75
544.989	2282.7
545.442	2295
545.895	2301.6
546.349	2291.75
546.802	2306.3
547.255	2296.4
547.708	2317.35
548.161	2327.8
548.614	2332
549.067	2342.85
549.52	2329.25
549.973	2306.15
550.426	2307.2
550.879	2298.35
551.332	2295.85
551.785	2319.05
552.238	2341.15
552.691	2336.7
553.144	2374.55
553.596	2413.45
554.049	2437.65
554.502	2488.6
554.955	2521.75
555.407	2561
555.86	2530.15
556.313	2492.5
556.765	2488.85
557.218	2452.2
557.67	2441.75
558.123	2406.4
558.576	2392.35
559.028	2398.55
559.48	2412.2
559.933	2411.35
560.385	2345.85
560.838	2271.5
561.29	2198.4
561.742	2193.5
562.195	2144.95
562.647	2123.85
563.099	2105.6
563.551	2095.6
564.004	2122.35
564.456	2102.3
564.908	2051.8
565.36	2006.35
565.812	1975.35
566.264	1948.85
566.716	1931.55
567.168	1896.7
567.62	1904.35
568.072	1891.65
568.524	1874.75
568.976	1870.7
569.428	1842.45
569.88	1853.6
570.332	1867.6
570.784	1873.25
571.235	1859.45
571.687	1876.4
572.139	1874
572.59	1886.65
573.042	1888.65
573.494	1909
573.945	1858.8
574.397	1829.35
574.849	1829.65
575.3	1823.8
575.752	1805.4
576.203	1788.8
576.655	1802.2
577.106	1773.85
577.557	1766.6
578.009	1761.6
578.46	1767.9
578.912	1741.4
579.363	1755.45
579.814	1748.65
580.265	1754.2
580.717	1752.85
581.168	1755.8
581.619	1766.8
582.07	1770
582.521	1767.35
582.972	1756.65
583.423	1769.65
583.875	1773.7
584.326	1786.3
584.777	1809.85
585.227	1836.35
585.678	1858.55
586.129	1884.1
586.58	1887.95
587.031	1937.6
587.482	1982.2
587.933	1993.45
588.384	1987.55
588.834	1976.5
589.285	1966.55
589.736	1967.4
590.186	1966.8
590.637	1949.85
591.088	1905.15
591.538	1873.9
591.989	1848.4
592.439	1822.1
592.89	1811.8
593.34	1806.35
593.791	1791.25
594.241	1777.15
594.692	1773.35
595.142	1766.55
595.593	1763.75
596.043	1777.8
596.493	1802.95
596.943	1797.3
597.394	1848.8
597.844	1861.35
598.294	1907.1
598.744	1972.7
599.195	2065.6
599.645	2178.75
600.095	2278.15
600.545	2386.85
600.995	2489.85
601.445	2575.85
601.895	2689.25
602.345	2767.05
602.795	2749.85
603.245	2643.35
603.695	2490.6
604.145	2360.15
604.594	2248.3
605.044	2132.75
605.494	1999.35
605.944	1905.45
606.393	1850.05
606.843	1807.85
607.293	1809.8
607.743	1800.2
608.192	1817.5
608.642	1813.3
609.091	1809.1
609.541	1807.75
609.99	1805.45
610.44	1768.15
610.889	1743.65
611.339	1723.35
611.788	1705.4
612.238	1709.95
612.687	1726.35
613.136	1738.05
613.586	1751.3
614.035	1744.3
614.484	1762.4
614.933	1766.2
615.383	1723.1
615.832	1686
616.281	1657.45
616.73	1623.55
617.179	1588.7
617.628	1553.1
618.077	1533.25
618.526	1513.15
618.975	1496.8
619.424	1471.6
619.873	1477.35
620.322	1461.8
620.771	1448.5
621.22	1441.95
621.669	1411.1
622.118	1395.55
622.567	1386.35
623.015	1355.9
623.464	1359.75
623.913	1341.7
624.361	1340.5
624.81	1334.75
625.259	1340.45
625.707	1332.7
626.156	1344.6
626.604	1355.35
627.053	1355.15
627.501	1362.55
627.95	1369.45
628.398	1380.55
628.847	1362.65
629.295	1363.2
629.744	1352.4
630.192	1326.8
630.64	1314.4
631.089	1291.8
631.537	1264.75
631.985	1244.2
632.433	1254.75
632.881	1232.45
633.33	1238.55
633.778	1249.05
634.226	1247.75
634.674	1260.6
635.122	1268.8
635.57	1287.9
636.018	1305.3
636.466	1304.1
636.914	1304.55
637.362	1330.1
637.81	1359.55
638.258	1401.6
638.705	1406.2
639.153	1456.75
639.601	1460.15
640.049	1493.55
640.497	1533.8
640.944	1562.6
641.392	1503.1
641.84	1430.2
642.287	1363.85
642.735	1334.2
643.182	1318.95
643.63	1324.55
644.078	1321.55
644.525	1336.85
644.973	1376.4
645.42	1406.55
645.867	1443.4
646.315	1459.3
646.762	1514.8
647.21	1565.6
647.657	1633.3
648.104	1691.35
648.551	1732.3
648.999	1852.75
649.446	2016.85
649.893	2245.25
650.34	2615.8
650.787	3194.75
651.234	4072
651.682	5575
652.129	7807.45
652.576	11085.45
653.023	14515.7
653.47	15534.4
653.917	15534.45
654.363	15534.35
654.81	15531.35
655.257	15532
655.704	14271.55
656.151	8690.8
656.598	5729.2
657.044	4113.65
657.491	3243.85
657.938	2667.75
658.385	2265.25
658.831	2012.2
659.278	1808.1
659.724	1668.3
660.171	1562.4
660.618	1454.55
661.064	1382.3
661.511	1333.5
661.957	1304.9
662.404	1261.8
662.85	1257.7
663.296	1242.9
663.743	1210.4
664.189	1208.65
664.635	1192.3
665.082	1166.75
665.528	1151.95
665.974	1121.55
666.42	1099.45
666.867	1094.65
667.313	1039.8
667.759	1031.7
668.205	1025.9
668.651	1018
669.097	1030.2
669.543	1027.7
669.989	1033.35
670.435	1033.7
670.881	1049.8
671.327	1101.05
671.773	1166.25
672.219	1254.4
672.665	1333.9
673.11	1369.1
673.556	1392.6
674.002	1415.9
674.448	1439.5
674.893	1245.15
675.339	1085.95
675.785	989.85
676.23	940.35
676.676	904.6
677.122	882.85
677.567	855.9
678.013	834.55
678.458	827.95
678.904	824.3
679.349	815.4
679.794	816
680.24	810.55
680.685	798.5
681.131	803.65
681.576	797.95
682.021	809.6
682.466	815.7
682.912	821.4
683.357	867.95
683.802	934.35
684.247	1021.55
684.692	1093.45
685.137	1134.6
685.583	1159.5
686.028	1212.7
686.473	1159.6
686.918	1000.2
687.363	916.15
687.807	872.1
688.252	830
688.697	800.8
689.142	776.05
689.587	779.75
690.032	800.55
690.477	822.4
690.921	860.7
691.366	911.1
691.811	950.75
692.255	1029.25
692.7	1238.25
693.145	1776
693.589	2706.75
694.034	3243.6
694.478	3463.65
694.923	3186.3
695.367	4469.2
695.812	2748.05
696.256	1171.3
696.701	854.1
697.145	791.95
697.59	760.15
698.034	746.9
698.478	743.1
698.922	745.75
699.367	774.3
699.811	809.1
700.255	864.4
700.699	947.5
701.143	1026.65
701.588	1086.4
702.032	1134.05
702.476	1165.5
702.92	1254.25
703.364	1633.8
703.808	2486.1
704.252	3098.7
704.696	3276.35
705.14	3112.25
705.584	4245.35
706.027	2378.2
706.471	1204.15
706.915	899
707.359	797.4
707.803	751.6
708.246	726.1
708.69	712.9
709.134	697.5
709.577	700.45
710.021	704.7
710.465	698.45
710.908	700.1
711.352	727.3
711.795	799.35
712.239	862.7
712.682	882.1
713.126	875.35
713.569	965.2
714.012	797.6
714.456	692
714.899	659.25
715.342	628.05
715.786	604.3
716.229	588.9
716.672	572.95
717.115	576.4
717.558	577.6
718.002	597.5
718.445	622.55
718.888	652.75
719.331	669.4
719.774	673.6
720.217	670.8
720.66	630.95
721.103	603.1
721.546	574.25
721.989	549.35
722.432	544.9
722.874	541.15
723.317	549.4
723.76	599.8
724.203	734.75
724.645	977.95
725.088	1149.4
725.531	1122.5
725.974	1234.15
726.416	1108.95
726.859	684.75
727.301	569.45
727.744	541.85
728.187	541.55
728.629	554.65
729.071	584.95
729.514	604.25
729.956	630.5
730.399	641.05
730.841	648.3
731.283	630.7
731.726	616.2
732.168	627.55
732.61	655.15
733.053	706.25
733.495	782.25
733.937	867.5
734.379	1021.3
734.821	1289.5
735.263	2041.45
735.705	3654.6
736.148	5379.1
736.59	5434.75
737.032	5872.45
737.474	4859.65
737.916	1867.3
738.357	989.45
738.799	758.75
739.241	706.7
739.683	714.4
740.125	739.05
740.567	742.8
741.008	786.95
741.45	833.35
741.892	867.85
742.334	881.2
742.775	877.9
743.217	840.75
743.658	702.55
744.1	732.65
744.542	853.65
744.983	880.45
745.425	928.3
745.866	888.85
746.307	731.85
746.749	775.4
747.19	1114.25
747.632	2145.7
748.073	4002.7
748.514	5549.8
748.956	7369.45
749.397	8641.85
749.838	5998.45
750.279	5684.8
750.72	2970.8
751.162	1248.4
751.603	724.7
752.044	578.2
752.485	521.7
752.926	481.35
753.367	467.4
753.808	449.2
754.249	439.35
754.69	436.95
755.131	426.75
755.572	433.45
756.013	429.45
756.453	434.15
756.894	432.9
757.335	435
757.776	445
758.216	460.1
758.657	484.05
759.098	545.05
759.538	652.6
759.979	938.85
760.42	1883.6
760.86	4829.8
761.301	10015.65
761.741	11872.85
762.182	13553.2
762.622	8857.35
763.063	3164.25
763.503	1288.65
763.943	756.95
764.384	599.25
764.824	518.85
765.264	476.4
765.705	452.25
766.145	430.25
766.585	414.3
767.025	400.15
767.465	403.85
767.906	412.4
768.346	442.7
768.786	502.4
769.226	738.25
769.666	1479.1
770.106	3303.65
770.546	4754.05
770.986	5390
771.426	4085.4
771.866	1704.4
772.306	772.75
772.745	475.35
773.185	412.25
773.625	394.45
774.065	431.95
774.505	620.2
774.944	1117.2
775.384	1618.8
775.824	1821.95
776.263	1503.05
776.703	790.95
777.142	454.15
777.582	334
778.021	312
778.461	293.15
778.9	292.3
779.34	282.6
779.779	274.9
780.219	268.05
780.658	256.7
781.097	261.4
781.537	250.2
781.976	250.25
782.415	253.15
782.855	251.75
783.294	247.25
783.733	238.65
784.172	252.1
784.611	244.8
785.05	262.25
785.489	259.3
785.928	268.15
786.367	277.7
786.806	289.85
787.245	318.25
787.684	324.1
788.123	321.75
788.562	314.6
789.001	305.8
789.44	288.4
789.879	301.55
790.317	294.6
790.756	310.7
791.195	352.15
791.634	481.35
792.072	859.1
792.511	2097.45
792.95	3894.75
793.388	4714.8
793.827	3084.15
794.265	1407.55
794.704	675.75
795.142	426.85
795.581	346.45
796.019	315.75
796.458	310.15
796.896	322.95
797.334	370.15
797.773	491.3
798.211	926.85
798.649	1940.3
799.087	3283.1
799.526	4630.3
799.964	4790.1
800.402	3317.15
800.84	1493.1
801.278	739.1
801.716	447.1
802.154	367.2
802.592	344.55
803.03	342.15
803.468	351.7
803.906	352.05
804.344	346.15
804.782	333.8
805.22	335.1
805.658	351.9
806.096	369.35
806.533	418.85
806.971	537.6
807.409	769.05
807.847	1540
808.284	3902.05
808.722	6840.7
809.16	9639.15
809.597	12992.15
810.035	15433.2
810.472	10644.2
810.91	4496.6
811.347	2009.4
811.785	950.5
812.222	597.95
812.66	460.2
813.097	399.4
813.535	336.4
813.972	309.1
814.409	278.5
814.846	276.2
815.284	263.1
815.721	271.1
816.158	296.55
816.595	408.55
817.032	516.85
817.47	470.5
817.907	342.8
818.344	295.9
818.781	292.5
819.218	358.9
819.655	553.55
820.092	722.8
820.529	654.35
820.966	517.8
821.403	352.05
821.839	289.05
822.276	332.15
822.713	396.6
823.15	361.05
823.587	365.65
824.023	642.5
824.46	1598.8
824.897	2795.7
825.333	2202.95
825.77	1009.5
826.206	522.7
826.643	310.8
827.08	232.35
827.516	205.25
827.953	190.55
828.389	176.65
828.825	173.6
829.262	168.3
829.698	163.4
830.135	153.25
830.571	149.6
831.007	156.45
831.443	159.65
831.88	153.1
832.316	160.55
832.752	161.2
833.188	163.8
833.624	164
834.06	166.75
834.497	164.35
834.933	171.75
835.369	186.8
835.805	193.7
836.241	198.1
836.677	223.35
837.112	255.5
837.548	317.4
837.984	465.3
838.42	1016.6
838.856	2801.95
839.292	5557.2
839.727	4198.8
840.163	2797.15
840.599	4213.5
841.034	6458.4
841.47	3284
841.906	1569.05
842.341	850.15
842.777	629.1
843.212	669.9
843.648	410.7
844.083	282
844.519	213.85
844.954	179.4
845.39	155.9
845.825	151.55
846.261	144.1
846.696	144.3
847.131	132.4
847.566	135.35
848.002	139.9
848.437	151.55
848.872	151.9
849.307	195.15
849.742	353.95
850.177	912.8
850.613	1949.1
851.048	1423.55
851.483	651.5
851.918	362.65
852.353	201.85
852.788	143.6
853.223	131.45
853.657	114.5
854.092	117
854.527	108.05
854.962	125.5
855.397	136.05
855.832	117.4
856.266	104.2
856.701	99.85
857.136	110.15
857.57	130.9
858.005	163.55
858.44	136.5
858.874	122.25
859.309	129.75
859.743	127.75
860.178	119.05
860.612	132.95
861.047	190.1
861.481	263.6
861.915	182.85
862.35	133.8
862.784	103.55
863.218	103.7
863.653	112.7
864.087	133
864.521	162.2
864.955	272.55
865.39	461.65
865.824	364.35
866.258	481.05
866.692	748.4
867.126	542.4
867.56	286.6
867.994	180
868.428	151.25
868.862	194.6
869.296	175.3
869.73	216.1
870.164	184.8
870.598	167.3
871.031	113.65
871.465	103.4
871.899	86.35
872.333	70.2
872.766	76.85
873.2	78.55
873.634	75.25
874.067	80.2
874.501	78.35
874.935	78
875.368	81.95
875.802	72.6
876.235	67
876.669	66.5
877.102	55.65
877.535	60.7
877.969	57.25
878.402	62.55
878.836	63.05
879.269	58.95
879.702	57.5
880.135	61.8
880.569	63.65
881.002	55.55
881.435	58
881.868	60.45
882.301	52.7
882.734	50.05
883.167	58.1
883.601	58.45
884.034	51.1
884.467	47.55
884.899	51.95
885.332	45.5
885.765	46.7
886.198	45.4
886.631	47.45
887.064	48.7
887.497	47.2
887.929	48.4
888.362	49.1
888.795	41.35
889.228	49.4
889.66	45.6
890.093	46.85
890.526	49.6
890.958	48.05
891.391	52.3
891.823	43.8
892.256	49.8
892.688	46.05
893.121	42.4
893.553	48
893.985	43.8
894.418	46.95
894.85	41.2
895.282	43.95
895.715	38.15
896.147	36.15
896.579	39.5
897.011	43.65
897.444	45.1
897.876	35.7
898.308	39.55
898.74	48.7
899.172	45.9
899.604	44.55
900.036	47
900.468	38.4
900.9	45.75
901.332	56.9
901.764	56.55
902.196	55.15
902.628	57.7
903.06	84.9
903.491	96.15
903.923	74
904.355	75.25
904.787	81
905.218	64.4
905.65	59.85
906.082	58.2
906.513	50
906.945	49.85
907.376	48.85
907.808	49.35
908.239	49.85
908.671	58.35
909.102	63.8
909.534	91.8
909.965	179.2
910.397	450
910.828	1301.5
911.259	813.1
911.691	432.7
912.122	253.85
912.553	131.45
912.984	70.85
913.415	63.05
913.847	56.5
914.278	50.1
914.709	41.6
915.14	44.75
915.571	49.65
916.002	45.35
916.433	47.05
916.864	41.45
917.295	44.95
917.726	53.2
918.157	60.5
918.587	68.6
919.018	59.65
919.449	55.3
919.88	67.1
920.311	104.25
920.741	278.7
921.172	482.75
921.603	243.45
922.033	154.15
922.464	98.3
922.895	66.4
923.325	46.8
923.756	45
924.186	58.6
924.617	78.15
925.047	114.3
925.478	103.5
925.908	75.65
926.338	56.35
926.769	46.05
927.199	43.15
927.629	39.3
928.06	39.15
928.49	39.75
928.92	35
929.35	32.75
929.78	25.9
930.21	27.05
930.641	22.55
931.071	25.55
931.501	25.4
931.931	20.95
932.361	24
932.791	26.7
933.221	30.3
933.651	39.65
934.08	65.85
934.51	41.7
934.94	36.1
935.37	26.75
935.8	19.5
936.229	20.1
936.659	22.6
937.089	44
937.519	61.3
937.948	84.75
938.378	48.85
938.807	30
939.237	21.55
939.666	19.35
940.096	17.9
940.525	8.15
940.955	17.1
941.384	12.15
941.814	9.75
942.243	8.8
942.672	11.15
943.102	11.05
943.531	10.5
943.96	10.9
944.39	6.4
944.819	15.9
945.248	9.75
945.677	7.9
946.106	9.8
946.535	11.3
946.964	12.9
947.393	12.25
947.822	8.15
948.251	14
948.68	12.95
949.109	10.3
949.538	7.5
949.967	8.35
950.396	7.45
950.825	13.15
951.254	9.8
951.682	2.25
952.111	7.5
952.54	7.9
952.969	7.1
953.397	7.2
953.826	5.55
954.254	9.1
954.683	11.3
955.112	14.6
955.54	7.95
955.969	3.55
956.397	8.3
956.826	10.75
957.254	4.7
957.682	11.1
958.111	8.9
958.539	10.95
958.967	4.5
959.396	14.05
959.824	8.7
960.252	9.75
960.68	7.8
961.109	10.6
961.537	13.4
961.965	5.35
962.393	8.5
962.821	9.9
963.249	12.9
963.677	18.4
964.105	82.45
964.533	135.7
964.961	68.25
965.389	40
965.817	23
966.245	16.75
966.672	12.05
967.1	11.85
967.528	3.35
967.956	8.45
968.383	8.25
968.811	2.3
969.239	3.7
969.666	5.6
970.094	7
970.522	0.15
970.949	7.35
971.377	-1.25
971.804	-2.75
972.232	3.45
972.659	7.15
973.087	10.3
973.514	2.3
973.941	4.2
974.369	-2.05
974.796	1.45
975.223	1.9
975.651	5.25
976.078	6.8
976.505	15.4
976.932	33.35
977.359	43.45
977.786	27.5
978.214	17.3
978.641	5.95
979.068	8.35
979.495	6.6
979.922	10.1
980.349	1.7
980.776	5.2
981.202	3.25
981.629	11.35
982.056	6.25
982.483	-2.4
982.91	7.85
983.337	0.4
983.763	5.55
984.19	4.3
984.617	6.9
985.043	5.65
985.47	8.9
985.897	6.1
986.323	12.25
986.75	3.85
987.176	3.7
987.603	5.1
988.029	4.35
988.456	7.55
988.882	2.15
989.308	-1.55
989.735	0.65
990.161	5.8
990.587	5.7
991.014	3.7
991.44	4.35
991.866	4.15
992.292	5.4
992.719	2.65
993.145	4.2
993.571	1.9
993.997	8.4
994.423	3.7
994.849	1.55
995.275	6.4
995.701	3.6
996.127	0.35
996.553	-3.15
996.979	-1.85
997.405	5.6
997.83	3.3
998.256	4.8
998.682	5.85
999.108	6.7
999.534	-2.5
999.959	-0.8
1000.385	3.7
1000.811	2.1
1001.236	-1.8
1001.662	0.3
1002.087	6.25
1002.513	3.65
1002.938	2.6
1003.364	0.5
1003.789	8.45
1004.215	2.3
1004.64	2.45
1005.066	4.95
1005.491	8.2
1005.916	8.95
1006.342	5.35
1006.767	0.3
1007.192	4.55
1007.617	6.05
1008.042	2.7
1008.468	6.75
1008.893	10.3
1009.318	10.25
1009.743	19.25
1010.168	27.85
1010.593	24.7
1011.018	21.45
1011.443	13.5
1011.868	11.45
1012.293	7.5
1012.718	5.55
1013.143	1.55
1013.567	6.5
1013.992	3.65
1014.417	5.9
1014.842	-1.7
1015.267	4.2
1015.691	3.85
1016.116	2.2
1016.541	4.25
1016.965	4.4
1017.39	2.45
1017.814	-5.4
1018.239	-0.45
1018.663	-5.65
1019.088	-0.9
1019.512	10.25
1019.937	-1.6
1020.361	1.5
1020.785	-3.75
1021.21	-5.75
1021.634	-0.4
1022.058	5.55
1022.483	-2.1
1022.907	-0.75
1023.331	-1.85
1023.755	2.4
1024.179	-2.25
1024.604	0.3
1025.028	0.7
1025.452	3.7
1025.876	3.65
1026.3	0.05
1026.724	2.2
1027.148	0.6
1027.572	1.25
1027.996	4.1
1028.42	4.55
1028.843	-0.5
1029.267	-2.15
1029.691	4.45
1030.115	-1.2
1030.539	2.25
1030.962	-3.2
1031.386	0.25
1031.81	-3.2
1032.233	-0.55
1032.657	-2.65
1033.08	-3.45
1033.504	-3.75
1033.927	-0.2
1034.351	-1.45
1034.774	-2.65
1035.198	-5
1035.621	0.45
1036.045	-4.3
1036.468	5.45
1036.891	-2.2
1037.315	6.2
1037.738	0.6
1038.161	3.7
1038.584	1.75
1039.008	-0.1
1039.431	-5.3
1039.854	-6.8
1040.277	5.15
1040.7	-0.65
1041.123	0.8
1041.546	-2
1041.969	4.4
1042.392	1.25
1042.815	-8.2
1043.238	-0.25
1043.661	-2.65
1044.084	1.1
1044.507	0.95
1044.93	-1.25
1045.352	-1.6
1045.775	1.05
1046.198	1.35
1046.621	3.1
1047.043	1.35
1047.466	2.2
1047.889	0.5
1048.311	3.35
1048.734	0.95
1049.156	-0.4
1049.579	-0.3
1050.001	0.35
1050.424	3
1050.846	1.6
1051.269	-2.75
1051.691	-1.75
1052.113	1.85
1052.536	-0.55
1052.958	-7.55
1053.38	2
1053.802	3.6
1054.225	-2.55
1054.647	4.35
1055.069	-0.1
1055.491	1.9
1055.913	0.25
1056.335	-5.8
1056.757	-4.9
1057.179	-2.75
1057.601	1.15
1058.023	-2.1
1058.445	-6.05
1058.867	1.65
1059.289	2.2
1059.711	-4.4
1060.133	-2.45
1060.555	-4.95
1060.976	-0.85
1061.398	-2.05
1061.82	3.55
1062.241	-3.25
1062.663	-0.65
1063.085	-2.35
1063.506	-2.05
1063.928	-2.5
1064.35	-0.15
1064.771	-0.45
1065.193	-3.35
1065.614	-1.5
1066.035	6.95
1066.457	-1.9
1066.878	1.7
1067.3	2.25
1067.721	2.35
1068.142	3.25
1068.564	2.1
1068.985	-2.3
1069.406	-2.8
1069.827	3.45
1070.248	-2.7
1070.67	-2.65
1071.091	-7.25
1071.512	-4.8
1071.933	-2.4
1072.354	-9.55
1072.775	-3.65
1073.196	-3.4
1073.617	-3.55
1074.038	1.3
1074.459	-2.7
1074.88	-2.8
1075.3	-0.65
1075.721	-2.3
1076.142	-6.55
1076.563	-7.65
1076.983	-0
1077.404	-5
1077.825	-1.35
1078.246	-7.95
1078.666	-5.65
1079.087	-1.6
1079.507	0.75
1079.928	1.35
1080.348	-1.2
1080.769	-0.75
1081.189	-2.4
1081.61	-7.15
1082.03	2.95
1082.451	-2.3
1082.871	-4.9
1083.291	-3.7
1083.711	-0.85
1084.132	-2.4
1084.552	-9.15
1084.972	-5
1085.392	-5.45
1085.813	2.5
1086.233	-3.5
1086.653	2.65
1087.073	-4.4
1087.493	-3.3
1087.913	-4.75
1088.333	-2.85
1088.753	-1.85
1089.173	-0.05
1089.593	-0.9
1090.013	-1.75
1090.433	-6.2
1090.852	1.75
1091.272	-5.7
1091.692	4.65
1092.112	-6.35
1092.531	-2.4
1092.951	-5.65
1093.371	-3.95
1093.79	-0.85
1094.21	-2.3
1094.63	1.75
1095.049	-1.2
1095.469	-8.55
1095.888	0.15
1096.308	-1
1096.727	-2.7
1097.146	-1.75
1097.566	-3.45
1097.985	-4.15
1098.405	-1.2
1098.824	-1.85
1099.243	-0
1099.662	-2.05
1100.082	0.8
1100.501	-3.7
1100.92	0.85
1101.339	-0.3
1101.758	1.4
