Data from MSPlasma+Separation6_Subt14_10-14-29-925.txt Node
Date: Fri Jul 21 10:14:29 EDT 2017
User: Ender
Spectrometer: HR+D1039
Trigger mode: 0
Integration Time (sec): 6.430000E-3
Scans to average: 20
Electric dark correction enabled: true
Nonlinearity correction enabled: false
Boxcar width: 0
XAxis mode: Wavelengths
Number of Pixels in Spectrum: 2048
>>>>>Begin Spectral Data<<<<<
187.836	-3.18
188.309	-3.18
188.782	-3.18
189.255	3.57
189.728	1.62
190.201	-4.08
190.674	-1.78
191.147	-2.43
191.619	1.47
192.092	0.57
192.565	-3.03
193.038	1.52
193.511	3.27
193.984	-1.48
194.456	2.52
194.929	2.87
195.402	-1.78
195.874	0.32
196.347	5.37
196.82	-0.38
197.292	-3.88
197.765	-1.28
198.237	-2.23
198.71	-6.18
199.182	-2.23
199.655	3.57
200.127	1.47
200.6	0.67
201.072	-5.58
201.544	-1.33
202.017	2.12
202.489	5.22
202.961	-1.73
203.433	-1.13
203.906	0.87
204.378	3.27
204.85	2.22
205.322	1.67
205.794	4.77
206.266	-1.23
206.739	2.67
207.211	2.07
207.683	0.37
208.155	2.77
208.627	0.17
209.099	2.82
209.57	0.37
210.042	4.12
210.514	0.62
210.986	-1.98
211.458	-3.18
211.93	-1.18
212.402	-0.98
212.873	-0.18
213.345	-2.48
213.817	0.87
214.288	-1.38
214.76	6.77
215.232	-0.88
215.703	3.12
216.175	2.52
216.646	4.47
217.118	0.32
217.589	1.37
218.061	6.22
218.532	-0.23
219.004	7.82
219.475	2.77
219.946	2.07
220.418	9.02
220.889	2.07
221.36	7.47
221.832	7.02
222.303	5.82
222.774	3.07
223.245	1.27
223.717	1.92
224.188	6.22
224.659	4.92
225.13	3.17
225.601	2.52
226.072	0.42
226.543	5.27
227.014	5.57
227.485	7.32
227.956	8.47
228.427	12.62
228.898	6.87
229.369	8.97
229.839	7.17
230.31	12.62
230.781	7.12
231.252	10.52
231.722	8.37
232.193	8.42
232.664	10.37
233.135	6.67
233.605	14.17
234.076	18.37
234.546	14.27
235.017	9.97
235.487	11.12
235.958	14.32
236.428	17.87
236.899	12.37
237.369	19.17
237.84	16.82
238.31	17.67
238.78	13.07
239.251	15.37
239.721	13.17
240.191	15.22
240.662	14.97
241.132	15.27
241.602	16.62
242.072	15.62
242.542	14.62
243.013	19.37
243.483	22.42
243.953	15.37
244.423	22.67
244.893	20.37
245.363	22.17
245.833	22.27
246.303	20.07
246.773	26.57
247.243	21.22
247.712	21.82
248.182	26.37
248.652	21.32
249.122	22.52
249.592	24.62
250.061	23.62
250.531	24.12
251.001	26.62
251.471	29.97
251.94	31.47
252.41	27.02
252.879	28.77
253.349	31.12
253.818	26.72
254.288	33.52
254.757	28.37
255.227	34.02
255.696	34.82
256.166	36.12
256.635	39.82
257.105	34.22
257.574	31.47
258.043	33.92
258.513	37.37
258.982	34.17
259.451	39.72
259.92	33.77
260.389	35.77
260.859	40.22
261.328	42.37
261.797	42.32
262.266	41.67
262.735	45.87
263.204	35.87
263.673	43.02
264.142	39.62
264.611	38.12
265.08	41.57
265.549	41.77
266.018	44.12
266.487	46.57
266.955	46.27
267.424	48.77
267.893	49.02
268.362	47.72
268.83	45.17
269.299	47.32
269.768	47.07
270.236	51.57
270.705	55.97
271.174	50.52
271.642	48.82
272.111	52.92
272.579	53.12
273.048	55.72
273.516	55.92
273.985	59.47
274.453	53.57
274.922	55.42
275.39	54.97
275.858	61.27
276.327	54.22
276.795	57.67
277.263	62.02
277.731	58.97
278.2	65.72
278.668	64.82
279.136	69.12
279.604	67.82
280.072	61.77
280.54	63.32
281.008	74.67
281.477	69.72
281.945	72.47
282.413	66.67
282.881	72.47
283.348	71.12
283.816	68.67
284.284	75.17
284.752	72.32
285.22	75.47
285.688	70.57
286.156	73.82
286.623	76.57
287.091	73.12
287.559	77.67
288.026	76.52
288.494	76.97
288.962	81.57
289.429	78.42
289.897	81.07
290.364	77.42
290.832	85.17
291.3	85.02
291.767	85.82
292.234	86.87
292.702	85.07
293.169	86.47
293.637	86.97
294.104	88.82
294.571	88.82
295.039	90.82
295.506	89.02
295.973	87.52
296.44	92.17
296.908	92.52
297.375	93.07
297.842	95.77
298.309	93.17
298.776	95.47
299.243	101.37
299.71	99.57
300.177	101.67
300.644	100.22
301.111	104.77
301.578	102.42
302.045	105.62
302.512	107.37
302.979	108.97
303.446	108.12
303.913	105.97
304.379	115.42
304.846	117.57
305.313	121.32
305.78	121.02
306.246	121.22
306.713	123.72
307.18	126.52
307.646	124.37
308.113	125.37
308.579	128.12
309.046	131.42
309.512	128.72
309.979	135.42
310.445	131.12
310.912	133.52
311.378	139.77
311.845	140.32
312.311	137.42
312.777	141.47
313.244	145.97
313.71	144.92
314.176	146.97
314.642	147.92
315.109	140.52
315.575	142.27
316.041	145.12
316.507	147.62
316.973	149.02
317.439	152.02
317.905	153.57
318.371	152.72
318.837	153.52
319.303	152.87
319.769	155.22
320.235	168.82
320.701	166.32
321.167	162.72
321.633	163.32
322.099	163.72
322.564	167.07
323.03	162.82
323.496	165.92
323.962	169.37
324.427	173.67
324.893	170.92
325.359	178.82
325.824	177.82
326.29	179.77
326.755	177.87
327.221	183.37
327.686	187.77
328.152	186.82
328.617	192.82
329.083	189.22
329.548	196.67
330.014	196.82
330.479	197.77
330.944	197.02
331.41	206.37
331.875	197.37
332.34	199.12
332.805	205.32
333.271	203.17
333.736	207.17
334.201	207.67
334.666	216.97
335.131	223.62
335.596	219.77
336.061	213.42
336.526	214.92
336.991	206.37
337.456	211.17
337.921	210.07
338.386	210.32
338.851	212.32
339.316	214.52
339.781	211.72
340.246	215.32
340.711	219.27
341.175	217.17
341.64	233.67
342.105	229.42
342.569	241.77
343.034	234.77
343.499	235.92
343.963	249.92
344.428	245.32
344.893	244.02
345.357	255.57
345.822	249.77
346.286	259.77
346.751	261.17
347.215	267.97
347.679	278.77
348.144	289.12
348.608	287.57
349.073	284.52
349.537	291.82
350.001	291.62
350.465	296.32
350.93	295.72
351.394	300.92
351.858	298.22
352.322	311.57
352.786	304.77
353.25	304.42
353.715	314.52
354.179	325.27
354.643	332.72
355.107	340.67
355.571	332.97
356.035	337.62
356.498	331.72
356.962	328.22
357.426	330.12
357.89	329.77
358.354	325.27
358.818	322.47
359.281	323.17
359.745	331.92
360.209	323.17
360.673	329.92
361.136	328.77
361.6	337.17
362.064	341.32
362.527	344.37
362.991	341.92
363.454	339.72
363.918	347.07
364.381	347.62
364.845	351.12
365.308	351.62
365.772	355.27
366.235	355.07
366.698	358.22
367.162	352.62
367.625	359.22
368.088	367.82
368.552	365.62
369.015	365.02
369.478	368.32
369.941	376.27
370.404	378.37
370.867	372.12
371.331	376.92
371.794	382.32
372.257	387.57
372.72	382.92
373.183	386.32
373.646	396.42
374.109	385.12
374.572	393.27
375.035	396.02
375.497	407.22
375.96	413.97
376.423	411.97
376.886	416.02
377.349	425.27
377.811	428.77
378.274	423.62
378.737	422.57
379.199	429.32
379.662	429.42
380.125	441.12
380.587	441.07
381.05	450.52
381.512	448.77
381.975	455.72
382.437	471.97
382.9	467.97
383.362	475.52
383.825	477.67
384.287	476.32
384.75	476.92
385.212	477.67
385.674	484.57
386.136	487.97
386.599	488.32
387.061	485.32
387.523	487.12
387.985	485.17
388.447	496.07
388.91	502.37
389.372	504.22
389.834	503.07
390.296	492.92
390.758	501.77
391.22	499.82
391.682	503.22
392.144	506.37
392.606	514.62
393.068	519.82
393.529	550.02
393.991	557.42
394.453	531.27
394.915	523.07
395.377	505.27
395.838	519.37
396.3	522.87
396.762	523.47
397.224	527.87
397.685	515.27
398.147	524.92
398.608	536.87
399.07	535.27
399.531	537.97
399.993	552.77
400.454	560.02
400.916	550.52
401.377	570.02
401.839	573.97
402.3	573.47
402.762	606.97
403.223	644.57
403.684	639.92
404.145	617.97
404.607	607.22
405.068	593.87
405.529	601.12
405.99	613.52
406.451	621.12
406.913	612.52
407.374	618.12
407.835	616.17
408.296	633.57
408.757	635.27
409.218	651.92
409.679	656.57
410.14	666.07
410.601	672.42
411.062	677.27
411.522	676.57
411.983	682.67
412.444	694.57
412.905	699.72
413.366	721.72
413.826	763.87
414.287	856.02
414.748	1020.72
415.208	1038.52
415.669	866.32
416.13	790.92
416.59	776.12
417.051	797.57
417.511	836.92
417.972	906.97
418.432	958.47
418.893	1055.17
419.353	1016.72
419.814	792.27
420.274	703.77
420.734	700.57
421.195	722.02
421.655	718.87
422.115	735.12
422.576	729.57
423.036	738.17
423.496	760.17
423.956	794.17
424.416	831.92
424.876	939.72
425.336	939.52
425.797	914.37
426.257	908.77
426.717	866.42
427.177	802.97
427.637	806.72
428.097	837.97
428.556	877.32
429.016	934.57
429.476	939.57
429.936	927.12
430.396	922.17
430.856	940.67
431.315	956.32
431.775	1026.77
432.235	1100.02
432.694	1112.47
433.154	1060.82
433.614	1026.82
434.073	998.27
434.533	897.77
434.993	867.22
435.452	861.22
435.912	849.97
436.371	852.32
436.83	833.72
437.29	823.52
437.749	804.27
438.209	791.67
438.668	813.97
439.127	827.62
439.587	811.42
440.046	787.87
440.505	801.77
440.964	810.87
441.424	845.17
441.883	852.47
442.342	806.37
442.801	781.02
443.26	790.47
443.719	771.77
444.178	771.12
444.637	785.57
445.096	790.77
445.555	802.77
446.014	799.47
446.473	786.77
446.932	789.82
447.391	809.62
447.849	821.17
448.308	802.32
448.767	813.72
449.226	822.87
449.685	837.67
450.143	875.27
450.602	861.27
451.061	817.82
451.519	824.22
451.978	809.92
452.436	808.57
452.895	818.72
453.353	822.67
453.812	806.92
454.27	810.17
454.729	817.27
455.187	821.77
455.646	822.92
456.104	817.92
456.562	830.37
457.021	850.97
457.479	813.12
457.937	834.07
458.395	860.12
458.854	853.97
459.312	839.42
459.77	841.67
460.228	861.82
460.686	868.62
461.144	878.82
461.602	863.42
462.06	868.72
462.518	880.27
462.976	883.67
463.434	894.02
463.892	902.97
464.35	920.87
464.808	935.17
465.266	936.22
465.724	955.87
466.181	963.72
466.639	953.72
467.097	995.47
467.555	1028.52
468.012	1021.07
468.47	1025.72
468.928	1066.92
469.385	1086.62
469.843	1100.97
470.3	1092.67
470.758	1135.52
471.215	1139.22
471.673	1171.77
472.13	1207.27
472.588	1231.67
473.045	1224.27
473.503	1247.12
473.96	1299.42
474.417	1308.27
474.875	1371.72
475.332	1420.17
475.789	1449.67
476.246	1477.97
476.704	1550.52
477.161	1587.02
477.618	1629.77
478.075	1726.37
478.532	1845.42
478.989	1978.37
479.446	2170.37
479.903	2277.02
480.36	2477.07
480.817	2620.67
481.274	2779.62
481.731	3032.92
482.188	3243.47
482.645	3476.12
483.102	3655.22
483.558	3901.42
484.015	4060.27
484.472	4031.62
484.929	3911.37
485.385	3780.72
485.842	3688.07
486.299	3536.82
486.755	3256.82
487.212	2955.57
487.668	2666.57
488.125	2489.97
488.582	2306.17
489.038	2236.37
489.494	2177.37
489.951	2108.62
490.407	2059.52
490.864	2012.87
491.32	1978.37
491.776	1972.32
492.233	1973.22
492.689	1944.92
493.145	1898.62
493.602	1876.02
494.058	1902.67
494.514	1908.47
494.97	1900.72
495.426	1939.82
495.882	1919.52
496.338	1919.12
496.794	1944.82
497.251	1922.52
497.707	1950.02
498.163	1960.57
498.618	1961.07
499.074	1950.42
499.53	1975.27
499.986	1987.82
500.442	1974.62
500.898	1956.07
501.354	1974.87
501.809	1972.57
502.265	1977.32
502.721	1980.87
503.177	1985.97
503.632	1993.17
504.088	1995.37
504.543	2028.12
504.999	2043.22
505.455	2027.97
505.91	2025.12
506.366	2023.37
506.821	2025.47
507.277	2018.27
507.732	2024.47
508.187	2012.82
508.643	2034.12
509.098	2053.67
509.553	2074.07
510.009	2097.52
510.464	2132.27
510.919	2136.87
511.375	2173.82
511.83	2186.17
512.285	2228.37
512.74	2262.32
513.195	2299.12
513.65	2337.72
514.105	2373.57
514.56	2361.82
515.015	2411.42
515.47	2422.42
515.925	2403.37
516.38	2390.87
516.835	2402.92
517.29	2392.27
517.745	2382.57
518.2	2356.07
518.655	2305.17
519.109	2285.52
519.564	2244.62
520.019	2236.82
520.474	2216.37
520.928	2200.97
521.383	2183.47
521.838	2180.67
522.292	2157.12
522.747	2149.37
523.201	2145.77
523.656	2115.17
524.11	2103.17
524.565	2100.62
525.019	2103.32
525.474	2106.82
525.928	2090.97
526.382	2095.97
526.837	2089.77
527.291	2108.37
527.745	2088.57
528.2	2075.82
528.654	2053.22
529.108	2072.77
529.562	2071.67
530.016	2067.77
530.47	2071.62
530.925	2060.97
531.379	2067.12
531.833	2093.57
532.287	2082.57
532.741	2078.37
533.195	2077.27
533.649	2086.47
534.103	2090.57
534.556	2065.02
535.01	2088.47
535.464	2068.32
535.918	2064.77
536.372	2091.72
536.826	2075.97
537.279	2056.92
537.733	2065.07
538.187	2077.82
538.64	2070.17
539.094	2087.22
539.548	2117.02
540.001	2127.77
540.455	2127.02
540.908	2141.52
541.362	2152.72
541.815	2170.37
542.269	2201.52
542.722	2209.77
543.175	2234.37
543.629	2241.12
544.082	2259.37
544.536	2276.62
544.989	2285.52
545.442	2301.67
545.895	2304.82
546.349	2295.27
546.802	2312.77
547.255	2314.07
547.708	2324.27
548.161	2348.67
548.614	2355.32
549.067	2360.12
549.52	2340.57
549.973	2324.22
550.426	2296.72
550.879	2304.02
551.332	2298.87
551.785	2325.82
552.238	2341.42
552.691	2343.57
553.144	2366.12
553.596	2427.07
554.049	2450.02
554.502	2500.22
554.955	2524.67
555.407	2577.92
555.86	2538.22
556.313	2500.72
556.765	2473.17
557.218	2468.62
557.67	2454.37
558.123	2409.87
558.576	2390.77
559.028	2391.87
559.48	2428.57
559.933	2407.87
560.385	2342.77
560.838	2268.57
561.29	2208.27
561.742	2193.87
562.195	2139.97
562.647	2118.72
563.099	2109.12
563.551	2097.82
564.004	2117.02
564.456	2093.32
564.908	2061.52
565.36	2012.67
565.812	1967.22
566.264	1955.12
566.716	1927.77
567.168	1893.82
567.62	1902.87
568.072	1895.57
568.524	1878.87
568.976	1872.42
569.428	1846.87
569.88	1852.77
570.332	1866.77
570.784	1862.37
571.235	1864.27
571.687	1881.52
572.139	1879.12
572.59	1883.87
573.042	1906.12
573.494	1894.42
573.945	1877.67
574.397	1842.17
574.849	1834.52
575.3	1831.97
575.752	1807.27
576.203	1784.62
576.655	1802.47
577.106	1771.72
577.557	1765.92
578.009	1758.87
578.46	1762.57
578.912	1747.92
579.363	1762.62
579.814	1751.92
580.265	1757.72
580.717	1763.67
581.168	1753.07
581.619	1758.32
582.07	1782.47
582.521	1776.82
582.972	1758.12
583.423	1769.12
583.875	1776.47
584.326	1794.82
584.777	1827.07
585.227	1875.12
585.678	1893.32
586.129	1921.52
586.58	1935.32
587.031	1966.92
587.482	2004.17
587.933	2062.97
588.384	2043.82
588.834	2007.67
589.285	1980.77
589.736	1982.07
590.186	1981.57
590.637	1970.52
591.088	1916.02
591.538	1881.07
591.989	1851.32
592.439	1830.32
592.89	1811.42
593.34	1813.17
593.791	1794.32
594.241	1784.42
594.692	1773.82
595.142	1780.07
595.593	1783.97
596.043	1783.82
596.493	1800.17
596.943	1801.42
597.394	1844.67
597.844	1866.47
598.294	1906.17
598.744	1980.72
599.195	2069.67
599.645	2188.22
600.095	2301.82
600.545	2408.22
600.995	2520.22
601.445	2598.27
601.895	2718.22
602.345	2789.72
602.795	2763.82
603.245	2646.97
603.695	2497.87
604.145	2370.17
604.594	2258.02
605.044	2131.47
605.494	2012.92
605.944	1909.67
606.393	1867.32
606.843	1829.67
607.293	1820.32
607.743	1807.02
608.192	1815.27
608.642	1814.22
609.091	1812.77
609.541	1807.97
609.99	1818.32
610.44	1774.72
610.889	1754.87
611.339	1729.22
611.788	1708.52
612.238	1714.07
612.687	1719.57
613.136	1732.67
613.586	1765.12
614.035	1733.27
614.484	1758.67
614.933	1747.82
615.383	1716.72
615.832	1678.27
616.281	1662.97
616.73	1630.72
617.179	1586.97
617.628	1554.67
618.077	1534.52
618.526	1510.62
618.975	1506.97
619.424	1476.17
619.873	1487.77
620.322	1470.27
620.771	1464.62
621.22	1447.07
621.669	1411.37
622.118	1401.72
622.567	1377.67
623.015	1355.32
623.464	1358.22
623.913	1343.82
624.361	1349.82
624.81	1331.62
625.259	1341.82
625.707	1329.27
626.156	1341.17
626.604	1354.67
627.053	1378.27
627.501	1361.57
627.95	1376.22
628.398	1393.07
628.847	1376.02
629.295	1367.72
629.744	1358.32
630.192	1332.87
630.64	1309.02
631.089	1292.62
631.537	1265.97
631.985	1246.92
632.433	1248.42
632.881	1236.77
633.33	1250.02
633.778	1246.02
634.226	1253.02
634.674	1265.57
635.122	1276.32
635.57	1291.72
636.018	1324.07
636.466	1315.72
636.914	1306.02
637.362	1339.47
637.81	1360.27
638.258	1407.02
638.705	1416.17
639.153	1458.62
639.601	1478.32
640.049	1500.52
640.497	1541.07
640.944	1572.62
641.392	1519.37
641.84	1419.72
642.287	1359.02
642.735	1330.72
643.182	1334.22
643.63	1318.72
644.078	1322.12
644.525	1339.22
644.973	1373.62
645.42	1404.67
645.867	1434.37
646.315	1462.17
646.762	1515.62
647.21	1547.12
647.657	1630.12
648.104	1698.27
648.551	1738.27
648.999	1881.32
649.446	2051.52
649.893	2293.27
650.34	2687.62
650.787	3280.52
651.234	4218.22
651.682	5804.32
652.129	8172.57
652.576	11629.07
653.023	15139.37
653.47	15537.12
653.917	15537.17
654.363	15537.07
654.81	15534.07
655.257	15534.72
655.704	14700.37
656.151	8923.27
656.598	5880.97
657.044	4233.12
657.491	3340.47
657.938	2716.07
658.385	2289.52
658.831	2048.77
659.278	1839.47
659.724	1686.72
660.171	1569.37
660.618	1456.42
661.064	1391.87
661.511	1346.97
661.957	1304.37
662.404	1280.17
662.85	1261.77
663.296	1245.17
663.743	1212.87
664.189	1209.02
664.635	1189.42
665.082	1174.52
665.528	1157.52
665.974	1112.17
666.42	1100.47
666.867	1096.52
667.313	1045.07
667.759	1032.37
668.205	1027.57
668.651	1026.92
669.097	1030.12
669.543	1040.87
669.989	1040.17
670.435	1039.02
670.881	1054.52
671.327	1097.32
671.773	1173.27
672.219	1258.77
672.665	1344.52
673.11	1393.07
673.556	1400.57
674.002	1431.22
674.448	1435.97
674.893	1241.62
675.339	1080.92
675.785	995.87
676.23	948.17
676.676	911.12
677.122	881.87
677.567	859.47
678.013	833.07
678.458	823.87
678.904	821.02
679.349	812.62
679.794	811.47
680.24	809.72
680.685	800.32
681.131	813.22
681.576	809.02
682.021	811.17
682.466	813.37
682.912	830.17
683.357	870.92
683.802	945.82
684.247	1038.12
684.692	1093.92
685.137	1150.72
685.583	1161.92
686.028	1225.92
686.473	1166.97
686.918	1002.07
687.363	924.82
687.807	878.42
688.252	834.42
688.697	804.57
689.142	779.37
689.587	786.42
690.032	804.17
690.477	832.37
690.921	874.62
691.366	919.52
691.811	949.37
692.255	1029.62
692.7	1260.37
693.145	1818.62
693.589	2790.17
694.034	3326.02
694.478	3520.92
694.923	3216.42
695.367	4525.67
695.812	2781.32
696.256	1176.27
696.701	860.47
697.145	786.82
697.59	759.62
698.034	752.87
698.478	744.92
698.922	750.22
699.367	766.07
699.811	810.27
700.255	879.97
700.699	962.37
701.143	1049.62
701.588	1101.12
702.032	1147.12
702.476	1186.77
702.92	1261.57
703.364	1665.22
703.808	2562.32
704.252	3196.17
704.696	3329.47
705.14	3127.77
705.584	4279.87
706.027	2414.22
706.471	1206.37
706.915	900.92
707.359	794.52
707.803	745.42
708.246	720.52
708.69	724.92
709.134	705.22
709.577	706.67
710.021	707.47
710.465	705.12
710.908	703.92
711.352	732.17
711.795	806.77
712.239	873.52
712.682	887.07
713.126	870.37
713.569	960.52
714.012	801.52
714.456	693.37
714.899	662.92
715.342	628.42
715.786	603.37
716.229	589.67
716.672	577.32
717.115	577.17
717.558	577.52
718.002	605.87
718.445	624.62
718.888	658.12
719.331	666.47
719.774	682.87
720.217	670.12
720.66	632.72
721.103	599.87
721.546	568.72
721.989	558.07
722.432	547.17
722.874	536.67
723.317	546.62
723.76	601.42
724.203	737.87
724.645	995.27
725.088	1168.22
725.531	1142.07
725.974	1243.57
726.416	1115.82
726.859	696.47
727.301	571.37
727.744	545.62
728.187	541.72
728.629	548.22
729.071	579.02
729.514	608.22
729.956	633.47
730.399	647.47
730.841	654.52
731.283	634.27
731.726	621.22
732.168	625.67
732.61	659.17
733.053	708.37
733.495	782.42
733.937	871.27
734.379	1035.97
734.821	1312.12
735.263	2099.32
735.705	3765.72
736.148	5518.72
736.59	5506.72
737.032	5938.17
737.474	4911.17
737.916	1899.12
738.357	995.62
738.799	765.22
739.241	703.27
739.683	706.82
740.125	726.47
740.567	723.67
741.008	771.97
741.45	808.57
741.892	853.47
742.334	854.62
742.775	848.27
743.217	812.62
743.658	695.67
744.1	709.87
744.542	817.52
744.983	853.22
745.425	876.92
745.866	855.47
746.307	724.07
746.749	776.27
747.19	1140.12
747.632	2231.92
748.073	4114.87
748.514	5685.97
748.956	7487.87
749.397	8776.37
749.838	6067.22
750.279	5737.32
750.72	2990.67
751.162	1272.42
751.603	727.62
752.044	578.77
752.485	517.77
752.926	489.72
753.367	468.52
753.808	450.07
754.249	445.77
754.69	437.82
755.131	431.77
755.572	432.77
756.013	438.87
756.453	432.72
756.894	442.22
757.335	439.92
757.776	449.12
758.216	467.12
758.657	495.77
759.098	541.52
759.538	662.97
759.979	959.92
760.42	1944.57
760.86	5001.52
761.301	10285.17
761.741	12049.37
762.182	13661.12
762.622	8926.37
763.063	3209.32
763.503	1310.17
763.943	763.17
764.384	611.32
764.824	530.02
765.264	484.82
765.705	458.07
766.145	431.32
766.585	417.42
767.025	406.32
767.465	405.72
767.906	415.92
768.346	447.17
768.786	511.37
769.226	756.62
769.666	1526.62
770.106	3426.02
770.546	4849.32
770.986	5442.47
771.426	4130.92
771.866	1734.97
772.306	776.22
772.745	479.72
773.185	405.52
773.625	389.47
774.065	416.37
774.505	587.57
774.944	1036.22
775.384	1473.17
775.824	1639.52
776.263	1369.22
776.703	739.92
777.142	435.82
777.582	325.87
778.021	305.22
778.461	283.92
778.9	293.22
779.34	280.67
779.779	271.22
780.219	267.42
780.658	263.72
781.097	260.67
781.537	252.32
781.976	254.17
782.415	247.52
782.855	250.47
783.294	244.32
783.733	241.22
784.172	249.07
784.611	247.07
785.05	252.02
785.489	264.97
785.928	270.62
786.367	280.02
786.806	291.22
787.245	319.42
787.684	323.82
788.123	328.62
788.562	314.52
789.001	303.07
789.44	295.77
789.879	290.17
790.317	295.12
790.756	318.67
791.195	358.92
791.634	489.67
792.072	883.12
792.511	2158.77
792.95	3964.92
793.388	4764.12
793.827	3097.12
794.265	1424.82
794.704	684.47
795.142	422.27
795.581	346.57
796.019	318.42
796.458	315.72
796.896	325.47
797.334	374.07
797.773	500.37
798.211	962.87
798.649	1999.12
799.087	3342.37
799.526	4717.27
799.964	4848.37
800.402	3341.72
800.84	1517.17
801.278	746.02
801.716	448.17
802.154	366.57
802.592	342.67
803.03	343.87
803.468	351.42
803.906	354.87
804.344	348.12
804.782	337.72
805.22	338.12
805.658	353.12
806.096	373.97
806.533	423.57
806.971	538.72
807.409	788.37
807.847	1564.77
808.284	4021.82
808.722	6981.17
809.16	9774.17
809.597	13239.27
810.035	15530.37
810.472	10670.07
810.91	4559.17
811.347	2044.17
811.785	966.32
812.222	609.72
812.66	465.62
813.097	403.12
813.535	345.82
813.972	305.72
814.409	282.67
814.846	273.57
815.284	264.07
815.721	267.27
816.158	288.37
816.595	385.47
817.032	488.07
817.47	439.37
817.907	324.37
818.344	288.02
818.781	280.82
819.218	338.37
819.655	514.67
820.092	661.07
820.529	600.77
820.966	469.47
821.403	332.67
821.839	283.67
822.276	314.97
822.713	377.47
823.15	353.02
823.587	371.12
824.023	660.92
824.46	1634.82
824.897	2834.62
825.333	2214.87
825.77	1018.67
826.206	530.82
826.643	309.67
827.08	231.27
827.516	205.47
827.953	192.82
828.389	181.17
828.825	168.67
829.262	161.82
829.698	161.77
830.135	152.72
830.571	152.62
831.007	151.12
831.443	155.92
831.88	156.77
832.316	163.37
832.752	160.82
833.188	158.77
833.624	161.17
834.06	166.57
834.497	166.72
834.933	170.97
835.369	186.92
835.805	194.72
836.241	202.82
836.677	226.62
837.112	259.52
837.548	324.87
837.984	486.62
838.42	1030.62
838.856	2865.47
839.292	5641.22
839.727	4211.27
840.163	2845.52
840.599	4282.22
841.034	6538.72
841.47	3291.42
841.906	1595.87
842.341	849.37
842.777	619.12
843.212	612.87
843.648	391.22
844.083	265.37
844.519	206.57
844.954	178.87
845.39	158.22
845.825	152.32
846.261	149.97
846.696	137.82
847.131	133.92
847.566	135.22
848.002	137.22
848.437	149.42
848.872	153.42
849.307	196.47
849.742	355.72
850.177	929.37
850.613	1987.97
851.048	1428.02
851.483	656.67
851.918	365.17
852.353	203.22
852.788	142.07
853.223	131.62
853.657	120.77
854.092	113.27
854.527	119.12
854.962	125.52
855.397	132.57
855.832	115.87
856.266	99.07
856.701	100.22
857.136	105.92
857.57	128.62
858.005	156.72
858.44	136.12
858.874	131.52
859.309	124.97
859.743	127.02
860.178	126.17
860.612	131.57
861.047	172.02
861.481	245.07
861.915	169.32
862.35	132.97
862.784	105.77
863.218	100.52
863.653	108.77
864.087	128.12
864.521	162.17
864.955	270.32
865.39	464.87
865.824	351.62
866.258	446.07
866.692	665.57
867.126	482.42
867.56	262.37
867.994	168.37
868.428	145.52
868.862	174.47
869.296	161.32
869.73	195.12
870.164	169.77
870.598	152.92
871.031	110.12
871.465	97.37
871.899	82.72
872.333	74.57
872.766	77.52
873.2	74.37
873.634	71.52
874.067	75.32
874.501	70.87
874.935	74.82
875.368	76.87
875.802	72.92
876.235	68.42
876.669	66.52
877.102	62.22
877.535	59.07
877.969	61.27
878.402	62.47
878.836	59.02
879.269	58.67
879.702	56.27
880.135	57.87
880.569	58.92
881.002	48.82
881.435	54.82
881.868	53.42
882.301	49.62
882.734	51.77
883.167	57.97
883.601	54.32
884.034	53.52
884.467	44.57
884.899	51.57
885.332	43.67
885.765	46.57
886.198	48.52
886.631	48.12
887.064	48.62
887.497	47.02
887.929	52.52
888.362	47.32
888.795	46.47
889.228	49.12
889.66	47.72
890.093	44.07
890.526	48.52
890.958	45.02
891.391	49.77
891.823	39.97
892.256	44.02
892.688	43.37
893.121	38.17
893.553	47.17
893.985	36.77
894.418	39.22
894.85	44.87
895.282	44.82
895.715	40.47
896.147	34.97
896.579	39.57
897.011	46.12
897.444	47.17
897.876	33.97
898.308	40.12
898.74	38.27
899.172	43.52
899.604	45.42
900.036	43.02
900.468	37.52
900.9	46.57
901.332	55.67
901.764	56.02
902.196	56.52
902.628	52.82
903.06	81.52
903.491	88.07
903.923	73.07
904.355	70.82
904.787	72.37
905.218	60.27
905.65	60.62
906.082	49.22
906.513	42.97
906.945	46.97
907.376	50.72
907.808	49.17
908.239	55.12
908.671	63.52
909.102	69.27
909.534	96.67
909.965	183.97
910.397	461.32
910.828	1324.22
911.259	819.52
911.691	441.12
912.122	252.42
912.553	129.72
912.984	76.82
913.415	67.17
913.847	57.52
914.278	50.47
914.709	46.42
915.14	42.02
915.571	47.37
916.002	44.12
916.433	37.87
916.864	42.87
917.295	45.52
917.726	52.07
918.157	67.92
918.587	67.37
919.018	59.27
919.449	55.97
919.88	71.87
920.311	105.07
920.741	275.47
921.172	484.32
921.603	246.82
922.033	161.62
922.464	105.52
922.895	64.62
923.325	45.52
923.756	37.12
924.186	53.07
924.617	69.17
925.047	105.17
925.478	94.52
925.908	73.32
926.338	50.32
926.769	39.02
927.199	40.92
927.629	37.72
928.06	41.02
928.49	41.62
928.92	32.02
929.35	33.42
929.78	26.67
930.21	25.22
930.641	18.02
931.071	22.77
931.501	22.72
931.931	19.77
932.361	21.97
932.791	25.57
933.221	21.02
933.651	37.97
934.08	65.62
934.51	43.47
934.94	34.57
935.37	26.12
935.8	23.27
936.229	21.67
936.659	21.02
937.089	35.67
937.519	57.62
937.948	74.72
938.378	44.92
938.807	24.77
939.237	13.57
939.666	20.97
940.096	11.02
940.525	5.82
940.955	14.52
941.384	10.82
941.814	9.82
942.243	13.37
942.672	12.32
943.102	9.67
943.531	12.32
943.96	8.92
944.39	14.52
944.819	14.62
945.248	6.87
945.677	10.92
946.106	13.57
946.535	13.82
946.964	11.87
947.393	10.97
947.822	9.17
948.251	12.97
948.68	10.22
949.109	12.37
949.538	9.27
949.967	10.22
950.396	8.07
950.825	9.57
951.254	7.12
951.682	6.67
952.111	5.47
952.54	11.87
952.969	10.22
953.397	3.82
953.826	6.57
954.254	11.52
954.683	4.07
955.112	10.67
955.54	8.07
955.969	9.02
956.397	8.42
956.826	4.17
957.254	6.32
957.682	5.97
958.111	13.07
958.539	10.57
958.967	8.67
959.396	14.12
959.824	8.27
960.252	8.97
960.68	10.17
961.109	10.72
961.537	13.62
961.965	2.17
962.393	7.62
962.821	6.82
963.249	13.17
963.677	16.17
964.105	83.57
964.533	137.02
964.961	74.62
965.389	43.02
965.817	22.87
966.245	14.97
966.672	11.47
967.1	13.07
967.528	4.52
967.956	7.02
968.383	12.72
968.811	7.07
969.239	8.72
969.666	10.02
970.094	2.92
970.522	1.12
970.949	6.17
971.377	-1.73
971.804	2.17
972.232	1.37
972.659	5.47
973.087	4.82
973.514	0.97
973.941	-0.38
974.369	1.62
974.796	-1.13
975.223	2.92
975.651	8.37
976.078	7.07
976.505	13.32
976.932	36.32
977.359	40.07
977.786	24.02
978.214	21.67
978.641	8.77
979.068	5.67
979.495	6.12
979.922	4.57
980.349	10.87
980.776	7.12
981.202	5.77
981.629	10.97
982.056	9.32
982.483	-2.63
982.91	8.82
983.337	1.32
983.763	3.02
984.19	8.37
984.617	0.07
985.043	5.77
985.47	9.27
985.897	5.82
986.323	10.82
986.75	3.57
987.176	3.07
987.603	5.82
988.029	6.47
988.456	10.52
988.882	3.52
989.308	5.12
989.735	2.07
990.161	4.47
990.587	0.82
991.014	5.27
991.44	4.32
991.866	5.62
992.292	-0.33
992.719	-0.08
993.145	8.32
993.571	5.92
993.997	7.87
994.423	4.42
994.849	-1.88
995.275	3.92
995.701	7.72
996.127	-0.78
996.553	4.77
996.979	0.02
997.405	3.52
997.83	1.62
998.256	2.92
998.682	6.27
999.108	2.32
999.534	0.87
999.959	0.62
1000.385	8.72
1000.811	0.62
1001.236	4.37
1001.662	1.22
1002.087	8.92
1002.513	3.22
1002.938	1.82
1003.364	2.97
1003.789	3.32
1004.215	3.52
1004.64	0.67
1005.066	1.47
1005.491	4.37
1005.916	2.67
1006.342	3.92
1006.767	3.72
1007.192	6.92
1007.617	3.92
1008.042	2.52
1008.468	0.97
1008.893	7.37
1009.318	8.47
1009.743	18.62
1010.168	29.52
1010.593	23.62
1011.018	17.32
1011.443	7.42
1011.868	10.32
1012.293	5.97
1012.718	0.52
1013.143	2.77
1013.567	4.77
1013.992	2.02
1014.417	3.67
1014.842	-0.13
1015.267	0.27
1015.691	4.07
1016.116	5.32
1016.541	5.57
1016.965	3.97
1017.39	5.67
1017.814	-2.53
1018.239	0.32
1018.663	-1.83
1019.088	-2.13
1019.512	5.72
1019.937	-1.63
1020.361	-0.53
1020.785	-2.88
1021.21	-3.58
1021.634	1.27
1022.058	-1.13
1022.483	0.37
1022.907	0.32
1023.331	-2.28
1023.755	-2.48
1024.179	1.57
1024.604	2.52
1025.028	1.72
1025.452	-0.08
1025.876	0.67
1026.3	3.97
1026.724	-3.63
1027.148	2.32
1027.572	2.92
1027.996	-0.98
1028.42	1.17
1028.843	-0.13
1029.267	1.32
1029.691	3.62
1030.115	3.07
1030.539	0.52
1030.962	-2.28
1031.386	-1.73
1031.81	-3.38
1032.233	-2.78
1032.657	-7.23
1033.08	1.12
1033.504	1.42
1033.927	-2.88
1034.351	-1.18
1034.774	-2.68
1035.198	-1.28
1035.621	-4.23
1036.045	-1.78
1036.468	2.77
1036.891	-1.93
1037.315	5.62
1037.738	3.52
1038.161	1.62
1038.584	-1.78
1039.008	-4.58
1039.431	-1.18
1039.854	-2.48
1040.277	0.82
1040.7	-1.43
1041.123	-2.93
1041.546	-0.63
1041.969	0.52
1042.392	0.22
1042.815	-5.28
1043.238	-5.53
1043.661	-0.53
1044.084	-1.23
1044.507	-0.08
1044.93	-2.38
1045.352	-1.38
1045.775	4.52
1046.198	2.42
1046.621	2.82
1047.043	-1.78
1047.466	2.77
1047.889	-0.88
1048.311	7.57
1048.734	-2.28
1049.156	-0.88
1049.579	1.07
1050.001	-1.48
1050.424	2.32
1050.846	-0.58
1051.269	-2.33
1051.691	-6.48
1052.113	-1.53
1052.536	-3.03
1052.958	-2.58
1053.38	0.87
1053.802	1.52
1054.225	1.67
1054.647	3.47
1055.069	-1.83
1055.491	4.22
1055.913	2.77
1056.335	-8.23
1056.757	-3.73
1057.179	-1.48
1057.601	-3.43
1058.023	-0.18
1058.445	-3.83
1058.867	0.72
1059.289	-2.33
1059.711	-1.88
1060.133	-0.68
1060.555	-2.28
1060.976	0.07
1061.398	-2.93
1061.82	-3.48
1062.241	-2.23
1062.663	-3.73
1063.085	-4.08
1063.506	-4.28
1063.928	-3.38
1064.35	-0.28
1064.771	-2.08
1065.193	-4.23
1065.614	-3.03
1066.035	2.97
1066.457	0.02
1066.878	0.82
1067.3	-1.43
1067.721	4.87
1068.142	3.67
1068.564	0.82
1068.985	-2.03
1069.406	-3.23
1069.827	-0.08
1070.248	-0.93
1070.67	-2.23
1071.091	-6.03
1071.512	-3.28
1071.933	-5.08
1072.354	-6.33
1072.775	-2.13
1073.196	1.32
1073.617	-4.08
1074.038	-2.78
1074.459	-6.58
1074.88	-5.43
1075.3	-1.08
1075.721	2.02
1076.142	-0.93
1076.563	-6.93
1076.983	0.62
1077.404	-5.33
1077.825	-2.03
1078.246	-5.83
1078.666	-6.98
1079.087	1.37
1079.507	-4.48
1079.928	1.12
1080.348	-4.78
1080.769	2.02
1081.189	-3.03
1081.61	-7.78
1082.03	-1.08
1082.451	0.12
1082.871	-6.78
1083.291	1.27
1083.711	0.37
1084.132	-2.18
1084.552	-2.43
1084.972	-7.58
1085.392	-0.98
1085.813	-2.03
1086.233	-4.33
1086.653	2.22
1087.073	-4.58
1087.493	-2.93
1087.913	-6.18
1088.333	4.17
1088.753	-0.23
1089.173	1.67
1089.593	-2.93
1090.013	-3.38
1090.433	-7.08
1090.852	2.67
1091.272	-5.48
1091.692	-0.28
1092.112	-1.03
1092.531	-6.58
1092.951	-1.33
1093.371	-4.23
1093.79	-8.48
1094.21	-2.83
1094.63	-3.48
1095.049	-0.98
1095.469	-3.98
1095.888	0.77
1096.308	-0.18
1096.727	0.02
1097.146	-4.53
1097.566	-1.43
1097.985	-5.28
1098.405	2.47
1098.824	0.57
1099.243	-3.33
1099.662	1.12
1100.082	-3.03
1100.501	-0.43
1100.92	0.57
1101.339	1.62
1101.758	0.27
