Data from MSPlasma+Separation6_Subt14_10-13-50-649.txt Node
Date: Fri Jul 21 10:13:50 EDT 2017
User: Ender
Spectrometer: HR+D1039
Trigger mode: 0
Integration Time (sec): 6.430000E-3
Scans to average: 20
Electric dark correction enabled: true
Nonlinearity correction enabled: false
Boxcar width: 0
XAxis mode: Wavelengths
Number of Pixels in Spectrum: 2048
>>>>>Begin Spectral Data<<<<<
187.836	5.73
188.309	5.73
188.782	5.73
189.255	3.13
189.728	0.88
190.201	-2.02
190.674	-0.52
191.147	-3.42
191.619	-0.02
192.092	-2.72
192.565	-1.62
193.038	3.88
193.511	-2.97
193.984	-0.52
194.456	-0.87
194.929	1.98
195.402	-1.97
195.874	1.08
196.347	6.03
196.82	1.18
197.292	-0.97
197.765	-0.12
198.237	-4.17
198.71	-1.82
199.182	0.63
199.655	2.23
200.127	3.53
200.6	1.18
201.072	0.83
201.544	1.93
202.017	0.68
202.489	3.98
202.961	0.98
203.433	-1.97
203.906	0.83
204.378	-0.57
204.85	-2.17
205.322	-5.52
205.794	4.23
206.266	-2.22
206.739	3.98
207.211	0.58
207.683	0.73
208.155	3.73
208.627	0.83
209.099	3.33
209.57	2.13
210.042	4.33
210.514	1.88
210.986	-2.17
211.458	1.43
211.93	2.33
212.402	4.53
212.873	-1.22
213.345	1.88
213.817	4.38
214.288	-2.27
214.76	3.48
215.232	0.43
215.703	1.58
216.175	3.53
216.646	9.38
217.118	4.73
217.589	-1.17
218.061	2.53
218.532	-1.37
219.004	8.33
219.475	0.43
219.946	5.28
220.418	10.53
220.889	7.18
221.36	5.68
221.832	8.93
222.303	4.78
222.774	9.88
223.245	1.68
223.717	2.78
224.188	4.93
224.659	2.68
225.13	3.73
225.601	2.88
226.072	4.08
226.543	9.88
227.014	6.78
227.485	8.98
227.956	13.18
228.427	10.73
228.898	6.38
229.369	11.73
229.839	6.63
230.31	7.18
230.781	10.38
231.252	16.88
231.722	10.13
232.193	10.28
232.664	9.48
233.135	11.63
233.605	9.73
234.076	14.03
234.546	13.58
235.017	15.43
235.487	12.63
235.958	13.63
236.428	15.08
236.899	10.43
237.369	19.73
237.84	18.38
238.31	16.68
238.78	12.38
239.251	13.83
239.721	11.98
240.191	13.83
240.662	20.53
241.132	15.63
241.602	18.58
242.072	15.58
242.542	17.53
243.013	19.83
243.483	24.18
243.953	16.53
244.423	19.33
244.893	19.38
245.363	23.03
245.833	21.78
246.303	24.33
246.773	22.43
247.243	23.43
247.712	22.23
248.182	25.18
248.652	22.93
249.122	26.78
249.592	26.23
250.061	25.93
250.531	26.28
251.001	24.03
251.471	24.83
251.94	27.03
252.41	31.08
252.879	32.13
253.349	37.28
253.818	27.28
254.288	38.38
254.757	31.88
255.227	32.38
255.696	33.98
256.166	35.08
256.635	38.83
257.105	36.28
257.574	38.13
258.043	35.93
258.513	36.03
258.982	33.53
259.451	44.28
259.92	34.98
260.389	38.13
260.859	38.88
261.328	42.68
261.797	38.38
262.266	46.23
262.735	48.03
263.204	36.28
263.673	47.83
264.142	37.93
264.611	48.58
265.08	43.33
265.549	39.48
266.018	44.28
266.487	49.53
266.955	46.03
267.424	50.58
267.893	49.93
268.362	52.28
268.83	49.08
269.299	52.73
269.768	52.58
270.236	52.93
270.705	56.28
271.174	54.83
271.642	56.48
272.111	52.53
272.579	55.03
273.048	53.58
273.516	61.83
273.985	58.38
274.453	58.58
274.922	53.53
275.39	52.63
275.858	64.58
276.327	57.03
276.795	62.03
277.263	63.08
277.731	60.43
278.2	63.73
278.668	64.43
279.136	70.23
279.604	68.23
280.072	65.93
280.54	66.53
281.008	72.88
281.477	74.08
281.945	66.38
282.413	73.43
282.881	70.78
283.348	71.73
283.816	74.18
284.284	78.28
284.752	77.23
285.22	83.63
285.688	77.18
286.156	77.98
286.623	82.73
287.091	78.83
287.559	81.43
288.026	84.03
288.494	81.43
288.962	83.43
289.429	84.18
289.897	85.03
290.364	84.13
290.832	88.93
291.3	88.43
291.767	83.13
292.234	93.03
292.702	93.68
293.169	91.18
293.637	87.23
294.104	93.08
294.571	93.83
295.039	91.83
295.506	90.88
295.973	92.73
296.44	89.88
296.908	98.88
297.375	100.08
297.842	100.83
298.309	95.08
298.776	100.18
299.243	99.73
299.71	106.88
300.177	103.98
300.644	103.83
301.111	103.83
301.578	106.83
302.045	109.63
302.512	107.38
302.979	112.73
303.446	112.03
303.913	115.23
304.379	120.28
304.846	117.73
305.313	126.78
305.78	127.03
306.246	125.93
306.713	124.73
307.18	130.08
307.646	130.58
308.113	127.48
308.579	138.48
309.046	135.83
309.512	141.88
309.979	140.53
310.445	139.73
310.912	139.73
311.378	146.08
311.845	144.88
312.311	138.78
312.777	145.28
313.244	148.93
313.71	145.43
314.176	151.78
314.642	151.63
315.109	154.23
315.575	148.48
316.041	150.58
316.507	151.08
316.973	161.58
317.439	163.53
317.905	162.38
318.371	160.98
318.837	162.38
319.303	161.53
319.769	158.68
320.235	164.83
320.701	166.38
321.167	162.23
321.633	167.28
322.099	167.13
322.564	169.33
323.03	173.83
323.496	173.03
323.962	178.28
324.427	184.73
324.893	177.38
325.359	185.68
325.824	185.83
326.29	189.18
326.755	185.53
327.221	183.38
327.686	196.98
328.152	196.88
328.617	201.18
329.083	205.98
329.548	208.88
330.014	203.23
330.479	207.68
330.944	202.08
331.41	209.63
331.875	200.73
332.34	203.58
332.805	212.58
333.271	213.78
333.736	215.33
334.201	206.48
334.666	226.83
335.131	231.23
335.596	229.48
336.061	224.08
336.526	223.43
336.991	220.13
337.456	220.78
337.921	218.13
338.386	214.43
338.851	220.63
339.316	217.43
339.781	213.63
340.246	222.08
340.711	217.53
341.175	228.53
341.64	237.18
342.105	233.98
342.569	247.88
343.034	241.18
343.499	243.98
343.963	249.48
344.428	249.83
344.893	257.68
345.357	263.98
345.822	261.63
346.286	266.83
346.751	272.18
347.215	273.38
347.679	282.18
348.144	296.63
348.608	295.78
349.073	296.98
349.537	310.88
350.001	304.58
350.465	300.68
350.93	299.53
351.394	310.78
351.858	308.68
352.322	321.23
352.786	315.83
353.25	315.03
353.715	321.43
354.179	335.43
354.643	341.03
355.107	348.98
355.571	341.33
356.035	332.08
356.498	341.58
356.962	335.93
357.426	338.98
357.89	342.13
358.354	335.38
358.818	324.83
359.281	330.73
359.745	334.63
360.209	338.68
360.673	335.68
361.136	339.58
361.6	344.53
362.064	349.83
362.527	356.78
362.991	356.58
363.454	348.83
363.918	368.23
364.381	361.13
364.845	357.83
365.308	360.63
365.772	370.93
366.235	366.93
366.698	361.33
367.162	367.08
367.625	368.88
368.088	379.63
368.552	366.88
369.015	372.78
369.478	381.63
369.941	386.08
370.404	388.73
370.867	375.13
371.331	384.68
371.794	391.23
372.257	401.38
372.72	391.93
373.183	405.78
373.646	399.53
374.109	395.38
374.572	398.28
375.035	408.78
375.497	412.88
375.96	416.48
376.423	421.33
376.886	430.78
377.349	433.58
377.811	430.73
378.274	435.43
378.737	429.58
379.199	438.58
379.662	443.28
380.125	446.58
380.587	454.68
381.05	456.78
381.512	466.93
381.975	471.38
382.437	481.33
382.9	474.78
383.362	485.23
383.825	487.18
384.287	492.93
384.75	484.63
385.212	486.23
385.674	496.23
386.136	505.33
386.599	495.88
387.061	491.98
387.523	495.33
387.985	496.48
388.447	507.98
388.91	508.98
389.372	509.53
389.834	511.38
390.296	504.78
390.758	512.38
391.22	510.23
391.682	512.23
392.144	514.18
392.606	517.03
393.068	530.58
393.529	559.38
393.991	563.83
394.453	540.83
394.915	529.03
395.377	515.13
395.838	529.53
396.3	524.53
396.762	530.88
397.224	530.93
397.685	531.98
398.147	535.78
398.608	543.28
399.07	547.98
399.531	543.83
399.993	563.28
400.454	569.58
400.916	573.83
401.377	584.23
401.839	577.43
402.3	585.23
402.762	607.73
403.223	650.68
403.684	651.38
404.145	628.83
404.607	615.33
405.068	602.98
405.529	620.73
405.99	632.93
406.451	637.03
406.913	622.28
407.374	630.38
407.835	622.68
408.296	641.93
408.757	641.03
409.218	658.13
409.679	668.83
410.14	671.93
410.601	688.53
411.062	692.83
411.522	695.83
411.983	694.43
412.444	697.38
412.905	711.93
413.366	740.63
413.826	766.63
414.287	869.33
414.748	1017.13
415.208	1051.33
415.669	888.33
416.13	800.33
416.59	782.18
417.051	821.18
417.511	849.43
417.972	904.38
418.432	974.18
418.893	1074.13
419.353	1038.18
419.814	799.03
420.274	716.43
420.734	709.03
421.195	726.83
421.655	728.73
422.115	740.18
422.576	739.53
423.036	738.23
423.496	771.88
423.956	806.88
424.416	844.83
424.876	946.78
425.336	958.48
425.797	935.28
426.257	927.33
426.717	876.18
427.177	812.73
427.637	821.08
428.097	848.53
428.556	885.03
429.016	947.98
429.476	943.33
429.936	922.93
430.396	927.13
430.856	950.33
431.315	972.23
431.775	1041.78
432.235	1116.98
432.694	1129.88
433.154	1069.43
433.614	1046.43
434.073	1016.28
434.533	916.93
434.993	876.93
435.452	882.73
435.912	873.43
436.371	864.68
436.83	856.38
437.29	833.03
437.749	811.93
438.209	810.68
438.668	819.18
439.127	837.53
439.587	818.23
440.046	802.28
440.505	819.03
440.964	818.53
441.424	859.98
441.883	871.93
442.342	827.23
442.801	785.93
443.26	790.83
443.719	780.38
444.178	782.73
444.637	798.23
445.096	802.18
445.555	817.63
446.014	804.38
446.473	798.83
446.932	804.08
447.391	817.38
447.849	826.83
448.308	810.93
448.767	813.58
449.226	836.58
449.685	850.63
450.143	875.78
450.602	875.78
451.061	826.33
451.519	829.73
451.978	820.13
452.436	815.88
452.895	828.98
453.353	829.63
453.812	820.23
454.27	817.93
454.729	817.83
455.187	828.43
455.646	831.93
456.104	835.08
456.562	842.13
457.021	856.03
457.479	826.68
457.937	853.13
458.395	871.53
458.854	861.43
459.312	853.63
459.77	864.28
460.228	866.88
460.686	884.83
461.144	884.03
461.602	867.13
462.06	878.13
462.518	901.43
462.976	895.73
463.434	903.28
463.892	915.78
464.35	935.88
464.808	951.23
465.266	951.28
465.724	959.78
466.181	965.43
466.639	972.38
467.097	1003.18
467.555	1038.08
468.012	1033.93
468.47	1041.78
468.928	1075.63
469.385	1101.28
469.843	1120.43
470.3	1107.38
470.758	1145.93
471.215	1152.58
471.673	1184.73
472.13	1217.68
472.588	1242.78
473.045	1236.38
473.503	1255.63
473.96	1306.43
474.417	1326.13
474.875	1372.03
475.332	1435.13
475.789	1459.63
476.246	1497.73
476.704	1553.83
477.161	1603.03
477.618	1639.78
478.075	1729.73
478.532	1852.33
478.989	1974.18
479.446	2189.48
479.903	2292.23
480.36	2474.83
480.817	2619.08
481.274	2785.98
481.731	3023.78
482.188	3236.13
482.645	3476.43
483.102	3653.58
483.558	3905.93
484.015	4070.93
484.472	4045.53
484.929	3931.83
485.385	3777.83
485.842	3712.98
486.299	3571.98
486.755	3298.48
487.212	2982.23
487.668	2695.78
488.125	2506.08
488.582	2339.83
489.038	2248.63
489.494	2201.58
489.951	2119.68
490.407	2072.38
490.864	2032.53
491.32	1985.18
491.776	1978.43
492.233	1995.03
492.689	1958.78
493.145	1925.28
493.602	1900.48
494.058	1915.83
494.514	1913.98
494.97	1919.68
495.426	1945.98
495.882	1939.18
496.338	1934.78
496.794	1966.23
497.251	1952.03
497.707	1979.38
498.163	1980.48
498.618	1978.48
499.074	1961.33
499.53	1994.78
499.986	1999.93
500.442	1989.68
500.898	1968.18
501.354	1986.93
501.809	1992.78
502.265	1993.78
502.721	1996.83
503.177	2002.83
503.632	2020.18
504.088	2022.13
504.543	2052.23
504.999	2064.83
505.455	2055.08
505.91	2041.03
506.366	2040.73
506.821	2044.63
507.277	2036.98
507.732	2044.18
508.187	2047.53
508.643	2060.63
509.098	2060.83
509.553	2078.68
510.009	2098.28
510.464	2149.58
510.919	2156.28
511.375	2184.88
511.83	2200.43
512.285	2238.73
512.74	2286.78
513.195	2320.53
513.65	2350.08
514.105	2373.13
514.56	2383.93
515.015	2434.68
515.47	2434.53
515.925	2392.38
516.38	2419.88
516.835	2411.33
517.29	2418.48
517.745	2415.33
518.2	2379.83
518.655	2327.28
519.109	2306.83
519.564	2262.38
520.019	2244.23
520.474	2229.38
520.928	2217.98
521.383	2198.83
521.838	2194.88
522.292	2177.73
522.747	2168.08
523.201	2157.63
523.656	2119.53
524.11	2128.93
524.565	2117.93
525.019	2127.13
525.474	2115.23
525.928	2107.33
526.382	2116.23
526.837	2113.58
527.291	2125.43
527.745	2094.13
528.2	2099.03
528.654	2085.68
529.108	2079.48
529.562	2096.48
530.016	2085.83
530.47	2097.78
530.925	2087.08
531.379	2087.78
531.833	2105.83
532.287	2100.03
532.741	2094.53
533.195	2091.53
533.649	2101.68
534.103	2102.73
534.556	2087.03
535.01	2104.53
535.464	2082.48
535.918	2085.08
536.372	2106.53
536.826	2109.03
537.279	2080.78
537.733	2077.83
538.187	2098.83
538.64	2087.68
539.094	2108.53
539.548	2134.98
540.001	2132.83
540.455	2139.48
540.908	2148.28
541.362	2178.78
541.815	2192.73
542.269	2220.88
542.722	2224.08
543.175	2250.18
543.629	2261.48
544.082	2269.28
544.536	2304.38
544.989	2303.28
545.442	2317.78
545.895	2323.58
546.349	2312.08
546.802	2315.88
547.255	2316.73
547.708	2324.53
548.161	2362.93
548.614	2362.13
549.067	2370.03
549.52	2348.88
549.973	2326.18
550.426	2321.03
550.879	2313.83
551.332	2317.73
551.785	2323.38
552.238	2347.33
552.691	2362.78
553.144	2390.78
553.596	2422.03
554.049	2445.18
554.502	2506.93
554.955	2534.33
555.407	2571.53
555.86	2546.13
556.313	2519.38
556.765	2499.08
557.218	2476.13
557.67	2467.43
558.123	2438.48
558.576	2404.08
559.028	2416.48
559.48	2443.88
559.933	2425.68
560.385	2351.58
560.838	2276.28
561.29	2218.58
561.742	2209.43
562.195	2149.13
562.647	2141.28
563.099	2132.33
563.551	2119.13
564.004	2127.23
564.456	2112.18
564.908	2071.08
565.36	2034.18
565.812	1984.93
566.264	1967.38
566.716	1940.23
567.168	1912.43
567.62	1920.73
568.072	1901.03
568.524	1895.48
568.976	1879.98
569.428	1859.58
569.88	1874.08
570.332	1880.03
570.784	1883.63
571.235	1856.03
571.687	1893.53
572.139	1889.08
572.59	1910.18
573.042	1921.93
573.494	1913.53
573.945	1882.58
574.397	1841.03
574.849	1837.08
575.3	1846.18
575.752	1815.93
576.203	1811.63
576.655	1821.93
577.106	1786.18
577.557	1771.23
578.009	1771.33
578.46	1771.68
578.912	1754.98
579.363	1770.93
579.814	1771.43
580.265	1756.98
580.717	1769.93
581.168	1770.93
581.619	1773.98
582.07	1796.58
582.521	1776.88
582.972	1780.23
583.423	1776.38
583.875	1782.68
584.326	1792.58
584.777	1826.48
585.227	1865.58
585.678	1885.98
586.129	1897.03
586.58	1919.18
587.031	1951.23
587.482	1988.98
587.933	2021.68
588.384	2011.38
588.834	1987.63
589.285	1986.53
589.736	1987.98
590.186	1985.48
590.637	1969.93
591.088	1932.33
591.538	1883.78
591.989	1866.23
592.439	1846.68
592.89	1824.03
593.34	1816.63
593.791	1810.93
594.241	1798.58
594.692	1783.88
595.142	1792.08
595.593	1783.48
596.043	1808.13
596.493	1808.28
596.943	1802.58
597.394	1858.13
597.844	1878.18
598.294	1926.28
598.744	1993.13
599.195	2072.63
599.645	2192.68
600.095	2295.43
600.545	2394.43
600.995	2507.43
601.445	2584.13
601.895	2712.38
602.345	2786.28
602.795	2763.33
603.245	2657.53
603.695	2508.73
604.145	2385.43
604.594	2264.63
605.044	2153.58
605.494	2016.78
605.944	1914.33
606.393	1864.58
606.843	1830.58
607.293	1837.68
607.743	1816.38
608.192	1827.53
608.642	1821.13
609.091	1824.73
609.541	1821.33
609.99	1819.88
610.44	1789.83
610.889	1767.23
611.339	1747.18
611.788	1720.48
612.238	1730.88
612.687	1730.18
613.136	1746.83
613.586	1764.28
614.035	1760.23
614.484	1773.58
614.933	1771.23
615.383	1733.98
615.832	1688.73
616.281	1675.68
616.73	1636.03
617.179	1596.78
617.628	1566.23
618.077	1537.93
618.526	1518.53
618.975	1515.63
619.424	1487.38
619.873	1497.28
620.322	1469.38
620.771	1468.38
621.22	1445.88
621.669	1423.43
622.118	1411.98
622.567	1393.58
623.015	1371.03
623.464	1379.98
623.913	1349.48
624.361	1352.38
624.81	1344.68
625.259	1355.38
625.707	1338.78
626.156	1349.98
626.604	1367.83
627.053	1371.18
627.501	1375.38
627.95	1387.28
628.398	1402.83
628.847	1378.13
629.295	1369.43
629.744	1364.18
630.192	1332.78
630.64	1324.38
631.089	1293.33
631.537	1269.48
631.985	1259.53
632.433	1257.53
632.881	1237.93
633.33	1252.93
633.778	1251.88
634.226	1257.68
634.674	1270.78
635.122	1277.98
635.57	1294.28
636.018	1319.13
636.466	1314.28
636.914	1319.58
637.362	1345.13
637.81	1367.48
638.258	1402.38
638.705	1417.93
639.153	1459.58
639.601	1475.43
640.049	1501.53
640.497	1542.08
640.944	1588.78
641.392	1522.33
641.84	1444.43
642.287	1371.78
642.735	1347.63
643.182	1322.28
643.63	1339.93
644.078	1347.88
644.525	1364.98
644.973	1391.03
645.42	1424.28
645.867	1458.03
646.315	1480.83
646.762	1544.58
647.21	1583.28
647.657	1661.68
648.104	1711.28
648.551	1752.28
648.999	1883.08
649.446	2057.28
649.893	2303.53
650.34	2668.78
650.787	3254.78
651.234	4193.78
651.682	5722.18
652.129	8052.18
652.576	11395.08
653.023	14892.63
653.47	15534.63
653.917	15534.68
654.363	15534.58
654.81	15531.58
655.257	15532.23
655.704	14690.13
656.151	8943.53
656.598	5921.33
657.044	4240.63
657.491	3334.88
657.938	2737.38
658.385	2315.73
658.831	2055.13
659.278	1847.18
659.724	1708.18
660.171	1585.93
660.618	1468.23
661.064	1401.28
661.511	1358.98
661.957	1310.63
662.404	1277.83
662.85	1267.13
663.296	1261.83
663.743	1222.28
664.189	1213.58
664.635	1204.33
665.082	1175.88
665.528	1166.98
665.974	1130.83
666.42	1106.18
666.867	1092.58
667.313	1055.38
667.759	1043.68
668.205	1034.08
668.651	1036.68
669.097	1033.43
669.543	1035.43
669.989	1042.03
670.435	1052.88
670.881	1063.73
671.327	1104.58
671.773	1185.83
672.219	1265.58
672.665	1343.93
673.11	1376.78
673.556	1402.63
674.002	1433.28
674.448	1446.73
674.893	1253.08
675.339	1086.73
675.785	1002.38
676.23	946.38
676.676	918.08
677.122	894.98
677.567	863.78
678.013	842.78
678.458	834.33
678.904	831.48
679.349	823.58
679.794	820.78
680.24	813.98
680.685	811.43
681.131	813.23
681.576	810.43
682.021	814.78
682.466	827.43
682.912	828.53
683.357	879.08
683.802	943.83
684.247	1027.78
684.692	1100.18
685.137	1147.18
685.583	1165.83
686.028	1228.73
686.473	1170.43
686.918	1011.38
687.363	922.08
687.807	877.53
688.252	837.58
688.697	805.78
689.142	793.13
689.587	790.53
690.032	798.28
690.477	835.38
690.921	873.23
691.366	928.43
691.811	954.88
692.255	1033.33
692.7	1247.68
693.145	1801.93
693.589	2729.48
694.034	3270.93
694.478	3486.93
694.923	3194.88
695.367	4525.03
695.812	2774.18
696.256	1182.68
696.701	860.88
697.145	795.93
697.59	764.98
698.034	758.28
698.478	761.18
698.922	758.23
699.367	776.53
699.811	814.58
700.255	878.48
700.699	955.73
701.143	1042.33
701.588	1098.08
702.032	1143.48
702.476	1187.88
702.92	1256.98
703.364	1649.83
703.808	2507.53
704.252	3126.13
704.696	3304.23
705.14	3137.08
705.584	4290.38
706.027	2406.98
706.471	1211.88
706.915	906.68
707.359	810.78
707.803	751.73
708.246	723.13
708.69	719.98
709.134	709.98
709.577	708.23
710.021	719.88
710.465	714.28
710.908	709.23
711.352	738.83
711.795	810.73
712.239	875.83
712.682	893.08
713.126	882.03
713.569	977.18
714.012	799.43
714.456	699.78
714.899	660.98
715.342	631.18
715.786	607.88
716.229	597.93
716.672	580.58
717.115	582.63
717.558	587.33
718.002	594.73
718.445	630.18
718.888	657.83
719.331	672.23
719.774	678.33
720.217	671.23
720.66	637.58
721.103	615.43
721.546	574.28
721.989	560.98
722.432	552.68
722.874	547.28
723.317	553.38
723.76	610.33
724.203	744.03
724.645	984.88
725.088	1161.58
725.531	1144.53
725.974	1255.43
726.416	1122.68
726.859	694.78
727.301	574.63
727.744	541.78
728.187	539.63
728.629	559.48
729.071	586.33
729.514	611.03
729.956	632.53
730.399	647.73
730.841	644.98
731.283	640.08
731.726	624.68
732.168	627.78
732.61	656.68
733.053	706.88
733.495	782.13
733.937	871.88
734.379	1017.83
734.821	1312.43
735.263	2046.93
735.705	3686.08
736.148	5425.58
736.59	5484.68
737.032	5966.98
737.474	4937.23
737.916	1884.98
738.357	990.78
738.799	765.93
739.241	712.53
739.683	718.58
740.125	738.58
740.567	747.18
741.008	787.93
741.45	831.23
741.892	874.28
742.334	879.93
742.775	875.58
743.217	846.63
743.658	709.08
744.1	736.33
744.542	849.93
744.983	882.03
745.425	923.23
745.866	894.38
746.307	738.78
746.749	774.78
747.19	1121.23
747.632	2166.98
748.073	4033.08
748.514	5598.13
748.956	7407.33
749.397	8719.23
749.838	6057.13
750.279	5753.48
750.72	2983.53
751.162	1265.53
751.603	729.38
752.044	584.28
752.485	522.08
752.926	486.98
753.367	466.73
753.808	454.28
754.249	443.43
754.69	439.93
755.131	433.23
755.572	435.33
756.013	431.43
756.453	427.98
756.894	448.13
757.335	445.88
757.776	447.38
758.216	468.18
758.657	488.83
759.098	543.13
759.538	656.28
759.979	945.23
760.42	1912.18
760.86	4858.38
761.301	10055.93
761.741	11957.13
762.182	13697.93
762.622	8943.98
763.063	3183.83
763.503	1303.53
763.943	770.68
764.384	610.63
764.824	523.78
765.264	481.08
765.705	458.68
766.145	437.38
766.585	421.08
767.025	407.63
767.465	407.73
767.906	418.73
768.346	446.63
768.786	508.08
769.226	741.18
769.666	1499.43
770.106	3336.13
770.546	4809.68
770.986	5454.48
771.426	4133.08
771.866	1717.68
772.306	779.48
772.745	486.08
773.185	411.78
773.625	398.73
774.065	431.43
774.505	613.48
774.944	1112.83
775.384	1615.93
775.824	1813.28
776.263	1502.08
776.703	793.98
777.142	451.93
777.582	341.48
778.021	304.13
778.461	292.88
778.9	286.03
779.34	279.43
779.779	275.13
780.219	273.33
780.658	263.13
781.097	262.38
781.537	254.13
781.976	248.38
782.415	254.43
782.855	248.43
783.294	244.53
783.733	244.53
784.172	249.63
784.611	250.68
785.05	262.08
785.489	269.03
785.928	268.78
786.367	279.93
786.806	292.53
787.245	325.53
787.684	332.63
788.123	325.88
788.562	314.98
789.001	307.13
789.44	293.88
789.879	295.38
790.317	294.23
790.756	312.13
791.195	358.23
791.634	480.38
792.072	864.88
792.511	2105.98
792.95	3918.23
793.388	4773.08
793.827	3115.53
794.265	1418.63
794.704	686.63
795.142	421.83
795.581	350.98
796.019	318.13
796.458	316.68
796.896	324.83
797.334	365.43
797.773	497.03
798.211	937.88
798.649	1946.73
799.087	3298.08
799.526	4651.23
799.964	4834.83
800.402	3338.83
800.84	1514.58
801.278	743.78
801.716	450.83
802.154	366.63
802.592	347.58
803.03	347.88
803.468	349.78
803.906	358.83
804.344	349.43
804.782	344.03
805.22	337.18
805.658	354.78
806.096	379.33
806.533	423.43
806.971	534.33
807.409	779.58
807.847	1549.98
808.284	3918.73
808.722	6925.93
809.16	9698.88
809.597	13079.38
810.035	15519.98
810.472	10748.48
810.91	4559.98
811.347	2033.33
811.785	964.88
812.222	614.03
812.66	473.08
813.097	397.28
813.535	349.58
813.972	309.43
814.409	290.68
814.846	278.13
815.284	264.78
815.721	265.23
816.158	298.43
816.595	408.73
817.032	523.98
817.47	471.88
817.907	342.88
818.344	291.68
818.781	293.33
819.218	361.38
819.655	551.38
820.092	726.83
820.529	652.13
820.966	504.98
821.403	346.93
821.839	294.78
822.276	330.68
822.713	394.18
823.15	362.28
823.587	371.63
824.023	643.83
824.46	1605.58
824.897	2819.38
825.333	2239.93
825.77	1015.43
826.206	536.53
826.643	315.48
827.08	236.33
827.516	206.78
827.953	194.38
828.389	181.28
828.825	180.83
829.262	168.13
829.698	162.58
830.135	158.48
830.571	156.63
831.007	159.93
831.443	158.38
831.88	156.98
832.316	163.13
832.752	158.98
833.188	158.88
833.624	167.38
834.06	169.63
834.497	168.13
834.933	169.48
835.369	194.43
835.805	195.43
836.241	201.58
836.677	226.88
837.112	257.88
837.548	325.53
837.984	476.68
838.42	1017.88
838.856	2815.48
839.292	5602.03
839.727	4222.18
840.163	2801.18
840.599	4225.93
841.034	6525.53
841.47	3302.13
841.906	1584.83
842.341	848.03
842.777	638.33
843.212	673.23
843.648	412.28
844.083	278.08
844.519	206.78
844.954	175.18
845.39	158.93
845.825	149.78
846.261	147.33
846.696	144.08
847.131	135.78
847.566	136.28
848.002	141.48
848.437	150.83
848.872	151.73
849.307	193.48
849.742	347.98
850.177	923.68
850.613	1953.63
851.048	1432.63
851.483	658.93
851.918	362.93
852.353	205.23
852.788	145.18
853.223	130.83
853.657	120.43
854.092	119.53
854.527	114.98
854.962	122.68
855.397	140.48
855.832	119.68
856.266	104.28
856.701	101.38
857.136	109.43
857.57	131.48
858.005	159.13
858.44	140.38
858.874	127.73
859.309	129.93
859.743	131.28
860.178	125.43
860.612	135.83
861.047	187.98
861.481	266.98
861.915	184.43
862.35	135.53
862.784	109.38
863.218	97.58
863.653	116.28
864.087	138.68
864.521	165.38
864.955	274.58
865.39	465.13
865.824	369.48
866.258	482.78
866.692	737.83
867.126	543.53
867.56	286.38
867.994	182.18
868.428	154.58
868.862	190.88
869.296	176.68
869.73	214.58
870.164	179.48
870.598	169.23
871.031	122.23
871.465	99.58
871.899	77.58
872.333	70.73
872.766	73.88
873.2	78.43
873.634	72.93
874.067	75.78
874.501	79.03
874.935	74.08
875.368	77.63
875.802	72.13
876.235	62.88
876.669	65.43
877.102	60.58
877.535	62.33
877.969	61.73
878.402	61.98
878.836	61.53
879.269	54.48
879.702	58.03
880.135	60.48
880.569	64.68
881.002	56.23
881.435	58.98
881.868	60.13
882.301	49.63
882.734	52.43
883.167	56.88
883.601	54.43
884.034	51.53
884.467	46.98
884.899	54.43
885.332	44.78
885.765	51.13
886.198	41.13
886.631	48.23
887.064	45.93
887.497	47.88
887.929	50.63
888.362	48.13
888.795	42.13
889.228	51.18
889.66	47.18
890.093	46.03
890.526	47.98
890.958	47.28
891.391	49.48
891.823	45.68
892.256	46.63
892.688	46.38
893.121	42.58
893.553	45.83
893.985	43.48
894.418	41.88
894.85	45.08
895.282	48.13
895.715	40.93
896.147	39.88
896.579	38.78
897.011	47.53
897.444	47.48
897.876	34.43
898.308	40.88
898.74	37.53
899.172	45.28
899.604	43.63
900.036	45.23
900.468	44.13
900.9	48.33
901.332	59.83
901.764	60.48
902.196	58.38
902.628	64.53
903.06	90.33
903.491	95.28
903.923	78.43
904.355	77.78
904.787	78.68
905.218	65.78
905.65	61.13
906.082	50.43
906.513	51.53
906.945	53.73
907.376	54.13
907.808	50.43
908.239	54.93
908.671	64.53
909.102	69.68
909.534	93.93
909.965	177.78
910.397	453.18
910.828	1320.03
911.259	819.88
911.691	434.43
912.122	254.23
912.553	129.53
912.984	72.43
913.415	66.73
913.847	55.53
914.278	53.38
914.709	48.53
915.14	46.73
915.571	45.63
916.002	42.23
916.433	43.88
916.864	45.23
917.295	49.43
917.726	53.28
918.157	64.33
918.587	64.88
919.018	60.63
919.449	57.78
919.88	66.13
920.311	101.98
920.741	273.88
921.172	487.08
921.603	248.83
922.033	154.33
922.464	105.13
922.895	64.53
923.325	47.18
923.756	42.38
924.186	52.58
924.617	78.38
925.047	113.88
925.478	99.83
925.908	67.93
926.338	53.13
926.769	45.33
927.199	44.98
927.629	37.58
928.06	41.13
928.49	42.98
928.92	30.98
929.35	30.93
929.78	27.88
930.21	27.78
930.641	19.53
931.071	26.53
931.501	22.93
931.931	19.83
932.361	22.18
932.791	30.38
933.221	28.88
933.651	39.83
934.08	63.03
934.51	41.43
934.94	32.83
935.37	29.78
935.8	22.18
936.229	19.63
936.659	23.83
937.089	39.98
937.519	62.03
937.948	87.18
938.378	48.83
938.807	33.73
939.237	18.38
939.666	18.28
940.096	10.78
940.525	11.98
940.955	13.93
941.384	11.83
941.814	7.58
942.243	15.08
942.672	12.03
943.102	6.78
943.531	12.13
943.96	6.58
944.39	14.33
944.819	13.38
945.248	13.98
945.677	11.83
946.106	10.68
946.535	13.78
946.964	11.73
947.393	9.78
947.822	11.13
948.251	13.98
948.68	12.23
949.109	12.43
949.538	6.33
949.967	12.33
950.396	9.18
950.825	12.93
951.254	8.58
951.682	6.98
952.111	7.28
952.54	5.98
952.969	9.03
953.397	8.93
953.826	4.78
954.254	9.88
954.683	8.08
955.112	9.98
955.54	8.18
955.969	8.13
956.397	10.93
956.826	7.93
957.254	8.28
957.682	10.08
958.111	11.43
958.539	10.03
958.967	11.23
959.396	13.83
959.824	8.13
960.252	9.03
960.68	8.23
961.109	10.28
961.537	14.18
961.965	5.58
962.393	9.88
962.821	6.73
963.249	12.63
963.677	20.13
964.105	78.68
964.533	145.03
964.961	74.08
965.389	41.28
965.817	22.93
966.245	14.08
966.672	14.03
967.1	10.28
967.528	7.13
967.956	6.53
968.383	12.68
968.811	6.58
969.239	2.33
969.666	6.03
970.094	5.93
970.522	3.03
970.949	11.88
971.377	-0.72
971.804	1.48
972.232	4.08
972.659	6.23
973.087	8.43
973.514	2.53
973.941	6.28
974.369	1.93
974.796	1.68
975.223	0.43
975.651	9.78
976.078	7.03
976.505	11.53
976.932	36.73
977.359	40.53
977.786	30.03
978.214	22.98
978.641	7.18
979.068	6.33
979.495	2.33
979.922	9.53
980.349	7.73
980.776	7.43
981.202	4.43
981.629	7.28
982.056	6.73
982.483	-0.42
982.91	10.23
983.337	-0.12
983.763	3.48
984.19	5.23
984.617	4.73
985.043	4.78
985.47	10.78
985.897	7.93
986.323	7.88
986.75	4.83
987.176	3.13
987.603	5.23
988.029	7.58
988.456	10.78
988.882	3.68
989.308	3.03
989.735	1.73
990.161	6.33
990.587	6.93
991.014	6.53
991.44	1.58
991.866	6.68
992.292	2.53
992.719	1.48
993.145	10.48
993.571	5.03
993.997	8.73
994.423	9.53
994.849	-0.67
995.275	1.78
995.701	5.28
996.127	-1.12
996.553	0.88
996.979	7.58
997.405	6.38
997.83	5.48
998.256	7.98
998.682	2.83
999.108	6.08
999.534	-0.27
999.959	0.43
1000.385	4.08
1000.811	1.33
1001.236	4.43
1001.662	4.18
1002.087	6.58
1002.513	1.68
1002.938	0.13
1003.364	2.23
1003.789	4.78
1004.215	2.43
1004.64	7.88
1005.066	4.43
1005.491	7.03
1005.916	1.93
1006.342	7.23
1006.767	3.78
1007.192	4.78
1007.617	2.58
1008.042	2.88
1008.468	4.73
1008.893	7.88
1009.318	12.73
1009.743	17.18
1010.168	31.33
1010.593	26.28
1011.018	20.38
1011.443	12.68
1011.868	9.58
1012.293	8.53
1012.718	2.53
1013.143	2.03
1013.567	8.03
1013.992	9.68
1014.417	6.48
1014.842	3.53
1015.267	4.43
1015.691	8.08
1016.116	6.93
1016.541	3.83
1016.965	1.88
1017.39	4.13
1017.814	-2.32
1018.239	0.88
1018.663	-6.27
1019.088	-1.12
1019.512	4.08
1019.937	0.18
1020.361	0.08
1020.785	1.38
1021.21	-3.12
1021.634	1.53
1022.058	3.43
1022.483	1.23
1022.907	-0.87
1023.331	-5.77
1023.755	1.28
1024.179	1.98
1024.604	0.03
1025.028	3.33
1025.452	1.68
1025.876	5.78
1026.3	2.18
1026.724	-4.87
1027.148	3.58
1027.572	0.98
1027.996	4.13
1028.42	2.33
1028.843	2.98
1029.267	4.33
1029.691	6.53
1030.115	-1.42
1030.539	-0.82
1030.962	-2.62
1031.386	2.78
1031.81	-2.82
1032.233	-1.42
1032.657	-6.22
1033.08	-0.07
1033.504	2.33
1033.927	-5.42
1034.351	-2.87
1034.774	-1.07
1035.198	-2.87
1035.621	3.08
1036.045	-0.17
1036.468	5.83
1036.891	4.23
1037.315	9.78
1037.738	1.13
1038.161	4.33
1038.584	1.68
1039.008	0.03
1039.431	-0.27
1039.854	-3.37
1040.277	1.48
1040.7	2.08
1041.123	0.08
1041.546	-2.07
1041.969	1.88
1042.392	5.58
1042.815	-6.12
1043.238	3.13
1043.661	3.78
1044.084	1.78
1044.507	-3.62
1044.93	2.18
1045.352	-2.17
1045.775	1.03
1046.198	3.53
1046.621	9.23
1047.043	0.53
1047.466	5.48
1047.889	-2.92
1048.311	8.03
1048.734	0.73
1049.156	-1.82
1049.579	0.73
1050.001	1.18
1050.424	0.78
1050.846	-1.92
1051.269	-5.12
1051.691	-1.92
1052.113	2.58
1052.536	-4.37
1052.958	-3.17
1053.38	1.13
1053.802	0.78
1054.225	1.13
1054.647	2.23
1055.069	-2.12
1055.491	2.68
1055.913	-3.82
1056.335	-9.97
1056.757	-2.47
1057.179	-3.57
1057.601	-3.22
1058.023	-0.07
1058.445	-6.92
1058.867	1.58
1059.289	-0.72
1059.711	-5.82
1060.133	1.88
1060.555	2.58
1060.976	2.38
1061.398	-4.02
1061.82	-2.37
1062.241	-2.47
1062.663	0.73
1063.085	-2.72
1063.506	-3.37
1063.928	-1.87
1064.35	-0.07
1064.771	-1.12
1065.193	0.13
1065.614	-0.67
1066.035	6.78
1066.457	2.98
1066.878	4.73
1067.3	0.18
1067.721	2.53
1068.142	2.48
1068.564	3.08
1068.985	-1.22
1069.406	-7.17
1069.827	-1.17
1070.248	-3.47
1070.67	-2.67
1071.091	-5.32
1071.512	-0.67
1071.933	0.98
1072.354	-7.77
1072.775	-4.82
1073.196	-0.67
1073.617	-4.82
1074.038	-0.72
1074.459	3.93
1074.88	-1.77
1075.3	-2.52
1075.721	0.98
1076.142	-0.52
1076.563	-4.82
1076.983	0.83
1077.404	-2.32
1077.825	2.13
1078.246	-2.87
1078.666	-2.92
1079.087	-1.52
1079.507	-1.17
1079.928	-2.87
1080.348	2.48
1080.769	-1.52
1081.189	-3.27
1081.61	-9.17
1082.03	4.68
1082.451	-2.32
1082.871	-4.17
1083.291	1.98
1083.711	0.38
1084.132	-1.17
1084.552	-6.92
1084.972	-5.07
1085.392	-3.22
1085.813	0.53
1086.233	0.28
1086.653	0.98
1087.073	-4.02
1087.493	-3.97
1087.913	-0.67
1088.333	0.48
1088.753	5.23
1089.173	3.33
1089.593	0.63
1090.013	-0.52
1090.433	-2.42
1090.852	3.73
1091.272	-4.07
1091.692	0.48
1092.112	-1.22
1092.531	-4.12
1092.951	-0.37
1093.371	-3.72
1093.79	-3.37
1094.21	-8.67
1094.63	-0.67
1095.049	-0.42
1095.469	-9.62
1095.888	-1.17
1096.308	1.68
1096.727	-4.42
1097.146	-3.12
1097.566	0.78
1097.985	-0.52
1098.405	2.28
1098.824	2.13
1099.243	-3.32
1099.662	-3.47
1100.082	-0.82
1100.501	1.08
1100.92	3.88
1101.339	1.83
1101.758	5.58
