Data from MSPlasma+Separation6_Subt14_10-14-22-724.txt Node
Date: Fri Jul 21 10:14:22 EDT 2017
User: Ender
Spectrometer: HR+D1039
Trigger mode: 0
Integration Time (sec): 6.430000E-3
Scans to average: 20
Electric dark correction enabled: true
Nonlinearity correction enabled: false
Boxcar width: 0
XAxis mode: Wavelengths
Number of Pixels in Spectrum: 2048
>>>>>Begin Spectral Data<<<<<
187.836	-3.76
188.309	-3.76
188.782	-3.76
189.255	3.14
189.728	0.79
190.201	-2.21
190.674	1.39
191.147	-3.06
191.619	-0.91
192.092	-0.01
192.565	2.04
193.038	2.64
193.511	5.14
193.984	1.49
194.456	-0.21
194.929	-1.76
195.402	-3.41
195.874	-1.26
196.347	3.99
196.82	2.09
197.292	4.64
197.765	2.29
198.237	1.84
198.71	-3.71
199.182	2.69
199.655	-0.31
200.127	2.19
200.6	-0.66
201.072	4.89
201.544	-1.46
202.017	5.79
202.489	1.09
202.961	-1.81
203.433	-1.56
203.906	0.04
204.378	0.19
204.85	-2.16
205.322	0.14
205.794	3.29
206.266	2.09
206.739	3.04
207.211	0.79
207.683	4.49
208.155	7.04
208.627	3.74
209.099	3.09
209.57	1.84
210.042	4.19
210.514	4.14
210.986	-0.36
211.458	0.09
211.93	0.49
212.402	-0.31
212.873	2.24
213.345	-0.21
213.817	8.64
214.288	0.54
214.76	6.44
215.232	5.34
215.703	-1.71
216.175	3.14
216.646	1.19
217.118	6.54
217.589	-1.01
218.061	2.44
218.532	-1.36
219.004	8.29
219.475	5.14
219.946	5.94
220.418	6.49
220.889	6.39
221.36	8.99
221.832	7.64
222.303	7.04
222.774	4.89
223.245	0.79
223.717	5.49
224.188	3.64
224.659	3.04
225.13	-0.56
225.601	-0.41
226.072	8.89
226.543	11.69
227.014	3.59
227.485	11.39
227.956	6.64
228.427	11.74
228.898	10.69
229.369	8.74
229.839	7.54
230.31	15.29
230.781	12.14
231.252	8.39
231.722	8.64
232.193	11.19
232.664	8.74
233.135	10.14
233.605	9.64
234.076	17.74
234.546	10.29
235.017	14.59
235.487	12.64
235.958	12.94
236.428	17.84
236.899	13.39
237.369	18.89
237.84	15.29
238.31	20.29
238.78	9.34
239.251	13.19
239.721	13.19
240.191	15.59
240.662	18.79
241.132	19.39
241.602	17.44
242.072	20.69
242.542	19.39
243.013	15.84
243.483	26.44
243.953	21.99
244.423	23.54
244.893	17.99
245.363	24.74
245.833	18.29
246.303	23.14
246.773	24.04
247.243	18.89
247.712	24.24
248.182	23.34
248.652	29.79
249.122	28.49
249.592	30.39
250.061	30.34
250.531	28.59
251.001	31.19
251.471	35.64
251.94	32.49
252.41	29.64
252.879	29.04
253.349	38.89
253.818	31.09
254.288	37.89
254.757	32.89
255.227	37.59
255.696	34.69
256.166	41.44
256.635	40.49
257.105	32.84
257.574	39.49
258.043	31.29
258.513	40.59
258.982	36.64
259.451	43.74
259.92	35.99
260.389	42.09
260.859	38.94
261.328	42.74
261.797	41.39
262.266	43.24
262.735	46.14
263.204	38.29
263.673	45.59
264.142	36.14
264.611	44.99
265.08	44.54
265.549	42.04
266.018	48.39
266.487	52.44
266.955	47.79
267.424	52.94
267.893	52.34
268.362	47.69
268.83	50.04
269.299	50.99
269.768	51.89
270.236	54.59
270.705	56.64
271.174	52.49
271.642	52.89
272.111	55.34
272.579	54.74
273.048	54.04
273.516	63.89
273.985	61.64
274.453	56.29
274.922	60.64
275.39	61.64
275.858	60.29
276.327	69.04
276.795	62.69
277.263	66.34
277.731	68.59
278.2	68.59
278.668	64.64
279.136	69.34
279.604	70.44
280.072	66.54
280.54	72.94
281.008	72.69
281.477	75.24
281.945	66.59
282.413	74.54
282.881	72.39
283.348	74.74
283.816	73.34
284.284	75.94
284.752	77.84
285.22	83.54
285.688	75.74
286.156	76.69
286.623	74.19
287.091	81.19
287.559	84.84
288.026	89.34
288.494	84.64
288.962	86.44
289.429	81.49
289.897	86.19
290.364	90.69
290.832	85.39
291.3	86.74
291.767	90.14
292.234	92.54
292.702	92.39
293.169	91.94
293.637	93.84
294.104	96.49
294.571	94.99
295.039	96.74
295.506	88.79
295.973	93.59
296.44	93.89
296.908	102.59
297.375	96.84
297.842	103.69
298.309	102.19
298.776	106.14
299.243	107.44
299.71	105.14
300.177	106.69
300.644	104.14
301.111	103.39
301.578	110.24
302.045	112.29
302.512	108.24
302.979	116.49
303.446	114.19
303.913	116.84
304.379	120.19
304.846	121.99
305.313	120.19
305.78	126.74
306.246	121.69
306.713	126.89
307.18	124.34
307.646	131.69
308.113	134.39
308.579	136.94
309.046	137.59
309.512	134.04
309.979	141.74
310.445	136.09
310.912	141.94
311.378	147.54
311.845	143.79
312.311	141.64
312.777	147.44
313.244	155.79
313.71	146.44
314.176	151.99
314.642	152.69
315.109	148.64
315.575	156.34
316.041	149.74
316.507	156.59
316.973	163.39
317.439	161.29
317.905	160.94
318.371	158.84
318.837	160.24
319.303	164.19
319.769	163.29
320.235	163.19
320.701	168.39
321.167	167.49
321.633	172.54
322.099	166.09
322.564	175.94
323.03	174.39
323.496	176.84
323.962	178.94
324.427	175.34
324.893	179.69
325.359	187.39
325.824	185.09
326.29	189.54
326.755	188.79
327.221	187.84
327.686	194.49
328.152	202.34
328.617	198.14
329.083	197.34
329.548	203.14
330.014	200.29
330.479	203.29
330.944	210.39
331.41	211.04
331.875	208.69
332.34	199.04
332.805	206.09
333.271	208.49
333.736	210.29
334.201	213.49
334.666	228.24
335.131	237.69
335.596	227.94
336.061	223.74
336.526	223.59
336.991	218.59
337.456	217.29
337.921	208.84
338.386	216.29
338.851	217.59
339.316	216.14
339.781	216.74
340.246	227.04
340.711	224.49
341.175	225.99
341.64	238.24
342.105	238.64
342.569	245.64
343.034	242.44
343.499	246.29
343.963	254.24
344.428	253.29
344.893	251.74
345.357	254.44
345.822	257.99
346.286	265.79
346.751	271.59
347.215	272.89
347.679	286.39
348.144	299.94
348.608	288.69
349.073	296.34
349.537	302.24
350.001	304.84
350.465	307.29
350.93	304.54
351.394	305.99
351.858	309.89
352.322	320.94
352.786	317.89
353.25	315.69
353.715	320.34
354.179	341.74
354.643	341.59
355.107	350.14
355.571	341.59
356.035	338.94
356.498	338.74
356.962	334.44
357.426	331.34
357.89	333.34
358.354	330.04
358.818	328.64
359.281	336.24
359.745	337.89
360.209	333.49
360.673	331.79
361.136	331.49
361.6	341.34
362.064	347.94
362.527	350.64
362.991	356.49
363.454	348.44
363.918	359.84
364.381	364.09
364.845	360.49
365.308	361.64
365.772	363.39
366.235	365.44
366.698	362.79
367.162	363.04
367.625	364.34
368.088	374.89
368.552	370.14
369.015	373.09
369.478	373.54
369.941	383.14
370.404	388.39
370.867	378.94
371.331	384.89
371.794	390.24
372.257	395.34
372.72	393.59
373.183	394.39
373.646	393.49
374.109	398.14
374.572	401.29
375.035	401.69
375.497	407.79
375.96	417.14
376.423	421.64
376.886	421.89
377.349	430.29
377.811	429.34
378.274	433.69
378.737	428.69
379.199	432.09
379.662	436.04
380.125	444.34
380.587	450.24
381.05	459.14
381.512	459.09
381.975	473.84
382.437	482.29
382.9	474.69
383.362	478.59
383.825	478.94
384.287	483.49
384.75	484.24
385.212	485.09
385.674	487.59
386.136	491.64
386.599	494.74
387.061	486.54
387.523	489.79
387.985	496.54
388.447	502.99
388.91	505.44
389.372	503.99
389.834	505.09
390.296	497.39
390.758	511.69
391.22	503.19
391.682	510.49
392.144	510.04
392.606	513.29
393.068	530.19
393.529	559.39
393.991	563.99
394.453	538.09
394.915	524.29
395.377	505.14
395.838	521.49
396.3	519.19
396.762	531.89
397.224	527.69
397.685	525.79
398.147	530.99
398.608	534.34
399.07	544.54
399.531	539.89
399.993	546.34
400.454	570.19
400.916	562.14
401.377	573.74
401.839	582.94
402.3	582.54
402.762	602.39
403.223	652.19
403.684	650.39
404.145	628.34
404.607	613.69
405.068	596.89
405.529	603.89
405.99	616.24
406.451	632.34
406.913	616.29
407.374	623.14
407.835	623.49
408.296	640.09
408.757	643.74
409.218	656.74
409.679	656.24
410.14	664.19
410.601	688.49
411.062	682.34
411.522	682.94
411.983	691.49
412.444	693.24
412.905	704.64
413.366	719.69
413.826	767.69
414.287	864.04
414.748	1011.49
415.208	1033.64
415.669	866.59
416.13	794.94
416.59	773.44
417.051	802.44
417.511	835.94
417.972	891.94
418.432	964.14
418.893	1068.89
419.353	1023.89
419.814	800.64
420.274	714.19
420.734	705.19
421.195	724.99
421.655	719.54
422.115	733.59
422.576	726.39
423.036	730.84
423.496	761.79
423.956	783.99
424.416	845.24
424.876	952.54
425.336	950.09
425.797	933.39
426.257	917.94
426.717	865.14
427.177	805.94
427.637	816.44
428.097	845.49
428.556	877.94
429.016	944.19
429.476	947.89
429.936	927.19
430.396	930.69
430.856	953.64
431.315	970.99
431.775	1030.04
432.235	1110.49
432.694	1122.49
433.154	1063.69
433.614	1039.59
434.073	1006.74
434.533	912.44
434.993	878.64
435.452	885.24
435.912	866.29
436.371	856.99
436.83	849.64
437.29	828.89
437.749	810.59
438.209	810.84
438.668	820.54
439.127	823.84
439.587	818.09
440.046	800.74
440.505	812.69
440.964	810.44
441.424	846.74
441.883	859.29
442.342	812.79
442.801	776.84
443.26	786.24
443.719	786.24
444.178	769.84
444.637	784.74
445.096	792.54
445.555	799.69
446.014	797.69
446.473	785.99
446.932	791.64
447.391	804.99
447.849	808.79
448.308	805.89
448.767	804.99
449.226	827.34
449.685	837.84
450.143	870.84
450.602	866.99
451.061	822.89
451.519	830.09
451.978	818.24
452.436	807.64
452.895	825.59
453.353	814.54
453.812	810.69
454.27	812.09
454.729	809.69
455.187	820.44
455.646	825.69
456.104	824.79
456.562	841.19
457.021	844.84
457.479	818.84
457.937	838.89
458.395	866.14
458.854	851.24
459.312	839.39
459.77	851.34
460.228	854.29
460.686	870.89
461.144	871.74
461.602	857.09
462.06	870.44
462.518	883.99
462.976	880.64
463.434	895.94
463.892	909.24
464.35	919.39
464.808	942.94
465.266	941.69
465.724	958.84
466.181	965.94
466.639	950.19
467.097	995.39
467.555	1029.39
468.012	1023.94
468.47	1037.99
468.928	1064.39
469.385	1088.54
469.843	1098.34
470.3	1092.99
470.758	1131.54
471.215	1154.44
471.673	1173.94
472.13	1201.14
472.588	1226.44
473.045	1218.09
473.503	1242.14
473.96	1296.54
474.417	1309.14
474.875	1381.19
475.332	1421.19
475.789	1448.39
476.246	1476.94
476.704	1548.49
477.161	1600.44
477.618	1643.49
478.075	1731.94
478.532	1862.84
478.989	1995.74
479.446	2194.34
479.903	2307.09
480.36	2513.04
480.817	2651.99
481.274	2835.69
481.731	3093.69
482.188	3320.89
482.645	3551.99
483.102	3762.74
483.558	4014.99
484.015	4183.74
484.472	4152.74
484.929	4018.04
485.385	3863.14
485.842	3792.84
486.299	3650.94
486.755	3343.94
487.212	3018.64
487.668	2737.19
488.125	2536.79
488.582	2357.99
489.038	2264.49
489.494	2201.19
489.951	2123.19
490.407	2071.49
490.864	2038.34
491.32	1998.04
491.776	1974.99
492.233	1980.89
492.689	1956.54
493.145	1900.24
493.602	1891.89
494.058	1906.39
494.514	1906.09
494.97	1910.59
495.426	1933.49
495.882	1941.29
496.338	1931.19
496.794	1949.94
497.251	1932.24
497.707	1960.44
498.163	1967.64
498.618	1964.24
499.074	1958.59
499.53	1988.04
499.986	1981.69
500.442	1978.84
500.898	1952.09
501.354	1971.59
501.809	1975.04
502.265	1977.34
502.721	1987.49
503.177	1996.54
503.632	1994.94
504.088	1999.94
504.543	2030.59
504.999	2044.74
505.455	2036.14
505.91	2022.14
506.366	2017.34
506.821	2027.04
507.277	2013.94
507.732	2033.79
508.187	2030.99
508.643	2039.74
509.098	2047.74
509.553	2068.39
510.009	2090.14
510.464	2126.94
510.919	2141.94
511.375	2172.19
511.83	2189.54
512.285	2219.69
512.74	2270.84
513.195	2315.89
513.65	2340.59
514.105	2356.64
514.56	2378.19
515.015	2412.14
515.47	2427.09
515.925	2391.69
516.38	2402.44
516.835	2409.09
517.29	2394.94
517.745	2386.94
518.2	2347.99
518.655	2302.29
519.109	2281.14
519.564	2255.24
520.019	2242.29
520.474	2221.89
520.928	2213.14
521.383	2190.99
521.838	2176.59
522.292	2170.14
522.747	2147.94
523.201	2142.59
523.656	2110.74
524.11	2105.94
524.565	2094.24
525.019	2109.64
525.474	2116.19
525.928	2091.59
526.382	2101.94
526.837	2095.24
527.291	2108.09
527.745	2082.84
528.2	2094.04
528.654	2060.64
529.108	2068.19
529.562	2077.14
530.016	2066.34
530.47	2081.44
530.925	2068.34
531.379	2071.89
531.833	2094.99
532.287	2096.14
532.741	2078.74
533.195	2082.29
533.649	2089.14
534.103	2095.94
534.556	2069.24
535.01	2096.19
535.464	2070.29
535.918	2078.39
536.372	2091.59
536.826	2084.34
537.279	2065.09
537.733	2080.44
538.187	2075.64
538.64	2066.04
539.094	2092.64
539.548	2120.19
540.001	2109.09
540.455	2130.89
540.908	2132.89
541.362	2153.59
541.815	2166.79
542.269	2214.34
542.722	2211.79
543.175	2225.64
543.629	2236.29
544.082	2259.94
544.536	2280.14
544.989	2289.89
545.442	2300.14
545.895	2296.59
546.349	2299.84
546.802	2296.84
547.255	2295.99
547.708	2310.34
548.161	2343.84
548.614	2334.39
549.067	2344.74
549.52	2333.04
549.973	2307.79
550.426	2310.94
550.879	2287.34
551.332	2292.64
551.785	2326.54
552.238	2345.89
552.691	2342.94
553.144	2370.54
553.596	2421.54
554.049	2440.54
554.502	2476.09
554.955	2525.29
555.407	2553.24
555.86	2531.04
556.313	2504.09
556.765	2477.64
557.218	2463.64
557.67	2460.19
558.123	2416.89
558.576	2413.74
559.028	2399.19
559.48	2434.34
559.933	2416.24
560.385	2349.14
560.838	2269.94
561.29	2208.14
561.742	2197.69
562.195	2139.79
562.647	2136.19
563.099	2121.14
563.551	2105.14
564.004	2125.29
564.456	2093.49
564.908	2059.14
565.36	2022.24
565.812	1975.64
566.264	1966.29
566.716	1925.09
567.168	1895.89
567.62	1899.39
568.072	1895.79
568.524	1867.69
568.976	1859.69
569.428	1855.69
569.88	1853.34
570.332	1867.84
570.784	1865.89
571.235	1862.89
571.687	1874.24
572.139	1889.04
572.59	1890.69
573.042	1906.54
573.494	1915.19
573.945	1886.84
574.397	1842.39
574.849	1834.24
575.3	1837.29
575.752	1812.59
576.203	1799.99
576.655	1802.74
577.106	1770.34
577.557	1775.09
578.009	1763.94
578.46	1763.84
578.912	1745.09
579.363	1768.74
579.814	1748.19
580.265	1756.59
580.717	1767.34
581.168	1760.44
581.619	1763.19
582.07	1775.74
582.521	1770.24
582.972	1760.54
583.423	1773.94
583.875	1772.49
584.326	1789.74
584.777	1815.74
585.227	1841.74
585.678	1867.89
586.129	1885.59
586.58	1900.34
587.031	1931.79
587.482	1979.19
587.933	1992.64
588.384	1997.34
588.834	1978.04
589.285	1975.24
589.736	1979.64
590.186	1979.74
590.637	1956.74
591.088	1915.94
591.538	1875.29
591.989	1848.54
592.439	1832.59
592.89	1813.39
593.34	1802.79
593.791	1798.89
594.241	1787.29
594.692	1770.29
595.142	1780.69
595.593	1772.34
596.043	1787.49
596.493	1796.44
596.943	1800.24
597.394	1848.69
597.844	1870.69
598.294	1917.14
598.744	1980.74
599.195	2064.09
599.645	2176.59
600.095	2286.39
600.545	2383.19
600.995	2480.64
601.445	2574.24
601.895	2697.19
602.345	2776.19
602.795	2746.09
603.245	2640.59
603.695	2498.34
604.145	2370.49
604.594	2259.79
605.044	2143.59
605.494	2015.39
605.944	1906.99
606.393	1855.09
606.843	1835.59
607.293	1830.54
607.743	1797.09
608.192	1813.64
608.642	1820.29
609.091	1811.04
609.541	1815.09
609.99	1811.99
610.44	1778.14
610.889	1749.69
611.339	1738.04
611.788	1702.24
612.238	1725.39
612.687	1729.89
613.136	1742.79
613.586	1756.74
614.035	1744.69
614.484	1752.79
614.933	1764.44
615.383	1733.04
615.832	1690.99
616.281	1668.79
616.73	1633.64
617.179	1601.74
617.628	1561.39
618.077	1536.29
618.526	1510.69
618.975	1502.44
619.424	1482.89
619.873	1484.54
620.322	1468.34
620.771	1464.29
621.22	1445.29
621.669	1411.04
622.118	1397.14
622.567	1390.34
623.015	1370.19
623.464	1369.54
623.913	1346.99
624.361	1340.84
624.81	1342.34
625.259	1353.94
625.707	1342.99
626.156	1347.29
626.604	1368.99
627.053	1365.44
627.501	1362.59
627.95	1382.34
628.398	1388.89
628.847	1378.09
629.295	1374.74
629.744	1360.64
630.192	1340.04
630.64	1321.29
631.089	1300.34
631.537	1268.34
631.985	1246.54
632.433	1257.89
632.881	1242.99
633.33	1252.64
633.778	1247.69
634.226	1252.84
634.674	1268.99
635.122	1284.59
635.57	1299.89
636.018	1314.14
636.466	1316.19
636.914	1318.04
637.362	1330.04
637.81	1363.44
638.258	1400.24
638.705	1415.89
639.153	1474.54
639.601	1474.29
640.049	1502.09
640.497	1543.84
640.944	1584.54
641.392	1523.09
641.84	1439.59
642.287	1379.49
642.735	1345.19
643.182	1343.99
643.63	1345.19
644.078	1346.74
644.525	1362.64
644.973	1396.49
645.42	1427.09
645.867	1470.54
646.315	1481.79
646.762	1558.49
647.21	1596.14
647.657	1678.84
648.104	1732.09
648.551	1784.59
648.999	1920.99
649.446	2115.74
649.893	2354.09
650.34	2755.89
650.787	3403.19
651.234	4339.84
651.682	5996.39
652.129	8440.09
652.576	11939.49
653.023	15443.49
653.47	15537.54
653.917	15537.59
654.363	15537.49
654.81	15534.49
655.257	15535.14
655.704	15405.24
656.151	9444.79
656.598	6205.69
657.044	4445.79
657.491	3470.54
657.938	2823.34
658.385	2392.24
658.831	2112.04
659.278	1896.94
659.724	1730.59
660.171	1614.09
660.618	1495.64
661.064	1418.79
661.511	1363.84
661.957	1322.49
662.404	1298.44
662.85	1281.34
663.296	1274.64
663.743	1229.79
664.189	1223.24
664.635	1210.44
665.082	1181.34
665.528	1171.24
665.974	1135.24
666.42	1113.19
666.867	1103.34
667.313	1051.79
667.759	1041.09
668.205	1029.49
668.651	1034.79
669.097	1034.69
669.543	1035.24
669.989	1054.39
670.435	1046.54
670.881	1058.39
671.327	1102.54
671.773	1178.79
672.219	1251.94
672.665	1339.29
673.11	1396.69
673.556	1405.54
674.002	1430.59
674.448	1446.94
674.893	1244.49
675.339	1082.44
675.785	1004.79
676.23	949.94
676.676	910.89
677.122	885.39
677.567	861.64
678.013	838.84
678.458	838.04
678.904	838.59
679.349	822.14
679.794	818.44
680.24	818.29
680.685	801.99
681.131	808.99
681.576	812.09
682.021	814.84
682.466	818.29
682.912	827.69
683.357	871.14
683.802	938.24
684.247	1025.24
684.692	1092.24
685.137	1141.04
685.583	1163.04
686.028	1228.64
686.473	1161.39
686.918	1016.19
687.363	929.64
687.807	873.99
688.252	839.29
688.697	804.44
689.142	786.64
689.587	781.19
690.032	800.14
690.477	832.39
690.921	874.89
691.366	912.39
691.811	951.49
692.255	1030.34
692.7	1239.39
693.145	1790.24
693.589	2717.64
694.034	3251.64
694.478	3473.14
694.923	3180.24
695.367	4509.09
695.812	2774.04
696.256	1176.59
696.701	861.44
697.145	797.64
697.59	763.14
698.034	747.89
698.478	747.54
698.922	754.84
699.367	774.64
699.811	807.04
700.255	870.99
700.699	960.44
701.143	1035.24
701.588	1095.24
702.032	1142.94
702.476	1183.94
702.92	1253.49
703.364	1642.34
703.808	2492.34
704.252	3100.34
704.696	3292.64
705.14	3118.29
705.584	4277.69
706.027	2395.84
706.471	1210.04
706.915	909.64
707.359	810.09
707.803	746.79
708.246	721.64
708.69	719.04
709.134	709.49
709.577	706.39
710.021	710.09
710.465	706.14
710.908	709.19
711.352	729.69
711.795	802.74
712.239	855.49
712.682	887.29
713.126	869.94
713.569	967.34
714.012	802.49
714.456	704.44
714.899	657.34
715.342	630.64
715.786	605.54
716.229	591.94
716.672	581.64
717.115	582.79
717.558	587.84
718.002	599.49
718.445	629.49
718.888	658.74
719.331	667.34
719.774	681.79
720.217	673.94
720.66	634.69
721.103	603.89
721.546	574.99
721.989	557.89
722.432	554.54
722.874	543.09
723.317	552.69
723.76	599.09
724.203	738.54
724.645	974.09
725.088	1154.39
725.531	1125.49
725.974	1243.44
726.416	1123.59
726.859	694.84
727.301	569.49
727.744	539.84
728.187	545.34
728.629	559.54
729.071	589.49
729.514	611.89
729.956	630.24
730.399	638.34
730.841	650.19
731.283	642.59
731.726	620.59
732.168	624.14
732.61	655.29
733.053	706.14
733.495	776.99
733.937	864.79
734.379	1019.39
734.821	1298.84
735.263	2037.44
735.705	3687.59
736.148	5404.44
736.59	5430.04
737.032	5915.09
737.474	4888.49
737.916	1893.04
738.357	998.69
738.799	765.64
739.241	711.69
739.683	715.99
740.125	738.19
740.567	747.09
741.008	788.29
741.45	838.84
741.892	874.54
742.334	880.09
742.775	885.29
743.217	851.44
743.658	708.49
744.1	734.49
744.542	849.79
744.983	880.44
745.425	921.54
745.866	897.24
746.307	735.84
746.749	770.59
747.19	1115.04
747.632	2167.19
748.073	4016.69
748.514	5561.44
748.956	7352.89
749.397	8675.24
749.838	6014.64
750.279	5736.29
750.72	2982.94
751.162	1260.64
751.603	733.04
752.044	583.84
752.485	514.79
752.926	483.49
753.367	464.44
753.808	451.24
754.249	446.19
754.69	434.34
755.131	432.04
755.572	434.19
756.013	434.29
756.453	430.99
756.894	445.84
757.335	443.04
757.776	450.49
758.216	463.39
758.657	488.64
759.098	539.29
759.538	649.69
759.979	946.04
760.42	1904.34
760.86	4882.99
761.301	10044.24
761.741	11886.54
762.182	13676.49
762.622	8906.74
763.063	3183.14
763.503	1309.19
763.943	756.44
764.384	601.59
764.824	523.14
765.264	480.29
765.705	449.64
766.145	427.69
766.585	417.69
767.025	405.29
767.465	401.39
767.906	410.79
768.346	438.09
768.786	509.09
769.226	734.79
769.666	1487.64
770.106	3339.54
770.546	4760.24
770.986	5398.64
771.426	4110.19
771.866	1712.39
772.306	777.59
772.745	481.69
773.185	407.79
773.625	397.29
774.065	430.24
774.505	618.34
774.944	1104.64
775.384	1596.59
775.824	1816.14
776.263	1499.79
776.703	788.89
777.142	456.69
777.582	337.49
778.021	304.19
778.461	296.49
778.9	294.29
779.34	277.44
779.779	273.64
780.219	269.99
780.658	264.19
781.097	260.44
781.537	257.44
781.976	254.34
782.415	251.74
782.855	251.49
783.294	250.44
783.733	247.14
784.172	248.79
784.611	251.24
785.05	259.64
785.489	261.84
785.928	269.94
786.367	280.99
786.806	291.24
787.245	314.74
787.684	325.89
788.123	330.59
788.562	314.74
789.001	301.74
789.44	291.79
789.879	300.04
790.317	296.14
790.756	314.14
791.195	360.69
791.634	482.24
792.072	859.24
792.511	2103.94
792.95	3920.79
793.388	4757.24
793.827	3116.19
794.265	1422.39
794.704	686.59
795.142	418.54
795.581	341.94
796.019	318.74
796.458	312.69
796.896	317.39
797.334	367.39
797.773	501.59
798.211	936.09
798.649	1945.54
799.087	3280.24
799.526	4647.54
799.964	4807.24
800.402	3326.54
800.84	1499.34
801.278	738.24
801.716	453.49
802.154	368.64
802.592	349.79
803.03	347.54
803.468	356.09
803.906	352.24
804.344	347.89
804.782	331.29
805.22	334.69
805.658	350.94
806.096	376.94
806.533	420.14
806.971	537.44
807.409	781.24
807.847	1543.79
808.284	3921.49
808.722	6895.24
809.16	9693.64
809.597	13059.24
810.035	15539.34
810.472	10707.99
810.91	4531.04
811.347	2036.49
811.785	966.69
812.222	602.64
812.66	468.19
813.097	397.04
813.535	347.64
813.972	310.29
814.409	290.84
814.846	278.34
815.284	260.94
815.721	267.64
816.158	297.34
816.595	407.34
817.032	519.54
817.47	467.29
817.907	340.94
818.344	292.29
818.781	291.14
819.218	365.14
819.655	544.19
820.092	725.19
820.529	655.09
820.966	510.24
821.403	347.04
821.839	295.34
822.276	329.64
822.713	398.24
823.15	366.74
823.587	376.74
824.023	648.24
824.46	1603.19
824.897	2808.19
825.333	2207.79
825.77	1008.64
826.206	529.94
826.643	312.69
827.08	229.89
827.516	207.09
827.953	192.39
828.389	182.29
828.825	181.49
829.262	167.99
829.698	165.19
830.135	152.19
830.571	151.34
831.007	154.94
831.443	155.84
831.88	153.89
832.316	166.29
832.752	163.44
833.188	160.84
833.624	163.94
834.06	165.49
834.497	164.89
834.933	172.59
835.369	184.59
835.805	195.89
836.241	202.84
836.677	225.59
837.112	262.09
837.548	324.19
837.984	476.84
838.42	1015.54
838.856	2821.54
839.292	5606.89
839.727	4207.29
840.163	2796.69
840.599	4224.89
841.034	6506.59
841.47	3292.44
841.906	1575.89
842.341	853.59
842.777	636.74
843.212	661.99
843.648	415.69
844.083	281.39
844.519	206.09
844.954	178.54
845.39	156.89
845.825	148.69
846.261	147.54
846.696	143.49
847.131	136.29
847.566	134.34
848.002	142.24
848.437	149.24
848.872	155.04
849.307	189.99
849.742	354.34
850.177	926.84
850.613	1966.84
851.048	1429.94
851.483	655.64
851.918	366.34
852.353	200.49
852.788	145.39
853.223	129.19
853.657	120.39
854.092	116.74
854.527	110.09
854.962	126.14
855.397	136.09
855.832	116.44
856.266	104.04
856.701	100.74
857.136	111.84
857.57	138.29
858.005	168.74
858.44	136.54
858.874	129.24
859.309	130.34
859.743	124.24
860.178	123.89
860.612	135.34
861.047	191.89
861.481	264.84
861.915	184.39
862.35	137.14
862.784	106.79
863.218	103.64
863.653	111.94
864.087	135.79
864.521	160.89
864.955	270.24
865.39	468.89
865.824	364.59
866.258	471.34
866.692	744.69
867.126	535.94
867.56	286.04
867.994	187.44
868.428	155.54
868.862	192.34
869.296	178.49
869.73	217.74
870.164	188.34
870.598	166.19
871.031	116.59
871.465	106.29
871.899	84.84
872.333	74.69
872.766	75.89
873.2	74.79
873.634	74.99
874.067	78.49
874.501	80.04
874.935	84.19
875.368	77.64
875.802	74.64
876.235	72.34
876.669	69.19
877.102	62.84
877.535	62.39
877.969	62.09
878.402	65.64
878.836	62.04
879.269	53.99
879.702	60.39
880.135	62.34
880.569	61.04
881.002	52.84
881.435	57.89
881.868	55.74
882.301	54.04
882.734	52.79
883.167	58.84
883.601	56.19
884.034	57.24
884.467	52.69
884.899	50.14
885.332	46.24
885.765	48.89
886.198	47.74
886.631	46.74
887.064	47.09
887.497	45.79
887.929	52.84
888.362	46.24
888.795	44.24
889.228	52.09
889.66	48.79
890.093	44.39
890.526	48.79
890.958	46.39
891.391	48.79
891.823	45.09
892.256	47.69
892.688	47.29
893.121	44.59
893.553	50.19
893.985	45.14
894.418	44.89
894.85	46.74
895.282	46.09
895.715	42.24
896.147	40.64
896.579	40.19
897.011	47.14
897.444	45.49
897.876	34.39
898.308	41.19
898.74	44.19
899.172	44.94
899.604	42.74
900.036	40.79
900.468	43.54
900.9	50.84
901.332	56.19
901.764	60.79
902.196	57.99
902.628	59.79
903.06	89.99
903.491	101.64
903.923	75.09
904.355	77.44
904.787	83.79
905.218	67.29
905.65	60.54
906.082	57.94
906.513	50.49
906.945	51.49
907.376	51.04
907.808	54.74
908.239	50.94
908.671	62.49
909.102	71.84
909.534	93.89
909.965	180.69
910.397	457.59
910.828	1323.79
911.259	814.04
911.691	431.59
912.122	254.64
912.553	130.69
912.984	73.34
913.415	66.74
913.847	59.69
914.278	53.94
914.709	52.04
915.14	46.69
915.571	49.04
916.002	48.09
916.433	44.19
916.864	42.79
917.295	46.09
917.726	53.34
918.157	61.94
918.587	66.54
919.018	63.64
919.449	59.69
919.88	68.34
920.311	99.54
920.741	272.64
921.172	490.09
921.603	247.29
922.033	152.29
922.464	102.84
922.895	63.59
923.325	47.19
923.756	42.54
924.186	51.89
924.617	74.39
925.047	114.19
925.478	105.44
925.908	74.64
926.338	61.59
926.769	48.09
927.199	39.24
927.629	39.24
928.06	42.59
928.49	45.74
928.92	36.44
929.35	37.14
929.78	22.89
930.21	25.74
930.641	20.64
931.071	26.59
931.501	25.94
931.931	19.04
932.361	26.79
932.791	25.99
933.221	27.99
933.651	38.49
934.08	69.94
934.51	41.04
934.94	33.44
935.37	26.89
935.8	23.09
936.229	25.24
936.659	20.34
937.089	43.44
937.519	67.49
937.948	84.69
938.378	48.24
938.807	29.24
939.237	25.59
939.666	21.99
940.096	14.39
940.525	8.29
940.955	19.44
941.384	10.49
941.814	15.39
942.243	15.04
942.672	9.69
943.102	8.99
943.531	8.14
943.96	9.59
944.39	6.59
944.819	15.54
945.248	10.54
945.677	10.19
946.106	12.89
946.535	9.59
946.964	15.49
947.393	4.59
947.822	10.49
948.251	11.44
948.68	16.04
949.109	9.89
949.538	9.29
949.967	15.19
950.396	11.79
950.825	11.94
951.254	9.59
951.682	10.09
952.111	6.34
952.54	8.29
952.969	11.49
953.397	9.34
953.826	10.89
954.254	13.89
954.683	13.09
955.112	10.74
955.54	8.04
955.969	8.54
956.397	11.24
956.826	7.44
957.254	7.49
957.682	9.34
958.111	10.64
958.539	10.84
958.967	9.84
959.396	13.44
959.824	9.49
960.252	10.14
960.68	10.24
961.109	9.59
961.537	18.29
961.965	4.19
962.393	3.99
962.821	11.34
963.249	11.09
963.677	17.04
964.105	82.09
964.533	143.69
964.961	68.69
965.389	40.39
965.817	20.29
966.245	10.34
966.672	7.79
967.1	13.14
967.528	4.34
967.956	9.64
968.383	13.19
968.811	4.99
969.239	7.89
969.666	6.84
970.094	4.34
970.522	1.59
970.949	13.14
971.377	2.74
971.804	8.69
972.232	5.39
972.659	7.04
973.087	6.09
973.514	3.99
973.941	3.04
974.369	1.19
974.796	6.04
975.223	0.39
975.651	5.04
976.078	7.69
976.505	11.89
976.932	32.39
977.359	41.09
977.786	25.24
978.214	16.19
978.641	10.04
979.068	10.24
979.495	1.44
979.922	11.69
980.349	7.59
980.776	7.04
981.202	5.34
981.629	10.09
982.056	6.59
982.483	2.24
982.91	11.59
983.337	1.89
983.763	5.39
984.19	7.34
984.617	7.19
985.043	5.84
985.47	9.54
985.897	7.34
986.323	8.69
986.75	5.99
987.176	6.04
987.603	6.29
988.029	5.09
988.456	14.74
988.882	4.39
989.308	2.44
989.735	3.59
990.161	4.79
990.587	2.94
991.014	2.84
991.44	5.54
991.866	6.99
992.292	5.84
992.719	0.24
993.145	8.59
993.571	6.29
993.997	10.24
994.423	9.44
994.849	-1.06
995.275	6.39
995.701	5.09
996.127	-0.56
996.553	-0.21
996.979	3.99
997.405	9.89
997.83	5.49
998.256	8.69
998.682	4.04
999.108	6.69
999.534	-3.31
999.959	4.59
1000.385	7.74
1000.811	0.59
1001.236	-1.01
1001.662	3.69
1002.087	8.49
1002.513	4.39
1002.938	8.09
1003.364	0.69
1003.789	9.69
1004.215	3.49
1004.64	6.74
1005.066	7.34
1005.491	4.34
1005.916	4.74
1006.342	3.34
1006.767	3.89
1007.192	4.14
1007.617	4.09
1008.042	6.54
1008.468	5.24
1008.893	7.34
1009.318	13.34
1009.743	18.29
1010.168	32.34
1010.593	27.34
1011.018	18.14
1011.443	9.39
1011.868	10.84
1012.293	6.19
1012.718	1.19
1013.143	2.89
1013.567	10.44
1013.992	8.29
1014.417	9.44
1014.842	2.59
1015.267	2.89
1015.691	8.84
1016.116	2.19
1016.541	3.29
1016.965	-0.11
1017.39	4.99
1017.814	1.24
1018.239	3.79
1018.663	-0.86
1019.088	-3.46
1019.512	7.04
1019.937	-0.81
1020.361	1.99
1020.785	2.44
1021.21	-0.71
1021.634	1.14
1022.058	3.19
1022.483	-0.61
1022.907	-2.46
1023.331	1.49
1023.755	0.99
1024.179	2.14
1024.604	4.99
1025.028	4.59
1025.452	2.64
1025.876	3.49
1026.3	2.64
1026.724	-1.36
1027.148	-0.26
1027.572	-0.26
1027.996	4.64
1028.42	0.39
1028.843	-0.71
1029.267	3.34
1029.691	6.09
1030.115	0.24
1030.539	0.54
1030.962	0.29
1031.386	0.99
1031.81	0.14
1032.233	1.94
1032.657	-3.16
1033.08	2.09
1033.504	1.69
1033.927	0.19
1034.351	3.74
1034.774	1.64
1035.198	-3.31
1035.621	1.04
1036.045	-1.56
1036.468	4.44
1036.891	-0.76
1037.315	2.24
1037.738	-2.46
1038.161	3.84
1038.584	4.19
1039.008	2.04
1039.431	-0.06
1039.854	-1.36
1040.277	5.44
1040.7	0.14
1041.123	1.84
1041.546	-0.86
1041.969	1.69
1042.392	2.84
1042.815	-5.76
1043.238	-0.11
1043.661	-4.16
1044.084	-2.31
1044.507	-2.31
1044.93	0.24
1045.352	3.74
1045.775	2.64
1046.198	6.29
1046.621	4.39
1047.043	-0.71
1047.466	1.64
1047.889	1.14
1048.311	0.19
1048.734	-0.01
1049.156	0.69
1049.579	2.09
1050.001	-2.06
1050.424	-3.56
1050.846	-5.66
1051.269	0.64
1051.691	5.14
1052.113	1.89
1052.536	3.14
1052.958	0.64
1053.38	1.99
1053.802	0.74
1054.225	3.84
1054.647	4.99
1055.069	1.14
1055.491	3.94
1055.913	2.19
1056.335	-4.21
1056.757	-3.41
1057.179	1.14
1057.601	-2.16
1058.023	2.49
1058.445	-3.06
1058.867	2.04
1059.289	0.94
1059.711	-2.96
1060.133	2.49
1060.555	0.54
1060.976	4.69
1061.398	-1.56
1061.82	1.99
1062.241	1.09
1062.663	0.14
1063.085	-2.56
1063.506	-5.51
1063.928	-1.46
1064.35	-0.71
1064.771	-2.06
1065.193	-2.31
1065.614	-4.36
1066.035	8.84
1066.457	5.59
1066.878	0.94
1067.3	1.94
1067.721	3.99
1068.142	5.44
1068.564	0.69
1068.985	1.19
1069.406	-2.56
1069.827	2.79
1070.248	-1.66
1070.67	0.09
1071.091	-1.96
1071.512	2.44
1071.933	-4.81
1072.354	-5.61
1072.775	2.14
1073.196	-5.26
1073.617	-3.66
1074.038	-2.31
1074.459	-1.61
1074.88	-3.56
1075.3	1.24
1075.721	3.54
1076.142	-1.86
1076.563	-3.46
1076.983	0.14
1077.404	-7.86
1077.825	-2.36
1078.246	0.44
1078.666	-0.56
1079.087	-1.31
1079.507	-1.56
1079.928	2.34
1080.348	-1.16
1080.769	1.94
1081.189	0.39
1081.61	-3.26
1082.03	5.59
1082.451	0.09
1082.871	-4.06
1083.291	1.39
1083.711	-1.11
1084.132	-1.31
1084.552	-3.01
1084.972	-3.46
1085.392	-1.56
1085.813	0.19
1086.233	3.24
1086.653	2.69
1087.073	-0.11
1087.493	-1.96
1087.913	-6.81
1088.333	-3.36
1088.753	-0.66
1089.173	1.69
1089.593	-1.21
1090.013	-1.86
1090.433	-5.61
1090.852	3.99
1091.272	-5.21
1091.692	-1.16
1092.112	-1.51
1092.531	-3.16
1092.951	-0.91
1093.371	0.59
1093.79	-3.16
1094.21	-0.96
1094.63	0.49
1095.049	-1.46
1095.469	-6.31
1095.888	0.44
1096.308	3.29
1096.727	-2.01
1097.146	-3.91
1097.566	2.89
1097.985	-0.51
1098.405	2.44
1098.824	1.49
1099.243	-2.41
1099.662	-5.91
1100.082	1.89
1100.501	-1.01
1100.92	5.69
1101.339	1.69
1101.758	4.54
