Data from MSPlasma+Separation6_Subt14_10-14-08-117.txt Node
Date: Fri Jul 21 10:14:08 EDT 2017
User: Ender
Spectrometer: HR+D1039
Trigger mode: 0
Integration Time (sec): 6.430000E-3
Scans to average: 20
Electric dark correction enabled: true
Nonlinearity correction enabled: false
Boxcar width: 0
XAxis mode: Wavelengths
Number of Pixels in Spectrum: 2048
>>>>>Begin Spectral Data<<<<<
187.836	0.38
188.309	0.38
188.782	0.38
189.255	-1.57
189.728	2.88
190.201	-0.62
190.674	1.13
191.147	-3.22
191.619	-1.12
192.092	2.03
192.565	-2.27
193.038	2.28
193.511	1.73
193.984	2.58
194.456	-0.37
194.929	-1.57
195.402	-4.87
195.874	2.58
196.347	3.78
196.82	5.88
197.292	-0.62
197.765	1.48
198.237	-1.07
198.71	-6.02
199.182	-0.87
199.655	1.38
200.127	4.18
200.6	1.58
201.072	2.98
201.544	-0.52
202.017	-2.77
202.489	1.48
202.961	0.98
203.433	-0.92
203.906	-3.47
204.378	-1.97
204.85	-2.07
205.322	-2.17
205.794	3.58
206.266	-1.42
206.739	4.83
207.211	-2.87
207.683	-2.42
208.155	3.53
208.627	2.23
209.099	2.83
209.57	-0.17
210.042	2.73
210.514	0.63
210.986	0.08
211.458	-0.87
211.93	2.98
212.402	1.03
212.873	-0.07
213.345	-4.52
213.817	5.33
214.288	-0.82
214.76	1.83
215.232	3.43
215.703	2.38
216.175	2.93
216.646	5.38
217.118	1.08
217.589	-0.82
218.061	-0.02
218.532	-2.42
219.004	6.13
219.475	3.93
219.946	2.28
220.418	13.48
220.889	6.33
221.36	7.13
221.832	9.23
222.303	0.18
222.774	3.28
223.245	3.28
223.717	1.43
224.188	4.98
224.659	5.03
225.13	2.33
225.601	5.18
226.072	3.28
226.543	8.03
227.014	3.23
227.485	2.98
227.956	6.13
228.427	10.23
228.898	8.33
229.369	6.08
229.839	5.78
230.31	9.48
230.781	9.68
231.252	11.58
231.722	6.68
232.193	10.23
232.664	6.58
233.135	10.48
233.605	7.33
234.076	9.73
234.546	8.98
235.017	7.23
235.487	11.58
235.958	11.68
236.428	11.08
236.899	11.98
237.369	13.13
237.84	14.13
238.31	14.88
238.78	8.38
239.251	8.88
239.721	13.08
240.191	13.58
240.662	19.18
241.132	11.93
241.602	16.88
242.072	15.13
242.542	13.63
243.013	14.58
243.483	21.08
243.953	16.88
244.423	18.73
244.893	14.43
245.363	21.68
245.833	15.53
246.303	21.63
246.773	22.23
247.243	18.28
247.712	16.88
248.182	21.98
248.652	23.13
249.122	21.28
249.592	20.98
250.061	18.83
250.531	25.38
251.001	23.23
251.471	28.93
251.94	25.78
252.41	24.73
252.879	22.18
253.349	30.53
253.818	30.48
254.288	33.03
254.757	29.43
255.227	30.93
255.696	32.88
256.166	31.83
256.635	34.33
257.105	30.08
257.574	33.48
258.043	34.53
258.513	36.93
258.982	28.58
259.451	37.03
259.92	29.93
260.389	31.83
260.859	36.23
261.328	39.73
261.797	34.58
262.266	38.53
262.735	37.88
263.204	35.53
263.673	38.53
264.142	35.58
264.611	37.48
265.08	42.03
265.549	37.13
266.018	40.18
266.487	43.58
266.955	39.18
267.424	45.23
267.893	46.38
268.362	46.88
268.83	39.58
269.299	40.93
269.768	45.58
270.236	48.63
270.705	49.53
271.174	49.83
271.642	48.13
272.111	44.58
272.579	49.43
273.048	48.38
273.516	53.48
273.985	54.63
274.453	45.48
274.922	53.38
275.39	48.23
275.858	54.78
276.327	50.68
276.795	48.28
277.263	54.98
277.731	53.63
278.2	57.83
278.668	55.23
279.136	61.48
279.604	60.13
280.072	56.43
280.54	56.43
281.008	62.88
281.477	65.63
281.945	57.98
282.413	60.28
282.881	58.08
283.348	62.68
283.816	62.08
284.284	63.03
284.752	64.58
285.22	69.88
285.688	67.48
286.156	71.83
286.623	71.63
287.091	70.18
287.559	72.83
288.026	73.23
288.494	74.78
288.962	72.43
289.429	77.08
289.897	71.58
290.364	72.88
290.832	71.53
291.3	70.13
291.767	73.68
292.234	76.18
292.702	81.03
293.169	77.28
293.637	84.33
294.104	82.28
294.571	74.93
295.039	82.83
295.506	77.88
295.973	83.38
296.44	79.33
296.908	86.58
297.375	85.28
297.842	89.38
298.309	88.68
298.776	85.98
299.243	87.98
299.71	91.78
300.177	92.63
300.644	90.03
301.111	91.23
301.578	95.23
302.045	93.63
302.512	93.93
302.979	93.68
303.446	100.23
303.913	97.83
304.379	100.78
304.846	106.03
305.313	111.08
305.78	110.13
306.246	107.88
306.713	113.68
307.18	111.68
307.646	116.13
308.113	116.38
308.579	115.33
309.046	119.23
309.512	115.93
309.979	121.98
310.445	120.08
310.912	125.93
311.378	132.13
311.845	131.13
312.311	122.98
312.777	124.03
313.244	129.68
313.71	127.18
314.176	141.38
314.642	139.18
315.109	137.78
315.575	134.08
316.041	134.83
316.507	140.03
316.973	144.53
317.439	145.48
317.905	142.43
318.371	141.93
318.837	139.53
319.303	146.08
319.769	140.98
320.235	151.08
320.701	145.18
321.167	144.63
321.633	149.88
322.099	143.78
322.564	153.48
323.03	154.38
323.496	154.53
323.962	153.78
324.427	162.38
324.893	153.93
325.359	162.73
325.824	157.93
326.29	167.13
326.755	164.88
327.221	167.48
327.686	174.18
328.152	175.08
328.617	176.38
329.083	178.68
329.548	185.68
330.014	184.13
330.479	185.28
330.944	185.93
331.41	186.13
331.875	180.93
332.34	182.23
332.805	190.33
333.271	187.03
333.736	186.68
334.201	189.13
334.666	204.93
335.131	205.23
335.596	202.08
336.061	197.13
336.526	196.08
336.991	192.73
337.456	190.83
337.921	190.93
338.386	189.73
338.851	196.08
339.316	195.13
339.781	195.08
340.246	194.63
340.711	199.83
341.175	207.43
341.64	211.08
342.105	209.28
342.569	223.23
343.034	214.88
343.499	217.58
343.963	229.68
344.428	222.63
344.893	223.58
345.357	231.63
345.822	233.98
346.286	234.68
346.751	239.18
347.215	244.38
347.679	252.08
348.144	264.73
348.608	265.88
349.073	264.83
349.537	270.63
350.001	274.83
350.465	271.58
350.93	274.13
351.394	278.58
351.858	280.28
352.322	283.13
352.786	284.33
353.25	284.03
353.715	285.43
354.179	300.68
354.643	309.33
355.107	311.08
355.571	309.13
356.035	300.53
356.498	296.78
356.962	304.03
357.426	301.98
357.89	302.48
358.354	293.33
358.818	297.48
359.281	301.98
359.745	308.93
360.209	296.33
360.673	297.03
361.136	299.98
361.6	302.18
362.064	314.08
362.527	322.43
362.991	316.08
363.454	312.73
363.918	321.38
364.381	325.53
364.845	320.78
365.308	327.68
365.772	325.83
366.235	334.98
366.698	328.03
367.162	324.13
367.625	333.83
368.088	339.03
368.552	337.23
369.015	338.23
369.478	342.03
369.941	340.23
370.404	354.93
370.867	343.88
371.331	350.83
371.794	355.63
372.257	355.68
372.72	358.28
373.183	362.33
373.646	362.08
374.109	359.98
374.572	364.93
375.035	365.63
375.497	367.13
375.96	378.08
376.423	380.58
376.886	392.83
377.349	393.58
377.811	394.88
378.274	400.18
378.737	396.33
379.199	395.63
379.662	401.28
380.125	402.23
380.587	409.38
381.05	412.93
381.512	416.03
381.975	431.03
382.437	436.08
382.9	432.23
383.362	434.78
383.825	438.58
384.287	442.93
384.75	438.03
385.212	444.08
385.674	444.43
386.136	448.53
386.599	446.88
387.061	443.58
387.523	452.73
387.985	452.18
388.447	466.38
388.91	456.73
389.372	461.18
389.834	459.48
390.296	458.63
390.758	468.28
391.22	462.63
391.682	460.08
392.144	464.73
392.606	466.78
393.068	478.43
393.529	505.78
393.991	512.53
394.453	491.93
394.915	481.98
395.377	472.93
395.838	477.23
396.3	473.33
396.762	480.68
397.224	478.93
397.685	477.83
398.147	484.23
398.608	492.88
399.07	505.28
399.531	498.48
399.993	516.53
400.454	517.48
400.916	518.78
401.377	525.53
401.839	531.53
402.3	531.98
402.762	553.08
403.223	587.68
403.684	591.08
404.145	574.93
404.607	561.08
405.068	552.13
405.529	559.13
405.99	567.33
406.451	569.33
406.913	559.28
407.374	572.78
407.835	568.23
408.296	583.63
408.757	580.98
409.218	603.63
409.679	609.98
410.14	614.83
410.601	625.33
411.062	630.48
411.522	628.58
411.983	634.68
412.444	643.23
412.905	647.43
413.366	674.43
413.826	703.93
414.287	794.53
414.748	928.23
415.208	956.23
415.669	806.03
416.13	736.73
416.59	716.78
417.051	743.78
417.511	771.93
417.972	829.68
418.432	886.58
418.893	966.28
419.353	932.18
419.814	732.03
420.274	660.13
420.734	649.53
421.195	665.78
421.655	667.08
422.115	682.38
422.576	679.88
423.036	678.28
423.496	700.73
423.956	732.23
424.416	776.93
424.876	872.63
425.336	876.93
425.797	855.18
426.257	845.53
426.717	799.98
427.177	750.63
427.637	750.73
428.097	784.43
428.556	808.73
429.016	863.68
429.476	864.38
429.936	847.98
430.396	844.68
430.856	875.28
431.315	883.13
431.775	948.78
432.235	1007.13
432.694	1022.93
433.154	977.48
433.614	951.88
434.073	921.08
434.533	837.18
434.993	801.38
435.452	797.68
435.912	792.98
436.371	788.83
436.83	776.38
437.29	766.03
437.749	740.13
438.209	747.98
438.668	758.68
439.127	761.83
439.587	748.13
440.046	729.18
440.505	754.98
440.964	757.23
441.424	779.03
441.883	801.43
442.342	755.48
442.801	716.98
443.26	726.78
443.719	727.78
444.178	724.63
444.637	726.48
445.096	738.03
445.555	750.48
446.014	742.18
446.473	736.88
446.932	738.43
447.391	744.58
447.849	759.08
448.308	749.43
448.767	751.93
449.226	761.28
449.685	773.48
450.143	804.08
450.602	808.88
451.061	764.98
451.519	765.58
451.978	759.03
452.436	759.48
452.895	770.78
453.353	762.38
453.812	754.88
454.27	760.38
454.729	760.68
455.187	771.23
455.646	761.38
456.104	777.63
456.562	776.73
457.021	787.53
457.479	754.08
457.937	787.43
458.395	806.53
458.854	794.58
459.312	785.03
459.77	797.43
460.228	795.63
460.686	809.43
461.144	811.68
461.602	804.28
462.06	811.83
462.518	823.63
462.976	825.33
463.434	833.03
463.892	838.13
464.35	863.03
464.808	877.78
465.266	889.53
465.724	892.18
466.181	897.88
466.639	892.33
467.097	927.23
467.555	959.83
468.012	955.58
468.47	962.68
468.928	1003.43
469.385	1026.13
469.843	1032.63
470.3	1023.73
470.758	1063.38
471.215	1074.28
471.673	1092.43
472.13	1119.93
472.588	1147.18
473.045	1141.53
473.503	1163.83
473.96	1209.58
474.417	1229.93
474.875	1280.53
475.332	1316.13
475.789	1342.98
476.246	1383.78
476.704	1442.13
477.161	1471.58
477.618	1516.63
478.075	1599.28
478.532	1709.83
478.989	1846.48
479.446	2020.28
479.903	2118.78
480.36	2289.38
480.817	2413.28
481.274	2571.13
481.731	2776.38
482.188	2970.38
482.645	3172.38
483.102	3331.88
483.558	3553.58
484.015	3697.28
484.472	3649.28
484.929	3551.88
485.385	3400.33
485.842	3334.08
486.299	3230.28
486.755	2986.78
487.212	2712.38
487.668	2455.08
488.125	2301.68
488.582	2144.83
489.038	2062.98
489.494	2014.13
489.951	1960.23
490.407	1910.48
490.864	1873.28
491.32	1844.58
491.776	1835.48
492.233	1837.58
492.689	1812.88
493.145	1759.93
493.602	1758.13
494.058	1771.88
494.514	1765.28
494.97	1773.83
495.426	1800.43
495.882	1808.58
496.338	1789.38
496.794	1822.68
497.251	1799.33
497.707	1819.98
498.163	1834.03
498.618	1831.58
499.074	1815.48
499.53	1851.88
499.986	1860.48
500.442	1841.38
500.898	1818.23
501.354	1843.98
501.809	1848.53
502.265	1840.38
502.721	1850.78
503.177	1859.43
503.632	1859.43
504.088	1880.23
504.543	1893.83
504.999	1912.38
505.455	1903.43
505.91	1884.98
506.366	1888.43
506.821	1888.08
507.277	1881.03
507.732	1889.73
508.187	1895.23
508.643	1917.03
509.098	1912.78
509.553	1940.38
510.009	1958.48
510.464	1993.58
510.919	2006.23
511.375	2024.03
511.83	2046.83
512.285	2075.18
512.74	2127.13
513.195	2145.93
513.65	2186.03
514.105	2209.98
514.56	2205.43
515.015	2258.53
515.47	2264.83
515.925	2241.18
516.38	2236.48
516.835	2250.03
517.29	2230.83
517.745	2221.03
518.2	2199.68
518.655	2161.83
519.109	2122.68
519.564	2105.68
520.019	2096.93
520.474	2069.88
520.928	2069.78
521.383	2036.48
521.838	2029.68
522.292	2015.23
522.747	2002.68
523.201	2006.38
523.656	1980.58
524.11	1981.78
524.565	1966.13
525.019	1973.78
525.474	1967.88
525.928	1948.93
526.382	1957.78
526.837	1964.63
527.291	1963.33
527.745	1957.03
528.2	1950.38
528.654	1933.43
529.108	1944.68
529.562	1943.93
530.016	1936.63
530.47	1943.23
530.925	1945.88
531.379	1945.38
531.833	1959.13
532.287	1956.98
532.741	1932.88
533.195	1949.63
533.649	1948.83
534.103	1963.03
534.556	1943.23
535.01	1948.18
535.464	1934.48
535.918	1937.03
536.372	1957.73
536.826	1953.38
537.279	1932.88
537.733	1936.03
538.187	1941.93
538.64	1946.78
539.094	1960.83
539.548	1984.03
540.001	1983.43
540.455	1994.48
540.908	2009.08
541.362	2025.08
541.815	2032.08
542.269	2084.13
542.722	2061.83
543.175	2090.03
543.629	2096.78
544.082	2117.23
544.536	2132.88
544.989	2130.13
545.442	2162.88
545.895	2153.58
546.349	2144.18
546.802	2166.98
547.255	2165.13
547.708	2159.63
548.161	2191.68
548.614	2195.08
549.067	2188.43
549.52	2185.33
549.973	2154.53
550.426	2148.13
550.879	2163.83
551.332	2153.73
551.785	2173.38
552.238	2191.38
552.691	2188.93
553.144	2218.48
553.596	2260.73
554.049	2283.98
554.502	2329.43
554.955	2362.43
555.407	2381.13
555.86	2366.93
556.313	2349.33
556.765	2320.83
557.218	2297.33
557.67	2293.83
558.123	2254.28
558.576	2253.98
559.028	2251.03
559.48	2263.53
559.933	2253.68
560.385	2172.68
560.838	2125.38
561.29	2065.13
561.742	2056.93
562.195	2012.68
562.647	2000.83
563.099	1971.93
563.551	1959.48
564.004	1980.88
564.456	1970.23
564.908	1925.48
565.36	1889.38
565.812	1838.38
566.264	1836.48
566.716	1818.48
567.168	1775.63
567.62	1791.38
568.072	1778.33
568.524	1762.68
568.976	1748.68
569.428	1741.78
569.88	1735.08
570.332	1743.53
570.784	1753.78
571.235	1739.78
571.687	1759.38
572.139	1770.03
572.59	1779.93
573.042	1785.48
573.494	1783.28
573.945	1762.83
574.397	1724.73
574.849	1730.63
575.3	1721.73
575.752	1696.08
576.203	1690.18
576.655	1695.93
577.106	1668.98
577.557	1662.93
578.009	1643.68
578.46	1657.98
578.912	1642.03
579.363	1654.38
579.814	1656.28
580.265	1648.43
580.717	1649.83
581.168	1646.23
581.619	1658.18
582.07	1665.28
582.521	1659.83
582.972	1652.23
583.423	1663.73
583.875	1670.03
584.326	1688.78
584.777	1704.18
585.227	1733.78
585.678	1755.03
586.129	1766.58
586.58	1793.63
587.031	1817.28
587.482	1865.18
587.933	1882.78
588.384	1883.78
588.834	1861.78
589.285	1857.98
589.736	1861.43
590.186	1855.43
590.637	1833.68
591.088	1787.73
591.538	1759.38
591.989	1743.58
592.439	1722.78
592.89	1706.43
593.34	1699.43
593.791	1688.98
594.241	1683.68
594.692	1669.78
595.142	1664.93
595.593	1655.73
596.043	1681.43
596.493	1697.78
596.943	1691.93
597.394	1743.08
597.844	1761.78
598.294	1793.48
598.744	1862.73
599.195	1938.98
599.645	2050.83
600.095	2160.08
600.545	2250.38
600.995	2344.68
601.445	2424.03
601.895	2531.53
602.345	2594.98
602.795	2575.98
603.245	2476.53
603.695	2331.98
604.145	2212.93
604.594	2117.53
605.044	2001.28
605.494	1888.93
605.944	1780.08
606.393	1743.08
606.843	1715.68
607.293	1712.13
607.743	1688.03
608.192	1707.48
608.642	1700.63
609.091	1718.38
609.541	1698.18
609.99	1708.83
610.44	1669.18
610.889	1656.43
611.339	1627.18
611.788	1606.68
612.238	1618.48
612.687	1625.88
613.136	1622.88
613.586	1652.03
614.035	1641.68
614.484	1660.18
614.933	1647.43
615.383	1616.08
615.832	1574.38
616.281	1562.93
616.73	1527.38
617.179	1492.68
617.628	1464.18
618.077	1441.28
618.526	1420.28
618.975	1412.23
619.424	1384.63
619.873	1387.68
620.322	1372.18
620.771	1376.23
621.22	1343.43
621.669	1324.93
622.118	1309.78
622.567	1304.33
623.015	1289.43
623.464	1280.78
623.913	1259.78
624.361	1258.83
624.81	1262.18
625.259	1267.13
625.707	1261.13
626.156	1262.53
626.604	1277.73
627.053	1287.73
627.501	1280.13
627.95	1295.33
628.398	1307.38
628.847	1277.83
629.295	1283.83
629.744	1280.68
630.192	1252.58
630.64	1234.98
631.089	1222.03
631.537	1187.98
631.985	1178.28
632.433	1182.88
632.881	1170.33
633.33	1171.63
633.778	1166.43
634.226	1186.63
634.674	1195.63
635.122	1197.43
635.57	1224.13
636.018	1241.38
636.466	1232.58
636.914	1227.83
637.362	1257.83
637.81	1273.13
638.258	1316.78
638.705	1333.48
639.153	1381.13
639.601	1386.88
640.049	1412.98
640.497	1437.48
640.944	1472.68
641.392	1425.93
641.84	1349.43
642.287	1292.03
642.735	1254.28
643.182	1247.38
643.63	1243.73
644.078	1254.88
644.525	1259.38
644.973	1306.38
645.42	1331.13
645.867	1351.33
646.315	1386.18
646.762	1431.93
647.21	1473.18
647.657	1549.88
648.104	1602.28
648.551	1640.18
648.999	1758.78
649.446	1934.28
649.893	2152.23
650.34	2503.63
650.787	3050.13
651.234	3901.08
651.682	5353.73
652.129	7511.33
652.576	10620.43
653.023	13958.38
653.47	15531.13
653.917	15535.68
654.363	15535.58
654.81	15532.58
655.257	15533.23
655.704	13322.93
656.151	8060.33
656.598	5360.53
657.044	3858.28
657.491	3049.18
657.938	2499.18
658.385	2138.63
658.831	1891.53
659.278	1703.78
659.724	1566.33
660.171	1472.93
660.618	1370.63
661.064	1290.93
661.511	1261.73
661.957	1227.43
662.404	1201.93
662.85	1188.23
663.296	1174.18
663.743	1145.88
664.189	1131.88
664.635	1126.68
665.082	1100.33
665.528	1085.43
665.974	1057.68
666.42	1038.93
666.867	1026.13
667.313	990.03
667.759	977.68
668.205	970.28
668.651	964.78
669.097	964.63
669.543	978.43
669.989	978.93
670.435	988.08
670.881	997.53
671.327	1037.48
671.773	1103.18
672.219	1186.13
672.665	1261.63
673.11	1303.33
673.556	1306.73
674.002	1341.88
674.448	1342.98
674.893	1163.08
675.339	1012.88
675.785	939.18
676.23	891.88
676.676	853.63
677.122	837.43
677.567	809.33
678.013	784.33
678.458	775.83
678.904	771.73
679.349	765.23
679.794	764.23
680.24	760.38
680.685	754.43
681.131	764.58
681.576	759.28
682.021	766.08
682.466	778.23
682.912	785.98
683.357	822.28
683.802	888.28
684.247	970.38
684.692	1033.03
685.137	1076.43
685.583	1088.68
686.028	1138.48
686.473	1087.13
686.918	944.63
687.363	864.83
687.807	821.08
688.252	783.28
688.697	756.23
689.142	734.28
689.587	740.28
690.032	755.48
690.477	783.63
690.921	825.78
691.366	862.08
691.811	901.53
692.255	968.28
692.7	1179.28
693.145	1712.43
693.589	2607.48
694.034	3099.88
694.478	3256.98
694.923	2963.58
695.367	4127.23
695.812	2561.43
696.256	1098.03
696.701	812.78
697.145	746.63
697.59	719.68
698.034	707.88
698.478	702.98
698.922	709.28
699.367	725.73
699.811	756.63
700.255	822.08
700.699	890.73
701.143	970.18
701.588	1024.33
702.032	1064.18
702.476	1104.08
702.92	1191.88
703.364	1560.73
703.808	2388.23
704.252	2948.63
704.696	3103.98
705.14	2896.43
705.584	3916.18
706.027	2228.33
706.471	1123.68
706.915	841.73
707.359	746.03
707.803	701.03
708.246	681.13
708.69	680.38
709.134	665.03
709.577	664.18
710.021	669.93
710.465	668.78
710.908	667.13
711.352	691.43
711.795	755.58
712.239	814.58
712.682	832.03
713.126	817.68
713.569	905.28
714.012	751.63
714.456	659.98
714.899	626.13
715.342	591.53
715.786	577.23
716.229	551.83
716.672	544.03
717.115	536.63
717.558	547.43
718.002	559.78
718.445	585.98
718.888	617.73
719.331	625.88
719.774	637.68
720.217	631.98
720.66	597.88
721.103	558.38
721.546	539.13
721.989	522.93
722.432	517.03
722.874	511.48
723.317	518.28
723.76	563.18
724.203	690.98
724.645	934.93
725.088	1087.98
725.531	1060.33
725.974	1148.33
726.416	1039.43
726.859	643.03
727.301	537.83
727.744	507.13
728.187	509.78
728.629	523.33
729.071	545.28
729.514	567.08
729.956	599.48
730.399	613.28
730.841	609.68
731.283	597.33
731.726	576.83
732.168	587.28
732.61	619.33
733.053	659.88
733.495	731.98
733.937	818.63
734.379	962.93
734.821	1232.63
735.263	1947.73
735.705	3510.23
736.148	5115.33
736.59	5091.98
737.032	5406.43
737.474	4491.78
737.916	1767.73
738.357	942.08
738.799	717.63
739.241	666.73
739.683	673.68
740.125	687.93
740.567	698.83
741.008	736.58
741.45	784.68
741.892	824.48
742.334	822.48
742.775	809.18
743.217	781.63
743.658	676.08
744.1	690.98
744.542	795.33
744.983	824.53
745.425	850.08
745.866	832.18
746.307	699.33
746.749	736.33
747.19	1068.58
747.632	2072.43
748.073	3814.03
748.514	5269.68
748.956	6923.68
749.397	8065.98
749.838	5602.83
750.279	5233.33
750.72	2772.48
751.162	1186.48
751.603	676.58
752.044	540.08
752.485	490.58
752.926	453.13
753.367	439.93
753.808	425.28
754.249	423.03
754.69	412.48
755.131	408.98
755.572	409.73
756.013	408.38
756.453	409.93
756.894	422.28
757.335	413.93
757.776	424.38
758.216	435.63
758.657	467.63
759.098	509.78
759.538	623.98
759.979	898.03
760.42	1824.38
760.86	4641.88
761.301	9496.23
761.741	11132.18
762.182	12505.23
762.622	8160.08
763.063	2984.28
763.503	1225.28
763.943	712.68
764.384	566.48
764.824	486.23
765.264	454.08
765.705	431.78
766.145	398.78
766.585	396.58
767.025	373.58
767.465	383.23
767.906	390.03
768.346	416.68
768.786	478.08
769.226	705.83
769.666	1419.23
770.106	3159.18
770.546	4472.68
770.986	4971.93
771.426	3788.33
771.866	1600.73
772.306	734.28
772.745	452.43
773.185	379.33
773.625	374.23
774.065	405.78
774.505	585.98
774.944	1060.78
775.384	1509.28
775.824	1668.03
776.263	1377.58
776.703	739.68
777.142	421.93
777.582	311.73
778.021	287.13
778.461	277.03
778.9	276.68
779.34	267.08
779.779	259.88
780.219	256.18
780.658	242.13
781.097	236.18
781.537	236.23
781.976	236.73
782.415	233.13
782.855	233.28
783.294	236.13
783.733	229.33
784.172	237.43
784.611	232.43
785.05	237.88
785.489	245.48
785.928	248.58
786.367	262.78
786.806	279.08
787.245	296.33
787.684	303.73
788.123	305.33
788.562	292.03
789.001	279.63
789.44	274.68
789.879	273.43
790.317	283.63
790.756	292.08
791.195	334.78
791.634	461.58
792.072	814.43
792.511	2001.68
792.95	3667.93
793.388	4358.58
793.827	2853.98
794.265	1327.98
794.704	639.18
795.142	394.78
795.581	321.18
796.019	297.48
796.458	296.63
796.896	297.63
797.334	349.18
797.773	465.63
798.211	896.83
798.649	1842.03
799.087	3071.13
799.526	4340.23
799.964	4428.63
800.402	3068.93
800.84	1410.03
801.278	691.58
801.716	420.83
802.154	337.63
802.592	325.28
803.03	320.78
803.468	333.28
803.906	335.88
804.344	327.03
804.782	317.38
805.22	321.68
805.658	331.28
806.096	354.73
806.533	392.23
806.971	508.23
807.409	736.63
807.847	1463.93
808.284	3694.63
808.722	6430.03
809.16	9003.98
809.597	12262.93
810.035	14771.83
810.472	9811.93
810.91	4225.78
811.347	1910.58
811.785	899.63
812.222	565.83
812.66	437.03
813.097	368.53
813.535	318.93
813.972	289.63
814.409	269.43
814.846	259.83
815.284	242.38
815.721	250.03
816.158	281.03
816.595	387.08
817.032	482.63
817.47	438.68
817.907	312.38
818.344	274.03
818.781	273.18
819.218	336.28
819.655	520.48
820.092	669.73
820.529	602.73
820.966	476.03
821.403	326.03
821.839	277.93
822.276	308.33
822.713	368.78
823.15	338.78
823.587	346.33
824.023	609.68
824.46	1506.23
824.897	2583.08
825.333	2029.78
825.77	948.28
826.206	496.08
826.643	292.08
827.08	217.58
827.516	190.58
827.953	184.38
828.389	169.18
828.825	162.73
829.262	156.03
829.698	152.43
830.135	140.33
830.571	147.43
831.007	149.53
831.443	144.43
831.88	148.58
832.316	145.03
832.752	149.68
833.188	151.33
833.624	155.48
834.06	156.23
834.497	156.88
834.933	158.93
835.369	174.13
835.805	181.93
836.241	183.93
836.677	211.63
837.112	238.73
837.548	308.08
837.984	445.03
838.42	960.53
838.856	2634.58
839.292	5155.83
839.727	3863.48
840.163	2629.48
840.599	3940.18
841.034	5957.78
841.47	3036.93
841.906	1485.73
842.341	803.48
842.777	601.63
843.212	614.63
843.648	382.13
844.083	255.93
844.519	196.48
844.954	163.93
845.39	145.48
845.825	141.83
846.261	133.03
846.696	131.73
847.131	121.43
847.566	127.98
848.002	129.43
848.437	138.38
848.872	146.78
849.307	182.58
849.742	329.33
850.177	863.68
850.613	1812.13
851.048	1316.13
851.483	613.88
851.918	340.73
852.353	189.08
852.788	133.28
853.223	117.63
853.657	109.18
854.092	106.48
854.527	109.58
854.962	113.48
855.397	124.93
855.832	106.98
856.266	99.98
856.701	95.43
857.136	100.08
857.57	126.23
858.005	147.53
858.44	131.88
858.874	118.28
859.309	125.93
859.743	118.38
860.178	113.13
860.612	129.78
861.047	173.98
861.481	242.33
861.915	166.18
862.35	122.98
862.784	99.38
863.218	95.48
863.653	99.28
864.087	126.68
864.521	153.33
864.955	251.53
865.39	425.68
865.824	334.98
866.258	443.73
866.692	679.68
867.126	494.08
867.56	266.08
867.994	165.43
868.428	144.48
868.862	179.43
869.296	162.58
869.73	199.83
870.164	173.98
870.598	150.88
871.031	108.88
871.465	92.68
871.899	76.18
872.333	69.98
872.766	68.78
873.2	67.58
873.634	68.03
874.067	70.13
874.501	71.63
874.935	71.53
875.368	75.18
875.802	62.58
876.235	59.43
876.669	61.08
877.102	58.98
877.535	56.88
877.969	56.18
878.402	58.58
878.836	54.73
879.269	50.73
879.702	52.63
880.135	59.23
880.569	63.23
881.002	55.28
881.435	54.98
881.868	51.43
882.301	47.23
882.734	48.08
883.167	51.43
883.601	46.13
884.034	55.23
884.467	39.08
884.899	47.68
885.332	43.43
885.765	45.23
886.198	44.13
886.631	44.38
887.064	40.28
887.497	41.93
887.929	48.23
888.362	40.23
888.795	44.83
889.228	45.38
889.66	45.58
890.093	41.13
890.526	41.23
890.958	41.63
891.391	43.98
891.823	40.88
892.256	43.18
892.688	44.83
893.121	39.58
893.553	47.63
893.985	39.48
894.418	35.48
894.85	41.93
895.282	40.73
895.715	40.33
896.147	34.23
896.579	33.28
897.011	45.58
897.444	39.18
897.876	32.13
898.308	37.78
898.74	41.18
899.172	43.98
899.604	42.88
900.036	39.78
900.468	32.88
900.9	44.43
901.332	50.73
901.764	55.13
902.196	53.98
902.628	56.38
903.06	80.33
903.491	87.93
903.923	70.28
904.355	70.73
904.787	76.23
905.218	61.38
905.65	60.68
906.082	49.88
906.513	45.33
906.945	46.43
907.376	45.03
907.808	45.98
908.239	49.18
908.671	53.58
909.102	64.38
909.534	86.63
909.965	163.73
910.397	426.63
910.828	1201.18
911.259	751.48
911.691	405.58
912.122	235.93
912.553	123.53
912.984	68.23
913.415	59.83
913.847	52.23
914.278	45.08
914.709	41.78
915.14	44.93
915.571	41.53
916.002	42.33
916.433	40.08
916.864	38.53
917.295	41.78
917.726	48.93
918.157	58.53
918.587	58.63
919.018	57.63
919.449	47.53
919.88	56.33
920.311	93.43
920.741	254.53
921.172	451.03
921.603	231.43
922.033	148.98
922.464	90.08
922.895	64.63
923.325	45.68
923.756	39.03
924.186	50.08
924.617	69.83
925.047	105.08
925.478	92.73
925.908	68.63
926.338	45.73
926.769	40.83
927.199	42.03
927.629	36.38
928.06	37.78
928.49	34.93
928.92	34.78
929.35	26.43
929.78	25.63
930.21	25.28
930.641	19.13
931.071	20.53
931.501	20.13
931.931	21.43
932.361	25.08
932.791	27.58
933.221	24.23
933.651	37.78
934.08	56.98
934.51	38.33
934.94	33.48
935.37	25.03
935.8	20.88
936.229	22.08
936.659	19.23
937.089	34.93
937.519	58.23
937.948	72.73
938.378	46.28
938.807	27.98
939.237	16.98
939.666	15.78
940.096	11.38
940.525	6.68
940.955	15.38
941.384	13.33
941.814	5.98
942.243	9.38
942.672	11.58
943.102	5.28
943.531	10.58
943.96	8.68
944.39	7.53
944.819	13.48
945.248	11.33
945.677	7.58
946.106	11.98
946.535	6.58
946.964	9.28
947.393	10.38
947.822	10.23
948.251	12.08
948.68	13.33
949.109	10.73
949.538	9.78
949.967	9.08
950.396	10.68
950.825	11.63
951.254	6.63
951.682	5.53
952.111	8.28
952.54	0.38
952.969	10.03
953.397	6.33
953.826	1.43
954.254	5.78
954.683	10.43
955.112	11.43
955.54	7.08
955.969	8.73
956.397	5.38
956.826	3.68
957.254	10.88
957.682	6.98
958.111	8.08
958.539	7.43
958.967	7.08
959.396	8.48
959.824	7.08
960.252	9.23
960.68	6.28
961.109	5.68
961.537	8.98
961.965	1.83
962.393	8.43
962.821	10.33
963.249	6.48
963.677	13.98
964.105	73.68
964.533	127.53
964.961	63.68
965.389	34.48
965.817	18.73
966.245	11.68
966.672	8.58
967.1	5.43
967.528	6.78
967.956	7.08
968.383	7.98
968.811	6.63
969.239	-0.17
969.666	10.53
970.094	7.18
970.522	2.43
970.949	6.48
971.377	-1.47
971.804	4.88
972.232	7.43
972.659	1.38
973.087	8.38
973.514	0.88
973.941	2.78
974.369	3.23
974.796	3.08
975.223	2.48
975.651	8.23
976.078	7.43
976.505	9.23
976.932	29.88
977.359	39.83
977.786	24.98
978.214	15.28
978.641	6.43
979.068	9.58
979.495	4.68
979.922	7.13
980.349	4.93
980.776	8.38
981.202	10.03
981.629	8.38
982.056	6.73
982.483	-1.42
982.91	10.43
983.337	-1.32
983.763	8.18
984.19	10.33
984.617	2.13
985.043	7.93
985.47	7.43
985.897	3.78
986.323	10.93
986.75	3.43
987.176	1.83
987.603	6.23
988.029	6.13
988.456	8.18
988.882	3.53
989.308	-2.97
989.735	1.73
990.161	5.33
990.587	0.43
991.014	4.88
991.44	6.38
991.866	4.58
992.292	0.98
992.719	2.03
993.145	6.58
993.571	5.08
993.997	2.48
994.423	6.73
994.849	0.18
995.275	4.68
995.701	7.58
996.127	-0.92
996.553	3.58
996.979	-0.37
997.405	8.98
997.83	3.28
998.256	7.98
998.682	-2.27
999.108	5.28
999.534	-1.47
999.959	1.83
1000.385	6.08
1000.811	-2.77
1001.236	-2.82
1001.662	-0.27
1002.087	7.48
1002.513	5.88
1002.938	0.18
1003.364	1.23
1003.789	6.38
1004.215	4.28
1004.64	2.08
1005.066	7.78
1005.491	6.73
1005.916	-0.12
1006.342	-0.07
1006.767	3.63
1007.192	7.53
1007.617	5.08
1008.042	4.58
1008.468	3.28
1008.893	9.28
1009.318	7.63
1009.743	16.53
1010.168	27.48
1010.593	24.98
1011.018	17.48
1011.443	11.28
1011.868	12.93
1012.293	5.63
1012.718	3.93
1013.143	1.18
1013.567	5.38
1013.992	4.93
1014.417	2.33
1014.842	-1.07
1015.267	-0.22
1015.691	9.03
1016.116	1.78
1016.541	4.38
1016.965	4.53
1017.39	2.68
1017.814	-0.47
1018.239	0.08
1018.663	-2.97
1019.088	-1.67
1019.512	8.48
1019.937	-0.87
1020.361	3.53
1020.785	-3.27
1021.21	0.03
1021.634	0.93
1022.058	2.88
1022.483	-0.57
1022.907	-0.07
1023.331	-1.42
1023.755	-1.92
1024.179	-3.52
1024.604	2.53
1025.028	4.63
1025.452	4.78
1025.876	5.03
1026.3	4.48
1026.724	-2.47
1027.148	-0.37
1027.572	-1.42
1027.996	3.58
1028.42	0.18
1028.843	-2.22
1029.267	-1.82
1029.691	0.28
1030.115	-1.22
1030.539	-5.22
1030.962	-0.82
1031.386	0.43
1031.81	-1.22
1032.233	-1.22
1032.657	-6.17
1033.08	-0.12
1033.504	-1.62
1033.927	5.68
1034.351	-2.07
1034.774	-1.62
1035.198	-5.42
1035.621	6.38
1036.045	5.18
1036.468	6.78
1036.891	4.03
1037.315	4.83
1037.738	-2.02
1038.161	1.83
1038.584	0.28
1039.008	-3.92
1039.431	-3.27
1039.854	-3.52
1040.277	3.08
1040.7	-0.77
1041.123	-2.17
1041.546	1.58
1041.969	2.03
1042.392	3.93
1042.815	1.03
1043.238	-3.57
1043.661	-0.92
1044.084	-4.47
1044.507	-1.32
1044.93	1.28
1045.352	-0.72
1045.775	3.23
1046.198	5.23
1046.621	2.78
1047.043	-0.97
1047.466	2.28
1047.889	-0.67
1048.311	3.93
1048.734	-3.87
1049.156	-0.82
1049.579	-0.07
1050.001	4.93
1050.424	-0.27
1050.846	3.63
1051.269	-1.92
1051.691	-3.37
1052.113	1.78
1052.536	1.43
1052.958	-5.57
1053.38	-0.12
1053.802	3.28
1054.225	1.68
1054.647	2.73
1055.069	-2.67
1055.491	5.33
1055.913	-0.02
1056.335	-8.42
1056.757	-2.57
1057.179	1.03
1057.601	-1.82
1058.023	-2.12
1058.445	-6.07
1058.867	3.98
1059.289	0.38
1059.711	-1.22
1060.133	1.78
1060.555	-2.92
1060.976	-0.37
1061.398	-4.07
1061.82	0.78
1062.241	-0.17
1062.663	3.83
1063.085	0.08
1063.506	-7.47
1063.928	-2.82
1064.35	-1.62
1064.771	2.38
1065.193	-4.92
1065.614	1.08
1066.035	4.93
1066.457	8.83
1066.878	0.18
1067.3	1.48
1067.721	0.43
1068.142	3.28
1068.564	2.48
1068.985	-2.77
1069.406	-6.62
1069.827	-2.97
1070.248	-5.52
1070.67	-2.17
1071.091	-3.77
1071.512	-3.72
1071.933	0.13
1072.354	-3.17
1072.775	-3.67
1073.196	-0.82
1073.617	-7.37
1074.038	0.03
1074.459	-2.57
1074.88	-0.17
1075.3	-6.22
1075.721	1.13
1076.142	-4.27
1076.563	-6.47
1076.983	2.48
1077.404	-8.22
1077.825	-0.27
1078.246	-3.37
1078.666	-2.62
1079.087	0.18
1079.507	-6.52
1079.928	1.53
1080.348	-0.97
1080.769	2.68
1081.189	-1.57
1081.61	-1.67
1082.03	-1.27
1082.451	0.48
1082.871	-6.02
1083.291	0.88
1083.711	-3.47
1084.132	-4.47
1084.552	-3.82
1084.972	-9.22
1085.392	-7.52
1085.813	-1.57
1086.233	-0.32
1086.653	1.98
1087.073	1.03
1087.493	-0.97
1087.913	-6.97
1088.333	-3.12
1088.753	1.68
1089.173	1.43
1089.593	-6.42
1090.013	0.78
1090.433	-2.92
1090.852	-0.57
1091.272	-5.52
1091.692	0.43
1092.112	-2.52
1092.531	-3.67
1092.951	-1.37
1093.371	-1.77
1093.79	-1.57
1094.21	-4.17
1094.63	-2.67
1095.049	-0.87
1095.469	-5.17
1095.888	0.33
1096.308	0.13
1096.727	0.78
1097.146	-5.17
1097.566	0.03
1097.985	0.93
1098.405	-1.27
1098.824	1.08
1099.243	-0.67
1099.662	-0.32
1100.082	-1.57
1100.501	-5.17
1100.92	5.53
1101.339	2.13
1101.758	2.18
