Data from MSPlasma+Separation6_Subt14_10-13-49-620.txt Node
Date: Fri Jul 21 10:13:49 EDT 2017
User: Ender
Spectrometer: HR+D1039
Trigger mode: 0
Integration Time (sec): 6.430000E-3
Scans to average: 20
Electric dark correction enabled: true
Nonlinearity correction enabled: false
Boxcar width: 0
XAxis mode: Wavelengths
Number of Pixels in Spectrum: 2048
>>>>>Begin Spectral Data<<<<<
187.836	1.74
188.309	1.74
188.782	1.74
189.255	-0.46
189.728	3.29
190.201	-0.91
190.674	1.69
191.147	-3.51
191.619	0.34
192.092	-0.51
192.565	-0.66
193.038	3.09
193.511	0.89
193.984	-0.91
194.456	-1.71
194.929	-0.96
195.402	-0.11
195.874	-1.36
196.347	4.14
196.82	3.19
197.292	-4.01
197.765	-3.11
198.237	-3.51
198.71	-1.56
199.182	1.64
199.655	4.54
200.127	0.54
200.6	0.99
201.072	4.74
201.544	-0.26
202.017	-1.56
202.489	1.89
202.961	-5.66
203.433	-3.31
203.906	2.24
204.378	3.94
204.85	-0.01
205.322	-1.06
205.794	0.34
206.266	-3.76
206.739	-0.81
207.211	0.64
207.683	0.94
208.155	2.89
208.627	-0.46
209.099	6.29
209.57	1.89
210.042	4.19
210.514	-0.26
210.986	0.04
211.458	-2.16
211.93	2.89
212.402	1.39
212.873	-0.16
213.345	1.54
213.817	1.59
214.288	1.34
214.76	1.09
215.232	3.49
215.703	0.59
216.175	2.79
216.646	4.19
217.118	3.44
217.589	-4.56
218.061	-1.51
218.532	0.94
219.004	6.19
219.475	8.99
219.946	2.99
220.418	3.84
220.889	6.94
221.36	4.69
221.832	6.09
222.303	3.44
222.774	7.64
223.245	3.29
223.717	4.64
224.188	3.79
224.659	2.79
225.13	2.04
225.601	4.34
226.072	6.99
226.543	6.04
227.014	7.04
227.485	9.19
227.956	12.94
228.427	8.99
228.898	9.19
229.369	4.34
229.839	9.24
230.31	10.84
230.781	6.74
231.252	13.49
231.722	7.79
232.193	10.89
232.664	7.84
233.135	8.64
233.605	12.79
234.076	10.99
234.546	10.89
235.017	7.94
235.487	8.79
235.958	9.74
236.428	13.99
236.899	13.64
237.369	18.29
237.84	16.09
238.31	17.59
238.78	9.84
239.251	14.44
239.721	9.69
240.191	15.89
240.662	15.84
241.132	17.94
241.602	17.09
242.072	20.94
242.542	13.19
243.013	21.09
243.483	17.49
243.953	18.99
244.423	20.99
244.893	19.99
245.363	26.39
245.833	22.09
246.303	21.44
246.773	22.09
247.243	23.04
247.712	25.29
248.182	25.64
248.652	30.59
249.122	25.04
249.592	29.74
250.061	22.79
250.531	27.24
251.001	29.99
251.471	29.49
251.94	25.34
252.41	25.99
252.879	28.04
253.349	33.64
253.818	29.64
254.288	31.34
254.757	33.54
255.227	33.94
255.696	31.99
256.166	36.54
256.635	37.09
257.105	34.24
257.574	37.54
258.043	37.14
258.513	37.39
258.982	36.89
259.451	40.79
259.92	36.89
260.389	42.09
260.859	40.04
261.328	41.34
261.797	38.19
262.266	43.69
262.735	44.19
263.204	42.79
263.673	39.54
264.142	40.29
264.611	45.94
265.08	40.99
265.549	42.24
266.018	46.89
266.487	46.59
266.955	44.74
267.424	51.14
267.893	51.54
268.362	50.19
268.83	46.69
269.299	47.39
269.768	51.44
270.236	48.24
270.705	56.59
271.174	50.49
271.642	50.74
272.111	53.44
272.579	55.84
273.048	54.19
273.516	57.04
273.985	56.94
274.453	56.09
274.922	59.99
275.39	58.09
275.858	59.69
276.327	63.04
276.795	57.39
277.263	58.64
277.731	56.49
278.2	65.69
278.668	58.79
279.136	69.14
279.604	65.04
280.072	65.14
280.54	63.39
281.008	70.19
281.477	73.04
281.945	64.89
282.413	68.24
282.881	71.49
283.348	78.79
283.816	72.49
284.284	77.14
284.752	74.64
285.22	79.29
285.688	80.64
286.156	77.39
286.623	78.79
287.091	74.39
287.559	81.54
288.026	79.89
288.494	83.44
288.962	83.19
289.429	84.54
289.897	80.54
290.364	79.54
290.832	88.54
291.3	88.39
291.767	85.39
292.234	86.84
292.702	86.79
293.169	91.34
293.637	95.94
294.104	93.24
294.571	90.14
295.039	94.84
295.506	90.64
295.973	93.84
296.44	93.59
296.908	98.59
297.375	96.09
297.842	97.39
298.309	97.19
298.776	95.49
299.243	104.04
299.71	100.54
300.177	102.79
300.644	99.99
301.111	103.04
301.578	101.29
302.045	106.54
302.512	106.79
302.979	108.74
303.446	112.79
303.913	114.04
304.379	117.19
304.846	115.19
305.313	121.99
305.78	125.64
306.246	120.84
306.713	126.74
307.18	126.04
307.646	134.14
308.113	125.69
308.579	135.44
309.046	137.04
309.512	136.74
309.979	133.89
310.445	133.39
310.912	138.29
311.378	144.19
311.845	145.44
312.311	142.39
312.777	142.69
313.244	149.29
313.71	147.59
314.176	150.64
314.642	151.94
315.109	153.84
315.575	151.34
316.041	152.39
316.507	147.89
316.973	159.94
317.439	158.89
317.905	160.29
318.371	158.29
318.837	158.34
319.303	163.59
319.769	160.29
320.235	162.94
320.701	171.29
321.167	167.34
321.633	165.54
322.099	167.79
322.564	174.19
323.03	167.29
323.496	172.69
323.962	177.49
324.427	179.14
324.893	174.84
325.359	185.29
325.824	181.19
326.29	181.84
326.755	180.39
327.221	186.89
327.686	201.34
328.152	194.34
328.617	197.64
329.083	199.94
329.548	203.04
330.014	201.09
330.479	205.89
330.944	207.29
331.41	209.19
331.875	202.09
332.34	205.69
332.805	212.54
333.271	205.59
333.736	210.09
334.201	210.39
334.666	229.49
335.131	229.19
335.596	229.49
336.061	220.69
336.526	224.49
336.991	214.94
337.456	216.29
337.921	209.09
338.386	214.79
338.851	215.84
339.316	220.99
339.781	214.84
340.246	224.19
340.711	226.59
341.175	231.89
341.64	238.94
342.105	238.54
342.569	248.39
343.034	241.84
343.499	243.54
343.963	253.99
344.428	249.84
344.893	249.39
345.357	259.54
345.822	258.74
346.286	261.49
346.751	267.29
347.215	267.84
347.679	279.79
348.144	294.64
348.608	296.74
349.073	293.44
349.537	305.94
350.001	302.19
350.465	305.09
350.93	307.24
351.394	304.84
351.858	308.14
352.322	314.24
352.786	322.39
353.25	319.39
353.715	323.89
354.179	334.84
354.643	344.34
355.107	351.44
355.571	344.29
356.035	342.84
356.498	340.24
356.962	335.54
357.426	335.49
357.89	340.64
358.354	322.94
358.818	332.69
359.281	334.94
359.745	337.79
360.209	337.64
360.673	341.04
361.136	336.44
361.6	344.29
362.064	349.09
362.527	353.29
362.991	349.74
363.454	350.64
363.918	361.94
364.381	356.34
364.845	363.14
365.308	366.39
365.772	365.29
366.235	366.24
366.698	365.09
367.162	363.74
367.625	373.99
368.088	381.59
368.552	374.74
369.015	373.59
369.478	382.59
369.941	387.84
370.404	387.74
370.867	383.69
371.331	392.69
371.794	401.29
372.257	400.79
372.72	397.74
373.183	400.04
373.646	398.34
374.109	403.69
374.572	408.24
375.035	410.49
375.497	416.94
375.96	418.34
376.423	422.74
376.886	427.29
377.349	434.94
377.811	435.54
378.274	437.74
378.737	428.89
379.199	441.94
379.662	440.84
380.125	453.84
380.587	453.14
381.05	459.44
381.512	471.64
381.975	477.24
382.437	485.04
382.9	478.09
383.362	478.99
383.825	486.14
384.287	496.84
384.75	486.94
385.212	491.39
385.674	495.74
386.136	495.14
386.599	501.24
387.061	495.64
387.523	502.89
387.985	499.64
388.447	506.64
388.91	513.84
389.372	510.39
389.834	509.24
390.296	506.34
390.758	513.69
391.22	511.44
391.682	517.29
392.144	514.74
392.606	515.44
393.068	531.44
393.529	556.99
393.991	563.89
394.453	546.44
394.915	529.79
395.377	518.09
395.838	524.69
396.3	525.09
396.762	542.24
397.224	532.89
397.685	537.29
398.147	538.34
398.608	550.14
399.07	555.04
399.531	552.34
399.993	563.24
400.454	578.79
400.916	572.64
401.377	583.04
401.839	592.89
402.3	587.64
402.762	613.94
403.223	654.19
403.684	650.84
404.145	633.09
404.607	619.04
405.068	606.89
405.529	622.49
405.99	624.09
406.451	639.69
406.913	627.64
407.374	628.24
407.835	627.14
408.296	643.49
408.757	649.54
409.218	668.99
409.679	668.69
410.14	672.89
410.601	692.14
411.062	696.94
411.522	691.89
411.983	694.34
412.444	704.59
412.905	713.19
413.366	735.44
413.826	771.74
414.287	871.69
414.748	1023.34
415.208	1055.84
415.669	889.04
416.13	804.84
416.59	789.44
417.051	819.44
417.511	852.79
417.972	908.49
418.432	979.19
418.893	1081.39
419.353	1046.14
419.814	815.19
420.274	721.44
420.734	714.04
421.195	735.09
421.655	733.69
422.115	749.14
422.576	746.04
423.036	760.74
423.496	778.54
423.956	800.59
424.416	857.44
424.876	966.89
425.336	954.49
425.797	940.24
426.257	928.69
426.717	877.34
427.177	822.14
427.637	828.59
428.097	859.99
428.556	887.99
429.016	948.34
429.476	954.84
429.936	935.34
430.396	938.44
430.856	956.24
431.315	972.14
431.775	1044.54
432.235	1117.59
432.694	1137.54
433.154	1069.54
433.614	1057.69
434.073	1021.09
434.533	923.24
434.993	885.99
435.452	895.29
435.912	871.24
436.371	875.44
436.83	865.39
437.29	842.14
437.749	816.84
438.209	818.49
438.668	833.14
439.127	845.64
439.587	827.79
440.046	805.69
440.505	824.94
440.964	831.04
441.424	861.19
441.883	876.29
442.342	818.84
442.801	787.09
443.26	810.49
443.719	789.49
444.178	788.34
444.637	799.84
445.096	810.09
445.555	820.54
446.014	816.49
446.473	806.94
446.932	805.14
447.391	825.34
447.849	833.99
448.308	819.94
448.767	826.59
449.226	841.94
449.685	853.54
450.143	881.29
450.602	885.19
451.061	839.34
451.519	835.39
451.978	826.09
452.436	827.79
452.895	837.04
453.353	833.29
453.812	826.59
454.27	829.44
454.729	822.79
455.187	841.89
455.646	833.79
456.104	840.69
456.562	849.19
457.021	861.19
457.479	828.59
457.937	851.44
458.395	883.19
458.854	853.84
459.312	848.89
459.77	868.14
460.228	880.89
460.686	884.99
461.144	887.49
461.602	881.49
462.06	876.14
462.518	899.84
462.976	904.34
463.434	907.99
463.892	919.84
464.35	932.49
464.808	955.39
465.266	959.34
465.724	965.69
466.181	983.79
466.639	969.64
467.097	1004.24
467.555	1050.64
468.012	1031.74
468.47	1043.64
468.928	1088.29
469.385	1106.29
469.843	1125.54
470.3	1111.44
470.758	1149.44
471.215	1171.24
471.673	1195.54
472.13	1223.94
472.588	1252.59
473.045	1237.99
473.503	1265.19
473.96	1318.14
474.417	1331.84
474.875	1388.99
475.332	1440.59
475.789	1450.34
476.246	1497.44
476.704	1561.49
477.161	1601.74
477.618	1647.29
478.075	1734.44
478.532	1862.99
478.989	1997.79
479.446	2188.44
479.903	2291.49
480.36	2484.59
480.817	2624.14
481.274	2791.04
481.731	3041.24
482.188	3263.24
482.645	3493.64
483.102	3675.89
483.558	3912.99
484.015	4086.09
484.472	4062.09
484.929	3946.04
485.385	3787.09
485.842	3711.34
486.299	3569.84
486.755	3307.04
487.212	2991.24
487.668	2721.29
488.125	2524.89
488.582	2356.19
489.038	2264.49
489.494	2204.84
489.951	2131.14
490.407	2067.29
490.864	2045.49
491.32	1993.24
491.776	1983.24
492.233	2005.89
492.689	1967.74
493.145	1926.39
493.602	1905.44
494.058	1922.79
494.514	1931.79
494.97	1921.49
495.426	1953.49
495.882	1954.99
496.338	1953.74
496.794	1965.44
497.251	1957.19
497.707	1991.29
498.163	1982.69
498.618	1985.49
499.074	1985.44
499.53	1996.74
499.986	2019.69
500.442	1988.09
500.898	1970.19
501.354	1997.69
501.809	1998.29
502.265	1992.39
502.721	2012.29
503.177	2004.69
503.632	2015.44
504.088	2023.84
504.543	2047.94
504.999	2063.84
505.455	2057.19
505.91	2044.04
506.366	2049.49
506.821	2057.29
507.277	2038.29
507.732	2045.89
508.187	2043.09
508.643	2069.14
509.098	2065.69
509.553	2094.69
510.009	2116.09
510.464	2150.29
510.919	2168.89
511.375	2185.49
511.83	2216.14
512.285	2242.44
512.74	2296.59
513.195	2318.54
513.65	2342.34
514.105	2382.99
514.56	2391.99
515.015	2428.89
515.47	2436.94
515.925	2407.49
516.38	2427.09
516.835	2419.34
517.29	2409.74
517.745	2415.89
518.2	2377.94
518.655	2323.59
519.109	2307.04
519.564	2272.24
520.019	2259.89
520.474	2245.49
520.928	2223.69
521.383	2209.44
521.838	2206.04
522.292	2192.39
522.747	2175.74
523.201	2162.64
523.656	2137.14
524.11	2131.19
524.565	2116.29
525.019	2130.79
525.474	2125.24
525.928	2114.79
526.382	2115.19
526.837	2114.19
527.291	2124.54
527.745	2114.14
528.2	2112.99
528.654	2089.99
529.108	2098.39
529.562	2100.84
530.016	2088.84
530.47	2089.39
530.925	2088.09
531.379	2092.39
531.833	2122.94
532.287	2103.79
532.741	2100.79
533.195	2097.79
533.649	2103.99
534.103	2114.64
534.556	2087.44
535.01	2097.34
535.464	2088.59
535.918	2086.49
536.372	2106.19
536.826	2106.94
537.279	2078.29
537.733	2082.04
538.187	2093.14
538.64	2095.04
539.094	2120.99
539.548	2148.64
540.001	2138.69
540.455	2146.54
540.908	2156.24
541.362	2165.49
541.815	2192.34
542.269	2236.74
542.722	2218.24
543.175	2249.64
543.629	2266.24
544.082	2265.94
544.536	2300.04
544.989	2301.29
545.442	2318.94
545.895	2307.34
546.349	2315.84
546.802	2321.54
547.255	2315.19
547.708	2335.49
548.161	2362.24
548.614	2349.59
549.067	2371.09
549.52	2347.24
549.973	2327.59
550.426	2325.39
550.879	2321.54
551.332	2320.79
551.785	2340.79
552.238	2364.89
552.691	2362.39
553.144	2399.69
553.596	2430.34
554.049	2459.74
554.502	2508.44
554.955	2543.39
555.407	2571.34
555.86	2541.24
556.313	2515.29
556.765	2499.39
557.218	2477.74
557.67	2468.34
558.123	2416.64
558.576	2424.49
559.028	2415.79
559.48	2444.89
559.933	2427.54
560.385	2360.99
560.838	2287.74
561.29	2219.34
561.742	2211.09
562.195	2153.04
562.647	2143.99
563.099	2132.84
563.551	2108.44
564.004	2125.79
564.456	2113.74
564.908	2077.59
565.36	2025.04
565.812	1987.74
566.264	1973.24
566.716	1947.29
567.168	1911.19
567.62	1921.44
568.072	1895.89
568.524	1889.74
568.976	1880.94
569.428	1866.54
569.88	1860.79
570.332	1874.54
570.784	1884.09
571.235	1868.89
571.687	1890.44
572.139	1889.29
572.59	1904.59
573.042	1917.84
573.494	1911.54
573.945	1890.44
574.397	1851.14
574.849	1846.89
575.3	1867.84
575.752	1813.74
576.203	1808.54
576.655	1812.64
577.106	1782.44
577.557	1780.94
578.009	1770.09
578.46	1775.44
578.912	1742.54
579.363	1764.34
579.814	1760.14
580.265	1768.09
580.717	1764.74
581.168	1768.99
581.619	1766.39
582.07	1796.39
582.521	1792.64
582.972	1780.64
583.423	1783.14
583.875	1787.89
584.326	1801.19
584.777	1834.64
585.227	1856.69
585.678	1872.64
586.129	1901.24
586.58	1920.59
587.031	1944.39
587.482	1991.19
587.933	2018.19
588.384	2010.09
588.834	1994.49
589.285	1983.14
589.736	1982.34
590.186	1980.29
590.637	1977.49
591.088	1917.44
591.538	1892.54
591.989	1868.39
592.439	1842.19
592.89	1828.39
593.34	1833.44
593.791	1802.44
594.241	1789.59
594.692	1781.49
595.142	1787.34
595.593	1777.94
596.043	1805.04
596.493	1816.19
596.943	1818.79
597.394	1863.24
597.844	1885.69
598.294	1923.69
598.744	1989.04
599.195	2077.79
599.645	2188.04
600.095	2295.54
600.545	2399.04
600.995	2508.39
601.445	2597.89
601.895	2712.54
602.345	2793.24
602.795	2756.94
603.245	2654.49
603.695	2501.54
604.145	2376.24
604.594	2272.99
605.044	2157.74
605.494	2007.89
605.944	1909.89
606.393	1865.44
606.843	1841.39
607.293	1833.84
607.743	1819.49
608.192	1838.49
608.642	1827.29
609.091	1820.99
609.541	1824.74
609.99	1831.14
610.44	1784.09
610.889	1765.19
611.339	1733.44
611.788	1719.84
612.238	1722.09
612.687	1740.19
613.136	1751.99
613.586	1764.29
614.035	1760.54
614.484	1768.79
614.933	1765.84
615.383	1736.39
615.832	1693.24
616.281	1671.94
616.73	1634.39
617.179	1594.34
617.628	1566.54
618.077	1551.24
618.526	1520.89
618.975	1515.84
619.424	1491.69
619.873	1483.39
620.322	1480.19
620.771	1466.74
621.22	1447.84
621.669	1418.84
622.118	1415.69
622.567	1394.79
623.015	1367.04
623.464	1370.19
623.913	1351.49
624.361	1350.99
624.81	1342.24
625.259	1352.19
625.707	1340.99
626.156	1359.64
626.604	1370.09
627.053	1375.99
627.501	1370.09
627.95	1372.49
628.398	1392.34
628.847	1380.14
629.295	1376.79
629.744	1364.64
630.192	1339.69
630.64	1320.84
631.089	1306.69
631.537	1274.24
631.985	1256.29
632.433	1254.74
632.881	1244.64
633.33	1256.64
633.778	1254.74
634.226	1261.54
634.674	1274.84
635.122	1283.29
635.57	1295.19
636.018	1315.99
636.466	1313.94
636.914	1314.14
637.362	1336.09
637.81	1359.09
638.258	1402.84
638.705	1426.69
639.153	1468.09
639.601	1474.39
640.049	1508.94
640.497	1547.89
640.944	1583.39
641.392	1522.54
641.84	1443.34
642.287	1380.59
642.735	1347.89
643.182	1331.99
643.63	1337.29
644.078	1341.89
644.525	1362.99
644.973	1390.34
645.42	1418.54
645.867	1452.64
646.315	1479.14
646.762	1540.04
647.21	1571.14
647.657	1655.14
648.104	1718.09
648.551	1747.09
648.999	1883.29
649.446	2059.69
649.893	2301.79
650.34	2668.79
650.787	3263.44
651.234	4177.94
651.682	5720.64
652.129	8049.69
652.576	11394.59
653.023	14875.14
653.47	15533.74
653.917	15533.79
654.363	15533.69
654.81	15530.69
655.257	15531.34
655.704	14619.14
656.151	8930.59
656.598	5874.29
657.044	4229.94
657.491	3337.29
657.938	2713.89
658.385	2299.24
658.831	2036.19
659.278	1856.69
659.724	1691.99
660.171	1582.39
660.618	1466.89
661.064	1398.14
661.511	1360.79
661.957	1311.34
662.404	1278.14
662.85	1277.69
663.296	1248.89
663.743	1224.69
664.189	1218.24
664.635	1203.84
665.082	1178.34
665.528	1165.44
665.974	1127.04
666.42	1120.74
666.867	1097.49
667.313	1052.04
667.759	1042.04
668.205	1024.84
668.651	1034.24
669.097	1023.29
669.543	1036.49
669.989	1052.74
670.435	1046.04
670.881	1057.39
671.327	1110.24
671.773	1188.04
672.219	1265.49
672.665	1346.69
673.11	1388.89
673.556	1399.84
674.002	1431.29
674.448	1454.64
674.893	1254.49
675.339	1088.84
675.785	998.24
676.23	953.04
676.676	921.19
677.122	898.59
677.567	874.94
678.013	839.79
678.458	841.84
678.904	832.99
679.349	819.49
679.794	812.04
680.24	806.64
680.685	802.29
681.131	805.04
681.576	809.04
682.021	812.39
682.466	824.39
682.912	836.94
683.357	870.74
683.802	944.24
684.247	1023.24
684.692	1096.04
685.137	1141.69
685.583	1160.09
686.028	1224.79
686.473	1169.24
686.918	1013.59
687.363	921.89
687.807	873.49
688.252	838.79
688.697	805.04
689.142	787.99
689.587	788.99
690.032	803.59
690.477	830.99
690.921	871.84
691.366	917.04
691.811	958.14
692.255	1031.94
692.7	1250.29
693.145	1789.74
693.589	2738.99
694.034	3259.79
694.478	3472.09
694.923	3187.49
695.367	4503.14
695.812	2777.69
696.256	1183.29
696.701	870.79
697.145	797.59
697.59	766.09
698.034	754.84
698.478	751.29
698.922	753.44
699.367	768.19
699.811	806.19
700.255	872.64
700.699	955.19
701.143	1034.94
701.588	1083.14
702.032	1139.54
702.476	1174.94
702.92	1260.04
703.364	1635.69
703.808	2507.44
704.252	3118.99
704.696	3311.34
705.14	3118.14
705.584	4260.19
706.027	2387.74
706.471	1210.19
706.915	903.59
707.359	806.34
707.803	756.64
708.246	719.64
708.69	715.34
709.134	712.04
709.577	704.89
710.021	714.79
710.465	706.74
710.908	695.19
711.352	737.34
711.795	808.69
712.239	868.49
712.682	889.19
713.126	876.59
713.569	970.29
714.012	801.39
714.456	698.39
714.899	661.29
715.342	635.34
715.786	614.94
716.229	595.49
716.672	578.89
717.115	578.64
717.558	589.24
718.002	607.44
718.445	625.84
718.888	657.64
719.331	674.09
719.774	688.99
720.217	679.09
720.66	645.29
721.103	609.99
721.546	575.59
721.989	552.44
722.432	549.49
722.874	543.64
723.317	553.74
723.76	599.29
724.203	735.24
724.645	977.34
725.088	1151.84
725.531	1139.29
725.974	1237.64
726.416	1115.29
726.859	690.59
727.301	573.69
727.744	542.24
728.187	545.69
728.629	561.09
729.071	580.19
729.514	616.69
729.956	640.94
730.399	650.99
730.841	643.29
731.283	633.64
731.726	618.24
732.168	625.64
732.61	654.74
733.053	703.64
733.495	784.94
733.937	868.39
734.379	1021.09
734.821	1296.04
735.263	2058.29
735.705	3706.09
736.148	5420.04
736.59	5470.84
737.032	5917.94
737.474	4901.99
737.916	1886.09
738.357	984.29
738.799	760.09
739.241	707.24
739.683	717.14
740.125	733.09
740.567	745.04
741.008	793.89
741.45	827.64
741.892	878.09
742.334	888.99
742.775	878.24
743.217	842.44
743.658	706.29
744.1	734.24
744.542	848.49
744.983	880.09
745.425	921.94
745.866	895.34
746.307	738.29
746.749	784.84
747.19	1117.89
747.632	2171.99
748.073	4027.89
748.514	5594.14
748.956	7397.64
749.397	8692.99
749.838	6030.54
750.279	5717.49
750.72	2976.09
751.162	1260.79
751.603	729.64
752.044	582.79
752.485	516.84
752.926	486.49
753.367	468.94
753.808	453.74
754.249	445.09
754.69	442.99
755.131	432.84
755.572	430.59
756.013	427.39
756.453	433.74
756.894	440.54
757.335	438.39
757.776	452.14
758.216	464.44
758.657	498.64
759.098	541.24
759.538	660.04
759.979	945.14
760.42	1909.29
760.86	4866.54
761.301	10037.39
761.741	11923.54
762.182	13592.29
762.622	8885.54
763.063	3178.99
763.503	1304.69
763.943	758.89
764.384	610.84
764.824	527.04
765.264	481.54
765.705	459.49
766.145	428.64
766.585	421.09
767.025	404.99
767.465	406.99
767.906	415.19
768.346	439.29
768.786	511.94
769.226	749.69
769.666	1479.54
770.106	3338.79
770.546	4790.89
770.986	5415.14
771.426	4105.69
771.866	1720.54
772.306	779.84
772.745	488.44
773.185	412.54
773.625	395.94
774.065	432.84
774.505	624.79
774.944	1123.39
775.384	1616.89
775.824	1823.94
776.263	1508.49
776.703	792.49
777.142	450.34
777.582	337.39
778.021	308.59
778.461	297.04
778.9	288.74
779.34	280.79
779.779	273.14
780.219	267.99
780.658	264.29
781.097	255.49
781.537	251.79
781.976	255.89
782.415	252.64
782.855	253.24
783.294	249.74
783.733	240.34
784.172	252.94
784.611	254.04
785.05	255.19
785.489	264.99
785.928	271.39
786.367	285.69
786.806	298.29
787.245	319.24
787.684	326.29
788.123	324.44
788.562	316.64
789.001	301.39
789.44	292.49
789.879	296.39
790.317	299.94
790.756	317.14
791.195	360.64
791.634	483.79
792.072	870.54
792.511	2106.34
792.95	3920.99
793.388	4741.04
793.827	3094.74
794.265	1424.34
794.704	685.59
795.142	420.54
795.581	344.29
796.019	310.79
796.458	314.74
796.896	320.14
797.334	370.69
797.773	492.49
798.211	932.89
798.649	1958.64
799.087	3287.84
799.526	4647.19
799.964	4816.09
800.402	3329.64
800.84	1507.39
801.278	734.64
801.716	448.59
802.154	366.34
802.592	348.84
803.03	344.39
803.468	349.99
803.906	358.64
804.344	345.24
804.782	337.64
805.22	334.14
805.658	354.29
806.096	374.84
806.533	418.64
806.971	538.64
807.409	772.84
807.847	1539.54
808.284	3926.59
808.722	6896.59
809.16	9669.14
809.597	13037.84
810.035	15474.34
810.472	10669.39
810.91	4540.59
811.347	2034.39
811.785	959.69
812.222	607.19
812.66	467.09
813.097	395.84
813.535	347.59
813.972	312.89
814.409	287.29
814.846	274.74
815.284	263.09
815.721	267.29
816.158	299.74
816.595	407.09
817.032	524.24
817.47	475.29
817.907	339.09
818.344	290.09
818.781	296.69
819.218	361.14
819.655	553.59
820.092	730.79
820.529	657.09
820.966	503.94
821.403	347.94
821.839	293.24
822.276	327.49
822.713	402.09
823.15	362.69
823.587	373.44
824.023	646.34
824.46	1604.14
824.897	2816.24
825.333	2209.54
825.77	1015.79
826.206	525.69
826.643	311.09
827.08	234.09
827.516	205.24
827.953	193.49
828.389	186.84
828.825	179.79
829.262	166.14
829.698	163.84
830.135	154.64
830.571	156.99
831.007	156.44
831.443	153.14
831.88	156.74
832.316	156.79
832.752	160.84
833.188	166.29
833.624	168.09
834.06	170.54
834.497	163.94
834.933	170.94
835.369	184.09
835.805	195.54
836.241	202.99
836.677	227.29
837.112	257.99
837.548	323.74
837.984	471.29
838.42	1014.44
838.856	2806.44
839.292	5590.19
839.727	4193.99
840.163	2793.69
840.599	4224.54
841.034	6480.24
841.47	3293.29
841.906	1581.64
842.341	844.79
842.777	633.49
843.212	660.24
843.648	411.89
844.083	277.99
844.519	210.59
844.954	174.79
845.39	157.29
845.825	155.24
846.261	147.29
846.696	142.79
847.131	133.74
847.566	135.44
848.002	135.24
848.437	147.14
848.872	157.89
849.307	195.59
849.742	352.34
850.177	912.14
850.613	1957.79
851.048	1437.34
851.483	654.74
851.918	360.69
852.353	199.64
852.788	142.94
853.223	128.49
853.657	118.89
854.092	115.99
854.527	110.84
854.962	124.09
855.397	137.44
855.832	118.44
856.266	104.34
856.701	106.54
857.136	110.54
857.57	134.89
858.005	163.49
858.44	133.79
858.874	126.49
859.309	130.19
859.743	124.69
860.178	121.44
860.612	140.09
861.047	182.24
861.481	269.34
861.915	184.09
862.35	127.84
862.784	102.89
863.218	104.79
863.653	113.34
864.087	137.44
864.521	169.29
864.955	272.84
865.39	463.54
865.824	358.24
866.258	481.89
866.692	741.24
867.126	535.94
867.56	283.94
867.994	180.34
868.428	155.84
868.862	193.79
869.296	173.94
869.73	217.69
870.164	183.04
870.598	164.39
871.031	110.74
871.465	97.09
871.899	84.14
872.333	71.94
872.766	70.09
873.2	74.74
873.634	71.09
874.067	74.44
874.501	76.24
874.935	73.54
875.368	80.19
875.802	73.29
876.235	70.74
876.669	65.49
877.102	55.04
877.535	61.84
877.969	58.04
878.402	57.64
878.836	64.19
879.269	61.59
879.702	59.09
880.135	60.49
880.569	61.59
881.002	58.59
881.435	61.34
881.868	60.09
882.301	55.14
882.734	56.29
883.167	59.84
883.601	52.24
884.034	49.99
884.467	50.19
884.899	50.89
885.332	40.24
885.765	48.54
886.198	43.84
886.631	47.69
887.064	44.74
887.497	49.84
887.929	48.44
888.362	47.34
888.795	43.44
889.228	48.64
889.66	45.29
890.093	43.14
890.526	47.34
890.958	44.54
891.391	45.49
891.823	41.09
892.256	45.09
892.688	50.24
893.121	39.24
893.553	52.19
893.985	42.29
894.418	44.09
894.85	48.64
895.282	47.34
895.715	42.84
896.147	37.69
896.579	40.24
897.011	44.44
897.444	42.74
897.876	37.24
898.308	36.34
898.74	43.64
899.172	47.34
899.604	44.49
900.036	45.59
900.468	41.99
900.9	47.89
901.332	62.19
901.764	59.99
902.196	52.84
902.628	59.44
903.06	88.64
903.491	97.89
903.923	75.44
904.355	73.09
904.787	79.39
905.218	62.79
905.65	59.39
906.082	52.09
906.513	50.49
906.945	53.49
907.376	49.59
907.808	52.04
908.239	54.04
908.671	61.04
909.102	66.49
909.534	98.14
909.965	177.94
910.397	457.84
910.828	1306.84
911.259	807.39
911.691	437.34
912.122	253.44
912.553	128.99
912.984	71.59
913.415	66.09
913.847	57.24
914.278	54.44
914.709	47.04
915.14	41.99
915.571	46.64
916.002	47.39
916.433	44.19
916.864	40.19
917.295	49.19
917.726	49.24
918.157	64.19
918.587	62.04
919.018	65.09
919.449	56.94
919.88	66.99
920.311	98.59
920.741	272.49
921.172	486.84
921.603	247.29
922.033	151.59
922.464	100.49
922.895	65.29
923.325	46.04
923.756	42.74
924.186	54.44
924.617	78.34
925.047	111.09
925.478	99.94
925.908	74.39
926.338	55.14
926.769	43.49
927.199	39.09
927.629	38.64
928.06	40.84
928.49	43.54
928.92	34.04
929.35	33.69
929.78	26.89
930.21	27.09
930.641	20.44
931.071	22.54
931.501	21.99
931.931	20.39
932.361	20.99
932.791	29.64
933.221	27.69
933.651	39.59
934.08	60.34
934.51	40.24
934.94	34.39
935.37	28.74
935.8	24.49
936.229	20.34
936.659	26.09
937.089	38.89
937.519	58.74
937.948	84.24
938.378	49.09
938.807	28.84
939.237	22.19
939.666	19.74
940.096	15.94
940.525	11.74
940.955	16.39
941.384	11.49
941.814	13.59
942.243	11.44
942.672	9.09
943.102	9.34
943.531	9.79
943.96	8.49
944.39	9.79
944.819	10.99
945.248	11.29
945.677	14.49
946.106	12.04
946.535	14.44
946.964	13.14
947.393	8.74
947.822	6.74
948.251	14.94
948.68	13.64
949.109	9.39
949.538	7.44
949.967	9.84
950.396	10.04
950.825	11.39
951.254	7.59
951.682	7.99
952.111	3.74
952.54	6.59
952.969	6.44
953.397	6.09
953.826	2.84
954.254	8.14
954.683	8.29
955.112	12.14
955.54	6.69
955.969	8.39
956.397	9.09
956.826	6.94
957.254	6.94
957.682	5.14
958.111	9.24
958.539	11.34
958.967	10.19
959.396	9.64
959.824	8.34
960.252	6.89
960.68	6.24
961.109	9.44
961.537	11.89
961.965	6.04
962.393	8.09
962.821	9.79
963.249	9.64
963.677	16.24
964.105	81.29
964.533	140.49
964.961	71.59
965.389	41.89
965.817	24.59
966.245	10.24
966.672	9.34
967.1	9.34
967.528	6.34
967.956	3.59
968.383	10.29
968.811	5.24
969.239	9.69
969.666	8.34
970.094	3.69
970.522	2.79
970.949	3.34
971.377	1.29
971.804	0.99
972.232	4.59
972.659	5.74
973.087	4.94
973.514	4.49
973.941	5.69
974.369	4.74
974.796	4.74
975.223	2.04
975.651	6.49
976.078	7.34
976.505	15.64
976.932	34.09
977.359	41.84
977.786	22.49
978.214	16.84
978.641	4.84
979.068	11.49
979.495	4.29
979.922	7.99
980.349	7.04
980.776	6.14
981.202	8.94
981.629	9.64
982.056	4.19
982.483	-3.21
982.91	8.19
983.337	1.99
983.763	7.19
984.19	9.34
984.617	2.54
985.043	8.44
985.47	3.69
985.897	4.69
986.323	2.89
986.75	3.14
987.176	7.49
987.603	9.29
988.029	3.39
988.456	8.44
988.882	3.79
989.308	-0.31
989.735	1.64
990.161	5.14
990.587	2.14
991.014	3.84
991.44	5.24
991.866	7.14
992.292	2.39
992.719	1.29
993.145	5.29
993.571	0.74
993.997	7.09
994.423	8.54
994.849	-0.76
995.275	3.39
995.701	5.79
996.127	1.69
996.553	5.09
996.979	-2.26
997.405	7.44
997.83	5.49
998.256	4.74
998.682	4.34
999.108	4.84
999.534	-1.96
999.959	2.44
1000.385	6.44
1000.811	0.89
1001.236	-2.11
1001.662	2.74
1002.087	10.94
1002.513	3.24
1002.938	0.14
1003.364	0.29
1003.789	6.54
1004.215	0.39
1004.64	3.04
1005.066	6.39
1005.491	3.04
1005.916	10.29
1006.342	6.24
1006.767	6.59
1007.192	6.94
1007.617	5.69
1008.042	3.19
1008.468	3.94
1008.893	7.79
1009.318	10.89
1009.743	20.09
1010.168	32.89
1010.593	28.39
1011.018	17.34
1011.443	10.79
1011.868	11.34
1012.293	4.04
1012.718	2.59
1013.143	4.04
1013.567	8.84
1013.992	2.49
1014.417	5.64
1014.842	3.44
1015.267	1.19
1015.691	7.29
1016.116	-1.11
1016.541	2.89
1016.965	1.99
1017.39	9.89
1017.814	-1.61
1018.239	1.94
1018.663	-3.91
1019.088	-0.41
1019.512	7.34
1019.937	-0.11
1020.361	-1.61
1020.785	0.04
1021.21	-3.16
1021.634	0.24
1022.058	1.94
1022.483	0.99
1022.907	-1.26
1023.331	2.44
1023.755	-0.66
1024.179	1.64
1024.604	2.54
1025.028	3.09
1025.452	4.84
1025.876	4.89
1026.3	1.64
1026.724	0.29
1027.148	5.79
1027.572	0.24
1027.996	1.64
1028.42	0.09
1028.843	1.24
1029.267	-2.11
1029.691	3.99
1030.115	2.34
1030.539	2.79
1030.962	2.19
1031.386	1.79
1031.81	2.74
1032.233	0.09
1032.657	-5.16
1033.08	0.99
1033.504	-3.11
1033.927	-3.51
1034.351	-0.61
1034.774	1.94
1035.198	-3.26
1035.621	2.19
1036.045	2.59
1036.468	6.44
1036.891	2.34
1037.315	4.74
1037.738	0.64
1038.161	-1.01
1038.584	3.24
1039.008	-1.41
1039.431	1.64
1039.854	-6.51
1040.277	2.89
1040.7	0.64
1041.123	4.79
1041.546	-3.21
1041.969	4.54
1042.392	4.24
1042.815	-4.21
1043.238	-1.21
1043.661	-0.06
1044.084	-4.61
1044.507	-0.41
1044.93	0.34
1045.352	1.24
1045.775	3.04
1046.198	1.74
1046.621	3.19
1047.043	1.74
1047.466	2.24
1047.889	2.64
1048.311	2.74
1048.734	2.34
1049.156	-2.16
1049.579	-1.21
1050.001	0.79
1050.424	-1.31
1050.846	-0.76
1051.269	1.79
1051.691	-2.46
1052.113	-1.81
1052.536	-2.31
1052.958	-4.96
1053.38	-0.31
1053.802	2.14
1054.225	0.59
1054.647	2.89
1055.069	-1.46
1055.491	-1.56
1055.913	-0.31
1056.335	-7.56
1056.757	-2.91
1057.179	-3.01
1057.601	-1.01
1058.023	1.69
1058.445	-4.06
1058.867	2.99
1059.289	-4.81
1059.711	-3.91
1060.133	1.44
1060.555	-1.46
1060.976	1.29
1061.398	1.34
1061.82	2.09
1062.241	-1.21
1062.663	3.29
1063.085	-2.16
1063.506	-2.81
1063.928	-2.41
1064.35	1.04
1064.771	0.19
1065.193	-1.51
1065.614	-3.11
1066.035	2.19
1066.457	0.39
1066.878	-0.06
1067.3	1.49
1067.721	2.49
1068.142	7.24
1068.564	-0.16
1068.985	-0.76
1069.406	-3.36
1069.827	0.54
1070.248	-2.06
1070.67	-3.06
1071.091	-7.31
1071.512	-6.11
1071.933	-6.56
1072.354	-9.81
1072.775	-3.16
1073.196	0.34
1073.617	-4.51
1074.038	-0.06
1074.459	-6.56
1074.88	-1.81
1075.3	-0.56
1075.721	4.19
1076.142	-1.21
1076.563	-6.91
1076.983	1.79
1077.404	-6.56
1077.825	-2.21
1078.246	-1.21
1078.666	-1.31
1079.087	-2.51
1079.507	-2.11
1079.928	-3.06
1080.348	-2.41
1080.769	4.69
1081.189	0.44
1081.61	-5.76
1082.03	0.84
1082.451	-1.46
1082.871	-7.56
1083.291	1.89
1083.711	-4.76
1084.132	-4.31
1084.552	-8.56
1084.972	-5.16
1085.392	-3.16
1085.813	-1.56
1086.233	-3.41
1086.653	-4.11
1087.073	-3.86
1087.493	-2.66
1087.913	-1.01
1088.333	-1.91
1088.753	-0.81
1089.173	-0.46
1089.593	-1.31
1090.013	-2.11
1090.433	-6.46
1090.852	0.49
1091.272	-3.81
1091.692	0.19
1092.112	-4.51
1092.531	-3.61
1092.951	0.14
1093.371	-0.76
1093.79	-2.66
1094.21	-3.16
1094.63	0.94
1095.049	-2.91
1095.469	-7.11
1095.888	3.89
1096.308	0.14
1096.727	-0.76
1097.146	-8.01
1097.566	-2.31
1097.985	-2.61
1098.405	-2.96
1098.824	1.64
1099.243	-5.11
1099.662	-2.06
1100.082	-2.56
1100.501	-0.76
1100.92	5.79
1101.339	-2.36
1101.758	2.29
