Data from MSPlasma+Separation6_Subt14_10-13-30-075.txt Node
Date: Fri Jul 21 10:13:30 EDT 2017
User: Ender
Spectrometer: HR+D1039
Trigger mode: 0
Integration Time (sec): 6.430000E-3
Scans to average: 20
Electric dark correction enabled: true
Nonlinearity correction enabled: false
Boxcar width: 0
XAxis mode: Wavelengths
Number of Pixels in Spectrum: 2048
>>>>>Begin Spectral Data<<<<<
187.836	2.02
188.309	2.02
188.782	2.02
189.255	1.47
189.728	1.32
190.201	-2.13
190.674	1.72
191.147	-0.73
191.619	0.82
192.092	-2.63
192.565	-3.68
193.038	4.97
193.511	3.97
193.984	-0.38
194.456	-0.68
194.929	0.47
195.402	-3.93
195.874	-2.63
196.347	1.92
196.82	-1.73
197.292	-4.93
197.765	-1.03
198.237	-5.98
198.71	-4.63
199.182	-0.28
199.655	3.62
200.127	-2.08
200.6	0.07
201.072	-0.53
201.544	-2.48
202.017	1.82
202.489	-0.88
202.961	-3.93
203.433	-3.63
203.906	0.57
204.378	2.07
204.85	3.67
205.322	0.12
205.794	1.57
206.266	-0.13
206.739	2.82
207.211	0.87
207.683	-0.93
208.155	-0.88
208.627	0.67
209.099	8.27
209.57	2.57
210.042	2.07
210.514	-3.18
210.986	-4.93
211.458	-4.63
211.93	0.62
212.402	-0.93
212.873	-2.13
213.345	-1.68
213.817	-2.13
214.288	-1.18
214.76	3.57
215.232	-0.28
215.703	-1.43
216.175	0.77
216.646	1.82
217.118	3.17
217.589	-0.93
218.061	1.07
218.532	0.77
219.004	3.67
219.475	2.17
219.946	-2.73
220.418	6.62
220.889	7.32
221.36	3.67
221.832	6.47
222.303	2.72
222.774	3.87
223.245	3.02
223.717	-2.48
224.188	-0.93
224.659	4.57
225.13	2.42
225.601	4.42
226.072	2.87
226.543	6.72
227.014	5.62
227.485	5.37
227.956	6.02
228.427	8.07
228.898	4.42
229.369	7.57
229.839	4.57
230.31	9.17
230.781	8.27
231.252	11.17
231.722	12.02
232.193	10.37
232.664	8.07
233.135	9.57
233.605	5.92
234.076	14.57
234.546	7.32
235.017	16.57
235.487	13.92
235.958	7.72
236.428	15.82
236.899	11.77
237.369	19.92
237.84	16.32
238.31	19.97
238.78	8.02
239.251	11.32
239.721	15.92
240.191	11.87
240.662	19.42
241.132	16.77
241.602	17.12
242.072	13.47
242.542	14.37
243.013	15.42
243.483	21.97
243.953	12.17
244.423	20.87
244.893	19.32
245.363	22.12
245.833	19.17
246.303	18.07
246.773	21.87
247.243	20.02
247.712	20.82
248.182	26.62
248.652	24.47
249.122	23.62
249.592	24.27
250.061	22.92
250.531	26.22
251.001	21.07
251.471	25.67
251.94	27.82
252.41	26.97
252.879	25.22
253.349	33.42
253.818	29.72
254.288	29.47
254.757	28.57
255.227	28.02
255.696	28.87
256.166	34.67
256.635	31.97
257.105	29.07
257.574	33.92
258.043	35.62
258.513	36.77
258.982	32.02
259.451	35.72
259.92	29.52
260.389	33.02
260.859	38.22
261.328	38.72
261.797	35.02
262.266	38.57
262.735	40.87
263.204	33.77
263.673	46.17
264.142	39.77
264.611	40.17
265.08	36.52
265.549	37.37
266.018	41.52
266.487	46.07
266.955	42.77
267.424	48.72
267.893	47.37
268.362	45.42
268.83	38.32
269.299	45.57
269.768	50.57
270.236	48.52
270.705	53.37
271.174	47.62
271.642	45.37
272.111	47.72
272.579	50.52
273.048	49.37
273.516	50.92
273.985	49.12
274.453	52.72
274.922	52.22
275.39	47.47
275.858	57.92
276.327	55.37
276.795	58.02
277.263	58.27
277.731	59.32
278.2	64.12
278.668	56.52
279.136	63.87
279.604	64.27
280.072	60.37
280.54	64.77
281.008	69.12
281.477	68.67
281.945	65.12
282.413	62.32
282.881	69.42
283.348	68.42
283.816	67.47
284.284	72.52
284.752	69.57
285.22	72.82
285.688	72.52
286.156	74.42
286.623	71.62
287.091	76.02
287.559	79.37
288.026	79.12
288.494	82.72
288.962	80.72
289.429	76.57
289.897	76.42
290.364	74.57
290.832	79.77
291.3	82.37
291.767	84.17
292.234	87.12
292.702	84.07
293.169	85.67
293.637	85.07
294.104	87.27
294.571	86.52
295.039	92.12
295.506	84.22
295.973	88.27
296.44	82.82
296.908	91.12
297.375	92.07
297.842	91.92
298.309	92.52
298.776	91.17
299.243	96.97
299.71	94.82
300.177	95.92
300.644	95.52
301.111	100.52
301.578	102.17
302.045	97.02
302.512	101.87
302.979	105.42
303.446	111.62
303.913	109.42
304.379	114.02
304.846	114.47
305.313	117.27
305.78	119.27
306.246	116.92
306.713	118.22
307.18	120.37
307.646	121.12
308.113	118.62
308.579	128.07
309.046	133.77
309.512	130.92
309.979	129.72
310.445	128.02
310.912	130.07
311.378	141.02
311.845	137.07
312.311	137.07
312.777	138.32
313.244	146.87
313.71	142.67
314.176	146.77
314.642	144.27
315.109	146.17
315.575	140.37
316.041	145.92
316.507	147.02
316.973	158.52
317.439	150.77
317.905	153.32
318.371	153.07
318.837	154.62
319.303	154.22
319.769	153.37
320.235	163.22
320.701	158.02
321.167	160.62
321.633	160.07
322.099	161.32
322.564	162.42
323.03	165.67
323.496	164.17
323.962	167.62
324.427	174.07
324.893	174.12
325.359	178.12
325.824	178.67
326.29	176.82
326.755	174.67
327.221	176.92
327.686	183.77
328.152	188.57
328.617	191.97
329.083	189.62
329.548	192.42
330.014	193.27
330.479	199.52
330.944	197.82
331.41	200.62
331.875	197.52
332.34	195.47
332.805	204.07
333.271	202.22
333.736	204.12
334.201	204.92
334.666	220.92
335.131	222.62
335.596	216.82
336.061	210.57
336.526	217.67
336.991	215.97
337.456	207.77
337.921	208.02
338.386	203.22
338.851	213.27
339.316	213.17
339.781	209.77
340.246	214.42
340.711	212.62
341.175	219.12
341.64	225.57
342.105	232.22
342.569	245.07
343.034	235.37
343.499	235.77
343.963	245.87
344.428	248.87
344.893	247.32
345.357	252.27
345.822	250.72
346.286	257.07
346.751	264.87
347.215	262.77
347.679	273.07
348.144	289.42
348.608	288.57
349.073	289.02
349.537	296.77
350.001	295.62
350.465	301.32
350.93	290.02
351.394	301.32
351.858	304.22
352.322	305.57
352.786	309.57
353.25	315.47
353.715	316.42
354.179	324.97
354.643	335.52
355.107	337.97
355.571	332.77
356.035	329.67
356.498	326.27
356.962	324.52
357.426	324.82
357.89	331.72
358.354	320.07
358.818	320.32
359.281	328.27
359.745	330.32
360.209	323.92
360.673	325.22
361.136	325.52
361.6	332.42
362.064	340.57
362.527	349.02
362.991	350.42
363.454	341.47
363.918	356.02
364.381	352.22
364.845	353.32
365.308	351.92
365.772	360.27
366.235	361.07
366.698	354.22
367.162	355.72
367.625	365.22
368.088	372.62
368.552	369.57
369.015	367.42
369.478	371.47
369.941	380.37
370.404	384.12
370.867	378.47
371.331	376.47
371.794	391.82
372.257	388.77
372.72	385.37
373.183	393.37
373.646	396.57
374.109	393.82
374.572	399.82
375.035	397.17
375.497	404.97
375.96	416.22
376.423	419.57
376.886	425.32
377.349	426.92
377.811	432.82
378.274	433.07
378.737	424.92
379.199	429.37
379.662	437.62
380.125	438.27
380.587	440.72
381.05	452.27
381.512	460.57
381.975	470.52
382.437	477.82
382.9	475.32
383.362	469.17
383.825	470.97
384.287	482.62
384.75	478.82
385.212	485.57
385.674	492.02
386.136	494.92
386.599	487.22
387.061	490.27
387.523	490.92
387.985	497.17
388.447	502.37
388.91	502.92
389.372	513.37
389.834	508.37
390.296	498.47
390.758	509.67
391.22	503.92
391.682	508.52
392.144	502.57
392.606	514.02
393.068	526.52
393.529	551.47
393.991	564.67
394.453	540.17
394.915	526.02
395.377	511.72
395.838	515.72
396.3	516.52
396.762	526.12
397.224	523.87
397.685	529.37
398.147	533.32
398.608	539.37
399.07	541.72
399.531	542.37
399.993	558.07
400.454	568.07
400.916	564.32
401.377	581.12
401.839	584.62
402.3	582.02
402.762	603.57
403.223	654.77
403.684	642.22
404.145	620.22
404.607	610.47
405.068	604.82
405.529	610.62
405.99	626.07
406.451	626.77
406.913	619.97
407.374	627.52
407.835	619.02
408.296	639.97
408.757	645.27
409.218	654.57
409.679	664.37
410.14	672.02
410.601	680.17
411.062	681.32
411.522	686.87
411.983	690.67
412.444	691.72
412.905	708.77
413.366	733.37
413.826	763.37
414.287	859.02
414.748	1015.52
415.208	1037.87
415.669	865.12
416.13	792.52
416.59	788.02
417.051	812.67
417.511	840.27
417.972	908.42
418.432	975.07
418.893	1068.07
419.353	1024.52
419.814	793.77
420.274	712.97
420.734	706.07
421.195	726.62
421.655	721.47
422.115	743.97
422.576	734.67
423.036	745.22
423.496	768.32
423.956	803.92
424.416	856.52
424.876	944.92
425.336	936.12
425.797	925.82
426.257	911.97
426.717	874.37
427.177	818.17
427.637	824.72
428.097	854.72
428.556	885.87
429.016	944.57
429.476	948.52
429.936	928.57
430.396	935.07
430.856	964.22
431.315	971.72
431.775	1037.37
432.235	1116.27
432.694	1128.52
433.154	1074.97
433.614	1042.92
434.073	1013.37
434.533	910.87
434.993	876.32
435.452	883.17
435.912	868.92
436.371	868.87
436.83	852.92
437.29	834.62
437.749	816.77
438.209	806.82
438.668	826.67
439.127	834.87
439.587	822.07
440.046	797.17
440.505	816.97
440.964	820.87
441.424	856.72
441.883	870.77
442.342	817.47
442.801	786.62
443.26	798.02
443.719	779.92
444.178	782.27
444.637	800.52
445.096	800.67
445.555	813.97
446.014	808.87
446.473	792.32
446.932	800.27
447.391	806.02
447.849	824.12
448.308	808.82
448.767	817.57
449.226	829.57
449.685	838.52
450.143	885.52
450.602	871.17
451.061	836.22
451.519	834.62
451.978	819.97
452.436	818.82
452.895	824.02
453.353	819.82
453.812	806.27
454.27	806.62
454.729	824.87
455.187	827.37
455.646	826.52
456.104	825.97
456.562	835.72
457.021	858.82
457.479	815.37
457.937	840.02
458.395	866.77
458.854	851.72
459.312	841.72
459.77	855.02
460.228	869.37
460.686	873.22
461.144	875.52
461.602	867.57
462.06	875.82
462.518	887.52
462.976	887.77
463.434	909.97
463.892	910.07
464.35	920.52
464.808	938.77
465.266	951.72
465.724	967.87
466.181	956.52
466.639	959.92
467.097	1003.02
467.555	1030.32
468.012	1026.52
468.47	1035.87
468.928	1074.92
469.385	1100.72
469.843	1110.27
470.3	1105.27
470.758	1140.37
471.215	1157.37
471.673	1184.52
472.13	1210.12
472.588	1240.22
473.045	1235.97
473.503	1253.32
473.96	1316.32
474.417	1318.47
474.875	1379.12
475.332	1437.37
475.789	1458.07
476.246	1496.57
476.704	1556.92
477.161	1613.87
477.618	1648.12
478.075	1735.82
478.532	1865.22
478.989	2009.92
479.446	2206.37
479.903	2313.17
480.36	2520.67
480.817	2655.77
481.274	2828.47
481.731	3084.82
482.188	3297.17
482.645	3518.92
483.102	3726.82
483.558	3967.22
484.015	4121.52
484.472	4090.07
484.929	3956.17
485.385	3819.82
485.842	3733.32
486.299	3598.72
486.755	3314.22
487.212	2997.57
487.668	2704.22
488.125	2529.82
488.582	2356.92
489.038	2265.47
489.494	2199.62
489.951	2129.92
490.407	2086.57
490.864	2035.92
491.32	1998.12
491.776	1984.17
492.233	1992.32
492.689	1953.67
493.145	1913.82
493.602	1891.52
494.058	1918.47
494.514	1910.87
494.97	1920.32
495.426	1942.72
495.882	1929.37
496.338	1930.22
496.794	1946.77
497.251	1947.27
497.707	1971.62
498.163	1971.52
498.618	1970.17
499.074	1965.17
499.53	1985.82
499.986	2002.32
500.442	1973.67
500.898	1962.57
501.354	1980.27
501.809	1986.02
502.265	1978.52
502.721	1990.67
503.177	1997.62
503.632	2003.82
504.088	2012.52
504.543	2045.72
504.999	2049.17
505.455	2045.32
505.91	2023.32
506.366	2028.12
506.821	2032.77
507.277	2033.57
507.732	2033.67
508.187	2034.22
508.643	2044.77
509.098	2053.77
509.553	2082.22
510.009	2093.42
510.464	2141.77
510.919	2155.82
511.375	2168.17
511.83	2195.62
512.285	2228.02
512.74	2267.67
513.195	2294.72
513.65	2342.72
514.105	2369.12
514.56	2365.42
515.015	2411.17
515.47	2419.57
515.925	2396.97
516.38	2410.27
516.835	2412.42
517.29	2391.82
517.745	2382.47
518.2	2344.27
518.655	2304.67
519.109	2283.37
519.564	2249.27
520.019	2228.27
520.474	2224.07
520.928	2203.62
521.383	2181.87
521.838	2179.72
522.292	2164.97
522.747	2156.77
523.201	2152.92
523.656	2123.62
524.11	2120.92
524.565	2113.22
525.019	2120.17
525.474	2107.82
525.928	2095.67
526.382	2110.67
526.837	2092.77
527.291	2111.12
527.745	2100.77
528.2	2099.12
528.654	2077.87
529.108	2080.42
529.562	2069.87
530.016	2072.47
530.47	2079.72
530.925	2074.02
531.379	2076.42
531.833	2097.57
532.287	2091.22
532.741	2069.57
533.195	2086.62
533.649	2090.12
534.103	2100.42
534.556	2074.87
535.01	2086.82
535.464	2084.57
535.918	2075.72
536.372	2095.92
536.826	2096.57
537.279	2073.52
537.733	2064.52
538.187	2081.52
538.64	2075.37
539.094	2103.87
539.548	2126.37
540.001	2108.87
540.455	2136.32
540.908	2136.07
541.362	2156.32
541.815	2162.47
542.269	2218.57
542.722	2206.72
543.175	2237.97
543.629	2236.82
544.082	2266.52
544.536	2283.12
544.989	2288.72
545.442	2299.92
545.895	2300.62
546.349	2287.42
546.802	2306.52
547.255	2295.27
547.708	2315.62
548.161	2342.27
548.614	2338.92
549.067	2345.47
549.52	2348.02
549.973	2312.17
550.426	2315.42
550.879	2297.62
551.332	2314.92
551.785	2322.57
552.238	2327.92
552.691	2334.67
553.144	2374.77
553.596	2411.92
554.049	2433.22
554.502	2485.07
554.955	2507.42
555.407	2542.12
555.86	2533.02
556.313	2502.47
556.765	2487.12
557.218	2451.72
557.67	2443.97
558.123	2412.57
558.576	2391.57
559.028	2392.42
559.48	2420.47
559.933	2397.12
560.385	2339.32
560.838	2261.07
561.29	2203.07
561.742	2201.82
562.195	2131.27
562.647	2123.12
563.099	2114.22
563.551	2105.52
564.004	2114.62
564.456	2093.07
564.908	2048.57
565.36	2026.67
565.812	1979.47
566.264	1956.02
566.716	1931.02
567.168	1900.02
567.62	1896.87
568.072	1895.57
568.524	1876.22
568.976	1872.97
569.428	1846.12
569.88	1856.57
570.332	1865.77
570.784	1870.67
571.235	1856.37
571.687	1884.22
572.139	1880.37
572.59	1889.67
573.042	1898.92
573.494	1901.27
573.945	1879.52
574.397	1829.82
574.849	1841.82
575.3	1842.37
575.752	1804.37
576.203	1801.67
576.655	1802.87
577.106	1778.82
577.557	1771.07
578.009	1755.27
578.46	1767.77
578.912	1743.42
579.363	1757.12
579.814	1758.82
580.265	1757.22
580.717	1755.57
581.168	1757.22
581.619	1759.02
582.07	1773.27
582.521	1767.57
582.972	1767.72
583.423	1769.02
583.875	1779.52
584.326	1795.12
584.777	1833.57
585.227	1856.27
585.678	1873.37
586.129	1889.77
586.58	1906.32
587.031	1930.72
587.482	1983.67
587.933	2009.62
588.384	2004.07
588.834	1971.52
589.285	1961.72
589.736	1971.17
590.186	1974.92
590.637	1957.97
591.088	1917.07
591.538	1889.22
591.989	1855.62
592.439	1830.27
592.89	1809.62
593.34	1811.87
593.791	1801.02
594.241	1780.27
594.692	1776.02
595.142	1769.92
595.593	1772.12
596.043	1788.12
596.493	1800.27
596.943	1795.02
597.394	1854.72
597.844	1870.52
598.294	1911.47
598.744	1978.02
599.195	2054.27
599.645	2180.82
600.095	2299.97
600.545	2390.97
600.995	2485.57
601.445	2566.82
601.895	2706.17
602.345	2773.27
602.795	2734.67
603.245	2634.02
603.695	2480.52
604.145	2357.62
604.594	2247.77
605.044	2131.67
605.494	1996.17
605.944	1902.97
606.393	1861.82
606.843	1827.07
607.293	1828.42
607.743	1806.37
608.192	1820.97
608.642	1821.52
609.091	1802.97
609.541	1802.87
609.99	1808.27
610.44	1764.47
610.889	1753.77
611.339	1731.57
611.788	1711.92
612.238	1726.87
612.687	1728.17
613.136	1734.02
613.586	1759.32
614.035	1731.92
614.484	1762.97
614.933	1761.57
615.383	1737.77
615.832	1693.12
616.281	1659.32
616.73	1622.62
617.179	1584.02
617.628	1564.47
618.077	1532.12
618.526	1507.07
618.975	1507.22
619.424	1479.92
619.873	1484.92
620.322	1468.67
620.771	1457.57
621.22	1434.52
621.669	1419.42
622.118	1407.42
622.567	1383.42
623.015	1361.42
623.464	1356.27
623.913	1344.52
624.361	1350.57
624.81	1340.37
625.259	1348.97
625.707	1345.82
626.156	1343.27
626.604	1362.27
627.053	1365.47
627.501	1367.52
627.95	1375.77
628.398	1390.07
628.847	1377.07
629.295	1364.57
629.744	1351.07
630.192	1335.92
630.64	1319.52
631.089	1296.77
631.537	1262.82
631.985	1254.52
632.433	1245.67
632.881	1235.97
633.33	1242.52
633.778	1232.87
634.226	1257.17
634.674	1267.42
635.122	1268.82
635.57	1292.27
636.018	1310.52
636.466	1306.07
636.914	1311.92
637.362	1327.87
637.81	1353.27
638.258	1397.32
638.705	1413.92
639.153	1459.92
639.601	1466.32
640.049	1500.52
640.497	1538.77
640.944	1576.42
641.392	1504.82
641.84	1420.62
642.287	1368.37
642.735	1351.27
643.182	1333.47
643.63	1336.82
644.078	1340.57
644.525	1354.72
644.973	1399.67
645.42	1425.57
645.867	1458.97
646.315	1485.17
646.762	1534.82
647.21	1594.62
647.657	1663.07
648.104	1722.97
648.551	1773.42
648.999	1917.47
649.446	2089.37
649.893	2345.52
650.34	2730.12
650.787	3348.27
651.234	4308.82
651.682	5924.22
652.129	8335.72
652.576	11808.17
653.023	15249.87
653.47	15531.77
653.917	15531.82
654.363	15531.72
654.81	15528.72
655.257	15529.37
655.704	14820.77
656.151	9074.67
656.598	5985.27
657.044	4307.02
657.491	3365.37
657.938	2754.17
658.385	2330.52
658.831	2067.07
659.278	1858.67
659.724	1700.22
660.171	1589.07
660.618	1479.82
661.064	1396.67
661.511	1351.22
661.957	1314.37
662.404	1283.82
662.85	1282.52
663.296	1250.17
663.743	1228.02
664.189	1208.72
664.635	1197.07
665.082	1174.82
665.528	1158.32
665.974	1119.72
666.42	1103.52
666.867	1092.27
667.313	1047.32
667.759	1030.82
668.205	1027.47
668.651	1030.82
669.097	1035.47
669.543	1038.17
669.989	1046.97
670.435	1050.37
670.881	1057.52
671.327	1096.82
671.773	1170.52
672.219	1263.82
672.665	1332.42
673.11	1389.97
673.556	1396.97
674.002	1420.67
674.448	1433.87
674.893	1238.32
675.339	1080.22
675.785	998.27
676.23	947.87
676.676	910.67
677.122	880.17
677.567	855.02
678.013	828.42
678.458	829.57
678.904	830.07
679.349	817.17
679.794	808.97
680.24	811.57
680.685	800.57
681.131	809.12
681.576	806.82
682.021	807.57
682.466	818.37
682.912	825.87
683.357	870.57
683.802	942.82
684.247	1022.82
684.692	1092.22
685.137	1132.12
685.583	1165.67
686.028	1211.97
686.473	1152.77
686.918	999.92
687.363	916.22
687.807	870.37
688.252	837.22
688.697	803.27
689.142	768.47
689.587	784.17
690.032	797.92
690.477	828.27
690.921	875.62
691.366	917.32
691.811	949.32
692.255	1030.97
692.7	1250.17
693.145	1795.82
693.589	2745.52
694.034	3268.87
694.478	3463.07
694.923	3163.52
695.367	4419.82
695.812	2737.72
696.256	1161.72
696.701	853.92
697.145	793.17
697.59	761.82
698.034	752.02
698.478	748.47
698.922	756.47
699.367	771.47
699.811	804.42
700.255	867.42
700.699	950.67
701.143	1034.27
701.588	1094.32
702.032	1131.57
702.476	1175.62
702.92	1256.82
703.364	1641.72
703.808	2511.62
704.252	3125.87
704.696	3301.97
705.14	3084.12
705.584	4178.57
706.027	2364.82
706.471	1194.97
706.915	897.52
707.359	797.17
707.803	741.37
708.246	722.97
708.69	711.62
709.134	707.37
709.577	704.12
710.021	707.92
710.465	702.67
710.908	704.52
711.352	722.02
711.795	796.52
712.239	874.77
712.682	882.37
713.126	864.42
713.569	956.47
714.012	801.17
714.456	700.97
714.899	654.67
715.342	628.72
715.786	607.42
716.229	587.77
716.672	578.27
717.115	576.52
717.558	585.62
718.002	594.47
718.445	626.72
718.888	649.37
719.331	660.07
719.774	680.07
720.217	666.27
720.66	640.22
721.103	602.02
721.546	570.32
721.989	553.02
722.432	547.52
722.874	544.97
723.317	546.82
723.76	596.02
724.203	737.07
724.645	988.72
725.088	1149.87
725.531	1125.77
725.974	1219.72
726.416	1105.02
726.859	695.07
727.301	571.97
727.744	539.12
728.187	539.52
728.629	556.62
729.071	586.77
729.514	607.87
729.956	631.07
730.399	642.62
730.841	647.47
731.283	626.42
731.726	609.87
732.168	620.57
732.61	655.32
733.053	709.12
733.495	778.42
733.937	869.42
734.379	1016.47
734.821	1286.87
735.263	2046.87
735.705	3682.87
736.148	5426.77
736.59	5419.27
737.032	5805.37
737.474	4811.67
737.916	1868.02
738.357	987.92
738.799	757.82
739.241	703.87
739.683	715.17
740.125	728.72
740.567	736.47
741.008	779.92
741.45	829.17
741.892	862.42
742.334	876.32
742.775	867.62
743.217	828.92
743.658	706.32
744.1	733.62
744.542	841.27
744.983	877.52
745.425	912.82
745.866	888.62
746.307	732.37
746.749	769.52
747.19	1120.12
747.632	2170.17
748.073	4026.77
748.514	5560.27
748.956	7324.42
749.397	8556.32
749.838	5963.72
750.279	5597.12
750.72	2933.07
751.162	1247.52
751.603	722.27
752.044	579.32
752.485	514.02
752.926	477.67
753.367	462.87
753.808	451.17
754.249	445.42
754.69	439.92
755.131	428.27
755.572	430.77
756.013	431.12
756.453	432.12
756.894	439.82
757.335	440.77
757.776	450.62
758.216	464.42
758.657	487.32
759.098	548.47
759.538	657.72
759.979	940.22
760.42	1903.32
760.86	4856.97
761.301	10026.67
761.741	11796.27
762.182	13314.92
762.622	8737.47
763.063	3141.62
763.503	1291.37
763.943	759.87
764.384	598.52
764.824	522.32
765.264	483.02
765.705	452.92
766.145	428.97
766.585	416.42
767.025	398.72
767.465	402.62
767.906	411.32
768.346	439.42
768.786	503.07
769.226	737.97
769.666	1481.12
770.106	3314.12
770.546	4750.77
770.986	5314.07
771.426	4025.77
771.866	1693.32
772.306	772.82
772.745	478.62
773.185	409.77
773.625	393.67
774.065	419.62
774.505	614.27
774.944	1099.97
775.384	1591.22
775.824	1779.82
776.263	1465.22
776.703	783.82
777.142	446.97
777.582	327.17
778.021	298.62
778.461	296.37
778.9	291.22
779.34	276.87
779.779	268.37
780.219	266.82
780.658	253.67
781.097	259.22
781.537	253.42
781.976	252.32
782.415	248.47
782.855	248.72
783.294	244.42
783.733	238.87
784.172	247.77
784.611	252.57
785.05	253.67
785.489	260.07
785.928	267.42
786.367	277.87
786.806	290.77
787.245	310.72
787.684	327.67
788.123	330.62
788.562	312.52
789.001	297.97
789.44	292.02
789.879	288.22
790.317	298.72
790.756	314.02
791.195	357.97
791.634	476.72
792.072	855.22
792.511	2094.17
792.95	3878.22
793.388	4659.62
793.827	3050.62
794.265	1407.57
794.704	676.57
795.142	425.12
795.581	349.22
796.019	312.72
796.458	312.82
796.896	318.17
797.334	369.17
797.773	488.02
798.211	922.12
798.649	1941.92
799.087	3243.27
799.526	4612.02
799.964	4727.42
800.402	3274.02
800.84	1493.82
801.278	732.02
801.716	447.12
802.154	367.17
802.592	344.07
803.03	334.77
803.468	347.77
803.906	353.07
804.344	345.27
804.782	333.27
805.22	341.12
805.658	352.87
806.096	375.97
806.533	419.27
806.971	526.77
807.409	772.12
807.847	1528.87
808.284	3869.22
808.722	6811.82
809.16	9533.32
809.597	12884.47
810.035	15335.42
810.472	10451.87
810.91	4473.67
811.347	2007.67
811.785	962.32
812.222	604.32
812.66	457.52
813.097	396.77
813.535	338.62
813.972	307.52
814.409	284.37
814.846	272.02
815.284	257.77
815.721	269.87
816.158	291.42
816.595	402.52
817.032	504.97
817.47	463.22
817.907	332.92
818.344	293.07
818.781	289.22
819.218	353.47
819.655	541.62
820.092	704.62
820.529	629.47
820.966	497.57
821.403	338.02
821.839	289.52
822.276	319.27
822.713	386.92
823.15	356.22
823.587	372.97
824.023	636.42
824.46	1576.82
824.897	2767.72
825.333	2178.22
825.77	1006.57
826.206	526.57
826.643	307.97
827.08	230.97
827.516	206.97
827.953	187.27
828.389	182.27
828.825	176.52
829.262	164.72
829.698	157.87
830.135	148.37
830.571	152.12
831.007	152.92
831.443	150.02
831.88	156.62
832.316	156.87
832.752	158.97
833.188	158.12
833.624	165.62
834.06	162.82
834.497	165.67
834.933	166.32
835.369	182.52
835.805	193.22
836.241	201.27
836.677	217.17
837.112	259.37
837.548	325.97
837.984	467.02
838.42	998.32
838.856	2772.97
839.292	5461.57
839.727	4126.57
840.163	2761.57
840.599	4179.47
841.034	6355.92
841.47	3235.27
841.906	1557.97
842.341	846.07
842.777	625.67
843.212	653.12
843.648	405.92
844.083	275.37
844.519	206.82
844.954	173.87
845.39	154.57
845.825	147.07
846.261	144.42
846.696	140.82
847.131	133.72
847.566	133.37
848.002	136.42
848.437	143.52
848.872	153.37
849.307	195.22
849.742	350.97
850.177	904.07
850.613	1912.72
851.048	1404.02
851.483	647.22
851.918	358.72
852.353	198.82
852.788	140.52
853.223	128.62
853.657	112.97
854.092	111.72
854.527	116.07
854.962	122.67
855.397	136.77
855.832	120.52
856.266	102.77
856.701	103.87
857.136	106.07
857.57	130.72
858.005	158.22
858.44	134.12
858.874	121.12
859.309	125.67
859.743	122.57
860.178	118.07
860.612	132.12
861.047	184.32
861.481	260.02
861.915	183.22
862.35	134.62
862.784	105.67
863.218	98.32
863.653	107.27
864.087	136.42
864.521	160.42
864.955	260.22
865.39	452.82
865.824	356.62
866.258	468.02
866.692	718.22
867.126	523.67
867.56	283.47
867.994	178.02
868.428	149.02
868.862	187.37
869.296	171.67
869.73	208.92
870.164	176.92
870.598	157.72
871.031	115.77
871.465	99.82
871.899	79.32
872.333	70.62
872.766	75.92
873.2	74.92
873.634	75.87
874.067	80.27
874.501	79.77
874.935	73.52
875.368	75.27
875.802	69.47
876.235	65.72
876.669	70.87
877.102	56.02
877.535	62.12
877.969	57.87
878.402	59.97
878.836	56.87
879.269	56.12
879.702	53.92
880.135	54.87
880.569	65.47
881.002	55.57
881.435	53.97
881.868	57.47
882.301	49.32
882.734	48.67
883.167	53.57
883.601	47.87
884.034	49.77
884.467	47.02
884.899	50.57
885.332	47.02
885.765	46.27
886.198	45.32
886.631	45.22
887.064	42.87
887.497	41.57
887.929	46.47
888.362	47.02
888.795	45.42
889.228	51.22
889.66	45.87
890.093	44.92
890.526	41.57
890.958	43.27
891.391	46.47
891.823	42.82
892.256	46.87
892.688	48.62
893.121	36.72
893.553	46.32
893.985	41.37
894.418	40.12
894.85	42.37
895.282	42.27
895.715	39.57
896.147	41.37
896.579	33.82
897.011	42.37
897.444	43.07
897.876	32.02
898.308	39.07
898.74	39.57
899.172	41.82
899.604	41.62
900.036	43.67
900.468	36.62
900.9	44.52
901.332	57.92
901.764	56.37
902.196	56.97
902.628	53.57
903.06	87.42
903.491	92.82
903.923	77.57
904.355	70.32
904.787	78.62
905.218	62.82
905.65	57.72
906.082	52.72
906.513	51.47
906.945	50.82
907.376	48.57
907.808	45.12
908.239	53.17
908.671	59.42
909.102	69.32
909.534	94.07
909.965	179.32
910.397	446.22
910.828	1277.92
911.259	796.27
911.691	433.02
912.122	244.97
912.553	124.22
912.984	73.47
913.415	60.72
913.847	55.97
914.278	52.02
914.709	42.67
915.14	42.17
915.571	43.72
916.002	42.17
916.433	43.42
916.864	41.87
917.295	43.72
917.726	52.77
918.157	67.67
918.587	64.62
919.018	64.02
919.449	56.07
919.88	63.77
920.311	99.22
920.741	264.42
921.172	470.97
921.603	242.67
922.033	155.07
922.464	100.97
922.895	62.77
923.325	47.57
923.756	40.47
924.186	48.47
924.617	78.62
925.047	108.97
925.478	103.77
925.908	72.22
926.338	50.77
926.769	45.77
927.199	37.52
927.629	39.47
928.06	42.12
928.49	43.77
928.92	33.42
929.35	32.67
929.78	26.62
930.21	28.22
930.641	17.07
931.071	24.62
931.501	20.37
931.931	16.47
932.361	20.12
932.791	24.62
933.221	26.02
933.651	38.12
934.08	63.12
934.51	37.57
934.94	27.72
935.37	24.22
935.8	20.87
936.229	21.72
936.659	17.67
937.089	37.87
937.519	59.67
937.948	83.87
938.378	45.72
938.807	28.12
939.237	19.37
939.666	15.32
940.096	13.52
940.525	2.72
940.955	13.52
941.384	7.12
941.814	7.97
942.243	9.92
942.672	11.77
943.102	8.67
943.531	5.52
943.96	9.92
944.39	11.97
944.819	11.02
945.248	14.42
945.677	8.97
946.106	6.62
946.535	9.32
946.964	12.92
947.393	8.02
947.822	8.62
948.251	12.52
948.68	12.67
949.109	6.92
949.538	4.42
949.967	8.87
950.396	6.17
950.825	9.72
951.254	10.47
951.682	4.97
952.111	5.82
952.54	10.27
952.969	3.77
953.397	5.27
953.826	5.62
954.254	10.37
954.683	8.92
955.112	7.82
955.54	5.82
955.969	7.47
956.397	11.07
956.826	4.77
957.254	4.37
957.682	10.57
958.111	5.47
958.539	8.82
958.967	3.92
959.396	9.72
959.824	5.57
960.252	5.97
960.68	3.77
961.109	9.87
961.537	12.77
961.965	5.87
962.393	6.17
962.821	3.42
963.249	6.32
963.677	13.37
964.105	77.52
964.533	139.87
964.961	64.87
965.389	40.47
965.817	26.52
966.245	12.12
966.672	5.52
967.1	11.77
967.528	4.07
967.956	6.42
968.383	6.97
968.811	1.12
969.239	8.62
969.666	3.27
970.094	7.72
970.522	1.72
970.949	6.37
971.377	-1.83
971.804	1.37
972.232	-0.13
972.659	2.72
973.087	4.87
973.514	3.17
973.941	0.52
974.369	-0.08
974.796	0.47
975.223	4.22
975.651	9.87
976.078	6.02
976.505	10.87
976.932	32.97
977.359	45.22
977.786	28.37
978.214	15.22
978.641	3.42
979.068	6.17
979.495	5.22
979.922	6.07
980.349	6.37
980.776	6.82
981.202	4.87
981.629	9.42
982.056	9.22
982.483	-1.38
982.91	7.37
983.337	-1.63
983.763	4.77
984.19	2.42
984.617	0.92
985.043	10.67
985.47	7.37
985.897	5.27
986.323	6.62
986.75	0.87
987.176	3.52
987.603	6.82
988.029	3.87
988.456	6.42
988.882	0.22
989.308	-4.18
989.735	0.37
990.161	1.72
990.587	1.62
991.014	3.42
991.44	1.47
991.866	3.37
992.292	2.82
992.719	-0.48
993.145	4.42
993.571	3.62
993.997	9.62
994.423	7.97
994.849	0.07
995.275	4.67
995.701	2.07
996.127	-7.13
996.553	-0.53
996.979	1.57
997.405	5.47
997.83	2.67
998.256	0.52
998.682	1.77
999.108	5.17
999.534	-2.08
999.959	1.42
1000.385	1.47
1000.811	-1.08
1001.236	-3.73
1001.662	4.17
1002.087	7.22
1002.513	1.52
1002.938	-0.33
1003.364	6.57
1003.789	5.57
1004.215	-2.18
1004.64	2.37
1005.066	5.77
1005.491	5.62
1005.916	3.52
1006.342	4.02
1006.767	-1.38
1007.192	1.42
1007.617	1.82
1008.042	-0.73
1008.468	1.42
1008.893	3.27
1009.318	10.42
1009.743	14.82
1010.168	28.92
1010.593	23.42
1011.018	11.17
1011.443	11.92
1011.868	13.37
1012.293	8.17
1012.718	3.47
1013.143	2.57
1013.567	6.57
1013.992	6.07
1014.417	3.72
1014.842	0.27
1015.267	-0.43
1015.691	6.67
1016.116	5.02
1016.541	0.47
1016.965	0.87
1017.39	3.42
1017.814	-2.83
1018.239	0.47
1018.663	-6.78
1019.088	-3.28
1019.512	3.12
1019.937	-2.83
1020.361	4.27
1020.785	-1.63
1021.21	-2.13
1021.634	-1.28
1022.058	1.52
1022.483	-3.78
1022.907	-6.48
1023.331	-3.13
1023.755	-3.88
1024.179	-2.08
1024.604	1.17
1025.028	4.67
1025.452	2.72
1025.876	5.37
1026.3	-0.13
1026.724	-3.08
1027.148	1.32
1027.572	1.32
1027.996	1.07
1028.42	5.07
1028.843	-2.98
1029.267	-1.43
1029.691	3.87
1030.115	-1.63
1030.539	-0.33
1030.962	-0.68
1031.386	1.72
1031.81	-3.48
1032.233	-2.08
1032.657	-6.83
1033.08	-0.48
1033.504	1.52
1033.927	0.17
1034.351	0.77
1034.774	-0.38
1035.198	-2.38
1035.621	-2.28
1036.045	-3.73
1036.468	2.07
1036.891	0.27
1037.315	5.92
1037.738	-2.43
1038.161	-0.33
1038.584	2.67
1039.008	-3.98
1039.431	1.12
1039.854	-5.48
1040.277	4.02
1040.7	-2.18
1041.123	1.07
1041.546	-2.43
1041.969	0.52
1042.392	1.12
1042.815	-5.88
1043.238	-2.98
1043.661	-1.73
1044.084	-0.88
1044.507	-4.23
1044.93	-2.13
1045.352	-1.83
1045.775	-1.13
1046.198	4.62
1046.621	0.37
1047.043	-1.83
1047.466	-0.73
1047.889	0.62
1048.311	-0.33
1048.734	0.22
1049.156	-4.08
1049.579	-3.98
1050.001	-5.98
1050.424	2.97
1050.846	-3.08
1051.269	-4.08
1051.691	-1.88
1052.113	0.27
1052.536	1.72
1052.958	-4.73
1053.38	1.52
1053.802	-1.23
1054.225	1.02
1054.647	1.42
1055.069	0.22
1055.491	3.97
1055.913	-3.98
1056.335	-8.43
1056.757	-5.18
1057.179	-2.58
1057.601	-4.28
1058.023	-1.38
1058.445	-7.73
1058.867	2.97
1059.289	-0.18
1059.711	-4.58
1060.133	3.42
1060.555	-2.73
1060.976	-0.68
1061.398	-2.48
1061.82	0.82
1062.241	-1.68
1062.663	-1.83
1063.085	-9.43
1063.506	-6.08
1063.928	0.42
1064.35	-2.18
1064.771	-0.63
1065.193	-3.83
1065.614	-4.48
1066.035	2.07
1066.457	3.67
1066.878	0.87
1067.3	-0.78
1067.721	0.37
1068.142	1.47
1068.564	1.37
1068.985	1.02
1069.406	-9.13
1069.827	-3.63
1070.248	-4.48
1070.67	-2.13
1071.091	-5.43
1071.512	-4.03
1071.933	-1.03
1072.354	-10.78
1072.775	-4.38
1073.196	-1.88
1073.617	-5.03
1074.038	-1.63
1074.459	-4.33
1074.88	-3.83
1075.3	-4.38
1075.721	-7.43
1076.142	-3.78
1076.563	-4.58
1076.983	0.82
1077.404	-4.63
1077.825	2.32
1078.246	-5.33
1078.666	-4.78
1079.087	-1.28
1079.507	-1.78
1079.928	-0.88
1080.348	-0.58
1080.769	-3.18
1081.189	2.22
1081.61	-12.03
1082.03	1.97
1082.451	-3.58
1082.871	-5.38
1083.291	-2.13
1083.711	0.72
1084.132	-1.18
1084.552	-10.13
1084.972	-6.98
1085.392	-5.28
1085.813	0.87
1086.233	-6.28
1086.653	1.27
1087.073	-8.73
1087.493	-7.78
1087.913	-6.88
1088.333	-3.68
1088.753	-1.33
1089.173	1.07
1089.593	-1.23
1090.013	-5.13
1090.433	-8.33
1090.852	-1.58
1091.272	-10.08
1091.692	-0.03
1092.112	-3.73
1092.531	-5.53
1092.951	-6.53
1093.371	-3.98
1093.79	-4.13
1094.21	-3.18
1094.63	-0.83
1095.049	-6.23
1095.469	-9.93
1095.888	-2.23
1096.308	1.37
1096.727	-4.43
1097.146	-5.88
1097.566	-0.88
1097.985	-3.08
1098.405	1.97
1098.824	-1.23
1099.243	-3.93
1099.662	-5.58
1100.082	-2.98
1100.501	0.37
1100.92	2.07
1101.339	-1.93
1101.758	3.12
