Data from MSPlasma+Separation6_Subt14_10-14-30-954.txt Node
Date: Fri Jul 21 10:14:30 EDT 2017
User: Ender
Spectrometer: HR+D1039
Trigger mode: 0
Integration Time (sec): 6.430000E-3
Scans to average: 20
Electric dark correction enabled: true
Nonlinearity correction enabled: false
Boxcar width: 0
XAxis mode: Wavelengths
Number of Pixels in Spectrum: 2048
>>>>>Begin Spectral Data<<<<<
187.836	-0.77
188.309	-0.77
188.782	-0.77
189.255	3.48
189.728	4.98
190.201	-0.87
190.674	2.28
191.147	-4.12
191.619	-4.37
192.092	3.33
192.565	2.23
193.038	1.63
193.511	-1.82
193.984	1.13
194.456	-2.17
194.929	-2.47
195.402	-4.77
195.874	2.38
196.347	3.08
196.82	1.88
197.292	-6.22
197.765	-1.07
198.237	-0.27
198.71	-1.42
199.182	1.13
199.655	5.53
200.127	0.58
200.6	1.58
201.072	3.88
201.544	-1.72
202.017	2.28
202.489	-0.72
202.961	-3.62
203.433	4.08
203.906	-0.42
204.378	3.83
204.85	2.38
205.322	2.58
205.794	5.03
206.266	-3.27
206.739	5.03
207.211	2.18
207.683	2.78
208.155	2.68
208.627	1.88
209.099	6.33
209.57	2.23
210.042	2.23
210.514	2.68
210.986	-0.87
211.458	0.53
211.93	2.63
212.402	1.38
212.873	-4.47
213.345	-4.12
213.817	8.93
214.288	2.33
214.76	-0.82
215.232	1.18
215.703	-0.57
216.175	2.53
216.646	3.83
217.118	4.58
217.589	-4.47
218.061	1.78
218.532	-1.12
219.004	5.78
219.475	3.58
219.946	6.08
220.418	14.28
220.889	6.68
221.36	10.93
221.832	8.98
222.303	3.53
222.774	7.68
223.245	0.73
223.717	6.73
224.188	2.28
224.659	5.78
225.13	4.38
225.601	2.48
226.072	5.88
226.543	10.13
227.014	5.73
227.485	9.58
227.956	7.08
228.427	12.98
228.898	7.93
229.369	9.53
229.839	8.53
230.31	12.18
230.781	10.88
231.252	12.38
231.722	10.53
232.193	9.33
232.664	10.18
233.135	8.38
233.605	12.28
234.076	17.58
234.546	12.63
235.017	16.03
235.487	15.33
235.958	10.53
236.428	20.23
236.899	11.83
237.369	16.83
237.84	15.88
238.31	19.13
238.78	10.53
239.251	14.58
239.721	16.63
240.191	12.18
240.662	17.93
241.132	20.18
241.602	20.68
242.072	20.78
242.542	20.43
243.013	21.68
243.483	22.23
243.953	17.63
244.423	22.13
244.893	23.93
245.363	23.83
245.833	20.43
246.303	21.58
246.773	24.88
247.243	24.98
247.712	27.58
248.182	25.28
248.652	26.08
249.122	26.23
249.592	31.28
250.061	28.98
250.531	32.03
251.001	34.03
251.471	32.18
251.94	32.93
252.41	26.43
252.879	31.93
253.349	39.33
253.818	30.28
254.288	34.58
254.757	38.48
255.227	39.53
255.696	36.83
256.166	41.83
256.635	38.38
257.105	36.98
257.574	36.33
258.043	37.48
258.513	40.88
258.982	37.73
259.451	43.58
259.92	37.18
260.389	39.23
260.859	48.43
261.328	45.53
261.797	40.88
262.266	41.03
262.735	47.63
263.204	46.38
263.673	46.13
264.142	38.58
264.611	41.68
265.08	45.18
265.549	43.08
266.018	50.48
266.487	50.98
266.955	47.83
267.424	51.88
267.893	55.98
268.362	53.63
268.83	48.33
269.299	50.03
269.768	56.18
270.236	56.63
270.705	60.23
271.174	54.03
271.642	55.28
272.111	57.13
272.579	57.28
273.048	59.88
273.516	63.48
273.985	60.58
274.453	61.28
274.922	62.28
275.39	58.83
275.858	64.63
276.327	64.03
276.795	65.48
277.263	65.83
277.731	67.18
278.2	68.98
278.668	72.18
279.136	75.58
279.604	72.03
280.072	71.23
280.54	68.88
281.008	76.58
281.477	77.98
281.945	71.58
282.413	71.98
282.881	71.58
283.348	75.63
283.816	77.83
284.284	81.03
284.752	77.58
285.22	87.03
285.688	80.23
286.156	83.03
286.623	84.33
287.091	86.68
287.559	86.93
288.026	89.03
288.494	85.88
288.962	88.53
289.429	83.63
289.897	82.63
290.364	90.73
290.832	90.78
291.3	89.53
291.767	86.88
292.234	93.43
292.702	87.63
293.169	95.78
293.637	100.08
294.104	96.18
294.571	94.28
295.039	99.93
295.506	90.58
295.973	100.08
296.44	97.18
296.908	102.58
297.375	98.13
297.842	101.48
298.309	98.23
298.776	106.63
299.243	109.23
299.71	109.38
300.177	103.78
300.644	104.68
301.111	109.28
301.578	110.63
302.045	110.48
302.512	117.78
302.979	119.93
303.446	118.53
303.913	120.98
304.379	124.88
304.846	125.38
305.313	128.98
305.78	130.93
306.246	129.83
306.713	129.68
307.18	132.48
307.646	131.58
308.113	135.23
308.579	136.78
309.046	135.88
309.512	139.88
309.979	145.28
310.445	142.13
310.912	143.13
311.378	152.13
311.845	150.13
312.311	143.43
312.777	148.93
313.244	154.38
313.71	155.58
314.176	160.78
314.642	157.98
315.109	160.43
315.575	161.03
316.041	160.68
316.507	160.48
316.973	166.58
317.439	164.58
317.905	166.93
318.371	163.48
318.837	162.33
319.303	171.18
319.769	169.08
320.235	175.63
320.701	174.68
321.167	172.23
321.633	177.48
322.099	177.08
322.564	180.18
323.03	175.13
323.496	179.08
323.962	181.43
324.427	183.68
324.893	185.98
325.359	194.23
325.824	191.18
326.29	195.43
326.755	192.93
327.221	193.58
327.686	208.08
328.152	202.73
328.617	206.33
329.083	204.78
329.548	215.68
330.014	215.63
330.479	215.13
330.944	213.68
331.41	222.98
331.875	210.38
332.34	208.23
332.805	214.38
333.271	213.88
333.736	220.98
334.201	223.58
334.666	238.43
335.131	235.43
335.596	241.98
336.061	228.18
336.526	229.08
336.991	229.38
337.456	228.98
337.921	228.13
338.386	219.33
338.851	222.93
339.316	227.23
339.781	227.83
340.246	230.88
340.711	233.48
341.175	241.03
341.64	246.78
342.105	252.28
342.569	256.38
343.034	252.58
343.499	253.58
343.963	262.58
344.428	262.78
344.893	259.63
345.357	268.63
345.822	270.28
346.286	270.48
346.751	277.83
347.215	284.68
347.679	296.18
348.144	305.88
348.608	309.88
349.073	310.73
349.537	315.63
350.001	318.98
350.465	327.73
350.93	317.08
351.394	324.38
351.858	323.58
352.322	331.58
352.786	331.48
353.25	335.98
353.715	335.28
354.179	352.73
354.643	356.88
355.107	363.43
355.571	357.58
356.035	357.13
356.498	357.03
356.962	349.63
357.426	344.88
357.89	349.58
358.354	345.73
358.818	346.43
359.281	351.08
359.745	357.18
360.209	352.58
360.673	357.53
361.136	347.63
361.6	351.28
362.064	359.43
362.527	368.18
362.991	374.73
363.454	367.28
363.918	372.43
364.381	373.23
364.845	376.48
365.308	372.53
365.772	378.98
366.235	382.23
366.698	380.88
367.162	380.43
367.625	388.28
368.088	394.83
368.552	391.03
369.015	397.88
369.478	392.68
369.941	391.98
370.404	403.83
370.867	398.43
371.331	400.13
371.794	411.38
372.257	415.13
372.72	411.63
373.183	417.38
373.646	421.03
374.109	417.73
374.572	425.53
375.035	422.23
375.497	421.33
375.96	435.08
376.423	440.98
376.886	448.28
377.349	453.23
377.811	454.13
378.274	454.68
378.737	453.73
379.199	453.78
379.662	460.53
380.125	466.73
380.587	473.28
381.05	479.68
381.512	483.23
381.975	489.18
382.437	500.93
382.9	499.53
383.362	495.38
383.825	502.03
384.287	510.53
384.75	504.43
385.212	506.78
385.674	515.03
386.136	519.73
386.599	509.78
387.061	516.63
387.523	525.28
387.985	525.13
388.447	529.33
388.91	532.53
389.372	534.73
389.834	534.18
390.296	528.68
390.758	533.43
391.22	529.38
391.682	544.73
392.144	546.48
392.606	550.53
393.068	558.13
393.529	587.08
393.991	591.53
394.453	568.98
394.915	547.58
395.377	544.43
395.838	547.08
396.3	543.58
396.762	554.03
397.224	550.83
397.685	553.23
398.147	559.93
398.608	565.88
399.07	574.33
399.531	574.38
399.993	595.08
400.454	597.43
400.916	593.08
401.377	599.78
401.839	609.93
402.3	617.23
402.762	638.58
403.223	680.28
403.684	679.93
404.145	660.08
404.607	651.83
405.068	639.88
405.529	642.88
405.99	655.28
406.451	659.28
406.913	649.28
407.374	648.43
407.835	652.58
408.296	669.78
408.757	673.88
409.218	692.38
409.679	695.43
410.14	695.73
410.601	714.98
411.062	712.18
411.522	722.28
411.983	722.78
412.444	732.93
412.905	742.83
413.366	772.13
413.826	804.18
414.287	906.33
414.748	1070.08
415.208	1101.43
415.669	924.03
416.13	837.53
416.59	813.38
417.051	844.58
417.511	885.28
417.972	949.88
418.432	1020.48
418.893	1126.53
419.353	1095.53
419.814	845.83
420.274	750.78
420.734	739.33
421.195	762.38
421.655	756.73
422.115	773.33
422.576	772.53
423.036	782.48
423.496	806.88
423.956	832.48
424.416	889.18
424.876	995.63
425.336	1002.62
425.797	978.73
426.257	967.23
426.717	911.53
427.177	854.18
427.637	857.08
428.097	889.63
428.556	922.58
429.016	995.38
429.476	990.98
429.936	972.18
430.396	970.67
430.856	994.08
431.315	1017.33
431.775	1084.08
432.235	1163.33
432.694	1184.58
433.154	1117.73
433.614	1087.72
434.073	1051.63
434.533	955.38
434.993	919.73
435.452	921.98
435.912	902.18
436.371	901.53
436.83	885.18
437.29	866.78
437.749	848.03
438.209	845.33
438.668	857.68
439.127	874.13
439.587	860.93
440.046	837.03
440.505	855.53
440.964	853.08
441.424	883.68
441.883	904.48
442.342	856.03
442.801	816.13
443.26	829.48
443.719	817.23
444.178	820.73
444.637	830.58
445.096	835.08
445.555	845.48
446.014	844.68
446.473	838.68
446.932	840.98
447.391	850.18
447.849	860.48
448.308	843.03
448.767	850.63
449.226	868.38
449.685	886.28
450.143	921.23
450.602	904.93
451.061	873.28
451.519	875.83
451.978	857.33
452.436	858.53
452.895	860.83
453.353	863.83
453.812	857.23
454.27	855.83
454.729	856.98
455.187	869.53
455.646	871.83
456.104	868.68
456.562	879.93
457.021	899.33
457.479	860.68
457.937	884.93
458.395	913.53
458.854	902.33
459.312	881.48
459.77	898.63
460.228	900.88
460.686	917.78
461.144	918.88
461.602	903.88
462.06	908.93
462.518	924.38
462.976	927.88
463.434	940.38
463.892	947.23
464.35	963.63
464.808	987.98
465.266	986.98
465.724	1010.13
466.181	1008.88
466.639	1001.13
467.097	1036.58
467.555	1082.38
468.012	1071.28
468.47	1081.33
468.928	1117.58
469.385	1144.28
469.843	1162.03
470.3	1150.08
470.758	1186.93
471.215	1207.43
471.673	1234.83
472.13	1263.58
472.588	1286.03
473.045	1282.83
473.503	1309.28
473.96	1366.13
474.417	1392.58
474.875	1433.88
475.332	1483.18
475.789	1514.83
476.246	1557.13
476.704	1608.98
477.161	1659.33
477.618	1709.68
478.075	1794.33
478.532	1929.18
478.989	2059.98
479.446	2260.53
479.903	2383.08
480.36	2584.58
480.817	2720.98
481.274	2904.03
481.731	3157.88
482.188	3381.23
482.645	3629.98
483.102	3819.43
483.558	4063.67
484.015	4246.97
484.472	4246.23
484.929	4129.12
485.385	3945.63
485.842	3864.28
486.299	3706.02
486.755	3423.43
487.212	3091.88
487.668	2806.13
488.125	2615.23
488.582	2432.43
489.038	2345.08
489.494	2273.23
489.951	2208.83
490.407	2156.62
490.864	2121.98
491.32	2077.33
491.776	2053.58
492.233	2054.28
492.689	2039.63
493.145	1990.68
493.602	1971.23
494.058	1991.28
494.514	1999.18
494.97	2002.13
495.426	2022.08
495.882	2014.38
496.338	2012.93
496.794	2028.23
497.251	2027.13
497.707	2041.03
498.163	2048.03
498.618	2057.58
499.074	2045.98
499.53	2072.18
499.986	2081.78
500.442	2059.98
500.898	2043.93
501.354	2060.88
501.809	2074.93
502.265	2059.53
502.721	2075.33
503.177	2087.83
503.632	2093.68
504.088	2100.98
504.543	2113.38
504.999	2147.23
505.455	2133.48
505.91	2100.33
506.366	2112.62
506.821	2127.83
507.277	2104.63
507.732	2118.12
508.187	2120.03
508.643	2139.93
509.098	2141.78
509.553	2161.62
510.009	2189.33
510.464	2232.08
510.919	2242.98
511.375	2267.33
511.83	2284.68
512.285	2318.32
512.74	2361.43
513.195	2406.33
513.65	2442.43
514.105	2461.38
514.56	2469.58
515.015	2522.78
515.47	2522.48
515.925	2498.73
516.38	2508.23
516.835	2513.33
517.29	2492.68
517.745	2504.93
518.2	2449.43
518.655	2415.43
519.109	2382.48
519.564	2342.18
520.019	2329.23
520.474	2318.18
520.928	2300.33
521.383	2280.83
521.838	2272.12
522.292	2259.03
522.747	2230.07
523.201	2240.83
523.656	2208.18
524.11	2201.48
524.565	2197.73
525.019	2200.78
525.474	2190.28
525.928	2186.98
526.382	2183.08
526.837	2179.28
527.291	2188.48
527.745	2185.73
528.2	2182.23
528.654	2156.03
529.108	2158.73
529.562	2155.78
530.016	2156.78
530.47	2146.12
530.925	2158.83
531.379	2153.98
531.833	2187.23
532.287	2168.32
532.741	2151.73
533.195	2159.53
533.649	2175.68
534.103	2172.78
534.556	2156.03
535.01	2168.58
535.464	2155.53
535.918	2158.13
536.372	2175.98
536.826	2167.62
537.279	2155.58
537.733	2154.88
538.187	2165.82
538.64	2151.63
539.094	2188.43
539.548	2209.83
540.001	2190.88
540.455	2204.28
540.908	2224.43
541.362	2253.07
541.815	2252.23
542.269	2305.88
542.722	2298.28
543.175	2327.08
543.629	2342.23
544.082	2352.68
544.536	2386.58
544.989	2384.88
545.442	2405.78
545.895	2398.28
546.349	2390.68
546.802	2403.12
547.255	2409.73
547.708	2426.18
548.161	2443.62
548.614	2443.03
549.067	2461.62
549.52	2440.62
549.973	2409.08
550.426	2398.68
550.879	2412.73
551.332	2394.78
551.785	2413.93
552.238	2435.68
552.691	2440.93
553.144	2476.62
553.596	2513.23
554.049	2541.33
554.502	2580.12
554.955	2627.18
555.407	2661.78
555.86	2638.53
556.313	2599.33
556.765	2585.78
557.218	2561.28
557.67	2553.38
558.123	2521.73
558.576	2496.83
559.028	2500.03
559.48	2525.73
559.933	2510.83
560.385	2441.07
560.838	2365.58
561.29	2292.48
561.742	2280.18
562.195	2222.23
562.647	2215.48
563.099	2191.73
563.551	2189.98
564.004	2215.33
564.456	2197.53
564.908	2139.12
565.36	2086.18
565.812	2051.12
566.264	2028.93
566.716	1996.13
567.168	1969.13
567.62	1981.33
568.072	1969.43
568.524	1947.88
568.976	1953.23
569.428	1916.33
569.88	1920.58
570.332	1935.78
570.784	1939.28
571.235	1936.18
571.687	1953.33
572.139	1942.43
572.59	1976.03
573.042	1984.08
573.494	1980.13
573.945	1948.83
574.397	1893.73
574.849	1903.03
575.3	1914.28
575.752	1868.33
576.203	1861.53
576.655	1879.23
577.106	1852.83
577.557	1832.68
578.009	1826.38
578.46	1829.48
578.912	1812.53
579.363	1820.88
579.814	1820.48
580.265	1819.78
580.717	1830.43
581.168	1819.83
581.619	1816.18
582.07	1846.73
582.521	1834.03
582.972	1830.78
583.423	1830.08
583.875	1850.13
584.326	1868.28
584.777	1904.78
585.227	1949.23
585.678	1984.28
586.129	2002.33
586.58	2012.48
587.031	2052.62
587.482	2105.07
587.933	2160.78
588.384	2150.08
588.834	2086.58
589.285	2053.98
589.736	2057.18
590.186	2057.43
590.637	2037.73
591.088	1980.18
591.538	1954.93
591.989	1915.68
592.439	1911.58
592.89	1891.08
593.34	1879.43
593.791	1865.83
594.241	1846.28
594.692	1849.68
595.142	1845.28
595.593	1837.93
596.043	1862.33
596.493	1875.23
596.943	1864.93
597.394	1915.08
597.844	1935.18
598.294	1980.43
598.744	2060.68
599.195	2144.73
599.645	2265.08
600.095	2395.43
600.545	2506.68
600.995	2603.08
601.445	2694.88
601.895	2823.98
602.345	2908.68
602.795	2874.63
603.245	2748.73
603.695	2596.83
604.145	2457.78
604.594	2339.78
605.044	2233.12
605.494	2084.63
605.944	1970.43
606.393	1929.68
606.843	1891.83
607.293	1896.78
607.743	1883.73
608.192	1888.88
608.642	1890.58
609.091	1874.62
609.541	1888.58
609.99	1888.28
610.44	1846.08
610.889	1821.43
611.339	1790.68
611.788	1769.23
612.238	1786.98
612.687	1788.58
613.136	1802.88
613.586	1814.98
614.035	1806.53
614.484	1819.38
614.933	1815.53
615.383	1784.93
615.832	1741.18
616.281	1718.88
616.73	1695.73
617.179	1649.78
617.628	1617.93
618.077	1591.48
618.526	1568.53
618.975	1555.53
619.424	1536.12
619.873	1535.88
620.322	1526.03
620.771	1514.28
621.22	1499.93
621.669	1463.88
622.118	1451.78
622.567	1427.13
623.015	1411.48
623.464	1419.33
623.913	1402.43
624.361	1392.38
624.81	1390.68
625.259	1395.73
625.707	1385.33
626.156	1398.73
626.604	1418.23
627.053	1415.78
627.501	1410.78
627.95	1426.88
628.398	1446.28
628.847	1421.78
629.295	1411.48
629.744	1406.83
630.192	1386.18
630.64	1372.98
631.089	1342.18
631.537	1315.08
631.985	1290.43
632.433	1296.53
632.881	1286.73
633.33	1292.62
633.778	1286.68
634.226	1301.28
634.674	1316.93
635.122	1327.58
635.57	1339.98
636.018	1364.08
636.466	1352.83
636.914	1357.08
637.362	1386.53
637.81	1409.83
638.258	1444.93
638.705	1472.33
639.153	1514.12
639.601	1527.68
640.049	1547.33
640.497	1597.08
640.944	1628.33
641.392	1572.33
641.84	1477.68
642.287	1411.43
642.735	1383.08
643.182	1367.43
643.63	1372.03
644.078	1372.78
644.525	1394.58
644.973	1426.28
645.42	1446.23
645.867	1477.43
646.315	1508.23
646.762	1572.18
647.21	1612.18
647.657	1697.48
648.104	1764.08
648.551	1804.83
648.999	1936.83
649.446	2124.78
649.893	2372.98
650.34	2753.12
650.787	3373.78
651.234	4340.32
651.682	5950.12
652.129	8378.38
652.576	11846.88
653.023	15378.72
653.47	15537.38
653.917	15537.42
654.363	15537.33
654.81	15534.33
655.257	15534.98
655.704	15209.52
656.151	9279.48
656.598	6112.12
657.044	4392.67
657.491	3446.88
657.938	2821.38
658.385	2391.18
658.831	2119.98
659.278	1899.12
659.724	1750.33
660.171	1629.23
660.618	1517.58
661.064	1435.43
661.511	1388.28
661.957	1336.58
662.404	1318.93
662.85	1308.88
663.296	1286.03
663.743	1258.83
664.189	1247.58
664.635	1230.58
665.082	1209.28
665.528	1198.12
665.974	1161.98
666.42	1145.12
666.867	1128.98
667.313	1081.72
667.759	1069.78
668.205	1056.93
668.651	1065.58
669.097	1059.38
669.543	1069.73
669.989	1078.28
670.435	1072.48
670.881	1084.08
671.327	1133.23
671.773	1210.18
672.219	1299.62
672.665	1392.63
673.11	1434.73
673.556	1454.48
674.002	1483.53
674.448	1513.28
674.893	1286.68
675.339	1124.73
675.785	1031.88
676.23	985.48
676.676	942.73
677.122	919.03
677.567	886.08
678.013	864.08
678.458	859.53
678.904	851.88
679.349	846.13
679.794	845.83
680.24	840.43
680.685	829.23
681.131	836.83
681.576	839.78
682.021	842.73
682.466	846.08
682.912	859.98
683.357	903.43
683.802	985.18
684.247	1073.28
684.692	1129.03
685.137	1187.58
685.583	1203.53
686.028	1269.93
686.473	1219.13
686.918	1044.28
687.363	959.73
687.807	911.38
688.252	867.53
688.697	834.98
689.142	805.58
689.587	809.28
690.032	824.93
690.477	861.73
690.921	904.93
691.366	947.68
691.811	987.53
692.255	1072.03
692.7	1303.88
693.145	1878.73
693.589	2853.93
694.034	3424.77
694.478	3639.13
694.923	3352.73
695.367	4755.57
695.812	2904.93
696.256	1222.38
696.701	887.53
697.145	822.83
697.59	791.43
698.034	772.33
698.478	773.38
698.922	787.68
699.367	799.88
699.811	835.83
700.255	914.68
700.699	995.93
701.143	1071.38
701.588	1135.73
702.032	1184.62
702.476	1233.33
702.92	1306.23
703.364	1724.18
703.808	2619.98
704.252	3288.08
704.696	3462.47
705.14	3265.62
705.584	4490.68
706.027	2501.13
706.471	1251.62
706.915	933.78
707.359	825.28
707.803	772.88
708.246	747.23
708.69	739.93
709.134	735.33
709.577	729.88
710.021	739.18
710.465	735.08
710.908	724.93
711.352	756.43
711.795	833.43
712.239	900.58
712.682	916.33
713.126	909.83
713.569	1007.93
714.012	828.23
714.456	717.03
714.899	682.43
715.342	651.03
715.786	624.48
716.229	620.63
716.672	599.88
717.115	597.98
717.558	602.83
718.002	625.18
718.445	651.08
718.888	688.63
719.331	696.83
719.774	715.83
720.217	697.93
720.66	660.38
721.103	628.78
721.546	596.88
721.989	581.33
722.432	575.03
722.874	571.38
723.317	576.28
723.76	626.28
724.203	760.08
724.645	1029.23
725.088	1204.88
725.531	1183.78
725.974	1286.83
726.416	1166.18
726.859	723.28
727.301	595.33
727.744	559.68
728.187	569.73
728.629	578.88
729.071	599.93
729.514	633.73
729.956	658.78
730.399	668.28
730.841	674.33
731.283	652.28
731.726	638.93
732.168	642.58
732.61	683.93
733.053	729.98
733.495	818.68
733.937	907.68
734.379	1068.88
734.821	1359.58
735.263	2156.98
735.705	3890.88
736.148	5727.67
736.59	5721.93
737.032	6246.07
737.474	5154.22
737.916	1968.08
738.357	1036.33
738.799	788.38
739.241	728.58
739.683	730.38
740.125	752.43
740.567	765.68
741.008	803.38
741.45	836.88
741.892	879.88
742.334	891.03
742.775	883.38
743.217	837.73
743.658	715.28
744.1	738.83
744.542	842.58
744.983	870.48
745.425	911.03
745.866	889.48
746.307	747.53
746.749	808.88
747.19	1171.43
747.632	2273.43
748.073	4259.23
748.514	5876.38
748.956	7780.88
749.397	9129.08
749.838	6327.27
750.279	6030.18
750.72	3110.33
751.162	1321.43
751.603	760.63
752.044	603.13
752.485	535.18
752.926	503.73
753.367	485.38
753.808	469.78
754.249	461.28
754.69	457.43
755.131	446.23
755.572	451.13
756.013	445.93
756.453	450.88
756.894	460.33
757.335	456.63
757.776	466.13
758.216	480.03
758.657	514.58
759.098	562.83
759.538	690.48
759.979	988.58
760.42	2006.93
760.86	5148.72
761.301	10593.38
761.741	12464.12
762.182	14264.97
762.622	9322.38
763.063	3331.93
763.503	1363.12
763.943	804.73
764.384	647.38
764.824	556.83
765.264	514.13
765.705	473.18
766.145	451.33
766.585	437.08
767.025	419.93
767.465	426.73
767.906	436.13
768.346	460.48
768.786	531.93
769.226	775.63
769.666	1573.98
770.106	3532.93
770.546	5046.17
770.986	5693.02
771.426	4325.28
771.866	1786.63
772.306	803.63
772.745	501.48
773.185	420.53
773.625	403.18
774.065	434.68
774.505	611.58
774.944	1074.63
775.384	1522.03
775.824	1707.18
776.263	1420.93
776.703	753.93
777.142	446.48
777.582	342.13
778.021	315.98
778.461	303.63
778.9	299.88
779.34	291.98
779.779	282.88
780.219	280.18
780.658	274.93
781.097	264.33
781.537	261.63
781.976	260.03
782.415	259.33
782.855	257.83
783.294	258.38
783.733	253.98
784.172	261.08
784.611	261.28
785.05	261.38
785.489	271.93
785.928	283.58
786.367	293.48
786.806	309.73
787.245	324.68
787.684	342.38
788.123	336.38
788.562	320.78
789.001	311.28
789.44	303.03
789.879	300.18
790.317	304.08
790.756	322.28
791.195	372.58
791.634	503.08
792.072	899.63
792.511	2219.18
792.95	4126.77
793.388	4984.82
793.827	3236.98
794.265	1477.12
794.704	716.53
795.142	437.28
795.581	359.73
796.019	325.38
796.458	322.73
796.896	335.43
797.334	385.73
797.773	517.23
798.211	990.77
798.649	2063.23
799.087	3483.32
799.526	4912.62
799.964	5077.12
800.402	3505.43
800.84	1578.08
801.278	779.33
801.716	468.43
802.154	373.48
802.592	356.28
803.03	354.08
803.468	364.23
803.906	366.88
804.344	363.18
804.782	351.28
805.22	351.98
805.658	369.53
806.096	389.03
806.533	440.53
806.971	562.18
807.409	818.23
807.847	1631.48
808.284	4129.07
808.722	7247.32
809.16	10201.88
809.597	13685.12
810.035	15539.33
810.472	11179.88
810.91	4755.32
811.347	2122.23
811.785	1001.43
812.222	629.08
812.66	483.13
813.097	414.23
813.535	358.73
813.972	323.73
814.409	295.48
814.846	285.18
815.284	269.58
815.721	276.78
816.158	300.83
816.595	403.33
817.032	500.28
817.47	459.53
817.907	332.98
818.344	294.93
818.781	294.08
819.218	358.18
819.655	535.53
820.092	686.83
820.529	622.93
820.966	489.33
821.403	340.08
821.839	293.48
822.276	324.73
822.713	383.68
823.15	360.38
823.587	378.88
824.023	675.53
824.46	1701.58
824.897	2956.73
825.333	2326.18
825.77	1062.83
826.206	555.98
826.643	326.73
827.08	245.23
827.516	213.13
827.953	200.03
828.389	194.68
828.825	181.33
829.262	171.48
829.698	168.43
830.135	159.13
830.571	160.78
831.007	162.33
831.443	163.68
831.88	161.03
832.316	166.83
832.752	166.48
833.188	168.48
833.624	172.78
834.06	175.68
834.497	175.28
834.933	177.73
835.369	191.03
835.805	204.18
836.241	209.43
836.677	228.03
837.112	271.28
837.548	336.98
837.984	494.83
838.42	1063.13
838.856	2985.48
839.292	5913.57
839.727	4401.68
840.163	2946.62
840.599	4467.88
841.034	6842.53
841.47	3433.33
841.906	1648.33
842.341	889.78
842.777	636.93
843.212	646.78
843.648	407.28
844.083	277.93
844.519	217.23
844.954	180.93
845.39	161.38
845.825	159.73
846.261	153.28
846.696	146.78
847.131	140.43
847.566	142.73
848.002	146.68
848.437	155.13
848.872	160.43
849.307	201.43
849.742	372.28
850.177	962.78
850.613	2074.38
851.048	1495.48
851.483	686.83
851.918	379.03
852.353	212.03
852.788	152.98
853.223	136.38
853.657	124.68
854.092	120.83
854.527	120.68
854.962	123.58
855.397	138.68
855.832	119.13
856.266	104.58
856.701	106.28
857.136	111.08
857.57	133.83
858.005	161.03
858.44	136.33
858.874	131.43
859.309	136.28
859.743	128.93
860.178	124.18
860.612	139.98
861.047	187.38
861.481	256.68
861.915	181.93
862.35	129.93
862.784	106.33
863.218	103.53
863.653	112.48
864.087	135.93
864.521	166.48
864.955	284.28
865.39	485.63
865.824	363.53
866.258	463.63
866.692	694.48
867.126	508.08
867.56	268.43
867.994	174.78
868.428	147.53
868.862	182.18
869.296	169.38
869.73	201.88
870.164	176.38
870.598	163.03
871.031	116.43
871.465	102.53
871.899	82.68
872.333	75.78
872.766	75.83
873.2	78.83
873.634	72.83
874.067	79.38
874.501	78.08
874.935	78.28
875.368	80.63
875.802	69.18
876.235	72.73
876.669	66.88
877.102	56.23
877.535	64.33
877.969	57.58
878.402	68.03
878.836	62.28
879.269	61.13
879.702	57.23
880.135	62.28
880.569	64.23
881.002	58.08
881.435	60.58
881.868	60.63
882.301	57.88
882.734	56.23
883.167	59.73
883.601	53.43
884.034	57.48
884.467	52.03
884.899	53.33
885.332	49.83
885.765	51.88
886.198	48.43
886.631	48.28
887.064	49.78
887.497	49.53
887.929	51.58
888.362	47.08
888.795	43.83
889.228	49.38
889.66	49.13
890.093	46.53
890.526	45.48
890.958	44.28
891.391	50.78
891.823	48.68
892.256	51.08
892.688	44.58
893.121	43.88
893.553	45.93
893.985	43.93
894.418	40.83
894.85	44.78
895.282	46.03
895.715	38.93
896.147	35.68
896.579	42.73
897.011	44.73
897.444	48.78
897.876	37.83
898.308	36.53
898.74	40.78
899.172	46.23
899.604	48.08
900.036	47.08
900.468	44.98
900.9	51.73
901.332	58.93
901.764	60.23
902.196	57.08
902.628	59.48
903.06	84.78
903.491	89.98
903.923	76.88
904.355	75.03
904.787	74.88
905.218	60.08
905.65	60.93
906.082	55.98
906.513	54.78
906.945	54.08
907.376	50.63
907.808	54.13
908.239	56.63
908.671	62.23
909.102	73.38
909.534	100.93
909.965	188.78
910.397	478.03
910.828	1386.73
911.259	850.78
911.691	458.83
912.122	263.03
912.553	132.73
912.984	80.48
913.415	65.78
913.847	57.13
914.278	53.83
914.709	47.08
915.14	46.73
915.571	45.18
916.002	40.58
916.433	45.13
916.864	46.33
917.295	45.78
917.726	55.58
918.157	67.48
918.587	67.43
919.018	62.68
919.449	58.03
919.88	70.53
920.311	105.13
920.741	288.93
921.172	517.13
921.603	256.03
922.033	165.28
922.464	106.68
922.895	63.93
923.325	50.58
923.756	45.83
924.186	53.43
924.617	72.43
925.047	110.68
925.478	94.23
925.908	67.78
926.338	49.63
926.769	43.48
927.199	41.08
927.629	36.88
928.06	41.88
928.49	46.63
928.92	40.43
929.35	31.03
929.78	26.38
930.21	26.48
930.641	22.18
931.071	24.23
931.501	23.73
931.931	25.08
932.361	24.68
932.791	29.18
933.221	30.98
933.651	41.78
934.08	68.73
934.51	38.68
934.94	34.78
935.37	23.03
935.8	17.63
936.229	18.43
936.659	24.63
937.089	37.88
937.519	59.38
937.948	79.68
938.378	44.28
938.807	29.38
939.237	20.38
939.666	20.78
940.096	16.78
940.525	8.93
940.955	13.68
941.384	11.53
941.814	13.93
942.243	10.38
942.672	7.68
943.102	5.73
943.531	10.33
943.96	10.63
944.39	13.08
944.819	14.48
945.248	10.03
945.677	11.58
946.106	13.08
946.535	13.58
946.964	12.73
947.393	5.58
947.822	11.78
948.251	13.13
948.68	12.83
949.109	11.93
949.538	10.23
949.967	13.58
950.396	11.53
950.825	13.53
951.254	9.13
951.682	5.13
952.111	4.18
952.54	8.08
952.969	7.73
953.397	3.88
953.826	8.93
954.254	10.98
954.683	11.68
955.112	10.73
955.54	9.53
955.969	9.08
956.397	8.83
956.826	10.53
957.254	4.83
957.682	10.58
958.111	12.08
958.539	13.38
958.967	8.03
959.396	12.18
959.824	5.38
960.252	5.43
960.68	9.33
961.109	11.18
961.537	14.48
961.965	1.73
962.393	12.13
962.821	9.03
963.249	10.38
963.677	16.63
964.105	88.73
964.533	147.03
964.961	72.48
965.389	43.63
965.817	21.33
966.245	13.98
966.672	12.18
967.1	14.18
967.528	2.83
967.956	6.13
968.383	9.68
968.811	8.33
969.239	5.43
969.666	1.53
970.094	8.48
970.522	4.38
970.949	5.68
971.377	2.03
971.804	4.78
972.232	2.83
972.659	5.58
973.087	6.28
973.514	2.93
973.941	2.98
974.369	5.33
974.796	5.98
975.223	5.58
975.651	6.68
976.078	7.58
976.505	11.83
976.932	35.08
977.359	47.83
977.786	24.93
978.214	19.68
978.641	12.78
979.068	9.98
979.495	3.63
979.922	6.63
980.349	3.33
980.776	2.78
981.202	3.63
981.629	7.68
982.056	6.98
982.483	1.08
982.91	7.78
983.337	0.93
983.763	2.83
984.19	7.53
984.617	2.13
985.043	8.88
985.47	8.53
985.897	5.73
986.323	7.78
986.75	-0.32
987.176	8.18
987.603	5.53
988.029	3.33
988.456	7.78
988.882	4.03
989.308	-0.07
989.735	4.73
990.161	3.88
990.587	5.38
991.014	4.98
991.44	4.33
991.866	8.23
992.292	0.03
992.719	4.28
993.145	8.33
993.571	3.03
993.997	5.08
994.423	3.53
994.849	-3.52
995.275	4.08
995.701	5.08
996.127	-0.57
996.553	4.13
996.979	1.83
997.405	2.88
997.83	2.78
998.256	4.93
998.682	2.68
999.108	6.68
999.534	-4.97
999.959	3.18
1000.385	6.38
1000.811	-0.92
1001.236	-1.87
1001.662	-4.02
1002.087	5.83
1002.513	9.23
1002.938	1.98
1003.364	5.08
1003.789	5.08
1004.215	0.63
1004.64	6.83
1005.066	2.98
1005.491	7.78
1005.916	1.48
1006.342	8.68
1006.767	4.88
1007.192	10.78
1007.617	6.73
1008.042	1.48
1008.468	0.28
1008.893	5.83
1009.318	9.38
1009.743	19.03
1010.168	27.88
1010.593	24.48
1011.018	14.13
1011.443	12.53
1011.868	12.83
1012.293	7.13
1012.718	1.88
1013.143	5.03
1013.567	5.33
1013.992	4.28
1014.417	3.53
1014.842	6.93
1015.267	3.23
1015.691	6.98
1016.116	4.83
1016.541	2.78
1016.965	6.98
1017.39	3.08
1017.814	1.88
1018.239	2.03
1018.663	1.63
1019.088	-0.92
1019.512	5.33
1019.937	-6.57
1020.361	1.23
1020.785	1.23
1021.21	-1.22
1021.634	-0.37
1022.058	3.43
1022.483	-2.02
1022.907	0.53
1023.331	0.03
1023.755	1.53
1024.179	3.28
1024.604	2.03
1025.028	3.08
1025.452	6.13
1025.876	2.43
1026.3	1.93
1026.724	-1.12
1027.148	4.98
1027.572	1.38
1027.996	5.28
1028.42	3.48
1028.843	1.88
1029.267	0.98
1029.691	3.83
1030.115	1.33
1030.539	0.93
1030.962	-3.77
1031.386	4.88
1031.81	3.98
1032.233	-1.37
1032.657	-7.27
1033.08	1.33
1033.504	-0.17
1033.927	2.28
1034.351	-1.02
1034.774	-6.17
1035.198	-0.42
1035.621	3.28
1036.045	1.48
1036.468	4.38
1036.891	-4.42
1037.315	3.78
1037.738	-0.47
1038.161	3.73
1038.584	3.23
1039.008	-5.02
1039.431	-0.22
1039.854	-2.02
1040.277	5.58
1040.7	-2.87
1041.123	3.93
1041.546	-0.12
1041.969	3.08
1042.392	1.23
1042.815	-6.12
1043.238	-2.47
1043.661	1.43
1044.084	-4.27
1044.507	-0.77
1044.93	-1.77
1045.352	0.08
1045.775	3.68
1046.198	2.13
1046.621	4.28
1047.043	-1.87
1047.466	5.43
1047.889	0.33
1048.311	5.23
1048.734	-0.17
1049.156	1.98
1049.579	1.73
1050.001	1.23
1050.424	-0.07
1050.846	-2.62
1051.269	-4.72
1051.691	3.88
1052.113	2.08
1052.536	-0.47
1052.958	-3.47
1053.38	0.43
1053.802	4.68
1054.225	-0.92
1054.647	3.78
1055.069	0.33
1055.491	5.63
1055.913	2.98
1056.335	-4.12
1056.757	0.98
1057.179	-0.27
1057.601	1.38
1058.023	-4.67
1058.445	-3.62
1058.867	2.13
1059.289	-1.22
1059.711	-3.27
1060.133	-0.72
1060.555	0.83
1060.976	2.23
1061.398	-3.62
1061.82	1.68
1062.241	-1.12
1062.663	-2.47
1063.085	-5.82
1063.506	-6.52
1063.928	1.13
1064.35	1.03
1064.771	0.13
1065.193	-8.17
1065.614	-4.77
1066.035	4.98
1066.457	3.43
1066.878	2.73
1067.3	1.38
1067.721	2.53
1068.142	3.68
1068.564	4.13
1068.985	-2.37
1069.406	-2.97
1069.827	-0.77
1070.248	-0.62
1070.67	-7.17
1071.091	-2.77
1071.512	-1.02
1071.933	-1.32
1072.354	-6.92
1072.775	0.48
1073.196	2.43
1073.617	-8.17
1074.038	0.63
1074.459	-3.87
1074.88	-2.12
1075.3	-2.77
1075.721	-0.32
1076.142	-2.57
1076.563	-9.67
1076.983	0.93
1077.404	-6.22
1077.825	-0.47
1078.246	-6.22
1078.666	-5.47
1079.087	-0.02
1079.507	-3.42
1079.928	-2.07
1080.348	-3.02
1080.769	0.43
1081.189	-3.27
1081.61	-7.22
1082.03	0.78
1082.451	-0.97
1082.871	-5.77
1083.291	-5.62
1083.711	-0.92
1084.132	0.38
1084.552	-4.42
1084.972	-4.67
1085.392	-0.87
1085.813	3.63
1086.233	-3.57
1086.653	-1.17
1087.073	-2.17
1087.493	-0.47
1087.913	-5.57
1088.333	-1.77
1088.753	-0.32
1089.173	-4.07
1089.593	0.78
1090.013	0.93
1090.433	-4.87
1090.852	2.48
1091.272	-3.12
1091.692	2.53
1092.112	-0.57
1092.531	-4.77
1092.951	-0.77
1093.371	-3.22
1093.79	-2.87
1094.21	-3.42
1094.63	3.53
1095.049	-2.77
1095.469	-11.12
1095.888	2.63
1096.308	-0.07
1096.727	-3.57
1097.146	-4.57
1097.566	-1.67
1097.985	-3.67
1098.405	-0.47
1098.824	1.83
1099.243	-4.82
1099.662	-1.52
1100.082	-0.62
1100.501	1.33
1100.92	5.08
1101.339	3.23
1101.758	1.38
