Data from MSPlasma+Separation6_Subt14_10-14-20-667.txt Node
Date: Fri Jul 21 10:14:20 EDT 2017
User: Ender
Spectrometer: HR+D1039
Trigger mode: 0
Integration Time (sec): 6.430000E-3
Scans to average: 20
Electric dark correction enabled: true
Nonlinearity correction enabled: false
Boxcar width: 0
XAxis mode: Wavelengths
Number of Pixels in Spectrum: 2048
>>>>>Begin Spectral Data<<<<<
187.836	-0.52
188.309	-0.52
188.782	-0.52
189.255	1.43
189.728	0.13
190.201	0.28
190.674	2.23
191.147	-0.77
191.619	0.08
192.092	-2.72
192.565	-0.52
193.038	-0.82
193.511	2.58
193.984	-2.42
194.456	0.18
194.929	1.18
195.402	0.63
195.874	-0.87
196.347	7.08
196.82	1.53
197.292	-2.82
197.765	-2.62
198.237	-1.72
198.71	-6.92
199.182	2.13
199.655	1.38
200.127	2.33
200.6	-3.27
201.072	7.83
201.544	-2.47
202.017	0.18
202.489	3.48
202.961	-3.47
203.433	-7.67
203.906	-0.57
204.378	1.83
204.85	1.43
205.322	0.58
205.794	4.53
206.266	1.13
206.739	2.93
207.211	0.88
207.683	-2.92
208.155	2.83
208.627	3.23
209.099	2.83
209.57	6.48
210.042	3.78
210.514	1.88
210.986	1.28
211.458	-3.47
211.93	4.58
212.402	2.48
212.873	0.08
213.345	-2.12
213.817	6.23
214.288	-2.82
214.76	1.23
215.232	-0.02
215.703	-0.12
216.175	7.28
216.646	5.73
217.118	4.23
217.589	-3.12
218.061	4.08
218.532	-3.07
219.004	4.88
219.475	1.53
219.946	-0.27
220.418	2.98
220.889	4.83
221.36	7.93
221.832	6.53
222.303	3.73
222.774	6.03
223.245	3.38
223.717	1.18
224.188	8.18
224.659	2.18
225.13	1.83
225.601	3.08
226.072	6.68
226.543	11.13
227.014	2.93
227.485	7.43
227.956	13.08
228.427	11.23
228.898	4.23
229.369	7.38
229.839	6.38
230.31	9.28
230.781	6.78
231.252	9.83
231.722	12.98
232.193	6.93
232.664	8.78
233.135	8.18
233.605	5.83
234.076	16.93
234.546	11.78
235.017	9.18
235.487	12.88
235.958	11.23
236.428	13.93
236.899	10.38
237.369	20.23
237.84	16.38
238.31	17.53
238.78	11.63
239.251	12.23
239.721	12.18
240.191	14.78
240.662	18.33
241.132	15.03
241.602	20.98
242.072	20.13
242.542	16.33
243.013	12.68
243.483	22.33
243.953	13.68
244.423	21.18
244.893	20.48
245.363	19.83
245.833	20.53
246.303	19.43
246.773	26.98
247.243	23.43
247.712	26.83
248.182	26.48
248.652	31.83
249.122	22.38
249.592	26.58
250.061	25.58
250.531	27.43
251.001	27.03
251.471	29.53
251.94	30.13
252.41	29.08
252.879	29.98
253.349	34.53
253.818	31.08
254.288	38.83
254.757	34.18
255.227	33.38
255.696	29.03
256.166	37.63
256.635	35.58
257.105	33.38
257.574	36.28
258.043	35.83
258.513	38.13
258.982	34.38
259.451	37.73
259.92	35.23
260.389	37.88
260.859	39.43
261.328	44.63
261.797	43.83
262.266	42.93
262.735	43.33
263.204	40.23
263.673	46.23
264.142	40.53
264.611	47.98
265.08	46.63
265.549	41.63
266.018	46.78
266.487	50.68
266.955	46.83
267.424	51.08
267.893	55.88
268.362	57.58
268.83	46.53
269.299	48.08
269.768	48.88
270.236	55.18
270.705	55.23
271.174	53.78
271.642	46.78
272.111	51.78
272.579	52.73
273.048	56.18
273.516	58.28
273.985	57.48
274.453	52.33
274.922	53.38
275.39	55.93
275.858	63.98
276.327	58.23
276.795	60.98
277.263	62.48
277.731	57.83
278.2	67.73
278.668	66.98
279.136	70.88
279.604	67.33
280.072	68.88
280.54	64.73
281.008	76.98
281.477	71.28
281.945	70.53
282.413	69.08
282.881	70.68
283.348	72.48
283.816	77.43
284.284	74.58
284.752	73.88
285.22	83.08
285.688	76.73
286.156	80.83
286.623	82.33
287.091	83.18
287.559	81.48
288.026	82.03
288.494	86.53
288.962	84.53
289.429	86.23
289.897	78.68
290.364	79.18
290.832	90.23
291.3	87.03
291.767	84.98
292.234	86.38
292.702	88.73
293.169	87.88
293.637	91.88
294.104	92.78
294.571	92.98
295.039	94.23
295.506	90.53
295.973	94.83
296.44	91.18
296.908	102.58
297.375	103.18
297.842	105.73
298.309	98.53
298.776	94.58
299.243	103.23
299.71	104.63
300.177	102.63
300.644	100.23
301.111	102.48
301.578	111.93
302.045	107.98
302.512	107.18
302.979	112.73
303.446	112.68
303.913	116.68
304.379	117.48
304.846	117.68
305.313	123.68
305.78	126.78
306.246	121.88
306.713	127.43
307.18	124.23
307.646	127.28
308.113	129.08
308.579	137.93
309.046	136.28
309.512	131.48
309.979	134.78
310.445	135.98
310.912	140.43
311.378	144.83
311.845	144.93
312.311	134.88
312.777	142.13
313.244	146.13
313.71	149.13
314.176	154.18
314.642	151.63
315.109	146.83
315.575	145.48
316.041	153.68
316.507	153.78
316.973	158.98
317.439	158.83
317.905	157.23
318.371	161.73
318.837	160.73
319.303	165.08
319.769	157.48
320.235	165.78
320.701	170.08
321.167	164.68
321.633	169.43
322.099	163.88
322.564	166.78
323.03	169.13
323.496	169.58
323.962	172.28
324.427	177.28
324.893	173.93
325.359	180.38
325.824	181.18
326.29	187.08
326.755	183.53
327.221	187.13
327.686	196.13
328.152	198.18
328.617	199.88
329.083	198.28
329.548	198.63
330.014	197.13
330.479	201.68
330.944	205.73
331.41	208.58
331.875	197.28
332.34	200.98
332.805	208.33
333.271	207.13
333.736	207.73
334.201	209.98
334.666	227.98
335.131	230.28
335.596	225.83
336.061	217.33
336.526	225.63
336.991	212.33
337.456	214.93
337.921	210.78
338.386	214.08
338.851	210.68
339.316	212.98
339.781	213.63
340.246	216.83
340.711	221.28
341.175	227.63
341.64	237.03
342.105	240.23
342.569	244.58
343.034	240.83
343.499	243.73
343.963	252.88
344.428	247.43
344.893	254.38
345.357	252.78
345.822	255.33
346.286	268.28
346.751	265.43
347.215	270.13
347.679	280.43
348.144	292.48
348.608	292.73
349.073	299.23
349.537	305.08
350.001	298.93
350.465	300.53
350.93	301.33
351.394	308.13
351.858	303.68
352.322	315.28
352.786	318.18
353.25	313.23
353.715	319.78
354.179	331.73
354.643	337.83
355.107	343.03
355.571	342.58
356.035	333.63
356.498	331.53
356.962	336.38
357.426	336.18
357.89	333.13
358.354	327.53
358.818	326.78
359.281	323.63
359.745	330.58
360.209	329.48
360.673	323.83
361.136	335.28
361.6	334.83
362.064	342.63
362.527	350.08
362.991	348.33
363.454	343.08
363.918	349.78
364.381	355.28
364.845	353.98
365.308	353.48
365.772	359.23
366.235	358.28
366.698	358.18
367.162	362.83
367.625	365.68
368.088	373.73
368.552	375.18
369.015	367.13
369.478	374.98
369.941	377.73
370.404	381.53
370.867	375.08
371.331	377.83
371.794	394.33
372.257	387.63
372.72	390.23
373.183	394.73
373.646	389.28
374.109	394.08
374.572	399.78
375.035	396.33
375.497	400.68
375.96	411.83
376.423	421.43
376.886	423.78
377.349	426.28
377.811	424.93
378.274	431.08
378.737	420.38
379.199	430.88
379.662	433.53
380.125	437.48
380.587	442.33
381.05	452.33
381.512	453.38
381.975	466.53
382.437	477.83
382.9	464.83
383.362	471.88
383.825	474.28
384.287	480.88
384.75	477.48
385.212	478.58
385.674	481.93
386.136	487.08
386.599	489.93
387.061	485.73
387.523	489.93
387.985	493.08
388.447	503.38
388.91	496.43
389.372	494.33
389.834	500.48
390.296	496.38
390.758	504.33
391.22	500.08
391.682	500.78
392.144	508.43
392.606	511.93
393.068	522.93
393.529	557.33
393.991	559.58
394.453	534.38
394.915	515.03
395.377	508.93
395.838	509.48
396.3	508.78
396.762	515.98
397.224	517.38
397.685	520.23
398.147	528.23
398.608	532.98
399.07	547.63
399.531	534.13
399.993	552.53
400.454	555.78
400.916	557.93
401.377	572.68
401.839	567.53
402.3	572.33
402.762	596.88
403.223	638.53
403.684	638.93
404.145	609.53
404.607	604.28
405.068	591.73
405.529	604.18
405.99	613.93
406.451	619.73
406.913	609.48
407.374	614.73
407.835	619.23
408.296	631.83
408.757	634.13
409.218	650.53
409.679	658.83
410.14	656.23
410.601	674.88
411.062	676.98
411.522	680.63
411.983	678.48
412.444	683.28
412.905	699.68
413.366	715.43
413.826	748.83
414.287	845.48
414.748	1007.83
415.208	1028.48
415.669	863.63
416.13	774.58
416.59	755.98
417.051	792.88
417.511	829.08
417.972	890.93
418.432	960.38
418.893	1058.18
419.353	1015.78
419.814	790.33
420.274	698.63
420.734	696.53
421.195	712.68
421.655	711.13
422.115	731.98
422.576	717.68
423.036	726.28
423.496	757.38
423.956	781.53
424.416	829.88
424.876	944.08
425.336	941.08
425.797	921.03
426.257	905.83
426.717	856.98
427.177	800.18
427.637	806.28
428.097	835.53
428.556	876.83
429.016	931.28
429.476	934.98
429.936	914.48
430.396	921.53
430.856	937.23
431.315	961.08
431.775	1037.43
432.235	1112.42
432.694	1129.18
433.154	1062.12
433.614	1035.93
434.073	991.58
434.533	909.58
434.993	874.23
435.452	875.98
435.912	848.73
436.371	849.53
436.83	833.78
437.29	827.08
437.749	805.68
438.209	788.63
438.668	804.43
439.127	822.68
439.587	803.03
440.046	784.73
440.505	803.83
440.964	808.43
441.424	833.78
441.883	846.63
442.342	802.13
442.801	764.93
443.26	780.23
443.719	772.38
444.178	767.53
444.637	779.18
445.096	783.13
445.555	791.33
446.014	792.03
446.473	780.33
446.932	790.68
447.391	795.28
447.849	817.03
448.308	797.03
448.767	794.88
449.226	811.33
449.685	827.58
450.143	864.98
450.602	864.18
451.061	816.78
451.519	824.18
451.978	809.73
452.436	802.68
452.895	810.23
453.353	801.63
453.812	797.43
454.27	807.23
454.729	805.43
455.187	814.38
455.646	814.18
456.104	815.38
456.562	822.38
457.021	832.08
457.479	800.13
457.937	836.48
458.395	855.58
458.854	844.43
459.312	825.38
459.77	845.53
460.228	852.78
460.686	856.88
461.144	859.18
461.602	858.88
462.06	856.83
462.518	878.18
462.976	864.33
463.434	886.33
463.892	894.23
464.35	913.08
464.808	927.38
465.266	936.68
465.724	952.18
466.181	956.83
466.639	943.48
467.097	987.78
467.555	1017.78
468.012	1011.88
468.47	1017.42
468.928	1060.38
469.385	1071.03
469.843	1095.88
470.3	1078.18
470.758	1115.28
471.215	1134.13
471.673	1163.67
472.13	1186.43
472.588	1211.18
473.045	1211.73
473.503	1234.98
473.96	1291.13
474.417	1295.38
474.875	1353.28
475.332	1400.98
475.789	1426.08
476.246	1477.68
476.704	1532.28
477.161	1582.88
477.618	1624.28
478.075	1709.48
478.532	1850.18
478.989	1984.08
479.446	2176.23
479.903	2286.18
480.36	2496.93
480.817	2648.23
481.274	2816.83
481.731	3076.33
482.188	3310.62
482.645	3551.12
483.102	3745.88
483.558	3989.58
484.015	4174.43
484.472	4165.23
484.929	4030.48
485.385	3883.33
485.842	3791.22
486.299	3632.62
486.755	3346.93
487.212	3011.48
487.668	2720.78
488.125	2528.93
488.582	2337.28
489.038	2246.58
489.494	2176.43
489.951	2104.58
490.407	2054.38
490.864	2013.33
491.32	1968.08
491.776	1967.23
492.233	1965.83
492.689	1926.28
493.145	1889.78
493.602	1866.88
494.058	1887.98
494.514	1894.58
494.97	1888.48
495.426	1921.28
495.882	1913.98
496.338	1918.13
496.794	1921.88
497.251	1929.43
497.707	1938.13
498.163	1957.58
498.618	1948.88
499.074	1932.73
499.53	1964.58
499.986	1971.58
500.442	1952.93
500.898	1933.98
501.354	1952.93
501.809	1959.08
502.265	1955.88
502.721	1962.43
503.177	1969.78
503.632	1976.33
504.088	1986.83
504.543	2015.93
504.999	2025.03
505.455	2010.23
505.91	1997.18
506.366	1991.68
506.821	2008.33
507.277	2000.58
507.732	2002.18
508.187	1998.98
508.643	2021.03
509.098	2029.63
509.553	2052.18
510.009	2062.12
510.464	2111.93
510.919	2129.62
511.375	2148.43
511.83	2169.83
512.285	2202.78
512.74	2251.38
513.195	2271.58
513.65	2320.88
514.105	2349.18
514.56	2345.03
515.015	2383.12
515.47	2391.38
515.925	2369.68
516.38	2375.28
516.835	2378.28
517.29	2358.33
517.745	2361.78
518.2	2326.48
518.655	2286.28
519.109	2265.48
519.564	2224.28
520.019	2211.23
520.474	2187.78
520.928	2185.08
521.383	2163.98
521.838	2155.43
522.292	2128.98
522.747	2118.93
523.201	2131.03
523.656	2091.23
524.11	2091.73
524.565	2079.58
525.019	2081.88
525.474	2067.12
525.928	2073.12
526.382	2074.93
526.837	2072.43
527.291	2074.18
527.745	2065.03
528.2	2071.53
528.654	2047.38
529.108	2054.68
529.562	2055.03
530.016	2051.23
530.47	2051.08
530.925	2042.03
531.379	2053.88
531.833	2072.93
532.287	2075.23
532.741	2051.12
533.195	2057.83
533.649	2073.43
534.103	2062.68
534.556	2058.57
535.01	2073.78
535.464	2044.13
535.918	2063.83
536.372	2074.18
536.826	2074.53
537.279	2058.18
537.733	2058.08
538.187	2059.32
538.64	2063.48
539.094	2077.83
539.548	2108.83
540.001	2093.48
540.455	2113.98
540.908	2108.93
541.362	2122.62
541.815	2148.08
542.269	2178.43
542.722	2185.23
543.175	2218.93
543.629	2225.13
544.082	2236.33
544.536	2263.93
544.989	2255.38
545.442	2265.98
545.895	2282.08
546.349	2265.07
546.802	2269.12
547.255	2286.63
547.708	2295.23
548.161	2325.28
548.614	2318.62
549.067	2327.73
549.52	2314.08
549.973	2292.23
550.426	2281.03
550.879	2285.03
551.332	2288.23
551.785	2294.23
552.238	2315.93
552.691	2313.93
553.144	2352.12
553.596	2393.23
554.049	2411.12
554.502	2470.03
554.955	2490.23
555.407	2531.68
555.86	2511.53
556.313	2477.88
556.765	2465.63
557.218	2429.48
557.67	2419.98
558.123	2398.53
558.576	2380.63
559.028	2382.83
559.48	2398.53
559.933	2396.08
560.385	2320.98
560.838	2245.33
561.29	2181.53
561.742	2181.38
562.195	2127.88
562.647	2101.03
563.099	2105.83
563.551	2074.93
564.004	2090.28
564.456	2079.08
564.908	2029.48
565.36	1983.33
565.812	1945.62
566.264	1942.58
566.716	1912.13
567.168	1874.13
567.62	1881.48
568.072	1869.33
568.524	1858.83
568.976	1853.53
569.428	1831.58
569.88	1818.83
570.332	1839.23
570.784	1848.83
571.235	1834.23
571.687	1861.38
572.139	1869.73
572.59	1884.98
573.042	1882.68
573.494	1881.98
573.945	1853.63
574.397	1828.73
574.849	1815.18
575.3	1827.63
575.752	1788.28
576.203	1781.62
576.655	1791.73
577.106	1764.38
577.557	1753.18
578.009	1737.58
578.46	1737.23
578.912	1733.58
579.363	1744.93
579.814	1739.28
580.265	1737.03
580.717	1743.38
581.168	1734.98
581.619	1746.03
582.07	1764.53
582.521	1753.68
582.972	1738.53
583.423	1746.28
583.875	1764.13
584.326	1768.78
584.777	1804.33
585.227	1821.63
585.678	1850.18
586.129	1863.08
586.58	1878.18
587.031	1900.68
587.482	1946.43
587.933	1971.93
588.384	1979.28
588.834	1958.78
589.285	1943.58
589.736	1950.33
590.186	1966.58
590.637	1942.68
591.088	1891.33
591.538	1860.08
591.989	1830.43
592.439	1808.18
592.89	1787.68
593.34	1791.03
593.791	1783.78
594.241	1764.13
594.692	1772.98
595.142	1765.93
595.593	1754.23
596.043	1774.63
596.493	1777.93
596.943	1776.38
597.394	1826.83
597.844	1847.53
598.294	1894.28
598.744	1956.58
599.195	2052.88
599.645	2149.12
600.095	2252.93
600.545	2366.73
600.995	2460.23
601.445	2551.08
601.895	2670.78
602.345	2749.43
602.795	2719.33
603.245	2634.13
603.695	2480.28
604.145	2338.12
604.594	2227.58
605.044	2114.62
605.494	1989.78
605.944	1884.53
606.393	1835.18
606.843	1804.53
607.293	1807.78
607.743	1789.98
608.192	1803.98
608.642	1799.88
609.091	1790.53
609.541	1798.78
609.99	1802.28
610.44	1757.33
610.889	1736.78
611.339	1709.53
611.788	1694.68
612.238	1710.33
612.687	1710.28
613.136	1717.03
613.586	1740.33
614.035	1733.08
614.484	1743.38
614.933	1753.23
615.383	1720.73
615.832	1672.43
616.281	1651.33
616.73	1603.08
617.179	1576.08
617.628	1543.03
618.077	1516.93
618.526	1502.18
618.975	1495.58
619.424	1469.88
619.873	1470.18
620.322	1454.23
620.771	1451.98
621.22	1426.43
621.669	1396.68
622.118	1387.38
622.567	1375.98
623.015	1351.58
623.464	1355.93
623.913	1326.88
624.361	1344.18
624.81	1335.58
625.259	1340.38
625.707	1325.38
626.156	1330.88
626.604	1353.73
627.053	1351.68
627.501	1353.48
627.95	1365.63
628.398	1377.68
628.847	1353.28
629.295	1352.78
629.744	1352.53
630.192	1327.98
630.64	1307.08
631.089	1277.18
631.537	1247.33
631.985	1232.38
632.433	1234.98
632.881	1235.18
633.33	1237.48
633.778	1234.43
634.226	1245.73
634.674	1256.98
635.122	1267.63
635.57	1274.28
636.018	1310.88
636.466	1308.53
636.914	1299.03
637.362	1324.83
637.81	1345.73
638.258	1392.62
638.705	1397.38
639.153	1444.08
639.601	1459.68
640.049	1488.38
640.497	1523.63
640.944	1569.23
641.392	1503.12
641.84	1422.83
642.287	1363.38
642.735	1328.73
643.182	1321.63
643.63	1327.98
644.078	1334.08
644.525	1353.03
644.973	1387.58
645.42	1414.88
645.867	1446.18
646.315	1465.98
646.762	1539.68
647.21	1581.03
647.657	1671.73
648.104	1733.43
648.551	1779.12
648.999	1910.63
649.446	2099.23
649.893	2351.03
650.34	2744.93
650.787	3359.83
651.234	4350.12
651.682	5990.02
652.129	8436.77
652.576	11964.53
653.023	15314.57
653.47	15536.38
653.917	15536.42
654.363	15536.33
654.81	15533.33
655.257	15533.98
655.704	15109.73
656.151	9445.62
656.598	6208.57
657.044	4419.77
657.491	3459.62
657.938	2807.88
658.385	2376.03
658.831	2093.23
659.278	1884.93
659.724	1712.58
660.171	1591.68
660.618	1488.38
661.064	1405.33
661.511	1353.08
661.957	1308.88
662.404	1288.38
662.85	1269.23
663.296	1253.98
663.743	1226.93
664.189	1203.28
664.635	1195.58
665.082	1170.47
665.528	1148.83
665.974	1126.28
666.42	1100.12
666.867	1090.23
667.313	1049.78
667.759	1037.43
668.205	1024.18
668.651	1022.33
669.097	1021.68
669.543	1029.68
669.989	1043.58
670.435	1041.67
670.881	1052.78
671.327	1086.38
671.773	1159.33
672.219	1245.33
672.665	1322.23
673.11	1368.38
673.556	1390.33
674.002	1423.93
674.448	1439.78
674.893	1222.63
675.339	1074.48
675.785	990.38
676.23	944.88
676.676	902.03
677.122	882.03
677.567	857.63
678.013	826.13
678.458	816.68
678.904	819.98
679.349	805.03
679.794	810.93
680.24	809.03
680.685	800.33
681.131	800.63
681.576	798.63
682.021	800.78
682.466	813.13
682.912	818.63
683.357	860.23
683.802	934.03
684.247	1020.73
684.692	1078.88
685.137	1136.17
685.583	1153.83
686.028	1213.78
686.473	1150.23
686.918	998.58
687.363	913.73
687.807	874.23
688.252	825.53
688.697	804.68
689.142	774.98
689.587	779.58
690.032	799.28
690.477	824.88
690.921	864.38
691.366	905.73
691.811	943.48
692.255	1019.38
692.7	1223.43
693.145	1763.83
693.589	2689.08
694.034	3202.03
694.478	3427.72
694.923	3148.62
695.367	4475.52
695.812	2755.98
696.256	1165.83
696.701	845.43
697.145	793.68
697.59	756.83
698.034	746.18
698.478	739.78
698.922	758.38
699.367	764.78
699.811	798.23
700.255	858.53
700.699	939.73
701.143	1023.12
701.588	1082.73
702.032	1124.08
702.476	1165.38
702.92	1246.98
703.364	1632.43
703.808	2462.43
704.252	3064.53
704.696	3259.63
705.14	3092.58
705.584	4226.82
706.027	2364.08
706.471	1187.68
706.915	890.98
707.359	799.08
707.803	743.98
708.246	709.93
708.69	713.88
709.134	698.93
709.577	697.13
710.021	701.58
710.465	696.88
710.908	691.63
711.352	722.98
711.795	791.98
712.239	854.98
712.682	876.68
713.126	870.03
713.569	962.93
714.012	789.58
714.456	695.48
714.899	651.68
715.342	627.78
715.786	604.93
716.229	592.13
716.672	568.78
717.115	577.88
717.558	577.08
718.002	593.73
718.445	620.68
718.888	663.83
719.331	662.53
719.774	673.33
720.217	669.23
720.66	635.78
721.103	603.03
721.546	573.33
721.989	556.18
722.432	540.68
722.874	544.03
723.317	558.58
723.76	597.28
724.203	727.83
724.645	969.63
725.088	1149.33
725.531	1120.23
725.974	1223.58
726.416	1105.68
726.859	689.18
727.301	564.43
727.744	537.63
728.187	536.08
728.629	546.38
729.071	576.33
729.514	596.98
729.956	623.38
730.399	640.23
730.841	640.88
731.283	627.88
731.726	606.43
732.168	619.53
732.61	652.68
733.053	698.93
733.495	771.43
733.937	854.63
734.379	1015.78
734.821	1282.53
735.263	2027.38
735.705	3632.78
736.148	5347.92
736.59	5391.53
737.032	5869.52
737.474	4852.62
737.916	1856.98
738.357	979.88
738.799	759.78
739.241	705.38
739.683	710.13
740.125	730.23
740.567	738.43
741.008	788.03
741.45	831.13
741.892	864.98
742.334	875.78
742.775	871.93
743.217	839.63
743.658	703.13
744.1	734.78
744.542	837.18
744.983	872.93
745.425	917.33
745.866	888.88
746.307	730.53
746.749	763.63
747.19	1103.12
747.632	2145.78
748.073	3977.68
748.514	5497.57
748.956	7330.22
749.397	8574.23
749.838	5947.22
750.279	5673.73
750.72	2947.38
751.162	1250.28
751.603	715.93
752.044	578.88
752.485	512.63
752.926	480.18
753.367	466.88
753.808	447.53
754.249	439.68
754.69	438.58
755.131	427.13
755.572	429.83
756.013	432.48
756.453	430.48
756.894	438.63
757.335	432.08
757.776	439.98
758.216	462.13
758.657	487.98
759.098	540.28
759.538	655.58
759.979	929.38
760.42	1878.62
760.86	4802.77
761.301	9956.22
761.741	11799.88
762.182	13510.33
762.622	8802.83
763.063	3149.73
763.503	1284.28
763.943	752.58
764.384	595.48
764.824	512.28
765.264	473.68
765.705	452.03
766.145	431.93
766.585	413.43
767.025	399.48
767.465	406.78
767.906	408.73
768.346	434.18
768.786	497.93
769.226	732.33
769.666	1481.73
770.106	3306.28
770.546	4718.22
770.986	5366.73
771.426	4084.07
771.866	1704.78
772.306	772.08
772.745	478.63
773.185	400.33
773.625	392.13
774.065	427.58
774.505	611.88
774.944	1108.38
775.384	1614.73
775.824	1828.68
776.263	1508.03
776.703	791.43
777.142	450.08
777.582	335.93
778.021	303.88
778.461	291.48
778.9	285.48
779.34	279.38
779.779	269.28
780.219	262.63
780.658	258.43
781.097	254.28
781.537	247.38
781.976	245.23
782.415	248.93
782.855	250.38
783.294	245.73
783.733	244.33
784.172	246.68
784.611	245.43
785.05	251.48
785.489	262.98
785.928	264.58
786.367	277.83
786.806	295.68
787.245	309.78
787.684	323.23
788.123	326.88
788.562	311.63
789.001	298.23
789.44	297.53
789.879	292.63
790.317	288.23
790.756	311.13
791.195	357.33
791.634	478.73
792.072	857.43
792.511	2095.88
792.95	3882.23
793.388	4695.48
793.827	3074.88
794.265	1402.62
794.704	676.83
795.142	415.48
795.581	344.18
796.019	313.78
796.458	311.43
796.896	318.63
797.334	364.98
797.773	491.33
798.211	935.48
798.649	1924.58
799.087	3256.07
799.526	4619.88
799.964	4777.47
800.402	3309.38
800.84	1490.33
801.278	728.78
801.716	448.23
802.154	360.83
802.592	342.33
803.03	337.78
803.468	355.58
803.906	348.88
804.344	337.98
804.782	332.13
805.22	333.98
805.658	352.43
806.096	369.08
806.533	415.48
806.971	531.83
807.409	767.38
807.847	1530.62
808.284	3883.73
808.722	6826.23
809.16	9610.08
809.597	12973.52
810.035	15274.03
810.472	10602.98
810.91	4478.02
811.347	2004.33
811.785	949.93
812.222	601.33
812.66	457.53
813.097	389.63
813.535	345.78
813.972	303.68
814.409	283.18
814.846	273.38
815.284	255.98
815.721	269.43
816.158	298.88
816.595	409.38
817.032	518.63
817.47	471.13
817.907	337.43
818.344	293.33
818.781	293.68
819.218	353.88
819.655	556.23
820.092	719.38
820.529	654.98
820.966	506.18
821.403	343.13
821.839	293.83
822.276	329.43
822.713	392.08
823.15	359.63
823.587	370.33
824.023	635.43
824.46	1583.83
824.897	2774.73
825.333	2198.33
825.77	1002.43
826.206	523.78
826.643	312.18
827.08	231.28
827.516	203.33
827.953	187.43
828.389	179.63
828.825	168.23
829.262	164.78
829.698	165.28
830.135	154.68
830.571	153.28
831.007	154.08
831.443	152.13
831.88	156.23
832.316	157.23
832.752	157.53
833.188	163.23
833.624	160.43
834.06	161.88
834.497	162.43
834.933	170.73
835.369	183.18
835.805	194.48
836.241	198.93
836.677	220.13
837.112	257.68
837.548	318.58
837.984	471.03
838.42	1005.88
838.856	2802.88
839.292	5568.48
839.727	4168.18
840.163	2783.23
840.599	4203.72
841.034	6448.38
841.47	3262.53
841.906	1562.03
842.341	835.63
842.777	635.28
843.212	662.38
843.648	410.88
844.083	276.63
844.519	207.98
844.954	175.58
845.39	151.33
845.825	150.23
846.261	143.08
846.696	137.68
847.131	137.23
847.566	135.08
848.002	138.73
848.437	145.98
848.872	149.53
849.307	192.33
849.742	348.78
850.177	906.13
850.613	1949.03
851.048	1406.03
851.483	647.78
851.918	356.48
852.353	196.08
852.788	144.38
853.223	128.33
853.657	116.78
854.092	112.43
854.527	112.53
854.962	121.58
855.397	136.43
855.832	115.68
856.266	101.73
856.701	105.58
857.136	111.68
857.57	134.73
858.005	161.23
858.44	135.38
858.874	127.83
859.309	124.83
859.743	125.48
860.178	125.13
860.612	132.58
861.047	183.68
861.481	266.03
861.915	180.78
862.35	135.93
862.784	111.63
863.218	103.83
863.653	110.93
864.087	134.68
864.521	168.48
864.955	264.03
865.39	459.98
865.824	355.78
866.258	479.23
866.692	744.28
867.126	538.38
867.56	285.33
867.994	181.08
868.428	153.98
868.862	191.33
869.296	173.58
869.73	212.58
870.164	182.78
870.598	164.88
871.031	118.03
871.465	97.98
871.899	81.33
872.333	72.58
872.766	73.48
873.2	77.93
873.634	76.08
874.067	79.48
874.501	74.33
874.935	77.83
875.368	78.48
875.802	73.28
876.235	66.53
876.669	62.03
877.102	57.33
877.535	58.58
877.969	60.38
878.402	59.58
878.836	59.88
879.269	56.33
879.702	54.83
880.135	61.63
880.569	61.73
881.002	60.63
881.435	58.38
881.868	51.68
882.301	53.03
882.734	51.83
883.167	57.83
883.601	52.13
884.034	52.73
884.467	53.18
884.899	53.93
885.332	46.83
885.765	49.48
886.198	45.03
886.631	49.53
887.064	46.38
887.497	47.13
887.929	46.98
888.362	45.03
888.795	48.08
889.228	47.93
889.66	49.58
890.093	45.38
890.526	46.08
890.958	44.98
891.391	46.03
891.823	39.73
892.256	46.03
892.688	46.53
893.121	39.68
893.553	47.33
893.985	43.43
894.418	43.53
894.85	47.28
895.282	46.68
895.715	38.23
896.147	42.23
896.579	38.38
897.011	44.18
897.444	41.88
897.876	33.23
898.308	36.93
898.74	37.63
899.172	43.83
899.604	40.28
900.036	42.43
900.468	43.88
900.9	45.93
901.332	56.38
901.764	62.03
902.196	57.03
902.628	54.18
903.06	84.63
903.491	93.68
903.923	76.23
904.355	71.48
904.787	73.88
905.218	63.53
905.65	60.63
906.082	53.33
906.513	47.68
906.945	50.58
907.376	50.43
907.808	52.83
908.239	51.48
908.671	60.18
909.102	64.63
909.534	95.98
909.965	177.73
910.397	456.23
910.828	1314.33
911.259	802.38
911.691	432.53
912.122	251.38
912.553	131.28
912.984	76.08
913.415	58.78
913.847	55.18
914.278	46.88
914.709	46.43
915.14	45.03
915.571	46.43
916.002	45.98
916.433	38.83
916.864	35.08
917.295	43.38
917.726	49.48
918.157	63.33
918.587	62.38
919.018	59.88
919.449	54.23
919.88	65.98
920.311	101.23
920.741	279.33
921.172	482.78
921.603	243.08
922.033	155.63
922.464	97.88
922.895	63.83
923.325	47.63
923.756	42.28
924.186	58.73
924.617	76.58
925.047	113.28
925.478	94.18
925.908	70.23
926.338	50.88
926.769	42.03
927.199	42.53
927.629	35.08
928.06	40.73
928.49	40.13
928.92	31.68
929.35	31.68
929.78	27.08
930.21	28.13
930.641	20.08
931.071	23.83
931.501	27.18
931.931	23.08
932.361	20.63
932.791	26.18
933.221	25.23
933.651	36.53
934.08	65.98
934.51	38.58
934.94	29.93
935.37	27.53
935.8	25.43
936.229	19.68
936.659	22.48
937.089	41.38
937.519	64.43
937.948	91.08
938.378	50.48
938.807	33.83
939.237	12.23
939.666	16.38
940.096	11.43
940.525	8.13
940.955	14.58
941.384	11.33
941.814	11.43
942.243	13.18
942.672	9.43
943.102	4.13
943.531	13.08
943.96	6.38
944.39	13.23
944.819	14.68
945.248	14.13
945.677	13.43
946.106	12.33
946.535	10.28
946.964	12.68
947.393	11.38
947.822	6.63
948.251	11.03
948.68	11.93
949.109	11.48
949.538	5.93
949.967	8.03
950.396	5.38
950.825	13.68
951.254	10.48
951.682	9.18
952.111	7.68
952.54	7.38
952.969	9.88
953.397	5.88
953.826	1.98
954.254	11.38
954.683	6.28
955.112	13.43
955.54	5.48
955.969	6.53
956.397	8.78
956.826	5.98
957.254	4.63
957.682	9.33
958.111	10.48
958.539	7.38
958.967	6.78
959.396	11.98
959.824	8.93
960.252	12.63
960.68	6.13
961.109	9.78
961.537	14.88
961.965	6.83
962.393	8.78
962.821	10.03
963.249	15.23
963.677	18.73
964.105	84.33
964.533	143.83
964.961	71.08
965.389	39.23
965.817	21.78
966.245	11.28
966.672	4.23
967.1	13.63
967.528	6.18
967.956	3.48
968.383	12.68
968.811	4.48
969.239	3.93
969.666	7.98
970.094	8.73
970.522	2.78
970.949	2.93
971.377	0.63
971.804	3.03
972.232	7.93
972.659	3.88
973.087	4.03
973.514	3.23
973.941	3.38
974.369	1.23
974.796	4.98
975.223	4.68
975.651	10.38
976.078	5.88
976.505	10.98
976.932	30.03
977.359	41.38
977.786	23.58
978.214	17.88
978.641	4.33
979.068	5.68
979.495	3.48
979.922	5.93
980.349	9.63
980.776	6.13
981.202	4.88
981.629	9.93
982.056	6.18
982.483	1.63
982.91	11.23
983.337	3.58
983.763	5.98
984.19	9.88
984.617	4.93
985.043	3.78
985.47	5.93
985.897	8.83
986.323	9.18
986.75	1.68
987.176	4.68
987.603	4.53
988.029	3.23
988.456	4.88
988.882	1.93
989.308	1.28
989.735	0.18
990.161	0.38
990.587	-0.37
991.014	1.73
991.44	5.03
991.866	4.53
992.292	2.23
992.719	-0.72
993.145	6.03
993.571	5.23
993.997	7.03
994.423	7.38
994.849	0.98
995.275	2.73
995.701	9.63
996.127	-3.22
996.553	0.73
996.979	1.83
997.405	6.78
997.83	4.53
998.256	3.28
998.682	4.83
999.108	1.33
999.534	-7.12
999.959	-3.02
1000.385	4.08
1000.811	-1.57
1001.236	-2.27
1001.662	-0.27
1002.087	3.93
1002.513	6.38
1002.938	2.93
1003.364	2.98
1003.789	0.58
1004.215	1.23
1004.64	1.33
1005.066	2.03
1005.491	4.63
1005.916	4.93
1006.342	3.33
1006.767	3.48
1007.192	5.23
1007.617	1.78
1008.042	2.48
1008.468	7.73
1008.893	5.63
1009.318	9.13
1009.743	19.03
1010.168	30.48
1010.593	26.48
1011.018	14.38
1011.443	9.73
1011.868	7.93
1012.293	5.98
1012.718	-0.07
1013.143	5.28
1013.567	9.48
1013.992	4.38
1014.417	4.08
1014.842	-0.27
1015.267	2.13
1015.691	5.58
1016.116	3.33
1016.541	5.63
1016.965	2.48
1017.39	3.23
1017.814	-1.62
1018.239	-4.17
1018.663	-5.37
1019.088	-0.92
1019.512	7.93
1019.937	0.73
1020.361	4.43
1020.785	2.38
1021.21	-2.12
1021.634	1.23
1022.058	0.98
1022.483	-5.72
1022.907	-1.82
1023.331	-0.62
1023.755	-0.37
1024.179	-0.52
1024.604	2.13
1025.028	4.93
1025.452	2.23
1025.876	4.48
1026.3	3.48
1026.724	-1.27
1027.148	0.53
1027.572	0.08
1027.996	3.73
1028.42	4.13
1028.843	-0.92
1029.267	-2.97
1029.691	4.68
1030.115	0.73
1030.539	-1.32
1030.962	0.78
1031.386	1.83
1031.81	-0.47
1032.233	-0.12
1032.657	-7.62
1033.08	-2.02
1033.504	-0.52
1033.927	1.43
1034.351	0.03
1034.774	-1.72
1035.198	0.43
1035.621	2.83
1036.045	-1.32
1036.468	1.98
1036.891	1.08
1037.315	2.58
1037.738	0.58
1038.161	-0.77
1038.584	-3.17
1039.008	-3.27
1039.431	-0.22
1039.854	-3.72
1040.277	1.43
1040.7	-1.87
1041.123	1.88
1041.546	3.58
1041.969	4.13
1042.392	-1.37
1042.815	-5.22
1043.238	-6.02
1043.661	1.03
1044.084	-5.02
1044.507	-0.62
1044.93	-1.32
1045.352	-1.52
1045.775	2.78
1046.198	1.13
1046.621	7.33
1047.043	3.93
1047.466	3.93
1047.889	-2.02
1048.311	2.58
1048.734	-0.82
1049.156	-3.42
1049.579	2.38
1050.001	-5.27
1050.424	1.18
1050.846	-1.27
1051.269	-4.47
1051.691	-2.77
1052.113	1.73
1052.536	-3.17
1052.958	-3.62
1053.38	0.43
1053.802	0.53
1054.225	2.43
1054.647	0.23
1055.069	-4.22
1055.491	0.98
1055.913	-0.82
1056.335	-7.57
1056.757	-4.42
1057.179	-0.97
1057.601	-0.72
1058.023	-2.12
1058.445	-1.12
1058.867	1.33
1059.289	-3.37
1059.711	-4.72
1060.133	-3.27
1060.555	-4.17
1060.976	-0.32
1061.398	0.78
1061.82	2.03
1062.241	-2.62
1062.663	0.98
1063.085	-3.87
1063.506	-7.62
1063.928	-0.87
1064.35	0.43
1064.771	2.63
1065.193	-5.37
1065.614	-4.52
1066.035	5.78
1066.457	-1.32
1066.878	-2.97
1067.3	-1.47
1067.721	1.83
1068.142	-1.82
1068.564	-0.92
1068.985	1.73
1069.406	-5.27
1069.827	-3.92
1070.248	-5.02
1070.67	-8.17
1071.091	-8.02
1071.512	-4.97
1071.933	-0.87
1072.354	-6.52
1072.775	-2.07
1073.196	0.83
1073.617	-4.87
1074.038	-0.77
1074.459	-3.07
1074.88	-3.37
1075.3	-2.27
1075.721	-0.32
1076.142	-5.02
1076.563	-5.77
1076.983	1.43
1077.404	-6.67
1077.825	-3.32
1078.246	-5.77
1078.666	-2.77
1079.087	-1.97
1079.507	-2.42
1079.928	2.68
1080.348	-5.42
1080.769	1.23
1081.189	-2.17
1081.61	-7.32
1082.03	-1.22
1082.451	0.53
1082.871	-5.82
1083.291	-3.32
1083.711	-1.97
1084.132	-3.07
1084.552	-5.27
1084.972	-4.32
1085.392	-2.12
1085.813	3.08
1086.233	-0.47
1086.653	-1.37
1087.073	-5.97
1087.493	-5.72
1087.913	-3.02
1088.333	-4.37
1088.753	-1.42
1089.173	4.98
1089.593	-0.52
1090.013	-3.47
1090.433	-8.02
1090.852	-1.12
1091.272	-5.97
1091.692	-2.92
1092.112	-1.07
1092.531	-1.37
1092.951	2.58
1093.371	-3.92
1093.79	-5.97
1094.21	-6.82
1094.63	-5.07
1095.049	-2.72
1095.469	-3.32
1095.888	-3.57
1096.308	-0.12
1096.727	-4.27
1097.146	-0.62
1097.566	-5.87
1097.985	-3.67
1098.405	1.93
1098.824	1.73
1099.243	-4.42
1099.662	0.78
1100.082	-4.27
1100.501	-1.67
1100.92	2.18
1101.339	1.18
1101.758	2.18
