Data from MSPlasma+Separation6_Subt14_10-14-11-393.txt Node
Date: Fri Jul 21 10:14:11 EDT 2017
User: Ender
Spectrometer: HR+D1039
Trigger mode: 0
Integration Time (sec): 6.430000E-3
Scans to average: 20
Electric dark correction enabled: true
Nonlinearity correction enabled: false
Boxcar width: 0
XAxis mode: Wavelengths
Number of Pixels in Spectrum: 2048
>>>>>Begin Spectral Data<<<<<
187.836	-1.73
188.309	-1.73
188.782	-1.73
189.255	-1.63
189.728	3.02
190.201	-4.38
190.674	1.27
191.147	-2.78
191.619	-0.58
192.092	-1.68
192.565	-2.28
193.038	6.47
193.511	3.22
193.984	0.67
194.456	0.57
194.929	0.32
195.402	-1.18
195.874	0.67
196.347	4.67
196.82	3.32
197.292	-2.88
197.765	-4.53
198.237	1.17
198.71	-1.63
199.182	0.27
199.655	2.97
200.127	4.27
200.6	-0.88
201.072	3.12
201.544	-4.33
202.017	-1.73
202.489	0.17
202.961	-4.53
203.433	-2.03
203.906	3.92
204.378	5.27
204.85	-1.58
205.322	-0.58
205.794	3.72
206.266	-3.18
206.739	8.02
207.211	-2.38
207.683	-2.33
208.155	1.82
208.627	2.17
209.099	2.57
209.57	3.57
210.042	3.12
210.514	0.12
210.986	2.12
211.458	0.82
211.93	1.12
212.402	-1.88
212.873	-0.93
213.345	-4.48
213.817	-1.38
214.288	-0.68
214.76	5.92
215.232	0.07
215.703	-3.38
216.175	4.32
216.646	4.92
217.118	5.97
217.589	3.92
218.061	4.12
218.532	0.72
219.004	3.77
219.475	-1.43
219.946	5.12
220.418	4.27
220.889	8.32
221.36	8.87
221.832	8.27
222.303	6.02
222.774	5.52
223.245	2.47
223.717	1.22
224.188	4.02
224.659	4.97
225.13	2.87
225.601	6.22
226.072	10.67
226.543	8.27
227.014	6.02
227.485	9.12
227.956	7.57
228.427	11.42
228.898	8.07
229.369	6.67
229.839	6.27
230.31	11.07
230.781	9.07
231.252	15.07
231.722	6.77
232.193	4.12
232.664	8.42
233.135	4.67
233.605	10.72
234.076	16.57
234.546	11.07
235.017	12.47
235.487	12.52
235.958	7.47
236.428	14.42
236.899	10.12
237.369	16.12
237.84	17.32
238.31	18.32
238.78	12.52
239.251	12.02
239.721	11.82
240.191	17.07
240.662	18.57
241.132	11.87
241.602	14.27
242.072	17.77
242.542	11.82
243.013	16.27
243.483	19.02
243.953	17.57
244.423	20.12
244.893	16.92
245.363	20.92
245.833	19.27
246.303	19.17
246.773	23.12
247.243	20.42
247.712	23.87
248.182	18.12
248.652	26.07
249.122	16.77
249.592	25.47
250.061	18.62
250.531	26.02
251.001	26.97
251.471	28.52
251.94	26.77
252.41	25.47
252.879	29.97
253.349	37.22
253.818	34.67
254.288	34.47
254.757	28.92
255.227	30.17
255.696	34.07
256.166	34.12
256.635	32.57
257.105	30.17
257.574	33.22
258.043	33.87
258.513	35.42
258.982	30.77
259.451	36.87
259.92	30.92
260.389	37.02
260.859	35.12
261.328	39.97
261.797	33.37
262.266	41.67
262.735	43.87
263.204	35.47
263.673	39.62
264.142	40.17
264.611	40.07
265.08	42.07
265.549	38.02
266.018	39.87
266.487	46.97
266.955	42.67
267.424	49.82
267.893	46.12
268.362	44.27
268.83	43.32
269.299	46.32
269.768	46.52
270.236	47.97
270.705	51.92
271.174	45.57
271.642	48.72
272.111	47.92
272.579	53.82
273.048	54.87
273.516	55.92
273.985	56.17
274.453	54.07
274.922	53.22
275.39	50.77
275.858	58.42
276.327	57.07
276.795	57.67
277.263	61.42
277.731	53.62
278.2	62.22
278.668	61.82
279.136	61.47
279.604	63.67
280.072	62.22
280.54	60.32
281.008	71.07
281.477	62.17
281.945	62.67
282.413	68.37
282.881	66.52
283.348	70.97
283.816	69.67
284.284	71.67
284.752	70.72
285.22	71.87
285.688	73.47
286.156	76.47
286.623	71.47
287.091	73.77
287.559	81.47
288.026	75.37
288.494	82.77
288.962	77.77
289.429	77.77
289.897	82.17
290.364	80.02
290.832	79.42
291.3	84.32
291.767	83.82
292.234	85.02
292.702	85.22
293.169	85.72
293.637	89.72
294.104	88.62
294.571	84.42
295.039	92.82
295.506	85.52
295.973	90.82
296.44	84.87
296.908	93.72
297.375	89.87
297.842	91.02
298.309	87.42
298.776	88.57
299.243	95.27
299.71	93.12
300.177	99.12
300.644	97.62
301.111	101.82
301.578	100.62
302.045	100.77
302.512	103.42
302.979	104.72
303.446	107.02
303.913	106.37
304.379	113.37
304.846	113.37
305.313	120.12
305.78	119.82
306.246	116.37
306.713	117.67
307.18	121.02
307.646	126.22
308.113	121.92
308.579	129.72
309.046	126.12
309.512	125.32
309.979	129.52
310.445	128.12
310.912	136.82
311.378	137.27
311.845	136.67
312.311	134.17
312.777	133.67
313.244	141.57
313.71	145.27
314.176	147.22
314.642	147.07
315.109	143.47
315.575	141.87
316.041	145.32
316.507	148.32
316.973	154.17
317.439	149.07
317.905	147.87
318.371	150.27
318.837	150.67
319.303	154.22
319.769	155.12
320.235	160.82
320.701	163.02
321.167	155.77
321.633	162.22
322.099	158.52
322.564	163.82
323.03	162.07
323.496	164.07
323.962	167.72
324.427	173.62
324.893	166.52
325.359	175.17
325.824	177.62
326.29	182.42
326.755	175.62
327.221	176.92
327.686	190.62
328.152	183.07
328.617	189.52
329.083	190.77
329.548	194.07
330.014	197.42
330.479	196.02
330.944	196.22
331.41	205.82
331.875	199.02
332.34	196.12
332.805	201.32
333.271	199.27
333.736	199.87
334.201	205.07
334.666	222.17
335.131	222.02
335.596	215.42
336.061	209.97
336.526	210.17
336.991	209.02
337.456	211.17
337.921	206.07
338.386	202.52
338.851	201.77
339.316	210.77
339.781	204.82
340.246	212.47
340.711	211.82
341.175	217.12
341.64	227.42
342.105	226.67
342.569	239.87
343.034	226.67
343.499	235.67
343.963	239.82
344.428	241.22
344.893	243.22
345.357	250.82
345.822	249.62
346.286	263.02
346.751	264.92
347.215	262.62
347.679	276.32
348.144	284.27
348.608	287.47
349.073	283.57
349.537	292.92
350.001	292.42
350.465	292.77
350.93	298.62
351.394	288.82
351.858	298.67
352.322	301.77
352.786	306.42
353.25	302.47
353.715	312.12
354.179	319.77
354.643	331.42
355.107	337.67
355.571	325.07
356.035	326.02
356.498	321.17
356.962	322.47
357.426	322.52
357.89	319.57
358.354	320.37
358.818	314.52
359.281	323.67
359.745	323.87
360.209	326.77
360.673	322.42
361.136	321.27
361.6	325.12
362.064	332.22
362.527	337.32
362.991	332.37
363.454	335.82
363.918	338.17
364.381	342.37
364.845	345.72
365.308	341.67
365.772	349.17
366.235	352.72
366.698	346.37
367.162	345.27
367.625	355.12
368.088	365.82
368.552	354.42
369.015	357.52
369.478	361.97
369.941	370.27
370.404	367.92
370.867	366.12
371.331	368.12
371.794	377.82
372.257	376.32
372.72	379.77
373.183	377.92
373.646	382.07
374.109	382.97
374.572	389.12
375.035	397.27
375.497	395.72
375.96	398.07
376.423	407.27
376.886	412.77
377.349	420.57
377.811	425.02
378.274	421.57
378.737	419.27
379.199	424.97
379.662	426.17
380.125	428.17
380.587	431.97
381.05	440.97
381.512	447.07
381.975	450.52
382.437	459.52
382.9	467.17
383.362	461.32
383.825	468.97
384.287	472.37
384.75	469.07
385.212	472.92
385.674	476.02
386.136	484.02
386.599	477.27
387.061	472.62
387.523	477.82
387.985	482.47
388.447	494.62
388.91	484.12
389.372	492.37
389.834	493.97
390.296	487.67
390.758	493.67
391.22	489.17
391.682	494.87
392.144	494.32
392.606	500.42
393.068	515.87
393.529	532.87
393.991	542.62
394.453	525.42
394.915	506.37
395.377	494.52
395.838	506.17
396.3	508.62
396.762	519.57
397.224	510.02
397.685	512.82
398.147	517.77
398.608	520.67
399.07	530.27
399.531	532.37
399.993	542.57
400.454	554.07
400.916	548.17
401.377	556.17
401.839	566.97
402.3	566.07
402.762	588.17
403.223	635.67
403.684	631.57
404.145	605.92
404.607	595.07
405.068	586.07
405.529	601.42
405.99	611.72
406.451	616.52
406.913	601.32
407.374	612.97
407.835	603.57
408.296	624.07
408.757	626.77
409.218	647.57
409.679	648.92
410.14	652.87
410.601	660.37
411.062	670.77
411.522	672.92
411.983	669.57
412.444	675.82
412.905	692.12
413.366	714.42
413.826	742.57
414.287	838.92
414.748	986.97
415.208	1009.32
415.669	847.42
416.13	776.07
416.59	757.92
417.051	783.27
417.511	814.12
417.972	869.92
418.432	941.07
418.893	1028.87
419.353	989.02
419.814	779.32
420.274	694.42
420.734	687.97
421.195	712.17
421.655	700.67
422.115	710.12
422.576	714.92
423.036	718.32
423.496	743.92
423.956	772.17
424.416	826.72
424.876	923.17
425.336	911.62
425.797	904.42
426.257	891.82
426.717	849.72
427.177	791.42
427.637	805.82
428.097	831.02
428.556	869.97
429.016	927.67
429.476	929.07
429.936	915.22
430.396	913.87
430.856	935.12
431.315	960.42
431.775	1020.07
432.235	1093.12
432.694	1108.02
433.154	1046.22
433.614	1020.12
434.073	996.42
434.533	899.97
434.993	863.32
435.452	869.62
435.912	835.72
436.371	841.17
436.83	830.57
437.29	817.77
437.749	795.02
438.209	790.37
438.668	800.77
439.127	809.97
439.587	794.87
440.046	773.87
440.505	797.82
440.964	796.02
441.424	828.17
441.883	841.62
442.342	791.87
442.801	761.57
443.26	771.57
443.719	761.22
444.178	755.77
444.637	771.92
445.096	774.17
445.555	782.32
446.014	776.67
446.473	773.82
446.932	779.72
447.391	778.27
447.849	801.87
448.308	782.67
448.767	792.12
449.226	794.47
449.685	818.82
450.143	841.32
450.602	850.02
451.061	801.72
451.519	806.32
451.978	796.37
452.436	786.27
452.895	806.27
453.353	794.32
453.812	791.97
454.27	788.02
454.729	793.42
455.187	801.92
455.646	800.57
456.104	800.72
456.562	806.22
457.021	828.97
457.479	792.62
457.937	819.22
458.395	844.37
458.854	835.37
459.312	821.52
459.77	832.72
460.228	842.52
460.686	847.47
461.144	855.72
461.602	848.42
462.06	852.67
462.518	859.62
462.976	865.07
463.434	880.12
463.892	881.77
464.35	901.17
464.808	906.67
465.266	916.87
465.724	933.82
466.181	932.87
466.639	931.82
467.097	964.47
467.555	1004.67
468.012	1003.12
468.47	1011.92
468.928	1036.82
469.385	1072.32
469.843	1072.22
470.3	1080.17
470.758	1097.42
471.215	1117.07
471.673	1148.47
472.13	1180.57
472.588	1206.97
473.045	1195.62
473.503	1219.12
473.96	1277.07
474.417	1290.42
474.875	1337.97
475.332	1406.77
475.789	1427.12
476.246	1455.87
476.704	1520.37
477.161	1568.87
477.618	1619.22
478.075	1702.92
478.532	1828.77
478.989	1971.67
479.446	2176.92
479.903	2290.07
480.36	2497.82
480.817	2633.97
481.274	2829.07
481.731	3083.02
482.188	3293.97
482.645	3544.92
483.102	3740.82
483.558	3983.52
484.015	4150.97
484.472	4134.12
484.929	4007.32
485.385	3837.42
485.842	3749.42
486.299	3594.47
486.755	3300.07
487.212	2983.27
487.668	2685.12
488.125	2494.87
488.582	2313.17
489.038	2229.42
489.494	2143.02
489.951	2093.82
490.407	2030.82
490.864	1986.47
491.32	1950.97
491.776	1931.97
492.233	1943.32
492.689	1902.07
493.145	1859.92
493.602	1840.67
494.058	1860.67
494.514	1870.62
494.97	1863.22
495.426	1889.37
495.882	1892.37
496.338	1877.77
496.794	1891.92
497.251	1896.92
497.707	1915.07
498.163	1919.92
498.618	1905.32
499.074	1911.27
499.53	1926.67
499.986	1940.57
500.442	1925.02
500.898	1899.52
501.354	1917.42
501.809	1923.07
502.265	1938.07
502.721	1932.32
503.177	1938.32
503.632	1942.02
504.088	1953.57
504.543	1978.57
504.999	1999.12
505.455	1989.17
505.91	1975.07
506.366	1988.92
506.821	1972.07
507.277	1973.67
507.732	1978.02
508.187	1974.87
508.643	1992.57
509.098	1990.02
509.553	2022.92
510.009	2035.77
510.464	2068.57
510.919	2087.47
511.375	2111.02
511.83	2130.17
512.285	2167.17
512.74	2216.12
513.195	2236.57
513.65	2275.62
514.105	2292.52
514.56	2321.47
515.015	2331.47
515.47	2346.17
515.925	2319.97
516.38	2334.62
516.835	2329.32
517.29	2316.57
517.745	2330.87
518.2	2288.62
518.655	2239.67
519.109	2220.82
519.564	2199.67
520.019	2176.87
520.474	2154.77
520.928	2144.87
521.383	2115.22
521.838	2105.62
522.292	2108.27
522.747	2093.02
523.201	2088.82
523.656	2052.87
524.11	2055.67
524.565	2047.62
525.019	2054.27
525.474	2061.07
525.928	2038.72
526.382	2045.47
526.837	2031.32
527.291	2058.52
527.745	2033.37
528.2	2043.72
528.654	2013.52
529.108	2011.62
529.562	2009.87
530.016	2019.12
530.47	2024.97
530.925	2018.32
531.379	2013.72
531.833	2032.37
532.287	2031.47
532.741	2025.67
533.195	2025.02
533.649	2037.77
534.103	2032.27
534.556	2020.62
535.01	2029.87
535.464	2020.77
535.918	2013.17
536.372	2044.02
536.826	2033.82
537.279	2014.22
537.733	2013.52
538.187	2025.62
538.64	2015.82
539.094	2038.47
539.548	2056.47
540.001	2054.92
540.455	2075.02
540.908	2082.17
541.362	2107.97
541.815	2108.57
542.269	2155.92
542.722	2146.52
543.175	2173.27
543.629	2187.47
544.082	2201.02
544.536	2219.92
544.989	2226.12
545.442	2241.57
545.895	2242.77
546.349	2229.57
546.802	2233.32
547.255	2236.97
547.708	2254.37
548.161	2260.47
548.614	2271.57
549.067	2284.32
549.52	2266.42
549.973	2249.87
550.426	2240.27
550.879	2237.02
551.332	2235.52
551.785	2266.42
552.238	2280.52
552.691	2276.97
553.144	2305.92
553.596	2349.37
554.049	2368.72
554.502	2419.32
554.955	2455.97
555.407	2498.42
555.86	2459.07
556.313	2443.87
556.765	2419.72
557.218	2386.52
557.67	2370.67
558.123	2332.67
558.576	2331.67
559.028	2331.97
559.48	2349.47
559.933	2343.87
560.385	2280.87
560.838	2196.17
561.29	2144.47
561.742	2135.77
562.195	2079.77
562.647	2067.12
563.099	2047.42
563.551	2038.82
564.004	2059.92
564.456	2036.37
564.908	2000.82
565.36	1964.97
565.812	1923.77
566.264	1907.62
566.716	1881.82
567.168	1844.87
567.62	1850.47
568.072	1841.92
568.524	1825.82
568.976	1822.47
569.428	1801.72
569.88	1799.97
570.332	1821.82
570.784	1816.37
571.235	1810.57
571.687	1831.92
572.139	1838.87
572.59	1840.97
573.042	1861.52
573.494	1852.77
573.945	1818.42
574.397	1788.82
574.849	1777.32
575.3	1795.57
575.752	1760.97
576.203	1746.37
576.655	1758.37
577.106	1724.92
577.557	1720.67
578.009	1713.97
578.46	1718.07
578.912	1705.12
579.363	1718.82
579.814	1704.27
580.265	1699.07
580.717	1703.27
581.168	1709.97
581.619	1710.12
582.07	1729.02
582.521	1730.87
582.972	1717.57
583.423	1722.32
583.875	1730.37
584.326	1740.02
584.777	1775.12
585.227	1792.32
585.678	1809.97
586.129	1835.47
586.58	1848.97
587.031	1875.37
587.482	1921.52
587.933	1940.72
588.384	1945.67
588.834	1923.02
589.285	1918.62
589.736	1916.17
590.186	1924.52
590.637	1911.17
591.088	1864.97
591.538	1825.17
591.989	1805.22
592.439	1780.22
592.89	1756.87
593.34	1760.62
593.791	1752.27
594.241	1730.32
594.692	1742.42
595.142	1726.27
595.593	1731.77
596.043	1731.37
596.493	1751.82
596.943	1750.52
597.394	1795.27
597.844	1820.02
598.294	1863.07
598.744	1929.72
599.195	2019.52
599.645	2125.47
600.095	2228.22
600.545	2338.47
600.995	2423.82
601.445	2515.67
601.895	2620.52
602.345	2703.47
602.795	2658.12
603.245	2563.07
603.695	2431.67
604.145	2299.22
604.594	2194.17
605.044	2086.17
605.494	1961.77
605.944	1854.37
606.393	1812.52
606.843	1773.77
607.293	1773.77
607.743	1767.77
608.192	1768.27
608.642	1757.47
609.091	1773.17
609.541	1760.47
609.99	1754.47
610.44	1721.22
610.889	1712.52
611.339	1685.87
611.788	1656.27
612.238	1674.27
612.687	1670.87
613.136	1694.52
613.586	1708.27
614.035	1704.07
614.484	1715.72
614.933	1721.27
615.383	1681.62
615.832	1643.57
616.281	1613.02
616.73	1583.42
617.179	1549.82
617.628	1517.32
618.077	1490.27
618.526	1476.67
618.975	1469.77
619.424	1443.62
619.873	1444.22
620.322	1433.27
620.771	1422.17
621.22	1397.77
621.669	1372.97
622.118	1364.12
622.567	1347.02
623.015	1333.32
623.464	1323.92
623.913	1317.97
624.361	1311.37
624.81	1301.87
625.259	1313.27
625.707	1300.72
626.156	1308.92
626.604	1329.27
627.053	1337.92
627.501	1324.22
627.95	1340.97
628.398	1347.87
628.847	1328.02
629.295	1325.82
629.744	1311.82
630.192	1295.52
630.64	1282.92
631.089	1262.12
631.537	1235.72
631.985	1218.52
632.433	1219.07
632.881	1206.27
633.33	1214.97
633.778	1217.67
634.226	1230.22
634.674	1236.07
635.122	1253.92
635.57	1259.92
636.018	1283.32
636.466	1286.92
636.914	1276.12
637.362	1309.67
637.81	1330.32
638.258	1375.22
638.705	1382.12
639.153	1433.57
639.601	1435.47
640.049	1472.52
640.497	1509.72
640.944	1534.12
641.392	1480.62
641.84	1403.07
642.287	1344.12
642.735	1321.37
643.182	1308.37
643.63	1313.02
644.078	1313.52
644.525	1336.72
644.973	1370.32
645.42	1403.32
645.867	1436.47
646.315	1470.62
646.762	1516.87
647.21	1573.07
647.657	1657.92
648.104	1716.37
648.551	1758.77
648.999	1908.52
649.446	2090.07
649.893	2358.12
650.34	2760.72
650.787	3395.02
651.234	4389.82
651.682	6069.67
652.129	8575.07
652.576	12170.52
653.023	15491.67
653.47	15535.67
653.917	15535.72
654.363	15535.62
654.81	15532.62
655.257	15533.27
655.704	15223.57
656.151	9368.67
656.598	6138.17
657.044	4402.97
657.491	3427.32
657.938	2786.37
658.385	2359.12
658.831	2076.82
659.278	1855.62
659.724	1700.67
660.171	1585.57
660.618	1473.67
661.064	1390.87
661.511	1347.22
661.957	1297.72
662.404	1269.72
662.85	1257.37
663.296	1243.22
663.743	1202.52
664.189	1191.27
664.635	1170.92
665.082	1147.37
665.528	1139.62
665.974	1100.82
666.42	1083.62
666.867	1071.12
667.313	1026.52
667.759	1019.22
668.205	1000.67
668.651	999.57
669.097	1003.97
669.543	1016.82
669.989	1024.52
670.435	1026.37
670.881	1044.77
671.327	1078.92
671.773	1151.72
672.219	1234.62
672.665	1304.52
673.11	1349.62
673.556	1359.97
674.002	1384.47
674.448	1409.12
674.893	1206.82
675.339	1051.77
675.785	976.92
676.23	920.42
676.676	881.07
677.122	859.72
677.567	843.52
678.013	818.37
678.458	814.77
678.904	815.47
679.349	797.37
679.794	792.12
680.24	790.97
680.685	780.17
681.131	785.42
681.576	783.22
682.021	792.02
682.466	804.47
682.912	799.87
683.357	847.07
683.802	920.47
684.247	993.87
684.692	1066.42
685.137	1113.92
685.583	1130.97
686.028	1180.57
686.473	1128.62
686.918	983.02
687.363	899.07
687.807	850.27
688.252	805.52
688.697	785.77
689.142	762.92
689.587	765.17
690.032	778.42
690.477	807.22
690.921	856.37
691.366	890.02
691.811	918.52
692.255	1005.12
692.7	1219.87
693.145	1751.62
693.589	2673.72
694.034	3171.67
694.478	3369.57
694.923	3071.67
695.367	4305.92
695.812	2672.92
696.256	1140.12
696.701	834.17
697.145	773.72
697.59	745.07
698.034	735.12
698.478	734.32
698.922	736.02
699.367	748.77
699.811	789.57
700.255	848.47
700.699	930.57
701.143	1008.82
701.588	1060.47
702.032	1102.17
702.476	1150.97
702.92	1225.77
703.364	1602.17
703.808	2447.77
704.252	3037.57
704.696	3207.82
705.14	3005.52
705.584	4086.47
706.027	2309.07
706.471	1162.87
706.915	875.12
707.359	779.27
707.803	724.32
708.246	704.17
708.69	705.92
709.134	690.62
709.577	686.82
710.021	689.52
710.465	683.67
710.908	679.52
711.352	707.52
711.795	783.62
712.239	837.72
712.682	868.82
713.126	843.37
713.569	939.97
714.012	778.22
714.456	681.97
714.899	641.27
715.342	608.12
715.786	588.07
716.229	571.42
716.672	566.27
717.115	566.37
717.558	564.42
718.002	583.07
718.445	598.42
718.888	634.47
719.331	657.52
719.774	664.27
720.217	647.92
720.66	619.72
721.103	589.32
721.546	555.67
721.989	542.67
722.432	530.57
722.874	533.37
723.317	536.47
723.76	587.27
724.203	713.77
724.645	959.32
725.088	1121.27
725.531	1099.62
725.974	1197.82
726.416	1081.92
726.859	670.02
727.301	549.77
727.744	530.17
728.187	527.47
728.629	542.62
729.071	562.07
729.514	594.22
729.956	614.07
730.399	625.52
730.841	633.02
731.283	615.37
731.726	600.82
732.168	613.12
732.61	643.97
733.053	685.17
733.495	761.97
733.937	842.17
734.379	996.22
734.821	1267.37
735.263	2013.57
735.705	3610.97
736.148	5273.17
736.59	5282.67
737.032	5674.42
737.474	4700.82
737.916	1833.87
738.357	968.67
738.799	740.32
739.241	685.42
739.683	698.32
740.125	710.57
740.567	721.32
741.008	761.52
741.45	811.47
741.892	851.12
742.334	855.67
742.775	849.87
743.217	811.27
743.658	692.17
744.1	712.12
744.542	821.32
744.983	855.92
745.425	890.82
745.866	869.77
746.307	718.57
746.749	751.92
747.19	1088.42
747.632	2113.87
748.073	3927.77
748.514	5420.22
748.956	7154.77
749.397	8374.72
749.838	5814.72
750.279	5485.57
750.72	2875.77
751.162	1221.02
751.603	709.02
752.044	565.07
752.485	502.47
752.926	467.42
753.367	455.22
753.808	442.72
754.249	435.02
754.69	433.72
755.131	418.22
755.572	422.57
756.013	416.87
756.453	419.87
756.894	427.27
757.335	432.62
757.776	436.67
758.216	450.22
758.657	475.87
759.098	526.32
759.538	640.32
759.979	922.27
760.42	1854.62
760.86	4752.82
761.301	9786.42
761.741	11521.12
762.182	13054.37
762.622	8534.82
763.063	3079.47
763.503	1264.52
763.943	738.27
764.384	588.37
764.824	507.37
765.264	463.62
765.705	439.97
766.145	419.92
766.585	413.27
767.025	386.82
767.465	395.02
767.906	400.27
768.346	429.52
768.786	488.97
769.226	725.52
769.666	1456.47
770.106	3243.02
770.546	4623.17
770.986	5193.32
771.426	3950.57
771.866	1666.47
772.306	755.67
772.745	474.77
773.185	401.32
773.625	385.62
774.065	421.07
774.505	603.67
774.944	1081.12
775.384	1562.02
775.824	1747.77
776.263	1433.47
776.703	767.72
777.142	435.97
777.582	329.97
778.021	296.42
778.461	283.47
778.9	279.67
779.34	273.47
779.779	266.77
780.219	263.42
780.658	252.87
781.097	256.72
781.537	251.57
781.976	246.92
782.415	239.97
782.855	245.47
783.294	239.87
783.733	237.22
784.172	242.57
784.611	244.87
785.05	251.67
785.489	253.97
785.928	266.52
786.367	275.27
786.806	284.02
787.245	306.77
787.684	316.52
788.123	312.92
788.562	304.47
789.001	294.67
789.44	287.07
789.879	283.37
790.317	290.42
790.756	305.12
791.195	354.07
791.634	473.92
792.072	841.72
792.511	2065.12
792.95	3789.92
793.388	4557.02
793.827	2963.42
794.265	1380.52
794.704	661.47
795.142	411.87
795.581	339.47
796.019	300.37
796.458	302.67
796.896	308.57
797.334	354.22
797.773	479.12
798.211	919.22
798.649	1898.82
799.087	3190.47
799.526	4487.52
799.964	4635.17
800.402	3195.02
800.84	1461.47
801.278	714.47
801.716	435.12
802.154	359.42
802.592	332.97
803.03	339.42
803.468	342.57
803.906	339.12
804.344	338.37
804.782	330.87
805.22	331.77
805.658	342.97
806.096	364.47
806.533	400.02
806.971	514.97
807.409	758.32
807.847	1506.82
808.284	3820.27
808.722	6689.87
809.16	9338.12
809.597	12672.12
810.035	15202.67
810.472	10210.42
810.91	4368.97
811.347	1965.32
811.785	928.87
812.222	591.02
812.66	449.12
813.097	384.52
813.535	333.52
813.972	304.32
814.409	278.62
814.846	272.72
815.284	253.27
815.721	265.27
816.158	290.17
816.595	393.72
817.032	505.07
817.47	453.87
817.907	334.92
818.344	285.82
818.781	280.72
819.218	348.42
819.655	529.72
820.092	699.82
820.529	626.97
820.966	487.92
821.403	331.72
821.839	284.62
822.276	315.82
822.713	381.92
823.15	352.72
823.587	361.32
824.023	630.87
824.46	1549.52
824.897	2703.07
825.333	2129.37
825.77	985.67
826.206	520.32
826.643	301.97
827.08	228.32
827.516	200.32
827.953	189.52
828.389	180.42
828.825	167.47
829.262	161.32
829.698	156.17
830.135	147.62
830.571	151.37
831.007	152.42
831.443	152.47
831.88	154.62
832.316	157.77
832.752	155.77
833.188	159.52
833.624	165.62
834.06	164.67
834.497	161.02
834.933	167.02
835.369	178.87
835.805	188.57
836.241	197.92
836.677	220.97
837.112	249.57
837.548	309.42
837.984	459.17
838.42	989.42
838.856	2729.57
839.292	5381.32
839.727	4029.42
840.163	2703.77
840.599	4092.22
841.034	6214.37
841.47	3152.02
841.906	1529.47
842.341	824.47
842.777	617.37
843.212	637.72
843.648	404.67
844.083	271.52
844.519	208.07
844.954	169.32
845.39	153.72
845.825	148.07
846.261	137.77
846.696	136.97
847.131	130.47
847.566	130.72
848.002	130.52
848.437	145.67
848.872	144.07
849.307	192.87
849.742	347.37
850.177	894.47
850.613	1890.07
851.048	1371.67
851.483	627.12
851.918	353.97
852.353	195.52
852.788	137.07
853.223	130.07
853.657	117.62
854.092	113.87
854.527	116.87
854.962	119.07
855.397	136.12
855.832	111.37
856.266	96.27
856.701	97.97
857.136	105.82
857.57	129.27
858.005	159.97
858.44	132.37
858.874	124.32
859.309	124.77
859.743	124.52
860.178	120.47
860.612	137.17
861.047	178.22
861.481	255.97
861.915	173.47
862.35	129.47
862.784	103.92
863.218	98.77
863.653	108.77
864.087	132.92
864.521	158.42
864.955	262.57
865.39	450.32
865.824	346.22
866.258	463.12
866.692	704.77
867.126	514.47
867.56	275.17
867.994	176.07
868.428	149.77
868.862	180.37
869.296	172.07
869.73	204.22
870.164	184.47
870.598	156.47
871.031	114.92
871.465	99.82
871.899	76.92
872.333	76.42
872.766	73.57
873.2	72.22
873.634	69.82
874.067	71.47
874.501	68.67
874.935	77.72
875.368	74.42
875.802	70.42
876.235	65.02
876.669	62.62
877.102	61.02
877.535	57.57
877.969	56.87
878.402	62.57
878.836	55.72
879.269	58.02
879.702	54.72
880.135	62.97
880.569	61.17
881.002	55.97
881.435	58.42
881.868	56.67
882.301	52.72
882.734	49.62
883.167	61.47
883.601	54.82
884.034	52.82
884.467	46.47
884.899	51.22
885.332	42.22
885.765	47.57
886.198	44.07
886.631	49.37
887.064	45.22
887.497	40.77
887.929	51.17
888.362	42.82
888.795	42.62
889.228	46.07
889.66	47.72
890.093	41.67
890.526	44.92
890.958	45.47
891.391	45.72
891.823	44.42
892.256	43.57
892.688	48.92
893.121	40.37
893.553	47.47
893.985	41.17
894.418	37.42
894.85	42.92
895.282	44.22
895.715	39.32
896.147	36.12
896.579	38.92
897.011	40.37
897.444	39.97
897.876	34.02
898.308	36.37
898.74	42.22
899.172	41.12
899.604	43.22
900.036	39.77
900.468	39.62
900.9	47.37
901.332	57.97
901.764	57.82
902.196	57.62
902.628	62.67
903.06	86.47
903.491	92.02
903.923	70.77
904.355	69.87
904.787	80.07
905.218	59.97
905.65	60.37
906.082	50.32
906.513	49.92
906.945	45.12
907.376	49.32
907.808	49.82
908.239	51.12
908.671	60.97
909.102	63.02
909.534	97.27
909.965	175.87
910.397	442.17
910.828	1265.82
911.259	776.62
911.691	415.97
912.122	248.32
912.553	124.07
912.984	70.27
913.415	64.97
913.847	51.07
914.278	50.27
914.709	42.22
915.14	42.37
915.571	45.02
916.002	46.52
916.433	39.47
916.864	40.07
917.295	47.37
917.726	48.72
918.157	60.57
918.587	61.72
919.018	60.57
919.449	55.37
919.88	66.92
920.311	93.77
920.741	261.27
921.172	461.12
921.603	238.57
922.033	151.12
922.464	96.67
922.895	63.32
923.325	45.82
923.756	41.92
924.186	53.27
924.617	77.97
925.047	109.22
925.478	93.42
925.908	69.72
926.338	52.32
926.769	38.52
927.199	39.02
927.629	35.52
928.06	37.77
928.49	37.17
928.92	32.42
929.35	26.72
929.78	25.62
930.21	22.77
930.641	19.67
931.071	27.12
931.501	23.92
931.931	25.77
932.361	20.22
932.791	30.07
933.221	27.92
933.651	38.32
934.08	60.97
934.51	38.87
934.94	31.97
935.37	23.42
935.8	22.42
936.229	21.12
936.659	22.02
937.089	39.22
937.519	60.92
937.948	80.17
938.378	47.87
938.807	26.97
939.237	16.82
939.666	21.72
940.096	12.32
940.525	10.37
940.955	11.57
941.384	11.37
941.814	12.07
942.243	13.87
942.672	8.87
943.102	6.77
943.531	8.22
943.96	5.37
944.39	17.37
944.819	12.87
945.248	11.32
945.677	11.92
946.106	9.07
946.535	12.27
946.964	7.77
947.393	5.97
947.822	8.52
948.251	14.42
948.68	12.92
949.109	11.27
949.538	2.42
949.967	7.32
950.396	11.37
950.825	8.97
951.254	9.77
951.682	5.27
952.111	4.72
952.54	10.22
952.969	9.22
953.397	4.87
953.826	4.67
954.254	13.57
954.683	8.97
955.112	12.07
955.54	5.12
955.969	7.12
956.397	8.92
956.826	8.22
957.254	8.22
957.682	9.77
958.111	5.77
958.539	6.97
958.967	10.62
959.396	9.77
959.824	7.87
960.252	9.82
960.68	8.97
961.109	12.22
961.537	12.62
961.965	1.47
962.393	10.77
962.821	10.42
963.249	7.17
963.677	18.32
964.105	76.52
964.533	132.42
964.961	67.87
965.389	39.77
965.817	27.37
966.245	11.42
966.672	10.37
967.1	7.37
967.528	7.12
967.956	1.37
968.383	8.52
968.811	2.52
969.239	11.32
969.666	6.27
970.094	4.62
970.522	4.82
970.949	1.27
971.377	-0.93
971.804	2.67
972.232	2.27
972.659	6.27
973.087	7.97
973.514	3.67
973.941	2.27
974.369	0.57
974.796	3.22
975.223	5.67
975.651	8.47
976.078	7.87
976.505	9.62
976.932	28.87
977.359	37.67
977.786	24.92
978.214	19.17
978.641	2.57
979.068	8.67
979.495	4.12
979.922	8.02
980.349	8.62
980.776	6.77
981.202	7.47
981.629	6.37
982.056	8.07
982.483	-1.33
982.91	10.42
983.337	3.12
983.763	5.22
984.19	6.62
984.617	2.02
985.043	7.12
985.47	6.02
985.897	7.47
986.323	6.77
986.75	1.92
987.176	1.67
987.603	-0.08
988.029	8.02
988.456	8.07
988.882	4.07
989.308	0.17
989.735	3.02
990.161	1.17
990.587	2.02
991.014	5.97
991.44	8.27
991.866	4.37
992.292	0.37
992.719	6.17
993.145	6.02
993.571	6.72
993.997	5.42
994.423	8.17
994.849	-3.08
995.275	5.42
995.701	5.62
996.127	-0.23
996.553	4.67
996.979	0.97
997.405	6.97
997.83	0.07
998.256	4.77
998.682	3.67
999.108	4.47
999.534	-2.38
999.959	2.22
1000.385	7.72
1000.811	-2.68
1001.236	-2.48
1001.662	-1.73
1002.087	9.12
1002.513	6.87
1002.938	-2.33
1003.364	6.92
1003.789	5.67
1004.215	4.07
1004.64	0.72
1005.066	2.92
1005.491	6.37
1005.916	2.22
1006.342	5.37
1006.767	7.42
1007.192	7.57
1007.617	3.12
1008.042	7.37
1008.468	4.22
1008.893	8.82
1009.318	12.42
1009.743	22.52
1010.168	28.17
1010.593	24.87
1011.018	16.77
1011.443	11.92
1011.868	10.72
1012.293	10.32
1012.718	6.02
1013.143	-3.28
1013.567	6.82
1013.992	5.32
1014.417	1.42
1014.842	0.82
1015.267	4.52
1015.691	2.97
1016.116	3.17
1016.541	6.02
1016.965	1.27
1017.39	2.62
1017.814	0.72
1018.239	-1.33
1018.663	-5.13
1019.088	-0.53
1019.512	7.47
1019.937	-2.88
1020.361	2.77
1020.785	1.17
1021.21	-2.68
1021.634	-1.58
1022.058	2.12
1022.483	-4.88
1022.907	-4.28
1023.331	2.62
1023.755	0.47
1024.179	2.72
1024.604	3.47
1025.028	2.17
1025.452	3.42
1025.876	3.12
1026.3	0.17
1026.724	-2.33
1027.148	2.97
1027.572	-1.73
1027.996	2.27
1028.42	1.77
1028.843	-1.98
1029.267	1.47
1029.691	1.57
1030.115	-0.38
1030.539	-4.98
1030.962	0.72
1031.386	1.82
1031.81	3.77
1032.233	0.52
1032.657	-8.38
1033.08	2.02
1033.504	-1.73
1033.927	2.62
1034.351	-1.68
1034.774	0.07
1035.198	-2.53
1035.621	2.42
1036.045	-2.58
1036.468	5.77
1036.891	2.87
1037.315	3.82
1037.738	0.02
1038.161	0.17
1038.584	1.12
1039.008	0.97
1039.431	-3.33
1039.854	-3.03
1040.277	2.42
1040.7	3.42
1041.123	-0.83
1041.546	-0.08
1041.969	2.12
1042.392	2.67
1042.815	-3.28
1043.238	-0.38
1043.661	0.62
1044.084	-1.43
1044.507	1.62
1044.93	-3.03
1045.352	1.27
1045.775	3.22
1046.198	1.82
1046.621	5.37
1047.043	2.92
1047.466	1.07
1047.889	-5.88
1048.311	4.82
1048.734	-1.98
1049.156	-2.08
1049.579	0.87
1050.001	-1.18
1050.424	-1.43
1050.846	-0.28
1051.269	-4.13
1051.691	-0.03
1052.113	3.32
1052.536	-1.43
1052.958	-4.08
1053.38	-3.03
1053.802	5.77
1054.225	-1.78
1054.647	0.72
1055.069	2.77
1055.491	3.17
1055.913	2.62
1056.335	-5.83
1056.757	-2.48
1057.179	-0.83
1057.601	-3.63
1058.023	-0.03
1058.445	-0.48
1058.867	4.27
1059.289	-2.98
1059.711	-0.18
1060.133	-1.83
1060.555	-4.88
1060.976	3.12
1061.398	-3.13
1061.82	-0.03
1062.241	-2.93
1062.663	-2.33
1063.085	-4.88
1063.506	-5.03
1063.928	-0.53
1064.35	1.07
1064.771	1.72
1065.193	-2.43
1065.614	-2.93
1066.035	2.97
1066.457	6.27
1066.878	4.72
1067.3	2.07
1067.721	4.32
1068.142	1.87
1068.564	3.52
1068.985	-4.48
1069.406	-1.48
1069.827	-1.18
1070.248	-0.43
1070.67	-3.43
1071.091	-4.58
1071.512	-3.18
1071.933	1.02
1072.354	-9.28
1072.775	0.37
1073.196	0.97
1073.617	-5.98
1074.038	-1.08
1074.459	-8.03
1074.88	-1.68
1075.3	0.27
1075.721	-0.68
1076.142	-6.23
1076.563	-5.08
1076.983	0.57
1077.404	-3.98
1077.825	-0.78
1078.246	-7.18
1078.666	1.32
1079.087	-2.68
1079.507	-4.23
1079.928	1.82
1080.348	-3.78
1080.769	-1.18
1081.189	-5.68
1081.61	-4.98
1082.03	1.62
1082.451	5.62
1082.871	-3.33
1083.291	-0.23
1083.711	-0.18
1084.132	-2.58
1084.552	-2.18
1084.972	-3.73
1085.392	-1.93
1085.813	1.52
1086.233	-1.58
1086.653	1.67
1087.073	-1.23
1087.493	-2.63
1087.913	-2.53
1088.333	-1.38
1088.753	-2.08
1089.173	-1.03
1089.593	-3.03
1090.013	-2.78
1090.433	-5.83
1090.852	-1.68
1091.272	-6.48
1091.692	-1.58
1092.112	-5.83
1092.531	-7.13
1092.951	-2.73
1093.371	-8.28
1093.79	-2.88
1094.21	-2.73
1094.63	-0.83
1095.049	-0.83
1095.469	-6.23
1095.888	2.47
1096.308	-1.58
1096.727	-2.43
1097.146	-3.18
1097.566	-1.33
1097.985	-3.28
1098.405	0.92
1098.824	5.52
1099.243	-3.63
1099.662	0.22
1100.082	-2.53
1100.501	-2.28
1100.92	5.47
1101.339	2.27
1101.758	4.27
