Data from MSPlasma+Separation6_Subt14_10-13-39-333.txt Node
Date: Fri Jul 21 10:13:39 EDT 2017
User: Ender
Spectrometer: HR+D1039
Trigger mode: 0
Integration Time (sec): 6.430000E-3
Scans to average: 20
Electric dark correction enabled: true
Nonlinearity correction enabled: false
Boxcar width: 0
XAxis mode: Wavelengths
Number of Pixels in Spectrum: 2048
>>>>>Begin Spectral Data<<<<<
187.836	-0.29
188.309	-0.29
188.782	-0.29
189.255	2.21
189.728	1.86
190.201	-3.79
190.674	-1.09
191.147	-4.39
191.619	1.11
192.092	-0.99
192.565	-0.44
193.038	1.41
193.511	3.46
193.984	-0.89
194.456	-0.49
194.929	2.91
195.402	-1.74
195.874	1.11
196.347	-2.44
196.82	0.21
197.292	-3.29
197.765	-0.79
198.237	-2.69
198.71	-7.39
199.182	-1.99
199.655	4.61
200.127	-0.84
200.6	-3.94
201.072	2.11
201.544	-2.69
202.017	-2.49
202.489	-1.49
202.961	-3.19
203.433	-2.14
203.906	-1.44
204.378	3.01
204.85	-1.09
205.322	-0.09
205.794	-0.19
206.266	-0.39
206.739	1.96
207.211	1.01
207.683	-1.89
208.155	0.56
208.627	-1.79
209.099	4.31
209.57	7.81
210.042	2.01
210.514	3.16
210.986	1.16
211.458	2.41
211.93	-1.89
212.402	-0.79
212.873	-4.59
213.345	-5.54
213.817	4.41
214.288	0.91
214.76	-1.84
215.232	0.61
215.703	0.26
216.175	4.01
216.646	0.36
217.118	6.86
217.589	-4.24
218.061	1.11
218.532	-4.29
219.004	3.36
219.475	1.81
219.946	4.46
220.418	3.66
220.889	3.01
221.36	5.41
221.832	1.56
222.303	4.41
222.774	5.66
223.245	1.66
223.717	3.41
224.188	1.56
224.659	5.96
225.13	-4.14
225.601	6.81
226.072	4.66
226.543	6.36
227.014	5.76
227.485	10.01
227.956	5.86
228.427	9.11
228.898	4.41
229.369	2.96
229.839	6.16
230.31	10.46
230.781	8.06
231.252	10.91
231.722	10.91
232.193	10.91
232.664	5.46
233.135	9.16
233.605	9.76
234.076	12.21
234.546	10.36
235.017	13.76
235.487	12.06
235.958	9.81
236.428	17.31
236.899	7.91
237.369	18.46
237.84	17.51
238.31	19.41
238.78	9.56
239.251	15.81
239.721	12.31
240.191	13.76
240.662	16.11
241.132	15.01
241.602	17.51
242.072	16.86
242.542	14.71
243.013	19.96
243.483	23.36
243.953	19.31
244.423	19.61
244.893	16.11
245.363	21.31
245.833	24.21
246.303	22.11
246.773	23.61
247.243	21.06
247.712	21.61
248.182	24.01
248.652	26.81
249.122	26.86
249.592	23.61
250.061	23.16
250.531	28.96
251.001	29.16
251.471	29.96
251.94	26.56
252.41	30.01
252.879	27.91
253.349	32.91
253.818	30.41
254.288	36.51
254.757	34.71
255.227	36.06
255.696	33.56
256.166	36.26
256.635	38.61
257.105	34.46
257.574	36.41
258.043	38.56
258.513	39.86
258.982	37.06
259.451	42.91
259.92	35.76
260.389	37.51
260.859	41.71
261.328	43.01
261.797	40.36
262.266	41.86
262.735	46.16
263.204	38.46
263.673	42.91
264.142	40.61
264.611	43.81
265.08	49.11
265.549	42.61
266.018	48.31
266.487	44.71
266.955	41.81
267.424	49.86
267.893	50.91
268.362	52.31
268.83	49.81
269.299	49.61
269.768	51.06
270.236	52.96
270.705	53.81
271.174	51.76
271.642	50.41
272.111	57.51
272.579	53.66
273.048	57.31
273.516	64.01
273.985	58.26
274.453	60.26
274.922	58.56
275.39	59.86
275.858	64.31
276.327	63.51
276.795	65.81
277.263	62.31
277.731	68.56
278.2	68.36
278.668	68.56
279.136	70.06
279.604	67.41
280.072	65.51
280.54	72.76
281.008	76.16
281.477	77.01
281.945	71.56
282.413	74.16
282.881	76.81
283.348	74.26
283.816	79.21
284.284	77.96
284.752	74.76
285.22	74.86
285.688	77.46
286.156	80.86
286.623	83.16
287.091	82.06
287.559	83.41
288.026	85.06
288.494	87.71
288.962	86.36
289.429	86.06
289.897	83.01
290.364	85.76
290.832	85.06
291.3	86.31
291.767	91.66
292.234	91.86
292.702	90.41
293.169	93.11
293.637	98.36
294.104	91.21
294.571	92.76
295.039	94.21
295.506	92.96
295.973	98.31
296.44	94.91
296.908	99.56
297.375	100.11
297.842	100.26
298.309	100.36
298.776	99.91
299.243	102.31
299.71	105.76
300.177	105.31
300.644	102.11
301.111	110.31
301.578	112.71
302.045	110.41
302.512	108.51
302.979	116.36
303.446	119.41
303.913	116.61
304.379	125.16
304.846	122.66
305.313	131.16
305.78	129.81
306.246	126.46
306.713	128.71
307.18	129.61
307.646	129.26
308.113	132.96
308.579	136.71
309.046	141.76
309.512	137.41
309.979	141.31
310.445	141.31
310.912	143.46
311.378	150.21
311.845	148.56
312.311	147.01
312.777	143.46
313.244	149.06
313.71	152.46
314.176	155.36
314.642	156.01
315.109	158.71
315.575	156.56
316.041	156.31
316.507	156.86
316.973	164.41
317.439	158.96
317.905	167.26
318.371	164.26
318.837	168.16
319.303	165.96
319.769	170.16
320.235	171.91
320.701	175.41
321.167	172.91
321.633	169.91
322.099	169.51
322.564	175.11
323.03	178.26
323.496	176.16
323.962	180.46
324.427	186.81
324.893	184.41
325.359	190.31
325.824	187.41
326.29	193.56
326.755	187.56
327.221	193.56
327.686	204.26
328.152	201.76
328.617	206.11
329.083	205.41
329.548	214.26
330.014	209.26
330.479	212.66
330.944	215.36
331.41	217.66
331.875	210.46
332.34	208.36
332.805	217.36
333.271	217.46
333.736	224.26
334.201	216.16
334.666	233.91
335.131	237.41
335.596	234.56
336.061	229.61
336.526	229.76
336.991	225.86
337.456	226.31
337.921	220.61
338.386	224.11
338.851	221.41
339.316	220.86
339.781	229.91
340.246	230.36
340.711	231.26
341.175	234.51
341.64	246.01
342.105	244.71
342.569	256.11
343.034	254.06
343.499	251.91
343.963	256.61
344.428	256.56
344.893	262.76
345.357	276.16
345.822	268.41
346.286	278.26
346.751	275.06
347.215	288.71
347.679	294.46
348.144	308.16
348.608	306.36
349.073	314.71
349.537	315.36
350.001	319.86
350.465	317.21
350.93	316.86
351.394	319.71
351.858	321.86
352.322	332.01
352.786	329.91
353.25	331.11
353.715	338.31
354.179	352.96
354.643	365.56
355.107	361.06
355.571	358.26
356.035	352.96
356.498	351.71
356.962	351.76
357.426	349.21
357.89	354.76
358.354	343.01
358.818	346.81
359.281	347.96
359.745	351.11
360.209	349.46
360.673	350.66
361.136	349.06
361.6	355.96
362.064	360.31
362.527	366.96
362.991	367.86
363.454	359.66
363.918	369.96
364.381	376.46
364.845	371.46
365.308	377.41
365.772	386.06
366.235	379.36
366.698	379.91
367.162	378.71
367.625	382.51
368.088	387.91
368.552	387.56
369.015	392.71
369.478	393.66
369.941	395.11
370.404	405.26
370.867	389.71
371.331	403.76
371.794	411.11
372.257	416.56
372.72	411.86
373.183	416.86
373.646	420.26
374.109	412.91
374.572	416.06
375.035	419.41
375.497	427.11
375.96	438.96
376.423	438.61
376.886	451.06
377.349	451.01
377.811	452.01
378.274	450.96
378.737	456.61
379.199	458.81
379.662	465.81
380.125	468.66
380.587	470.26
381.05	471.56
381.512	484.16
381.975	489.11
382.437	496.51
382.9	489.91
383.362	506.26
383.825	507.26
384.287	508.16
384.75	515.76
385.212	514.71
385.674	521.06
386.136	518.81
386.599	511.51
387.061	512.56
387.523	513.41
387.985	521.61
388.447	526.71
388.91	527.66
389.372	535.96
389.834	527.06
390.296	522.86
390.758	535.71
391.22	528.81
391.682	535.71
392.144	542.31
392.606	542.91
393.068	550.76
393.529	585.26
393.991	596.81
394.453	566.76
394.915	550.61
395.377	541.81
395.838	544.76
396.3	538.31
396.762	553.76
397.224	551.46
397.685	543.91
398.147	561.61
398.608	571.31
399.07	573.21
399.531	569.16
399.993	585.36
400.454	599.66
400.916	594.06
401.377	609.66
401.839	611.91
402.3	616.16
402.762	636.51
403.223	680.01
403.684	680.46
404.145	650.11
404.607	644.81
405.068	629.46
405.529	639.11
405.99	649.61
406.451	664.81
406.913	647.81
407.374	656.46
407.835	648.76
408.296	664.46
408.757	670.11
409.218	691.21
409.679	694.76
410.14	701.91
410.601	708.86
411.062	712.76
411.522	724.11
411.983	720.66
412.444	731.86
412.905	740.96
413.366	765.51
413.826	810.01
414.287	902.31
414.748	1078.96
415.208	1096.46
415.669	916.06
416.13	839.36
416.59	815.71
417.051	851.06
417.511	884.41
417.972	951.51
418.432	1027.76
418.893	1133.76
419.353	1084.16
419.814	833.56
420.274	753.41
420.734	739.71
421.195	765.96
421.655	766.61
422.115	775.96
422.576	772.86
423.036	775.56
423.496	804.21
423.956	830.51
424.416	892.06
424.876	997.26
425.336	997.61
425.797	975.56
426.257	963.21
426.717	915.31
427.177	840.76
427.637	854.01
428.097	883.91
428.556	915.81
429.016	976.21
429.476	984.11
429.936	967.86
430.396	958.96
430.856	981.46
431.315	1005.76
431.775	1079.76
432.235	1157.36
432.694	1176.66
433.154	1107.76
433.614	1091.76
434.073	1051.36
434.533	948.81
434.993	912.26
435.452	923.11
435.912	901.41
436.371	905.91
436.83	896.06
437.29	860.16
437.749	852.21
438.209	840.61
438.668	854.51
439.127	874.31
439.587	855.61
440.046	835.31
440.505	856.56
440.964	862.11
441.424	894.26
441.883	909.06
442.342	854.61
442.801	822.76
443.26	828.61
443.719	813.31
444.178	813.46
444.637	828.16
445.096	842.11
445.555	849.16
446.014	844.01
446.473	832.16
446.932	838.96
447.391	851.31
447.849	858.41
448.308	842.81
448.767	852.71
449.226	878.71
449.685	881.11
450.143	921.56
450.602	913.96
451.061	874.86
451.519	865.51
451.978	858.26
452.436	855.51
452.895	872.86
453.353	859.86
453.812	848.91
454.27	854.06
454.729	852.91
455.187	866.66
455.646	869.41
456.104	871.16
456.562	877.26
457.021	895.96
457.479	858.51
457.937	883.56
458.395	905.66
458.854	900.96
459.312	882.51
459.77	895.26
460.228	910.66
460.686	918.46
461.144	916.06
461.602	908.56
462.06	905.51
462.518	935.31
462.976	933.31
463.434	940.96
463.892	954.91
464.35	970.66
464.808	988.96
465.266	990.21
465.724	999.81
466.181	1007.46
466.639	1005.36
467.097	1049.01
467.555	1084.61
468.012	1071.51
468.47	1086.56
468.928	1117.21
469.385	1144.16
469.843	1162.21
470.3	1147.01
470.758	1185.61
471.215	1208.36
471.673	1234.96
472.13	1268.61
472.588	1285.46
473.045	1283.21
473.503	1305.21
473.96	1361.51
474.417	1381.16
474.875	1430.31
475.332	1483.96
475.789	1508.81
476.246	1549.91
476.704	1601.31
477.161	1654.71
477.618	1694.76
478.075	1773.96
478.532	1912.96
478.989	2056.96
479.446	2245.01
479.903	2346.06
480.36	2535.66
480.817	2672.26
481.274	2838.71
481.731	3084.41
482.188	3308.71
482.645	3549.11
483.102	3725.81
483.558	3977.86
484.015	4135.91
484.472	4111.11
484.929	3999.66
485.385	3856.71
485.842	3768.61
486.299	3627.36
486.755	3356.11
487.212	3042.66
487.668	2769.31
488.125	2580.61
488.582	2406.66
489.038	2321.41
489.494	2264.01
489.951	2185.71
490.407	2145.61
490.864	2116.76
491.32	2065.01
491.776	2053.81
492.233	2051.56
492.689	2023.31
493.145	1988.86
493.602	1967.41
494.058	1988.66
494.514	1990.31
494.97	1989.56
495.426	2017.06
495.882	2021.21
496.338	2012.31
496.794	2033.26
497.251	2013.96
497.707	2044.41
498.163	2050.01
498.618	2040.66
499.074	2042.46
499.53	2066.46
499.986	2079.16
500.442	2057.01
500.898	2033.61
501.354	2058.21
501.809	2059.81
502.265	2057.26
502.721	2061.51
503.177	2085.26
503.632	2083.16
504.088	2080.96
504.543	2121.01
504.999	2143.01
505.455	2127.61
505.91	2111.36
506.366	2120.21
506.821	2109.26
507.277	2106.81
507.732	2120.51
508.187	2113.61
508.643	2132.26
509.098	2136.41
509.553	2165.61
510.009	2189.21
510.464	2226.56
510.919	2247.31
511.375	2263.26
511.83	2278.06
512.285	2323.36
512.74	2368.96
513.195	2393.86
513.65	2431.86
514.105	2465.66
514.56	2471.11
515.015	2514.51
515.47	2517.71
515.925	2495.66
516.38	2486.66
516.835	2518.56
517.29	2494.46
517.745	2493.81
518.2	2455.26
518.655	2412.56
519.109	2382.56
519.564	2344.86
520.019	2324.26
520.474	2314.11
520.928	2292.61
521.383	2273.96
521.838	2272.86
522.292	2249.46
522.747	2237.16
523.201	2241.91
523.656	2210.21
524.11	2202.81
524.565	2190.56
525.019	2196.56
525.474	2192.26
525.928	2176.96
526.382	2177.41
526.837	2198.91
527.291	2183.31
527.745	2182.91
528.2	2182.16
528.654	2148.11
529.108	2161.41
529.562	2166.81
530.016	2153.36
530.47	2161.86
530.925	2166.26
531.379	2159.41
531.833	2179.36
532.287	2167.81
532.741	2158.36
533.195	2157.61
533.649	2162.16
534.103	2168.96
534.556	2149.11
535.01	2172.86
535.464	2161.11
535.918	2159.56
536.372	2179.41
536.826	2166.31
537.279	2146.11
537.733	2152.21
538.187	2162.11
538.64	2159.56
539.094	2171.86
539.548	2207.21
540.001	2197.06
540.455	2214.86
540.908	2223.01
541.362	2250.26
541.815	2260.01
542.269	2295.91
542.722	2293.46
543.175	2322.51
543.629	2329.61
544.082	2345.11
544.536	2374.86
544.989	2371.96
545.442	2391.91
545.895	2383.86
546.349	2388.26
546.802	2395.26
547.255	2396.01
547.708	2419.46
548.161	2436.36
548.614	2436.26
549.067	2453.26
549.52	2434.56
549.973	2403.51
550.426	2395.56
550.879	2403.06
551.332	2384.91
551.785	2408.61
552.238	2430.66
552.691	2430.71
553.144	2467.46
553.596	2495.01
554.049	2538.51
554.502	2592.36
554.955	2625.41
555.407	2654.91
555.86	2618.56
556.313	2589.31
556.765	2581.31
557.218	2537.61
557.67	2542.51
558.123	2510.41
558.576	2494.01
559.028	2484.16
559.48	2518.86
559.933	2496.01
560.385	2424.61
560.838	2346.01
561.29	2278.06
561.742	2285.26
562.195	2230.06
562.647	2197.16
563.099	2189.81
563.551	2180.61
564.004	2200.76
564.456	2181.06
564.908	2126.21
565.36	2083.81
565.812	2046.21
566.264	2028.76
566.716	2004.56
567.168	1968.76
567.62	1972.31
568.072	1953.51
568.524	1953.81
568.976	1936.96
569.428	1926.56
569.88	1918.41
570.332	1930.66
570.784	1929.96
571.235	1925.51
571.687	1946.81
572.139	1946.86
572.59	1964.31
573.042	1974.41
573.494	1966.51
573.945	1940.91
574.397	1909.41
574.849	1890.91
575.3	1907.16
575.752	1877.21
576.203	1851.11
576.655	1870.11
577.106	1846.16
577.557	1832.56
578.009	1817.26
578.46	1829.61
578.912	1805.11
579.363	1813.91
579.814	1809.96
580.265	1812.36
580.717	1823.91
581.168	1812.91
581.619	1819.61
582.07	1845.96
582.521	1832.26
582.972	1826.56
583.423	1843.91
583.875	1834.81
584.326	1857.41
584.777	1882.01
585.227	1912.61
585.678	1926.36
586.129	1955.31
586.58	1966.06
587.031	1993.46
587.482	2051.46
587.933	2079.06
588.384	2077.11
588.834	2053.91
589.285	2044.66
589.736	2048.31
590.186	2040.06
590.637	2029.06
591.088	1984.26
591.538	1942.31
591.989	1916.26
592.439	1894.01
592.89	1882.16
593.34	1868.66
593.791	1854.41
594.241	1841.81
594.692	1836.11
595.142	1843.41
595.593	1827.41
596.043	1844.21
596.493	1864.91
596.943	1858.91
597.394	1899.21
597.844	1935.06
598.294	1964.66
598.744	2046.01
599.195	2140.66
599.645	2251.36
600.095	2371.46
600.545	2469.86
600.995	2579.46
601.445	2677.01
601.895	2780.01
602.345	2875.36
602.795	2822.56
603.245	2741.36
603.695	2581.36
604.145	2440.36
604.594	2337.16
605.044	2225.81
605.494	2081.31
605.944	1971.76
606.393	1930.71
606.843	1883.01
607.293	1873.31
607.743	1870.36
608.192	1864.86
608.642	1870.46
609.091	1876.61
609.541	1865.21
609.99	1875.16
610.44	1837.66
610.889	1821.96
611.339	1794.06
611.788	1770.36
612.238	1775.01
612.687	1776.31
613.136	1795.61
613.586	1815.96
614.035	1804.01
614.484	1824.46
614.933	1810.16
615.383	1783.41
615.832	1742.26
616.281	1719.51
616.73	1694.01
617.179	1641.91
617.628	1619.21
618.077	1581.66
618.526	1565.71
618.975	1555.31
619.424	1525.51
619.873	1534.21
620.322	1512.16
620.771	1512.51
621.22	1483.96
621.669	1454.01
622.118	1448.26
622.567	1440.16
623.015	1408.56
623.464	1403.06
623.913	1383.96
624.361	1385.41
624.81	1382.31
625.259	1386.61
625.707	1373.66
626.156	1394.46
626.604	1408.61
627.053	1407.76
627.501	1403.66
627.95	1413.36
628.398	1427.06
628.847	1413.31
629.295	1406.81
629.744	1395.71
630.192	1369.81
630.64	1359.31
631.089	1336.81
631.537	1311.06
631.985	1293.41
632.433	1286.36
632.881	1273.21
633.33	1292.06
633.778	1285.76
634.226	1283.51
634.674	1305.46
635.122	1318.21
635.57	1333.11
636.018	1352.16
636.466	1343.26
636.914	1346.81
637.362	1376.91
637.81	1398.61
638.258	1431.31
638.705	1457.36
639.153	1503.81
639.601	1505.66
640.049	1544.41
640.497	1585.36
640.944	1621.91
641.392	1559.86
641.84	1472.56
642.287	1413.66
642.735	1375.71
643.182	1368.56
643.63	1366.81
644.078	1371.51
644.525	1386.51
644.973	1420.31
645.42	1446.91
645.867	1474.46
646.315	1511.81
646.762	1567.66
647.21	1608.96
647.657	1691.31
648.104	1731.51
648.551	1771.61
648.999	1902.76
649.446	2065.21
649.893	2302.56
650.34	2662.91
650.787	3246.81
651.234	4153.11
651.682	5662.11
652.129	7923.21
652.576	11248.71
653.023	14714.81
653.47	15532.56
653.917	15532.61
654.363	15532.51
654.81	15529.51
655.257	15530.16
655.704	14504.06
656.151	8864.51
656.598	5843.56
657.044	4208.76
657.491	3319.06
657.938	2714.11
658.385	2317.71
658.831	2061.41
659.278	1860.76
659.724	1709.96
660.171	1600.11
660.618	1492.36
661.064	1416.51
661.511	1370.81
661.957	1336.36
662.404	1306.56
662.85	1301.06
663.296	1281.06
663.743	1249.71
664.189	1235.06
664.635	1228.71
665.082	1201.01
665.528	1183.16
665.974	1151.71
666.42	1135.11
666.867	1127.06
667.313	1073.06
667.759	1061.51
668.205	1061.41
668.651	1058.71
669.097	1062.31
669.543	1062.26
669.989	1074.61
670.435	1072.41
670.881	1097.41
671.327	1132.41
671.773	1209.76
672.219	1291.86
672.665	1370.01
673.11	1421.51
673.556	1435.31
674.002	1470.51
674.448	1484.66
674.893	1284.71
675.339	1115.31
675.785	1027.81
676.23	973.31
676.676	934.16
677.122	911.61
677.567	886.76
678.013	864.11
678.458	855.31
678.904	852.91
679.349	838.06
679.794	838.86
680.24	837.21
680.685	829.31
681.131	828.51
681.576	828.51
682.021	840.86
682.466	841.26
682.912	845.16
683.357	895.21
683.802	969.11
684.247	1054.51
684.692	1126.86
685.137	1180.36
685.583	1199.51
686.028	1253.71
686.473	1194.01
686.918	1036.76
687.363	948.66
687.807	906.21
688.252	858.36
688.697	829.06
689.142	804.96
689.587	810.01
690.032	821.91
690.477	861.01
690.921	900.86
691.366	940.11
691.811	981.56
692.255	1060.86
692.7	1281.76
693.145	1834.86
693.589	2790.71
694.034	3361.71
694.478	3582.06
694.923	3303.41
695.367	4672.51
695.812	2851.71
696.256	1206.01
696.701	882.66
697.145	823.61
697.59	793.26
698.034	771.31
698.478	767.21
698.922	771.11
699.367	792.36
699.811	832.41
700.255	898.61
700.699	973.46
701.143	1064.66
701.588	1126.16
702.032	1179.36
702.476	1210.56
702.92	1296.71
703.364	1685.41
703.808	2565.56
704.252	3212.06
704.696	3410.36
705.14	3215.56
705.584	4413.21
706.027	2460.26
706.471	1246.81
706.915	924.86
707.359	830.96
707.803	774.01
708.246	738.46
708.69	733.81
709.134	726.31
709.577	720.81
710.021	729.76
710.465	727.56
710.908	721.21
711.352	756.16
711.795	824.31
712.239	892.41
712.682	911.71
713.126	898.56
713.569	1000.06
714.012	829.96
714.456	718.71
714.899	683.66
715.342	649.26
715.786	630.61
716.229	609.26
716.672	594.46
717.115	596.06
717.558	603.76
718.002	619.61
718.445	634.16
718.888	672.26
719.331	693.06
719.774	701.36
720.217	692.71
720.66	656.91
721.103	626.16
721.546	588.31
721.989	576.06
722.432	560.21
722.874	559.21
723.317	571.26
723.76	616.51
724.203	753.21
724.645	1006.31
725.088	1187.31
725.531	1164.36
725.974	1279.21
726.416	1150.01
726.859	709.26
727.301	590.76
727.744	558.71
728.187	560.06
728.629	568.71
729.071	602.76
729.514	627.36
729.956	659.11
730.399	666.26
730.841	662.91
731.283	650.26
731.726	637.51
732.168	645.36
732.61	675.56
733.053	726.01
733.495	803.41
733.937	897.66
734.379	1050.86
734.821	1332.26
735.263	2106.61
735.705	3777.76
736.148	5603.56
736.59	5656.06
737.032	6127.16
737.474	5053.01
737.916	1937.21
738.357	1019.26
738.799	777.16
739.241	728.46
739.683	727.01
740.125	752.71
740.567	762.46
741.008	812.76
741.45	855.06
741.892	899.91
742.334	907.81
742.775	905.46
743.217	870.56
743.658	730.56
744.1	754.11
744.542	864.76
744.983	908.96
745.425	951.96
745.866	926.51
746.307	755.56
746.749	795.11
747.19	1136.76
747.632	2215.41
748.073	4138.71
748.514	5750.66
748.956	7632.21
749.397	8976.41
749.838	6227.21
750.279	5902.21
750.72	3060.36
751.162	1302.26
751.603	749.91
752.044	596.11
752.485	529.26
752.926	494.51
753.367	480.51
753.808	461.16
754.249	466.36
754.69	451.91
755.131	442.21
755.572	445.51
756.013	440.56
756.453	442.46
756.894	452.56
757.335	451.76
757.776	455.56
758.216	473.61
758.657	510.96
759.098	555.61
759.538	670.41
759.979	969.21
760.42	1943.01
760.86	4970.61
761.301	10318.66
761.741	12276.56
762.182	14039.36
762.622	9175.81
763.063	3255.41
763.503	1338.71
763.943	783.96
764.384	623.41
764.824	541.41
765.264	499.76
765.705	471.01
766.145	446.06
766.585	430.31
767.025	408.91
767.465	416.86
767.906	429.11
768.346	453.41
768.786	514.41
769.226	761.31
769.666	1515.36
770.106	3427.06
770.546	4942.51
770.986	5609.86
771.426	4256.81
771.866	1764.36
772.306	796.31
772.745	491.86
773.185	418.71
773.625	407.81
774.065	446.71
774.505	632.56
774.944	1136.86
775.384	1656.86
775.824	1876.46
776.263	1540.51
776.703	813.91
777.142	462.56
777.582	340.86
778.021	316.26
778.461	304.66
778.9	294.21
779.34	282.96
779.779	280.21
780.219	276.56
780.658	263.16
781.097	271.06
781.537	258.26
781.976	258.46
782.415	257.16
782.855	256.01
783.294	255.31
783.733	246.11
784.172	252.56
784.611	252.81
785.05	266.81
785.489	269.91
785.928	279.81
786.367	284.06
786.806	297.91
787.245	327.16
787.684	335.61
788.123	336.06
788.562	322.11
789.001	306.51
789.44	303.56
789.879	297.96
790.317	306.46
790.756	320.71
791.195	371.36
791.634	493.96
792.072	880.06
792.511	2156.76
792.95	4051.51
793.388	4897.31
793.827	3201.71
794.265	1453.41
794.704	700.91
795.142	427.86
795.581	357.86
796.019	317.91
796.458	318.26
796.896	329.91
797.334	375.11
797.773	507.56
798.211	963.56
798.649	2008.71
799.087	3396.76
799.526	4801.91
799.964	4966.86
800.402	3428.21
800.84	1551.51
801.278	755.66
801.716	461.86
802.154	379.61
802.592	353.16
803.03	352.66
803.468	360.81
803.906	358.96
804.344	349.61
804.782	347.66
805.22	343.81
805.658	359.91
806.096	387.21
806.533	429.31
806.971	547.86
807.409	793.96
807.847	1578.96
808.284	4031.91
808.722	7085.86
809.16	9970.26
809.597	13398.66
810.035	15534.51
810.472	11010.86
810.91	4651.36
811.347	2067.01
811.785	979.46
812.222	623.96
812.66	473.66
813.097	405.01
813.535	353.91
813.972	319.06
814.409	294.01
814.846	280.81
815.284	265.41
815.721	276.16
816.158	305.51
816.595	418.16
817.032	530.06
817.47	487.11
817.907	346.71
818.344	301.21
818.781	301.76
819.218	369.41
819.655	559.91
820.092	738.96
820.529	666.96
820.966	530.71
821.403	354.86
821.839	297.61
822.276	335.51
822.713	402.41
823.15	371.96
823.587	379.31
824.023	666.76
824.46	1650.61
824.897	2910.01
825.333	2294.51
825.77	1044.16
826.206	546.36
826.643	319.46
827.08	238.66
827.516	210.06
827.953	199.21
828.389	184.61
828.825	182.01
829.262	170.36
829.698	164.46
830.135	159.36
830.571	152.41
831.007	162.11
831.443	156.46
831.88	157.01
832.316	165.91
832.752	159.91
833.188	166.76
833.624	167.96
834.06	169.96
834.497	169.36
834.933	175.01
835.369	187.76
835.805	197.36
836.241	203.46
836.677	226.96
837.112	263.06
837.548	327.56
837.984	485.11
838.42	1040.06
838.856	2896.76
839.292	5742.26
839.727	4344.31
840.163	2875.96
840.599	4347.91
841.034	6702.31
841.47	3396.46
841.906	1619.01
842.341	868.91
842.777	647.91
843.212	681.11
843.648	426.26
844.083	290.21
844.519	214.31
844.954	180.96
845.39	161.36
845.825	152.21
846.261	148.01
846.696	141.16
847.131	136.71
847.566	138.96
848.002	143.01
848.437	152.86
848.872	158.61
849.307	199.06
849.742	355.96
850.177	942.86
850.613	2024.11
851.048	1474.71
851.483	671.41
851.918	375.56
852.353	205.26
852.788	145.71
853.223	132.26
853.657	117.46
854.092	115.51
854.527	113.81
854.962	122.46
855.397	143.86
855.832	119.21
856.266	102.81
856.701	107.16
857.136	111.86
857.57	133.66
858.005	163.46
858.44	137.96
858.874	133.91
859.309	134.06
859.743	132.66
860.178	124.61
860.612	143.56
861.047	194.76
861.481	272.41
861.915	182.41
862.35	133.91
862.784	106.16
863.218	102.61
863.653	111.56
864.087	138.41
864.521	170.21
864.955	272.46
865.39	476.66
865.824	379.66
866.258	492.86
866.692	766.51
867.126	555.81
867.56	295.91
867.994	188.41
868.428	154.51
868.862	195.01
869.296	180.31
869.73	217.11
870.164	188.31
870.598	168.36
871.031	119.01
871.465	102.16
871.899	89.16
872.333	73.56
872.766	76.76
873.2	74.86
873.634	75.81
874.067	77.26
874.501	81.01
874.935	77.76
875.368	77.21
875.802	67.91
876.235	70.71
876.669	69.96
877.102	58.66
877.535	65.26
877.969	60.26
878.402	64.56
878.836	63.26
879.269	62.16
879.702	61.96
880.135	61.21
880.569	63.86
881.002	57.36
881.435	63.26
881.868	58.66
882.301	58.66
882.734	52.51
883.167	60.01
883.601	54.06
884.034	52.01
884.467	48.91
884.899	50.11
885.332	48.06
885.765	53.26
886.198	48.11
886.631	49.31
887.064	50.16
887.497	45.01
887.929	46.76
888.362	46.31
888.795	46.36
889.228	49.96
889.66	46.81
890.093	44.31
890.526	46.11
890.958	46.56
891.391	45.91
891.823	42.71
892.256	47.26
892.688	49.16
893.121	36.66
893.553	41.16
893.985	46.01
894.418	47.91
894.85	47.71
895.282	41.06
895.715	38.76
896.147	35.26
896.579	37.16
897.011	42.31
897.444	45.06
897.876	35.21
898.308	40.76
898.74	44.61
899.172	47.51
899.604	43.21
900.036	42.86
900.468	41.06
900.9	51.66
901.332	57.86
901.764	59.06
902.196	57.16
902.628	60.56
903.06	90.31
903.491	96.41
903.923	76.31
904.355	75.06
904.787	84.41
905.218	61.86
905.65	57.01
906.082	55.56
906.513	52.46
906.945	51.81
907.376	50.86
907.808	54.36
908.239	54.06
908.671	60.11
909.102	60.61
909.534	102.91
909.965	182.61
910.397	468.36
910.828	1354.26
911.259	836.36
911.691	453.91
912.122	260.16
912.553	133.46
912.984	79.41
913.415	65.06
913.847	60.91
914.278	54.31
914.709	48.61
915.14	43.11
915.571	46.41
916.002	49.46
916.433	45.66
916.864	42.96
917.295	46.56
917.726	52.21
918.157	62.01
918.587	66.06
919.018	60.26
919.449	60.31
919.88	67.26
920.311	103.86
920.741	281.71
921.172	495.71
921.603	251.46
922.033	157.11
922.464	101.86
922.895	64.06
923.325	50.16
923.756	37.61
924.186	52.46
924.617	80.46
925.047	115.21
925.478	102.86
925.908	74.31
926.338	55.66
926.769	44.46
927.199	42.61
927.629	39.26
928.06	41.36
928.49	36.16
928.92	32.81
929.35	34.71
929.78	27.86
930.21	25.66
930.641	19.96
931.071	24.01
931.501	23.31
931.931	25.31
932.361	25.51
932.791	29.41
933.221	25.31
933.651	37.16
934.08	68.06
934.51	36.61
934.94	34.11
935.37	25.96
935.8	20.96
936.229	22.16
936.659	22.21
937.089	39.81
937.519	60.91
937.948	87.36
938.378	49.61
938.807	27.06
939.237	18.61
939.666	22.11
940.096	13.11
940.525	10.56
940.955	16.21
941.384	7.76
941.814	10.56
942.243	10.66
942.672	11.71
943.102	9.86
943.531	7.06
943.96	6.41
944.39	8.36
944.819	9.51
945.248	7.16
945.677	10.01
946.106	9.41
946.535	11.46
946.964	6.91
947.393	4.76
947.822	3.91
948.251	14.91
948.68	14.41
949.109	4.01
949.538	6.76
949.967	8.66
950.396	8.01
950.825	11.51
951.254	6.41
951.682	6.06
952.111	5.66
952.54	9.11
952.969	4.36
953.397	5.56
953.826	5.36
954.254	10.21
954.683	10.76
955.112	9.51
955.54	10.36
955.969	8.96
956.397	7.46
956.826	6.06
957.254	10.01
957.682	5.46
958.111	11.56
958.539	5.61
958.967	3.61
959.396	9.26
959.824	7.91
960.252	10.21
960.68	5.66
961.109	8.81
961.537	10.96
961.965	7.36
962.393	7.96
962.821	7.91
963.249	12.51
963.677	16.06
964.105	85.46
964.533	148.26
964.961	72.56
965.389	40.76
965.817	23.96
966.245	12.96
966.672	5.66
967.1	11.16
967.528	0.61
967.956	4.56
968.383	4.16
968.811	4.36
969.239	6.56
969.666	8.11
970.094	9.56
970.522	-1.29
970.949	8.06
971.377	-1.34
971.804	1.41
972.232	3.36
972.659	2.61
973.087	6.26
973.514	2.06
973.941	4.71
974.369	2.46
974.796	4.71
975.223	3.36
975.651	5.36
976.078	6.91
976.505	11.36
976.932	33.31
977.359	42.21
977.786	31.11
978.214	18.76
978.641	7.46
979.068	4.11
979.495	7.51
979.922	7.36
980.349	3.41
980.776	5.26
981.202	2.26
981.629	7.01
982.056	6.46
982.483	0.61
982.91	7.61
983.337	-0.39
983.763	5.21
984.19	7.96
984.617	3.21
985.043	7.06
985.47	10.61
985.897	3.46
986.323	7.56
986.75	3.16
987.176	1.01
987.603	1.36
988.029	6.31
988.456	10.16
988.882	2.96
989.308	0.51
989.735	0.26
990.161	4.21
990.587	4.56
991.014	2.86
991.44	5.21
991.866	4.71
992.292	1.46
992.719	0.96
993.145	5.41
993.571	4.66
993.997	6.76
994.423	3.31
994.849	-4.59
995.275	5.81
995.701	2.51
996.127	-0.09
996.553	-0.64
996.979	-1.39
997.405	9.26
997.83	3.16
998.256	4.66
998.682	4.71
999.108	4.86
999.534	0.66
999.959	0.96
1000.385	8.81
1000.811	-1.04
1001.236	-1.84
1001.662	4.31
1002.087	6.91
1002.513	2.46
1002.938	-0.24
1003.364	1.41
1003.789	2.01
1004.215	1.21
1004.64	0.26
1005.066	6.31
1005.491	7.16
1005.916	3.01
1006.342	5.81
1006.767	3.46
1007.192	2.41
1007.617	4.76
1008.042	0.51
1008.468	8.61
1008.893	5.76
1009.318	13.81
1009.743	19.41
1010.168	35.21
1010.593	22.76
1011.018	16.16
1011.443	7.61
1011.868	7.36
1012.293	5.81
1012.718	2.11
1013.143	-0.64
1013.567	3.66
1013.992	5.66
1014.417	5.61
1014.842	-1.49
1015.267	0.86
1015.691	7.56
1016.116	0.11
1016.541	3.01
1016.965	-0.04
1017.39	3.76
1017.814	-3.09
1018.239	1.36
1018.663	-3.94
1019.088	1.81
1019.512	4.51
1019.937	-3.54
1020.361	-4.39
1020.785	-0.44
1021.21	-1.29
1021.634	2.01
1022.058	3.16
1022.483	-3.94
1022.907	-0.39
1023.331	-1.49
1023.755	-0.74
1024.179	-0.39
1024.604	1.41
1025.028	2.06
1025.452	6.86
1025.876	1.66
1026.3	-0.34
1026.724	-2.59
1027.148	1.21
1027.572	0.76
1027.996	0.76
1028.42	0.86
1028.843	-0.59
1029.267	4.31
1029.691	1.31
1030.115	-1.79
1030.539	3.41
1030.962	-1.44
1031.386	0.76
1031.81	1.21
1032.233	-3.34
1032.657	-8.39
1033.08	-1.09
1033.504	-2.94
1033.927	-2.79
1034.351	-2.34
1034.774	-4.49
1035.198	-0.39
1035.621	0.71
1036.045	-0.99
1036.468	7.71
1036.891	0.41
1037.315	1.61
1037.738	2.21
1038.161	0.76
1038.584	0.91
1039.008	-2.74
1039.431	-1.04
1039.854	-4.29
1040.277	3.51
1040.7	-2.99
1041.123	-2.09
1041.546	0.51
1041.969	3.61
1042.392	2.66
1042.815	-5.99
1043.238	-3.54
1043.661	-3.59
1044.084	-4.99
1044.507	-1.69
1044.93	1.26
1045.352	1.56
1045.775	-0.94
1046.198	1.16
1046.621	5.46
1047.043	0.36
1047.466	0.61
1047.889	-2.99
1048.311	0.71
1048.734	-4.94
1049.156	-4.64
1049.579	-3.29
1050.001	-1.89
1050.424	-0.29
1050.846	-4.09
1051.269	-5.59
1051.691	3.46
1052.113	-3.89
1052.536	-4.44
1052.958	-5.84
1053.38	4.96
1053.802	0.36
1054.225	1.16
1054.647	1.51
1055.069	0.76
1055.491	-0.74
1055.913	-0.14
1056.335	-7.84
1056.757	-3.24
1057.179	0.06
1057.601	-0.89
1058.023	1.61
1058.445	-7.24
1058.867	0.41
1059.289	1.41
1059.711	-4.89
1060.133	-0.09
1060.555	-3.79
1060.976	6.26
1061.398	-2.39
1061.82	-3.49
1062.241	-3.19
1062.663	-4.79
1063.085	-8.19
1063.506	-6.89
1063.928	-4.09
1064.35	-4.44
1064.771	-0.04
1065.193	-3.79
1065.614	0.06
1066.035	4.16
1066.457	1.96
1066.878	3.66
1067.3	-0.59
1067.721	0.01
1068.142	1.21
1068.564	-0.14
1068.985	-3.19
1069.406	-6.14
1069.827	-2.69
1070.248	-5.14
1070.67	-1.39
1071.091	-9.74
1071.512	-3.64
1071.933	-4.79
1072.354	-6.04
1072.775	-4.64
1073.196	-1.04
1073.617	-6.84
1074.038	-1.09
1074.459	-5.59
1074.88	-2.04
1075.3	-1.99
1075.721	1.86
1076.142	2.36
1076.563	-4.24
1076.983	1.06
1077.404	-6.04
1077.825	-2.09
1078.246	-5.94
1078.666	-4.69
1079.087	1.31
1079.507	-6.04
1079.928	-3.49
1080.348	-4.19
1080.769	-0.59
1081.189	-1.99
1081.61	-5.84
1082.03	-1.99
1082.451	-3.89
1082.871	-7.44
1083.291	-1.54
1083.711	-3.34
1084.132	-6.79
1084.552	-7.89
1084.972	-6.74
1085.392	-7.04
1085.813	-1.84
1086.233	-2.24
1086.653	-0.19
1087.073	-3.74
1087.493	-7.29
1087.913	-7.04
1088.333	-0.79
1088.753	-4.74
1089.173	-2.94
1089.593	1.11
1090.013	-5.44
1090.433	-8.59
1090.852	-0.19
1091.272	-3.84
1091.692	-5.44
1092.112	-5.44
1092.531	-5.24
1092.951	-3.24
1093.371	-1.19
1093.79	-4.14
1094.21	-3.34
1094.63	-1.64
1095.049	-3.54
1095.469	-6.09
1095.888	-2.94
1096.308	1.06
1096.727	-3.99
1097.146	-6.34
1097.566	-4.84
1097.985	-1.94
1098.405	-4.34
1098.824	-4.54
1099.243	-5.14
1099.662	-3.39
1100.082	-3.34
1100.501	-2.94
1100.92	3.91
1101.339	-0.39
1101.758	9.71
