Data from MSPlasma+Separation6_Subt14_10-13-32-132.txt Node
Date: Fri Jul 21 10:13:32 EDT 2017
User: Ender
Spectrometer: HR+D1039
Trigger mode: 0
Integration Time (sec): 6.430000E-3
Scans to average: 20
Electric dark correction enabled: true
Nonlinearity correction enabled: false
Boxcar width: 0
XAxis mode: Wavelengths
Number of Pixels in Spectrum: 2048
>>>>>Begin Spectral Data<<<<<
187.836	-0.26
188.309	-0.26
188.782	-0.26
189.255	3.09
189.728	1.84
190.201	-1.01
190.674	0.79
191.147	-5.71
191.619	-1.76
192.092	-1.06
192.565	0.79
193.038	3.24
193.511	2.19
193.984	-0.86
194.456	-2.31
194.929	0.24
195.402	-0.26
195.874	0.99
196.347	1.24
196.82	-4.21
197.292	1.04
197.765	-1.71
198.237	-3.26
198.71	-3.21
199.182	-1.21
199.655	-0.96
200.127	1.44
200.6	0.34
201.072	4.64
201.544	-0.26
202.017	2.39
202.489	1.24
202.961	1.59
203.433	-3.96
203.906	0.34
204.378	2.44
204.85	2.44
205.322	-1.31
205.794	-1.06
206.266	-0.86
206.739	3.99
207.211	-0.36
207.683	0.84
208.155	4.24
208.627	-1.61
209.099	6.59
209.57	2.54
210.042	1.14
210.514	3.89
210.986	-0.76
211.458	-0.31
211.93	2.29
212.402	2.84
212.873	-3.66
213.345	-4.26
213.817	2.99
214.288	-0.46
214.76	1.84
215.232	-1.06
215.703	3.29
216.175	-0.91
216.646	2.54
217.118	3.24
217.589	-1.26
218.061	0.19
218.532	-0.51
219.004	3.39
219.475	7.19
219.946	2.29
220.418	7.69
220.889	2.59
221.36	7.29
221.832	2.94
222.303	5.24
222.774	2.89
223.245	4.49
223.717	2.49
224.188	6.34
224.659	3.84
225.13	3.64
225.601	7.29
226.072	6.39
226.543	6.54
227.014	5.14
227.485	7.74
227.956	4.44
228.427	13.14
228.898	5.34
229.369	9.49
229.839	7.94
230.31	11.29
230.781	10.64
231.252	9.59
231.722	8.99
232.193	9.99
232.664	12.49
233.135	12.84
233.605	10.89
234.076	16.34
234.546	13.39
235.017	13.04
235.487	15.09
235.958	10.84
236.428	15.14
236.899	12.99
237.369	17.19
237.84	17.04
238.31	20.39
238.78	9.64
239.251	17.34
239.721	12.79
240.191	14.94
240.662	17.69
241.132	13.89
241.602	15.74
242.072	18.64
242.542	18.29
243.013	15.54
243.483	19.64
243.953	16.44
244.423	18.59
244.893	19.59
245.363	21.74
245.833	21.44
246.303	23.54
246.773	27.14
247.243	23.24
247.712	26.29
248.182	22.89
248.652	28.84
249.122	24.19
249.592	24.19
250.061	28.74
250.531	29.54
251.001	24.79
251.471	25.49
251.94	29.49
252.41	27.44
252.879	31.29
253.349	34.69
253.818	29.14
254.288	33.49
254.757	30.99
255.227	28.39
255.696	33.64
256.166	35.89
256.635	35.59
257.105	34.89
257.574	35.14
258.043	38.24
258.513	36.89
258.982	38.59
259.451	41.24
259.92	36.74
260.389	42.39
260.859	43.34
261.328	42.94
261.797	39.24
262.266	41.89
262.735	45.09
263.204	40.04
263.673	43.59
264.142	41.09
264.611	44.79
265.08	47.19
265.549	47.74
266.018	43.24
266.487	40.59
266.955	39.24
267.424	51.24
267.893	52.89
268.362	51.19
268.83	49.89
269.299	49.49
269.768	50.44
270.236	53.99
270.705	56.89
271.174	56.99
271.642	55.44
272.111	55.89
272.579	58.84
273.048	57.49
273.516	56.39
273.985	56.79
274.453	55.99
274.922	56.94
275.39	56.29
275.858	60.54
276.327	55.89
276.795	65.54
277.263	62.29
277.731	65.99
278.2	66.74
278.668	68.64
279.136	66.89
279.604	65.79
280.072	66.29
280.54	66.44
281.008	72.84
281.477	71.64
281.945	73.54
282.413	73.44
282.881	75.19
283.348	67.64
283.816	72.29
284.284	76.99
284.752	78.99
285.22	80.94
285.688	82.19
286.156	80.09
286.623	82.54
287.091	80.54
287.559	79.09
288.026	83.39
288.494	84.99
288.962	82.49
289.429	85.89
289.897	85.54
290.364	81.29
290.832	84.99
291.3	88.09
291.767	91.34
292.234	91.34
292.702	87.54
293.169	96.04
293.637	93.04
294.104	98.99
294.571	90.29
295.039	97.29
295.506	91.34
295.973	94.59
296.44	91.59
296.908	99.09
297.375	96.74
297.842	97.99
298.309	99.09
298.776	99.84
299.243	103.34
299.71	103.69
300.177	107.59
300.644	104.54
301.111	105.74
301.578	111.39
302.045	109.89
302.512	114.24
302.979	110.84
303.446	116.04
303.913	117.49
304.379	121.39
304.846	121.79
305.313	132.54
305.78	131.84
306.246	130.84
306.713	124.59
307.18	131.89
307.646	133.74
308.113	132.39
308.579	135.49
309.046	142.84
309.512	137.64
309.979	141.89
310.445	137.74
310.912	144.24
311.378	149.59
311.845	143.64
312.311	143.79
312.777	146.69
313.244	150.04
313.71	157.54
314.176	158.14
314.642	155.49
315.109	159.24
315.575	156.54
316.041	155.84
316.507	159.14
316.973	161.39
317.439	164.04
317.905	169.59
318.371	165.84
318.837	165.04
319.303	166.99
319.769	167.49
320.235	175.39
320.701	179.89
321.167	163.09
321.633	174.84
322.099	170.39
322.564	175.84
323.03	179.69
323.496	176.44
323.962	182.59
324.427	186.39
324.893	185.14
325.359	186.74
325.824	191.69
326.29	190.64
326.755	189.19
327.221	198.39
327.686	205.84
328.152	203.84
328.617	201.19
329.083	206.34
329.548	209.39
330.014	213.39
330.479	209.44
330.944	210.74
331.41	223.79
331.875	215.39
332.34	213.49
332.805	224.04
333.271	224.94
333.736	218.09
334.201	221.39
334.666	238.74
335.131	238.59
335.596	230.39
336.061	224.94
336.526	231.44
336.991	225.39
337.456	221.54
337.921	223.34
338.386	228.79
338.851	225.29
339.316	225.54
339.781	226.34
340.246	237.89
340.711	233.59
341.175	239.54
341.64	245.94
342.105	243.29
342.569	261.59
343.034	253.74
343.499	251.64
343.963	262.34
344.428	263.04
344.893	262.84
345.357	270.24
345.822	268.84
346.286	274.44
346.751	283.69
347.215	287.19
347.679	296.94
348.144	310.69
348.608	312.99
349.073	315.54
349.537	320.64
350.001	319.04
350.465	317.94
350.93	322.69
351.394	327.89
351.858	325.09
352.322	333.44
352.786	335.69
353.25	335.49
353.715	338.19
354.179	353.64
354.643	363.04
355.107	373.29
355.571	359.94
356.035	363.99
356.498	358.39
356.962	354.89
357.426	351.64
357.89	356.69
358.354	349.39
358.818	344.14
359.281	354.49
359.745	351.49
360.209	351.59
360.673	350.44
361.136	348.09
361.6	357.99
362.064	367.59
362.527	375.94
362.991	372.49
363.454	366.64
363.918	375.04
364.381	384.09
364.845	377.94
365.308	378.49
365.772	387.74
366.235	380.14
366.698	389.69
367.162	383.19
367.625	393.64
368.088	404.04
368.552	392.04
369.015	391.39
369.478	398.09
369.941	406.59
370.404	408.29
370.867	404.34
371.331	406.54
371.794	413.64
372.257	419.79
372.72	417.59
373.183	427.94
373.646	420.54
374.109	420.64
374.572	425.14
375.035	435.24
375.497	440.59
375.96	440.19
376.423	445.29
376.886	454.74
377.349	463.19
377.811	457.19
378.274	467.44
378.737	457.89
379.199	463.59
379.662	470.74
380.125	469.44
380.587	480.64
381.05	488.59
381.512	488.09
381.975	498.69
382.437	509.99
382.9	509.64
383.362	512.64
383.825	518.09
384.287	515.34
384.75	515.09
385.212	523.04
385.674	524.89
386.136	535.39
386.599	527.69
387.061	524.79
387.523	532.29
387.985	536.89
388.447	536.84
388.91	535.14
389.372	541.49
389.834	546.89
390.296	537.59
390.758	548.79
391.22	534.69
391.682	547.04
392.144	550.74
392.606	546.19
393.068	562.59
393.529	594.49
393.991	605.59
394.453	572.39
394.915	562.79
395.377	548.74
395.838	553.79
396.3	563.44
396.762	565.79
397.224	557.84
397.685	565.04
398.147	575.24
398.608	577.74
399.07	581.24
399.531	583.24
399.993	600.59
400.454	613.24
400.916	598.54
401.377	622.24
401.839	625.14
402.3	624.99
402.762	647.44
403.223	690.84
403.684	692.64
404.145	667.69
404.607	654.34
405.068	642.94
405.529	658.24
405.99	669.84
406.451	675.94
406.913	666.84
407.374	669.99
407.835	671.54
408.296	694.29
408.757	688.24
409.218	712.14
409.679	719.04
410.14	715.64
410.601	736.49
411.062	737.84
411.522	740.94
411.983	738.39
412.444	741.89
412.905	760.49
413.366	784.34
413.826	820.64
414.287	916.49
414.748	1086.34
415.208	1105.74
415.669	930.54
416.13	849.24
416.59	834.59
417.051	859.49
417.511	892.39
417.972	960.49
418.432	1024.94
418.893	1139.94
419.353	1097.24
419.814	851.79
420.274	762.84
420.734	754.19
421.195	781.29
421.655	776.09
422.115	784.89
422.576	779.04
423.036	793.14
423.496	818.84
423.956	852.94
424.416	908.39
424.876	1009.59
425.336	1006.84
425.797	993.14
426.257	988.49
426.717	934.44
427.177	870.84
427.637	877.34
428.097	911.49
428.556	947.24
429.016	1010.89
429.476	1019.14
429.936	1003.99
430.396	1008.14
430.856	1030.84
431.315	1044.64
431.775	1121.99
432.235	1200.09
432.694	1220.14
433.154	1154.44
433.614	1125.99
434.073	1082.09
434.533	980.74
434.993	946.44
435.452	951.79
435.912	931.34
436.371	932.04
436.83	917.04
437.29	895.64
437.749	873.29
438.209	867.79
438.668	882.39
439.127	890.94
439.587	878.89
440.046	854.24
440.505	866.54
440.964	874.94
441.424	905.44
441.883	923.44
442.342	865.94
442.801	829.54
443.26	844.14
443.719	834.59
444.178	826.59
444.637	847.14
445.096	846.39
445.555	857.94
446.014	862.04
446.473	850.59
446.932	849.99
447.391	864.64
447.849	874.19
448.308	860.14
448.767	860.99
449.226	882.29
449.685	888.54
450.143	933.34
450.602	927.89
451.061	880.79
451.519	878.44
451.978	863.84
452.436	871.39
452.895	877.39
453.353	878.84
453.812	860.69
454.27	862.69
454.729	857.44
455.187	882.24
455.646	885.04
456.104	880.09
456.562	895.99
457.021	899.99
457.479	862.59
457.937	900.59
458.395	915.64
458.854	910.79
459.312	883.99
459.77	913.64
460.228	923.64
460.686	926.54
461.144	935.94
461.602	920.74
462.06	923.54
462.518	941.24
462.976	946.64
463.434	951.99
463.892	962.24
464.35	989.44
464.808	991.84
465.266	1007.89
465.724	1015.89
466.181	1019.19
466.639	1012.64
467.097	1057.54
467.555	1091.94
468.012	1089.74
468.47	1096.19
468.928	1139.09
469.385	1172.04
469.843	1182.54
470.3	1174.49
470.758	1206.59
471.215	1223.49
471.673	1247.94
472.13	1293.19
472.588	1309.24
473.045	1307.54
473.503	1345.59
473.96	1387.54
474.417	1404.94
474.875	1457.29
475.332	1521.74
475.789	1544.39
476.246	1593.44
476.704	1658.44
477.161	1706.34
477.618	1750.59
478.075	1853.64
478.532	1995.59
478.989	2146.24
479.446	2364.89
479.903	2496.64
480.36	2713.54
480.817	2871.34
481.274	3061.39
481.731	3337.44
482.188	3573.49
482.645	3840.99
483.102	4061.34
483.558	4324.44
484.015	4515.89
484.472	4475.09
484.929	4337.84
485.385	4151.39
485.842	4068.24
486.299	3923.14
486.755	3610.79
487.212	3240.04
487.668	2934.74
488.125	2721.99
488.582	2526.04
489.038	2417.84
489.494	2356.79
489.951	2274.34
490.407	2209.14
490.864	2171.39
491.32	2125.89
491.776	2106.19
492.233	2099.69
492.689	2079.44
493.145	2036.24
493.602	2004.39
494.058	2023.99
494.514	2024.84
494.97	2029.54
495.426	2050.64
495.882	2049.74
496.338	2045.69
496.794	2052.54
497.251	2039.09
497.707	2071.69
498.163	2077.99
498.618	2079.74
499.074	2063.69
499.53	2097.79
499.986	2100.84
500.442	2094.19
500.898	2066.39
501.354	2095.74
501.809	2097.39
502.265	2092.79
502.721	2098.44
503.177	2095.94
503.632	2113.04
504.088	2116.84
504.543	2134.24
504.999	2174.59
505.455	2155.59
505.91	2141.09
506.366	2129.09
506.821	2145.14
507.277	2120.49
507.732	2145.29
508.187	2140.84
508.643	2159.54
509.098	2165.29
509.553	2187.39
510.009	2212.99
510.464	2253.99
510.919	2264.89
511.375	2284.44
511.83	2305.69
512.285	2348.94
512.74	2400.19
513.195	2417.29
513.65	2459.44
514.105	2488.09
514.56	2482.84
515.015	2532.14
515.47	2534.34
515.925	2507.74
516.38	2510.19
516.835	2531.49
517.29	2515.79
517.745	2508.34
518.2	2485.04
518.655	2425.99
519.109	2402.59
519.564	2372.44
520.019	2352.29
520.474	2329.09
520.928	2321.14
521.383	2297.44
521.838	2308.39
522.292	2275.54
522.747	2257.49
523.201	2271.34
523.656	2217.64
524.11	2236.29
524.565	2215.49
525.019	2229.09
525.474	2221.54
525.928	2212.09
526.382	2212.59
526.837	2215.84
527.291	2233.64
527.745	2209.09
528.2	2198.64
528.654	2178.74
529.108	2181.74
529.562	2185.44
530.016	2184.64
530.47	2182.24
530.925	2176.89
531.379	2180.39
531.833	2206.64
532.287	2191.89
532.741	2180.34
533.195	2183.39
533.649	2192.59
534.103	2206.99
534.556	2180.54
535.01	2187.34
535.464	2169.64
535.918	2180.99
536.372	2201.44
536.826	2192.84
537.279	2167.64
537.733	2177.24
538.187	2187.19
538.64	2178.34
539.094	2200.94
539.548	2233.59
540.001	2236.59
540.455	2236.04
540.908	2244.54
541.362	2261.54
541.815	2282.69
542.269	2347.84
542.722	2320.14
543.175	2351.09
543.629	2344.84
544.082	2378.39
544.536	2402.74
544.989	2403.14
545.442	2411.74
545.895	2415.84
546.349	2415.24
546.802	2419.04
547.255	2409.14
547.708	2436.99
548.161	2449.09
548.614	2456.99
549.067	2468.99
549.52	2451.74
549.973	2415.29
550.426	2418.09
550.879	2410.29
551.332	2412.49
551.785	2425.84
552.238	2454.04
552.691	2451.49
553.144	2489.64
553.596	2526.49
554.049	2567.54
554.502	2611.59
554.955	2646.89
555.407	2675.04
555.86	2642.39
556.313	2607.34
556.765	2600.24
557.218	2573.44
557.67	2561.74
558.123	2523.24
558.576	2512.59
559.028	2509.19
559.48	2539.44
559.933	2519.34
560.385	2459.69
560.838	2378.44
561.29	2314.29
561.742	2301.49
562.195	2242.14
562.647	2233.89
563.099	2215.69
563.551	2193.64
564.004	2227.74
564.456	2201.34
564.908	2152.04
565.36	2106.99
565.812	2076.74
566.264	2062.99
566.716	2032.19
567.168	2002.24
567.62	2001.59
568.072	1982.84
568.524	1964.34
568.976	1958.04
569.428	1946.89
569.88	1936.09
570.332	1960.04
570.784	1957.89
571.235	1935.94
571.687	1961.89
572.139	1969.49
572.59	1982.24
573.042	1990.84
573.494	1987.14
573.945	1962.39
574.397	1933.84
574.849	1922.14
575.3	1925.59
575.752	1895.59
576.203	1881.34
576.655	1883.99
577.106	1858.49
577.557	1843.69
578.009	1845.84
578.46	1857.89
578.912	1830.04
579.363	1847.04
579.814	1841.69
580.265	1842.29
580.717	1849.04
581.168	1837.54
581.619	1855.49
582.07	1865.09
582.521	1845.09
582.972	1849.59
583.423	1855.24
583.875	1872.54
584.326	1880.84
584.777	1914.29
585.227	1941.89
585.678	1958.39
586.129	1977.39
586.58	2002.39
587.031	2022.34
587.482	2082.39
587.933	2113.14
588.384	2111.64
588.834	2091.44
589.285	2069.54
589.736	2063.14
590.186	2059.39
590.637	2046.79
591.088	2007.39
591.538	1964.04
591.989	1936.19
592.439	1923.04
592.89	1896.74
593.34	1892.89
593.791	1877.59
594.241	1862.34
594.692	1863.34
595.142	1863.04
595.593	1852.09
596.043	1873.39
596.493	1887.39
596.943	1887.04
597.394	1942.29
597.844	1964.69
598.294	2001.69
598.744	2069.59
599.195	2159.19
599.645	2276.74
600.095	2399.59
600.545	2494.49
600.995	2604.59
601.445	2691.44
601.895	2810.24
602.345	2894.34
602.795	2857.44
603.245	2753.24
603.695	2609.89
604.145	2469.59
604.594	2350.79
605.044	2236.49
605.494	2090.89
605.944	1976.89
606.393	1942.94
606.843	1921.69
607.293	1901.34
607.743	1890.74
608.192	1889.24
608.642	1901.24
609.091	1890.89
609.541	1896.34
609.99	1894.59
610.44	1856.94
610.889	1838.49
611.339	1813.24
611.788	1784.09
612.238	1806.34
612.687	1816.19
613.136	1804.29
613.586	1836.74
614.035	1824.84
614.484	1847.44
614.933	1836.39
615.383	1813.04
615.832	1763.59
616.281	1746.24
616.73	1698.49
617.179	1658.59
617.628	1639.64
618.077	1609.39
618.526	1586.29
618.975	1573.79
619.424	1549.74
619.873	1556.14
620.322	1529.84
620.771	1529.99
621.22	1505.89
621.669	1473.64
622.118	1465.34
622.567	1448.79
623.015	1419.99
623.464	1425.04
623.913	1405.29
624.361	1416.79
624.81	1394.29
625.259	1410.29
625.707	1393.04
626.156	1402.89
626.604	1426.89
627.053	1430.49
627.501	1422.99
627.95	1424.24
628.398	1443.19
628.847	1428.49
629.295	1424.19
629.744	1409.99
630.192	1391.04
630.64	1370.44
631.089	1356.69
631.537	1322.24
631.985	1308.34
632.433	1306.44
632.881	1293.09
633.33	1299.09
633.778	1306.14
634.226	1306.99
634.674	1329.19
635.122	1337.99
635.57	1350.49
636.018	1377.54
636.466	1371.99
636.914	1374.44
637.362	1389.94
637.81	1420.59
638.258	1467.69
638.705	1484.04
639.153	1529.19
639.601	1550.89
640.049	1564.39
640.497	1599.79
640.944	1647.44
641.392	1594.89
641.84	1508.19
642.287	1444.79
642.735	1413.29
643.182	1397.89
643.63	1404.64
644.078	1414.99
644.525	1428.49
644.973	1472.69
645.42	1495.24
645.867	1536.94
646.315	1569.19
646.762	1638.49
647.21	1679.54
647.657	1774.64
648.104	1840.09
648.551	1898.34
648.999	2043.69
649.446	2247.94
649.893	2522.99
650.34	2942.54
650.787	3642.94
651.234	4719.84
651.682	6473.99
652.129	9135.49
652.576	12864.44
653.023	15504.89
653.47	15532.59
653.917	15532.64
654.363	15532.54
654.81	15529.54
655.257	15530.19
655.704	15424.19
656.151	10012.19
656.598	6592.49
657.044	4714.39
657.491	3683.84
657.938	2989.14
658.385	2529.94
658.831	2233.94
659.278	1996.09
659.724	1831.34
660.171	1698.34
660.618	1574.99
661.064	1494.39
661.511	1440.49
661.957	1386.89
662.404	1346.29
662.85	1345.34
663.296	1318.34
663.743	1289.89
664.189	1278.39
664.635	1260.34
665.082	1236.49
665.528	1221.64
665.974	1181.64
666.42	1157.79
666.867	1151.64
667.313	1107.69
667.759	1080.39
668.205	1083.94
668.651	1082.64
669.097	1082.49
669.543	1083.74
669.989	1091.84
670.435	1097.04
670.881	1104.84
671.327	1151.34
671.773	1238.14
672.219	1312.49
672.665	1397.64
673.11	1444.74
673.556	1467.89
674.002	1483.49
674.448	1514.39
674.893	1296.69
675.339	1126.89
675.785	1044.69
676.23	987.99
676.676	956.39
677.122	931.14
677.567	897.09
678.013	876.29
678.458	869.34
678.904	863.84
679.349	851.19
679.794	851.44
680.24	846.14
680.685	837.49
681.131	842.74
681.576	842.79
682.021	848.99
682.466	856.79
682.912	866.44
683.357	901.19
683.802	973.39
684.247	1066.04
684.692	1139.14
685.137	1186.24
685.583	1215.34
686.028	1273.84
686.473	1207.99
686.918	1049.74
687.363	957.74
687.807	912.64
688.252	871.39
688.697	839.49
689.142	809.19
689.587	820.54
690.032	835.84
690.477	868.29
690.921	908.79
691.366	950.14
691.811	995.09
692.255	1071.49
692.7	1302.09
693.145	1869.54
693.589	2848.09
694.034	3408.44
694.478	3598.14
694.923	3291.49
695.367	4645.74
695.812	2857.64
696.256	1220.14
696.701	895.24
697.145	826.04
697.59	799.04
698.034	784.14
698.478	776.84
698.922	783.24
699.367	803.94
699.811	846.19
700.255	904.99
700.699	992.74
701.143	1074.59
701.588	1132.59
702.032	1179.74
702.476	1216.49
702.92	1307.69
703.364	1708.69
703.808	2603.74
704.252	3258.89
704.696	3428.59
705.14	3235.89
705.584	4410.29
706.027	2456.24
706.471	1242.74
706.915	939.94
707.359	838.74
707.803	781.29
708.246	753.79
708.69	745.24
709.134	732.24
709.577	730.49
710.021	736.19
710.465	730.59
710.908	727.64
711.352	756.64
711.795	840.09
712.239	909.14
712.682	925.79
713.126	899.29
713.569	1000.24
714.012	831.09
714.456	727.34
714.899	685.19
715.342	651.39
715.786	633.24
716.229	618.74
716.672	602.59
717.115	605.69
717.558	605.59
718.002	629.59
718.445	641.54
718.888	684.89
719.331	692.14
719.774	715.99
720.217	694.39
720.66	668.34
721.103	628.04
721.546	591.79
721.989	577.84
722.432	574.04
722.874	574.54
723.317	572.99
723.76	624.64
724.203	765.59
724.645	1018.14
725.088	1206.24
725.531	1170.99
725.974	1275.44
726.416	1162.54
726.859	714.99
727.301	591.79
727.744	564.14
728.187	565.79
728.629	577.34
729.071	605.24
729.514	624.39
729.956	660.74
730.399	672.89
730.841	669.49
731.283	656.79
731.726	643.29
732.168	644.34
732.61	689.34
733.053	728.84
733.495	804.54
733.937	906.14
734.379	1055.79
734.821	1345.19
735.263	2130.99
735.705	3835.74
736.148	5641.94
736.59	5668.64
737.032	6078.24
737.474	5036.09
737.916	1949.89
738.357	1029.04
738.799	788.79
739.241	738.94
739.683	743.89
740.125	760.24
740.567	763.59
741.008	815.74
741.45	863.89
741.892	902.94
742.334	914.99
742.775	905.24
743.217	868.74
743.658	725.54
744.1	760.09
744.542	878.99
744.983	912.34
745.425	953.94
745.866	928.04
746.307	763.59
746.749	801.44
747.19	1155.49
747.632	2236.84
748.073	4181.39
748.514	5800.59
748.956	7631.39
749.397	8952.34
749.838	6225.84
750.279	5868.34
750.72	3071.74
751.162	1299.99
751.603	752.54
752.044	608.49
752.485	535.09
752.926	503.49
753.367	481.79
753.808	471.94
754.249	460.79
754.69	458.04
755.131	452.49
755.572	446.79
756.013	448.04
756.453	443.89
756.894	456.39
757.335	462.99
757.776	473.54
758.216	489.99
758.657	509.09
759.098	566.69
759.538	684.19
759.979	981.69
760.42	1970.44
760.86	5042.39
761.301	10400.79
761.741	12300.34
762.182	13904.89
762.622	9154.89
763.063	3283.19
763.503	1351.79
763.943	794.19
764.384	631.04
764.824	544.49
765.264	503.54
765.705	478.29
766.145	449.14
766.585	431.49
767.025	417.29
767.465	426.29
767.906	427.64
768.346	458.79
768.786	530.24
769.226	765.89
769.666	1539.09
770.106	3437.29
770.546	4946.94
770.986	5563.79
771.426	4238.54
771.866	1772.84
772.306	802.29
772.745	499.14
773.185	426.29
773.625	412.14
774.065	445.04
774.505	639.79
774.944	1152.24
775.384	1666.74
775.824	1870.64
776.263	1535.39
776.703	820.14
777.142	469.04
777.582	354.54
778.021	318.24
778.461	305.69
778.9	299.14
779.34	291.39
779.779	288.49
780.219	281.04
780.658	274.79
781.097	267.29
781.537	264.69
781.976	260.14
782.415	259.59
782.855	264.64
783.294	254.04
783.733	250.84
784.172	260.64
784.611	257.04
785.05	263.94
785.489	271.04
785.928	281.79
786.367	291.09
786.806	315.19
787.245	330.89
787.684	338.39
788.123	337.79
788.562	329.84
789.001	318.04
789.44	303.19
789.879	310.19
790.317	304.99
790.756	324.64
791.195	373.69
791.634	497.44
792.072	890.14
792.511	2179.64
792.95	4045.29
793.388	4872.19
793.827	3188.29
794.265	1465.09
794.704	704.34
795.142	439.74
795.581	355.99
796.019	329.24
796.458	326.59
796.896	329.74
797.334	379.74
797.773	507.34
798.211	970.24
798.649	2016.54
799.087	3385.24
799.526	4803.84
799.964	4952.14
800.402	3438.69
800.84	1550.89
801.278	766.44
801.716	471.29
802.154	382.59
802.592	357.69
803.03	353.99
803.468	364.09
803.906	367.39
804.344	355.14
804.782	349.04
805.22	347.59
805.658	364.39
806.096	383.44
806.533	434.74
806.971	552.09
807.409	804.49
807.847	1595.69
808.284	4037.04
808.722	7083.84
809.16	9952.84
809.597	13377.24
810.035	15424.64
810.472	10956.19
810.91	4666.64
811.347	2083.74
811.785	984.99
812.222	629.44
812.66	486.49
813.097	408.49
813.535	357.14
813.972	319.89
814.409	299.69
814.846	283.74
815.284	275.19
815.721	277.49
816.158	301.54
816.595	415.84
817.032	531.04
817.47	484.84
817.907	347.04
818.344	302.39
818.781	302.29
819.218	372.29
819.655	561.54
820.092	738.94
820.529	666.79
820.966	520.29
821.403	359.54
821.839	304.89
822.276	335.49
822.713	402.89
823.15	375.74
823.587	384.64
824.023	668.14
824.46	1656.09
824.897	2891.14
825.333	2283.59
825.77	1043.44
826.206	550.74
826.643	326.49
827.08	241.64
827.516	209.39
827.953	199.19
828.389	188.09
828.825	184.74
829.262	172.24
829.698	167.89
830.135	161.84
830.571	157.84
831.007	161.09
831.443	156.59
831.88	159.39
832.316	163.79
832.752	168.59
833.188	169.54
833.624	169.14
834.06	170.14
834.497	169.44
834.933	175.14
835.369	189.24
835.805	202.49
836.241	206.84
836.677	233.99
837.112	265.09
837.548	332.64
837.984	491.99
838.42	1039.64
838.856	2894.84
839.292	5732.99
839.727	4329.64
840.163	2883.74
840.599	4340.29
841.034	6657.49
841.47	3380.19
841.906	1629.94
842.341	871.74
842.777	654.29
843.212	677.19
843.648	427.89
844.083	291.69
844.519	218.49
844.954	178.94
845.39	161.29
845.825	153.04
846.261	145.64
846.696	142.59
847.131	141.44
847.566	138.49
848.002	145.94
848.437	156.69
848.872	160.49
849.307	202.34
849.742	362.34
850.177	939.64
850.613	1998.39
851.048	1473.19
851.483	670.44
851.918	377.84
852.353	204.24
852.788	151.04
853.223	137.69
853.657	120.84
854.092	119.74
854.527	114.74
854.962	127.49
855.397	138.09
855.832	122.39
856.266	111.89
856.701	108.19
857.136	114.49
857.57	141.39
858.005	165.09
858.44	139.79
858.874	131.64
859.309	135.64
859.743	128.74
860.178	124.24
860.612	140.94
861.047	190.09
861.481	270.09
861.915	184.34
862.35	135.84
862.784	106.34
863.218	101.49
863.653	113.94
864.087	137.34
864.521	171.19
864.955	275.04
865.39	474.34
865.824	377.64
866.258	488.69
866.692	757.89
867.126	555.84
867.56	298.24
867.994	183.99
868.428	159.74
868.862	192.49
869.296	180.94
869.73	219.14
870.164	187.24
870.598	171.34
871.031	121.54
871.465	105.84
871.899	84.39
872.333	74.04
872.766	75.09
873.2	77.09
873.634	74.09
874.067	80.94
874.501	79.59
874.935	75.54
875.368	78.29
875.802	70.79
876.235	69.09
876.669	69.49
877.102	59.64
877.535	64.24
877.969	60.64
878.402	64.14
878.836	58.49
879.269	58.89
879.702	61.09
880.135	59.59
880.569	64.19
881.002	57.39
881.435	56.49
881.868	56.79
882.301	56.59
882.734	55.14
883.167	59.89
883.601	58.14
884.034	54.29
884.467	56.34
884.899	52.99
885.332	50.54
885.765	55.54
886.198	45.09
886.631	50.09
887.064	45.14
887.497	46.14
887.929	48.14
888.362	45.09
888.795	37.64
889.228	49.14
889.66	49.14
890.093	45.94
890.526	48.29
890.958	48.44
891.391	49.04
891.823	45.44
892.256	42.84
892.688	44.74
893.121	45.54
893.553	50.29
893.985	46.69
894.418	40.14
894.85	47.14
895.282	44.19
895.715	44.54
896.147	40.84
896.579	42.14
897.011	48.64
897.444	42.04
897.876	36.94
898.308	46.54
898.74	42.24
899.172	48.19
899.604	47.19
900.036	43.14
900.468	41.59
900.9	47.39
901.332	56.09
901.764	62.14
902.196	60.04
902.628	59.79
903.06	90.04
903.491	98.39
903.923	81.49
904.355	77.99
904.787	83.39
905.218	65.84
905.65	59.34
906.082	53.29
906.513	55.84
906.945	52.04
907.376	53.69
907.808	52.79
908.239	58.49
908.671	66.19
909.102	69.09
909.534	98.24
909.965	180.69
910.397	472.79
910.828	1342.69
911.259	834.04
911.691	451.24
912.122	268.84
912.553	132.04
912.984	76.89
913.415	66.04
913.847	54.89
914.278	55.19
914.709	45.04
915.14	46.79
915.571	43.34
916.002	46.74
916.433	43.09
916.864	40.44
917.295	47.64
917.726	53.54
918.157	62.14
918.587	69.34
919.018	63.29
919.449	59.04
919.88	66.29
920.311	107.84
920.741	274.14
921.172	494.19
921.603	251.99
922.033	161.54
922.464	102.89
922.895	61.29
923.325	49.04
923.756	39.94
924.186	52.69
924.617	80.99
925.047	116.84
925.478	102.04
925.908	71.74
926.338	54.59
926.769	46.14
927.199	40.14
927.629	37.29
928.06	39.89
928.49	43.14
928.92	39.99
929.35	33.64
929.78	30.29
930.21	32.69
930.641	19.54
931.071	24.79
931.501	24.79
931.931	20.24
932.361	20.64
932.791	24.74
933.221	30.69
933.651	38.79
934.08	63.89
934.51	47.34
934.94	31.29
935.37	30.59
935.8	24.64
936.229	21.04
936.659	26.14
937.089	44.14
937.519	62.09
937.948	83.89
938.378	53.09
938.807	33.09
939.237	17.79
939.666	18.74
940.096	12.59
940.525	11.59
940.955	16.09
941.384	9.64
941.814	13.59
942.243	13.64
942.672	9.09
943.102	10.09
943.531	11.99
943.96	11.19
944.39	11.89
944.819	15.14
945.248	9.99
945.677	10.19
946.106	12.89
946.535	8.34
946.964	6.04
947.393	6.34
947.822	10.04
948.251	13.14
948.68	13.39
949.109	10.19
949.538	6.69
949.967	7.19
950.396	10.99
950.825	7.59
951.254	7.99
951.682	3.19
952.111	7.09
952.54	9.94
952.969	11.74
953.397	8.64
953.826	7.19
954.254	10.84
954.683	7.69
955.112	12.84
955.54	6.59
955.969	9.89
956.397	11.44
956.826	6.79
957.254	2.29
957.682	8.89
958.111	8.39
958.539	9.54
958.967	9.14
959.396	7.39
959.824	2.74
960.252	9.04
960.68	6.94
961.109	7.14
961.537	13.94
961.965	2.79
962.393	2.14
962.821	14.39
963.249	7.44
963.677	14.64
964.105	82.34
964.533	143.64
964.961	72.04
965.389	39.74
965.817	24.29
966.245	15.44
966.672	10.69
967.1	11.54
967.528	0.94
967.956	2.84
968.383	5.34
968.811	1.34
969.239	5.94
969.666	8.74
970.094	6.44
970.522	1.49
970.949	6.44
971.377	-2.31
971.804	3.34
972.232	1.59
972.659	4.04
973.087	7.69
973.514	3.34
973.941	5.09
974.369	2.29
974.796	1.29
975.223	3.59
975.651	6.64
976.078	4.74
976.505	13.29
976.932	36.04
977.359	42.69
977.786	27.44
978.214	19.54
978.641	5.24
979.068	6.89
979.495	3.14
979.922	3.24
980.349	7.84
980.776	10.34
981.202	7.34
981.629	5.79
982.056	11.04
982.483	-0.51
982.91	5.99
983.337	3.04
983.763	3.24
984.19	9.49
984.617	4.84
985.043	11.94
985.47	10.54
985.897	10.09
986.323	9.59
986.75	2.59
987.176	6.14
987.603	6.44
988.029	1.44
988.456	5.94
988.882	4.94
989.308	0.84
989.735	-2.41
990.161	0.94
990.587	3.84
991.014	-0.41
991.44	0.99
991.866	6.99
992.292	-0.96
992.719	2.24
993.145	4.74
993.571	3.94
993.997	8.19
994.423	4.29
994.849	-0.81
995.275	-0.56
995.701	7.74
996.127	-2.26
996.553	4.04
996.979	-1.31
997.405	3.84
997.83	5.54
998.256	5.89
998.682	2.29
999.108	2.44
999.534	-3.56
999.959	1.69
1000.385	6.44
1000.811	-2.81
1001.236	-1.96
1001.662	-0.06
1002.087	11.34
1002.513	0.69
1002.938	-1.96
1003.364	2.64
1003.789	7.24
1004.215	-2.31
1004.64	2.54
1005.066	5.39
1005.491	6.09
1005.916	4.84
1006.342	8.09
1006.767	6.29
1007.192	5.64
1007.617	4.99
1008.042	4.19
1008.468	1.94
1008.893	5.29
1009.318	10.74
1009.743	20.79
1010.168	31.59
1010.593	27.44
1011.018	14.09
1011.443	8.14
1011.868	8.39
1012.293	7.29
1012.718	0.04
1013.143	4.69
1013.567	9.74
1013.992	2.94
1014.417	2.09
1014.842	3.54
1015.267	2.14
1015.691	7.54
1016.116	2.99
1016.541	6.79
1016.965	1.04
1017.39	-1.41
1017.814	0.49
1018.239	-4.21
1018.663	-4.71
1019.088	-3.26
1019.512	6.94
1019.937	-3.06
1020.361	0.94
1020.785	1.64
1021.21	-3.41
1021.634	1.19
1022.058	4.44
1022.483	-3.36
1022.907	-0.91
1023.331	1.64
1023.755	1.69
1024.179	-0.36
1024.604	1.99
1025.028	0.34
1025.452	6.44
1025.876	4.59
1026.3	-0.61
1026.724	-0.66
1027.148	1.34
1027.572	-2.26
1027.996	2.39
1028.42	0.09
1028.843	-2.91
1029.267	-0.96
1029.691	-0.51
1030.115	-2.36
1030.539	-0.11
1030.962	-1.26
1031.386	-3.91
1031.81	0.14
1032.233	-4.81
1032.657	-4.56
1033.08	1.89
1033.504	-1.61
1033.927	-0.91
1034.351	-1.21
1034.774	0.29
1035.198	-3.66
1035.621	1.64
1036.045	-4.31
1036.468	2.39
1036.891	-0.36
1037.315	2.39
1037.738	3.09
1038.161	-1.86
1038.584	-0.31
1039.008	-3.66
1039.431	-1.66
1039.854	-7.16
1040.277	-0.01
1040.7	-1.06
1041.123	1.34
1041.546	-0.01
1041.969	2.59
1042.392	1.74
1042.815	-6.26
1043.238	-3.16
1043.661	0.54
1044.084	1.19
1044.507	-1.26
1044.93	-1.26
1045.352	-2.91
1045.775	2.59
1046.198	2.99
1046.621	2.59
1047.043	-3.26
1047.466	0.54
1047.889	-3.46
1048.311	6.64
1048.734	-0.01
1049.156	0.14
1049.579	-1.46
1050.001	-3.11
1050.424	-2.66
1050.846	-5.11
1051.269	-5.36
1051.691	0.99
1052.113	0.64
1052.536	-5.86
1052.958	-6.56
1053.38	-1.86
1053.802	0.19
1054.225	-1.11
1054.647	0.24
1055.069	-1.76
1055.491	0.64
1055.913	-0.96
1056.335	-11.11
1056.757	-5.61
1057.179	-1.31
1057.601	-1.36
1058.023	1.54
1058.445	-5.16
1058.867	-0.36
1059.289	-5.06
1059.711	-4.81
1060.133	-1.21
1060.555	-4.76
1060.976	3.14
1061.398	-0.66
1061.82	-0.26
1062.241	-4.26
1062.663	0.09
1063.085	-1.36
1063.506	-8.91
1063.928	-3.46
1064.35	-2.96
1064.771	-3.86
1065.193	-2.01
1065.614	0.49
1066.035	1.39
1066.457	1.39
1066.878	1.09
1067.3	-4.21
1067.721	-0.81
1068.142	3.99
1068.564	0.84
1068.985	-0.26
1069.406	-6.01
1069.827	-3.61
1070.248	-2.26
1070.67	-0.96
1071.091	-4.41
1071.512	-3.36
1071.933	-3.81
1072.354	-10.96
1072.775	-1.51
1073.196	-1.06
1073.617	-4.61
1074.038	-3.96
1074.459	-5.56
1074.88	-2.51
1075.3	0.34
1075.721	0.04
1076.142	1.29
1076.563	-6.56
1076.983	-3.36
1077.404	-5.76
1077.825	1.44
1078.246	-2.01
1078.666	-5.36
1079.087	-7.56
1079.507	-5.76
1079.928	-2.86
1080.348	-1.21
1080.769	0.19
1081.189	-1.21
1081.61	-4.71
1082.03	0.09
1082.451	-3.01
1082.871	-6.41
1083.291	-1.46
1083.711	-4.61
1084.132	-4.61
1084.552	-7.41
1084.972	-10.51
1085.392	-6.66
1085.813	1.74
1086.233	-8.26
1086.653	0.94
1087.073	-3.41
1087.493	1.09
1087.913	-3.96
1088.333	1.54
1088.753	1.84
1089.173	-0.06
1089.593	4.79
1090.013	-4.16
1090.433	-2.61
1090.852	2.54
1091.272	-4.41
1091.692	-3.91
1092.112	-4.96
1092.531	-5.76
1092.951	-2.36
1093.371	-4.51
1093.79	-6.06
1094.21	-5.21
1094.63	-1.06
1095.049	-1.96
1095.469	-9.16
1095.888	3.94
1096.308	0.74
1096.727	-3.16
1097.146	-2.96
1097.566	-4.21
1097.985	-6.86
1098.405	-2.26
1098.824	1.34
1099.243	-2.81
1099.662	-3.91
1100.082	-4.21
1100.501	-0.51
1100.92	2.34
1101.339	-2.06
1101.758	3.49
