Data from MSPlasma+Separation6_Subt14_10-14-05-051.txt Node
Date: Fri Jul 21 10:14:05 EDT 2017
User: Ender
Spectrometer: HR+D1039
Trigger mode: 0
Integration Time (sec): 6.430000E-3
Scans to average: 20
Electric dark correction enabled: true
Nonlinearity correction enabled: false
Boxcar width: 0
XAxis mode: Wavelengths
Number of Pixels in Spectrum: 2048
>>>>>Begin Spectral Data<<<<<
187.836	-0.33
188.309	-0.33
188.782	-0.33
189.255	0.77
189.728	1.67
190.201	-2.08
190.674	0.52
191.147	-0.58
191.619	4.47
192.092	-0.98
192.565	-1.68
193.038	0.57
193.511	3.17
193.984	1.27
194.456	-1.43
194.929	-0.78
195.402	-4.58
195.874	-0.03
196.347	3.62
196.82	3.47
197.292	-5.63
197.765	-3.38
198.237	-2.13
198.71	-7.53
199.182	1.52
199.655	-0.93
200.127	-0.78
200.6	-1.43
201.072	5.02
201.544	-1.43
202.017	-0.78
202.489	2.97
202.961	-0.78
203.433	-2.93
203.906	-2.63
204.378	2.97
204.85	0.27
205.322	-0.68
205.794	4.22
206.266	-1.08
206.739	0.72
207.211	-0.13
207.683	0.42
208.155	4.02
208.627	3.67
209.099	4.12
209.57	5.47
210.042	2.82
210.514	0.77
210.986	4.07
211.458	-0.13
211.93	0.77
212.402	3.57
212.873	-2.83
213.345	-3.78
213.817	5.67
214.288	-1.78
214.76	5.12
215.232	-1.43
215.703	-1.58
216.175	2.02
216.646	3.17
217.118	2.52
217.589	-0.88
218.061	3.17
218.532	-4.73
219.004	2.92
219.475	3.02
219.946	5.07
220.418	5.72
220.889	0.02
221.36	5.32
221.832	7.72
222.303	3.07
222.774	1.67
223.245	6.87
223.717	0.87
224.188	0.42
224.659	-0.73
225.13	1.02
225.601	3.77
226.072	2.42
226.543	7.87
227.014	6.92
227.485	5.12
227.956	10.47
228.427	11.07
228.898	7.57
229.369	5.82
229.839	10.02
230.31	10.52
230.781	7.47
231.252	9.22
231.722	11.07
232.193	10.22
232.664	8.92
233.135	8.62
233.605	8.22
234.076	13.52
234.546	8.32
235.017	13.27
235.487	13.52
235.958	14.22
236.428	16.32
236.899	6.62
237.369	23.07
237.84	14.52
238.31	12.82
238.78	5.37
239.251	12.87
239.721	10.77
240.191	14.82
240.662	12.87
241.132	15.47
241.602	19.57
242.072	14.42
242.542	16.82
243.013	17.77
243.483	21.72
243.953	15.47
244.423	18.57
244.893	14.32
245.363	22.07
245.833	17.52
246.303	17.02
246.773	25.42
247.243	18.92
247.712	23.32
248.182	23.02
248.652	27.82
249.122	26.67
249.592	21.87
250.061	21.52
250.531	25.87
251.001	29.12
251.471	29.17
251.94	30.12
252.41	27.87
252.879	30.42
253.349	33.92
253.818	29.77
254.288	35.67
254.757	31.17
255.227	36.27
255.696	32.37
256.166	34.92
256.635	34.02
257.105	33.52
257.574	30.97
258.043	33.97
258.513	34.92
258.982	31.57
259.451	35.57
259.92	30.27
260.389	39.37
260.859	33.22
261.328	36.37
261.797	37.97
262.266	42.62
262.735	43.72
263.204	33.97
263.673	41.87
264.142	40.42
264.611	42.97
265.08	42.27
265.549	42.42
266.018	45.97
266.487	44.12
266.955	44.22
267.424	50.37
267.893	49.52
268.362	46.27
268.83	42.07
269.299	49.92
269.768	45.52
270.236	48.07
270.705	51.02
271.174	50.42
271.642	52.92
272.111	51.37
272.579	49.77
273.048	56.62
273.516	60.32
273.985	56.27
274.453	53.57
274.922	51.57
275.39	52.82
275.858	57.22
276.327	59.57
276.795	58.52
277.263	56.92
277.731	59.87
278.2	62.47
278.668	61.92
279.136	63.42
279.604	62.47
280.072	60.22
280.54	62.27
281.008	73.92
281.477	68.37
281.945	63.12
282.413	63.92
282.881	71.57
283.348	65.57
283.816	75.02
284.284	70.42
284.752	73.37
285.22	73.02
285.688	72.57
286.156	68.42
286.623	76.07
287.091	78.77
287.559	76.87
288.026	78.17
288.494	81.87
288.962	82.72
289.429	81.27
289.897	80.07
290.364	79.67
290.832	76.17
291.3	83.92
291.767	80.02
292.234	89.42
292.702	83.22
293.169	88.12
293.637	88.87
294.104	94.47
294.571	88.47
295.039	86.47
295.506	85.97
295.973	87.87
296.44	87.77
296.908	95.62
297.375	86.07
297.842	94.17
298.309	90.22
298.776	99.77
299.243	100.57
299.71	98.87
300.177	97.97
300.644	100.42
301.111	101.67
301.578	100.87
302.045	99.02
302.512	101.57
302.979	106.47
303.446	107.97
303.913	106.72
304.379	114.97
304.846	115.17
305.313	120.92
305.78	125.97
306.246	121.17
306.713	119.87
307.18	122.72
307.646	130.37
308.113	126.37
308.579	130.97
309.046	132.02
309.512	133.22
309.979	137.27
310.445	129.02
310.912	137.57
311.378	138.27
311.845	144.62
312.311	137.27
312.777	136.67
313.244	138.82
313.71	143.52
314.176	144.72
314.642	148.92
315.109	146.82
315.575	145.72
316.041	151.17
316.507	149.62
316.973	157.52
317.439	149.22
317.905	156.92
318.371	156.52
318.837	153.22
319.303	159.77
319.769	149.97
320.235	158.47
320.701	163.87
321.167	156.17
321.633	160.92
322.099	159.02
322.564	162.07
323.03	166.47
323.496	166.22
323.962	168.67
324.427	171.67
324.893	168.92
325.359	176.02
325.824	177.57
326.29	180.42
326.755	177.27
327.221	179.07
327.686	187.42
328.152	189.32
328.617	194.62
329.083	197.42
329.548	198.87
330.014	197.57
330.479	198.67
330.944	198.12
331.41	207.52
331.875	195.07
332.34	197.72
332.805	200.07
333.271	205.67
333.736	203.87
334.201	204.37
334.666	220.17
335.131	218.42
335.596	220.37
336.061	210.77
336.526	210.37
336.991	205.12
337.456	210.92
337.921	202.77
338.386	207.67
338.851	209.12
339.316	209.17
339.781	209.57
340.246	215.67
340.711	218.22
341.175	223.52
341.64	225.97
342.105	231.52
342.569	239.62
343.034	239.12
343.499	234.37
343.963	246.62
344.428	246.57
344.893	243.12
345.357	249.67
345.822	251.87
346.286	252.62
346.751	255.37
347.215	264.42
347.679	274.82
348.144	282.42
348.608	287.87
349.073	291.67
349.537	292.42
350.001	290.72
350.465	288.02
350.93	293.47
351.394	295.22
351.858	299.92
352.322	305.42
352.786	306.62
353.25	301.92
353.715	309.37
354.179	322.72
354.643	335.72
355.107	337.27
355.571	333.02
356.035	326.57
356.498	329.02
356.962	323.72
357.426	324.97
357.89	321.92
358.354	317.22
358.818	320.22
359.281	322.82
359.745	319.92
360.209	322.12
360.673	319.97
361.136	322.77
361.6	325.17
362.064	332.07
362.527	335.52
362.991	336.57
363.454	342.62
363.918	344.82
364.381	353.82
364.845	348.92
365.308	348.32
365.772	349.12
366.235	351.02
366.698	355.62
367.162	344.07
367.625	353.62
368.088	367.97
368.552	356.37
369.015	361.52
369.478	373.27
369.941	367.47
370.404	374.37
370.867	367.87
371.331	377.27
371.794	379.17
372.257	383.22
372.72	379.07
373.183	383.62
373.646	376.72
374.109	385.72
374.572	387.47
375.035	391.92
375.497	396.62
375.96	402.47
376.423	410.22
376.886	410.02
377.349	420.52
377.811	418.47
378.274	425.42
378.737	413.12
379.199	421.52
379.662	424.77
380.125	429.77
380.587	440.17
381.05	443.02
381.512	449.17
381.975	458.72
382.437	466.47
382.9	468.47
383.362	463.32
383.825	466.97
384.287	463.62
384.75	464.77
385.212	468.97
385.674	476.97
386.136	482.57
386.599	467.52
387.061	476.42
387.523	481.57
387.985	483.37
388.447	488.97
388.91	492.67
389.372	493.27
389.834	498.52
390.296	483.22
390.758	493.62
391.22	491.17
391.682	490.32
392.144	493.82
392.606	497.12
393.068	511.47
393.529	534.22
393.991	546.52
394.453	519.82
394.915	506.27
395.377	500.27
395.838	499.07
396.3	506.67
396.762	516.87
397.224	508.87
397.685	505.87
398.147	515.12
398.608	524.47
399.07	525.77
399.531	527.17
399.993	540.72
400.454	550.17
400.916	550.92
401.377	558.97
401.839	561.02
402.3	568.67
402.762	588.47
403.223	630.52
403.684	627.57
404.145	612.07
404.607	594.27
405.068	584.52
405.529	587.57
405.99	609.07
406.451	615.57
406.913	597.57
407.374	608.42
407.835	600.42
408.296	620.07
408.757	627.67
409.218	639.02
409.679	643.92
410.14	648.82
410.601	662.32
411.062	661.32
411.522	677.02
411.983	666.57
412.444	678.72
412.905	686.92
413.366	707.72
413.826	745.17
414.287	839.27
414.748	987.42
415.208	1016.82
415.669	845.67
416.13	774.12
416.59	754.77
417.051	782.47
417.511	813.42
417.972	868.02
418.432	943.32
418.893	1035.32
419.353	1001.42
419.814	775.52
420.274	694.62
420.734	689.62
421.195	714.07
421.655	705.32
422.115	720.82
422.576	709.62
423.036	721.67
423.496	742.52
423.956	771.77
424.416	823.57
424.876	918.67
425.336	921.57
425.797	904.97
426.257	897.57
426.717	842.32
427.177	782.77
427.637	802.87
428.097	826.32
428.556	859.42
429.016	910.47
429.476	918.17
429.936	902.87
430.396	897.92
430.856	925.67
431.315	937.17
431.775	999.97
432.235	1079.82
432.694	1081.22
433.154	1028.27
433.614	1006.62
434.073	969.77
434.533	880.77
434.993	848.67
435.452	859.92
435.912	840.77
436.371	845.57
436.83	829.52
437.29	804.42
437.749	789.17
438.209	793.12
438.668	795.62
439.127	809.12
439.587	799.87
440.046	779.82
440.505	793.97
440.964	797.72
441.424	827.67
441.883	843.77
442.342	792.12
442.801	761.27
443.26	767.42
443.719	763.42
444.178	761.37
444.637	778.42
445.096	778.17
445.555	787.22
446.014	784.12
446.473	778.32
446.932	775.47
447.391	788.62
447.849	799.47
448.308	786.62
448.767	802.17
449.226	813.87
449.685	820.57
450.143	853.42
450.602	849.62
451.061	804.97
451.519	810.07
451.978	802.02
452.436	797.62
452.895	806.62
453.353	801.52
453.812	789.02
454.27	795.02
454.729	797.37
455.187	808.42
455.646	807.97
456.104	807.02
456.562	820.47
457.021	832.92
457.479	801.62
457.937	825.82
458.395	843.97
458.854	838.82
459.312	822.17
459.77	834.32
460.228	836.82
460.686	851.02
461.144	853.42
461.602	849.67
462.06	851.37
462.518	860.97
462.976	869.17
463.434	883.17
463.892	888.57
464.35	906.37
464.808	920.82
465.266	926.32
465.724	938.42
466.181	935.07
466.639	935.92
467.097	971.12
467.555	1004.27
468.012	999.02
468.47	1019.97
468.928	1049.22
469.385	1075.37
469.843	1089.62
470.3	1070.42
470.758	1116.37
471.215	1128.82
471.673	1152.62
472.13	1189.37
472.588	1205.07
473.045	1203.17
473.503	1219.82
473.96	1273.62
474.417	1288.12
474.875	1351.52
475.332	1389.77
475.789	1419.62
476.246	1454.62
476.704	1516.62
477.161	1549.22
477.618	1594.62
478.075	1682.22
478.532	1814.47
478.989	1931.37
479.446	2125.82
479.903	2221.22
480.36	2421.22
480.817	2541.62
481.274	2717.12
481.731	2954.27
482.188	3159.17
482.645	3370.17
483.102	3553.07
483.558	3793.22
484.015	3941.12
484.472	3934.22
484.929	3811.22
485.385	3669.22
485.842	3585.47
486.299	3449.22
486.755	3185.07
487.212	2888.72
487.668	2624.62
488.125	2427.22
488.582	2266.52
489.038	2191.57
489.494	2144.12
489.951	2068.87
490.407	2018.07
490.864	1974.07
491.32	1930.37
491.776	1925.37
492.233	1935.22
492.689	1904.47
493.145	1866.17
493.602	1845.42
494.058	1866.67
494.514	1870.27
494.97	1870.02
495.426	1894.62
495.882	1895.77
496.338	1896.32
496.794	1898.87
497.251	1894.67
497.707	1916.52
498.163	1927.92
498.618	1921.42
499.074	1921.37
499.53	1943.52
499.986	1948.42
500.442	1931.82
500.898	1908.97
501.354	1940.57
501.809	1937.07
502.265	1939.97
502.721	1948.57
503.177	1945.62
503.632	1951.72
504.088	1967.87
504.543	1991.72
504.999	2003.62
505.455	2006.62
505.91	1985.07
506.366	1988.47
506.821	1991.92
507.277	1970.87
507.732	1989.67
508.187	1992.82
508.643	2007.02
509.098	2008.42
509.553	2024.17
510.009	2051.27
510.464	2094.37
510.919	2104.42
511.375	2119.92
511.83	2146.47
512.285	2191.17
512.74	2228.52
513.195	2256.97
513.65	2289.77
514.105	2317.47
514.56	2311.37
515.015	2362.82
515.47	2381.37
515.925	2352.27
516.38	2345.02
516.835	2356.97
517.29	2338.77
517.745	2345.22
518.2	2310.07
518.655	2255.32
519.109	2236.12
519.564	2223.27
520.019	2183.92
520.474	2178.57
520.928	2171.32
521.383	2131.97
521.838	2125.07
522.292	2118.47
522.747	2105.27
523.201	2097.37
523.656	2070.42
524.11	2074.22
524.565	2065.97
525.019	2065.67
525.474	2060.72
525.928	2064.92
526.382	2054.67
526.837	2053.82
527.291	2063.47
527.745	2047.27
528.2	2049.97
528.654	2030.72
529.108	2036.92
529.562	2039.12
530.016	2022.27
530.47	2035.62
530.925	2028.62
531.379	2029.02
531.833	2061.17
532.287	2052.92
532.741	2045.02
533.195	2038.47
533.649	2045.67
534.103	2045.22
534.556	2048.37
535.01	2048.97
535.464	2038.47
535.918	2039.97
536.372	2052.17
536.826	2048.17
537.279	2023.77
537.733	2038.02
538.187	2054.02
538.64	2046.62
539.094	2046.57
539.548	2077.72
540.001	2080.52
540.455	2086.32
540.908	2105.82
541.362	2113.22
541.815	2121.52
542.269	2177.32
542.722	2166.62
543.175	2185.37
543.629	2203.67
544.082	2211.62
544.536	2243.12
544.989	2251.82
545.442	2251.57
545.895	2254.92
546.349	2248.52
546.802	2249.27
547.255	2258.37
547.708	2275.02
548.161	2302.67
548.614	2289.32
549.067	2315.92
549.52	2286.17
549.973	2267.92
550.426	2257.97
550.879	2255.22
551.332	2256.47
551.785	2273.77
552.238	2291.07
552.691	2292.32
553.144	2333.27
553.596	2361.47
554.049	2391.82
554.502	2438.02
554.955	2467.27
555.407	2509.37
555.86	2485.37
556.313	2457.77
556.765	2431.02
557.218	2408.07
557.67	2404.97
558.123	2377.17
558.576	2365.77
559.028	2350.87
559.48	2383.62
559.933	2361.67
560.385	2287.87
560.838	2218.17
561.29	2158.57
561.742	2150.32
562.195	2110.22
562.647	2077.27
563.099	2082.52
563.551	2064.42
564.004	2080.92
564.456	2064.47
564.908	2021.02
565.36	1977.72
565.812	1937.37
566.264	1923.82
566.716	1897.92
567.168	1864.62
567.62	1869.82
568.072	1857.32
568.524	1843.07
568.976	1833.47
569.428	1816.47
569.88	1808.62
570.332	1826.17
570.784	1834.27
571.235	1817.77
571.687	1846.02
572.139	1837.72
572.59	1863.17
573.042	1875.67
573.494	1868.02
573.945	1846.52
574.397	1806.62
574.849	1799.82
575.3	1803.52
575.752	1777.52
576.203	1751.77
576.655	1772.37
577.106	1748.22
577.557	1740.42
578.009	1729.72
578.46	1725.47
578.912	1716.52
579.363	1725.27
579.814	1728.37
580.265	1719.77
580.717	1725.87
581.168	1723.97
581.619	1731.72
582.07	1755.67
582.521	1743.67
582.972	1734.27
583.423	1727.27
583.875	1757.67
584.326	1749.47
584.777	1789.22
585.227	1820.92
585.678	1833.37
586.129	1850.57
586.58	1862.92
587.031	1900.67
587.482	1940.62
587.933	1973.77
588.384	1962.47
588.834	1945.62
589.285	1939.02
589.736	1934.02
590.186	1943.67
590.637	1925.92
591.088	1872.52
591.538	1842.42
591.989	1826.52
592.439	1800.97
592.89	1775.92
593.34	1767.07
593.791	1766.17
594.241	1748.17
594.692	1749.87
595.142	1742.72
595.593	1740.32
596.043	1738.77
596.493	1765.67
596.943	1767.27
597.394	1820.72
597.844	1835.17
598.294	1876.47
598.744	1941.47
599.195	2034.32
599.645	2148.22
600.095	2245.27
600.545	2333.82
600.995	2448.52
601.445	2528.27
601.895	2642.47
602.345	2725.72
602.795	2702.42
603.245	2601.57
603.695	2442.72
604.145	2321.17
604.594	2216.67
605.044	2099.57
605.494	1961.02
605.944	1876.97
606.393	1817.22
606.843	1798.22
607.293	1793.02
607.743	1767.17
608.192	1787.37
608.642	1786.97
609.091	1775.62
609.541	1776.92
609.99	1773.47
610.44	1738.67
610.889	1723.47
611.339	1691.22
611.788	1683.37
612.238	1693.17
612.687	1693.27
613.136	1699.22
613.586	1727.87
614.035	1719.52
614.484	1728.22
614.933	1736.67
615.383	1706.17
615.832	1655.37
616.281	1635.27
616.73	1587.22
617.179	1566.17
617.628	1532.67
618.077	1514.77
618.526	1490.97
618.975	1471.22
619.424	1448.57
619.873	1456.07
620.322	1447.72
620.771	1443.27
621.22	1409.87
621.669	1389.77
622.118	1378.47
622.567	1370.42
623.015	1339.72
623.464	1335.22
623.913	1321.27
624.361	1323.42
624.81	1310.52
625.259	1328.87
625.707	1308.82
626.156	1317.47
626.604	1338.42
627.053	1343.92
627.501	1336.97
627.95	1348.67
628.398	1360.97
628.847	1345.62
629.295	1347.32
629.744	1341.77
630.192	1306.72
630.64	1285.92
631.089	1277.72
631.537	1239.12
631.985	1232.92
632.433	1232.52
632.881	1220.67
633.33	1217.32
633.778	1217.07
634.226	1235.12
634.674	1241.72
635.122	1247.42
635.57	1271.92
636.018	1285.22
636.466	1281.37
636.914	1288.47
637.362	1313.32
637.81	1330.87
638.258	1377.52
638.705	1386.12
639.153	1427.82
639.601	1443.87
640.049	1464.42
640.497	1509.22
640.944	1548.67
641.392	1490.27
641.84	1409.47
642.287	1343.22
642.735	1323.82
643.182	1304.32
643.63	1303.27
644.078	1308.67
644.525	1329.62
644.973	1361.17
645.42	1391.57
645.867	1414.82
646.315	1454.12
646.762	1501.52
647.21	1549.07
647.657	1617.87
648.104	1673.17
648.551	1714.32
648.999	1842.32
649.446	2012.22
649.893	2256.67
650.34	2623.97
650.787	3209.62
651.234	4097.47
651.682	5633.37
652.129	7888.17
652.576	11195.82
653.023	14653.32
653.47	15535.27
653.917	15535.32
654.363	15535.22
654.81	15532.22
655.257	15532.87
655.704	14306.47
656.151	8719.02
656.598	5737.72
657.044	4125.47
657.491	3253.72
657.938	2660.97
658.385	2257.37
658.831	1994.97
659.278	1787.22
659.724	1654.92
660.171	1551.17
660.618	1438.37
661.064	1351.67
661.511	1321.27
661.957	1282.82
662.404	1258.67
662.85	1238.87
663.296	1235.62
663.743	1193.47
664.189	1192.52
664.635	1171.42
665.082	1151.97
665.528	1134.37
665.974	1107.17
666.42	1091.17
666.867	1075.42
667.313	1028.62
667.759	1016.02
668.205	1005.87
668.651	1011.37
669.097	1015.87
669.543	1018.37
669.989	1029.17
670.435	1026.22
670.881	1035.47
671.327	1076.62
671.773	1154.57
672.219	1235.77
672.665	1313.72
673.11	1359.22
673.556	1373.72
674.002	1408.67
674.448	1415.32
674.893	1223.47
675.339	1069.77
675.785	986.62
676.23	923.97
676.676	897.77
677.122	876.87
677.567	839.82
678.013	819.42
678.458	816.12
678.904	811.22
679.349	803.97
679.794	802.22
680.24	802.67
680.685	789.77
681.131	791.02
681.576	788.72
682.021	798.92
682.466	802.57
682.912	807.62
683.357	847.07
683.802	929.97
684.247	1010.77
684.692	1073.12
685.137	1123.17
685.583	1138.22
686.028	1198.82
686.473	1139.37
686.918	989.97
687.363	907.02
687.807	868.07
688.252	822.37
688.697	794.32
689.142	768.07
689.587	777.52
690.032	795.27
690.477	818.42
690.921	853.87
691.366	904.12
691.811	935.17
692.255	1005.32
692.7	1223.47
693.145	1766.12
693.589	2693.12
694.034	3206.32
694.478	3415.02
694.923	3118.27
695.367	4399.82
695.812	2714.82
696.256	1152.72
696.701	837.02
697.145	777.82
697.59	748.07
698.034	735.87
698.478	737.62
698.922	736.72
699.367	753.17
699.811	793.42
700.255	858.12
700.699	935.72
701.143	1013.27
701.588	1070.27
702.032	1122.52
702.476	1159.92
702.92	1239.77
703.364	1609.92
703.808	2462.87
704.252	3060.67
704.696	3229.87
705.14	3044.12
705.584	4158.27
706.027	2341.72
706.471	1184.32
706.915	884.47
707.359	790.37
707.803	732.17
708.246	710.67
708.69	699.87
709.134	698.37
709.577	702.47
710.021	697.02
710.465	694.97
710.908	680.52
711.352	715.12
711.795	798.17
712.239	858.47
712.682	869.12
713.126	848.07
713.569	947.87
714.012	780.12
714.456	683.87
714.899	655.77
715.342	617.17
715.786	592.67
716.229	578.12
716.672	563.17
717.115	561.12
717.558	568.27
718.002	586.87
718.445	613.67
718.888	645.17
719.331	656.17
719.774	674.62
720.217	659.82
720.66	627.37
721.103	588.12
721.546	560.87
721.989	539.27
722.432	538.02
722.874	535.82
723.317	545.77
723.76	588.32
724.203	718.47
724.645	965.62
725.088	1129.22
725.531	1111.67
725.974	1212.47
726.416	1091.37
726.859	675.77
727.301	557.67
727.744	534.52
728.187	533.22
728.629	545.07
729.071	580.72
729.514	601.97
729.956	620.42
730.399	628.72
730.841	629.87
731.283	623.32
731.726	607.37
732.168	615.17
732.61	647.12
733.053	702.57
733.495	765.62
733.937	854.72
734.379	1002.12
734.821	1271.77
735.263	2025.72
735.705	3633.22
736.148	5332.02
736.59	5335.07
737.032	5771.02
737.474	4781.87
737.916	1853.87
738.357	977.12
738.799	749.77
739.241	696.42
739.683	704.22
740.125	726.67
740.567	730.82
741.008	772.67
741.45	822.67
741.892	854.42
742.334	862.22
742.775	858.47
743.217	832.82
743.658	696.37
744.1	719.92
744.542	834.77
744.983	866.07
745.425	904.57
745.866	875.47
746.307	724.37
746.749	763.07
747.19	1094.02
747.632	2120.52
748.073	3941.67
748.514	5469.42
748.956	7234.72
749.397	8472.62
749.838	5877.77
750.279	5581.07
750.72	2911.97
751.162	1235.97
751.603	711.07
752.044	573.22
752.485	506.62
752.926	473.57
753.367	457.82
753.808	435.42
754.249	442.62
754.69	432.77
755.131	422.42
755.572	425.82
756.013	425.37
756.453	430.12
756.894	434.22
757.335	433.92
757.776	441.37
758.216	457.47
758.657	487.42
759.098	537.47
759.538	648.22
759.979	934.22
760.42	1876.32
760.86	4777.82
761.301	9868.37
761.741	11659.32
762.182	13339.57
762.622	8678.62
763.063	3113.52
763.503	1276.32
763.943	752.62
764.384	596.22
764.824	512.47
765.264	474.92
765.705	449.67
766.145	421.12
766.585	408.57
767.025	397.77
767.465	394.22
767.906	406.32
768.346	434.52
768.786	495.62
769.226	734.42
769.666	1457.97
770.106	3280.97
770.546	4696.37
770.986	5281.17
771.426	4007.02
771.866	1681.37
772.306	758.82
772.745	468.27
773.185	394.47
773.625	390.17
774.065	417.77
774.505	607.17
774.944	1096.22
775.384	1586.22
775.824	1777.92
776.263	1468.82
776.703	775.57
777.142	449.07
777.582	335.87
778.021	301.72
778.461	287.42
778.9	285.07
779.34	272.37
779.779	267.52
780.219	267.47
780.658	257.02
781.097	258.02
781.537	248.52
781.976	248.92
782.415	243.12
782.855	247.62
783.294	245.87
783.733	237.27
784.172	244.67
784.611	247.97
785.05	252.92
785.489	259.37
785.928	261.32
786.367	275.17
786.806	293.37
787.245	308.82
787.684	322.82
788.123	322.17
788.562	308.62
789.001	297.42
789.44	290.17
789.879	290.92
790.317	291.77
790.756	309.52
791.195	348.87
791.634	477.42
792.072	850.22
792.511	2072.37
792.95	3838.92
793.388	4630.42
793.827	3026.22
794.265	1386.37
794.704	672.97
795.142	411.92
795.581	335.62
796.019	307.92
796.458	308.82
796.896	314.27
797.334	358.52
797.773	489.72
798.211	925.62
798.649	1923.92
799.087	3214.77
799.526	4556.52
799.964	4704.17
800.402	3248.62
800.84	1468.17
801.278	722.52
801.716	444.12
802.154	356.37
802.592	342.57
803.03	342.22
803.468	338.82
803.906	344.47
804.344	343.77
804.782	333.27
805.22	329.77
805.658	345.72
806.096	370.27
806.533	414.67
806.971	527.12
807.409	761.92
807.847	1517.07
808.284	3848.62
808.722	6759.27
809.16	9484.42
809.597	12842.27
810.035	15431.22
810.472	10422.82
810.91	4447.12
811.347	1998.42
811.785	950.37
812.222	592.37
812.66	453.67
813.097	388.62
813.535	333.42
813.972	304.67
814.409	283.47
814.846	272.82
815.284	251.22
815.721	262.57
816.158	294.62
816.595	401.37
817.032	509.77
817.47	465.87
817.907	333.17
818.344	293.52
818.781	289.67
819.218	356.42
819.655	545.52
820.092	704.87
820.529	641.37
820.966	498.62
821.403	338.42
821.839	289.92
822.276	319.82
822.713	384.12
823.15	358.22
823.587	369.32
824.023	637.82
824.46	1578.62
824.897	2755.22
825.333	2152.87
825.77	989.87
826.206	524.62
826.643	305.97
827.08	228.62
827.516	200.22
827.953	189.07
828.389	177.27
828.825	172.62
829.262	162.67
829.698	154.87
830.135	153.47
830.571	147.62
831.007	152.52
831.443	150.87
831.88	148.97
832.316	159.27
832.752	158.42
833.188	161.57
833.624	161.12
834.06	165.47
834.497	160.02
834.933	169.62
835.369	181.37
835.805	190.02
836.241	199.82
836.677	220.92
837.112	252.17
837.548	313.32
837.984	469.12
838.42	1001.27
838.856	2757.87
839.292	5446.62
839.727	4097.42
840.163	2734.62
840.599	4135.02
841.034	6354.07
841.47	3216.57
841.906	1542.47
842.341	832.87
842.777	618.57
843.212	651.52
843.648	403.57
844.083	269.92
844.519	201.42
844.954	170.82
845.39	150.12
845.825	152.92
846.261	140.67
846.696	136.47
847.131	130.37
847.566	137.82
848.002	136.32
848.437	145.82
848.872	147.97
849.307	192.22
849.742	351.32
850.177	904.47
850.613	1913.52
851.048	1398.82
851.483	644.77
851.918	357.17
852.353	198.97
852.788	137.52
853.223	130.67
853.657	116.87
854.092	112.77
854.527	114.17
854.962	116.47
855.397	130.12
855.832	116.37
856.266	104.27
856.701	104.87
857.136	105.27
857.57	131.17
858.005	162.77
858.44	130.92
858.874	125.62
859.309	127.92
859.743	120.57
860.178	118.12
860.612	127.57
861.047	183.52
861.481	259.47
861.915	182.37
862.35	132.37
862.784	103.67
863.218	100.17
863.653	111.22
864.087	131.77
864.521	160.07
864.955	266.02
865.39	455.52
865.824	359.27
866.258	466.77
866.692	721.27
867.126	522.87
867.56	278.62
867.994	177.12
868.428	151.57
868.862	187.22
869.296	172.57
869.73	210.02
870.164	183.07
870.598	166.37
871.031	112.02
871.465	98.67
871.899	76.72
872.333	70.07
872.766	76.57
873.2	75.72
873.634	72.62
874.067	75.07
874.501	73.77
874.935	78.57
875.368	75.82
875.802	72.52
876.235	62.47
876.669	63.22
877.102	61.07
877.535	62.17
877.969	52.87
878.402	61.07
878.836	57.77
879.269	57.62
879.702	56.47
880.135	61.52
880.569	62.22
881.002	49.57
881.435	56.02
881.868	58.12
882.301	53.17
882.734	52.32
883.167	52.37
883.601	52.32
884.034	54.82
884.467	45.07
884.899	49.92
885.332	45.42
885.765	50.77
886.198	49.47
886.631	47.22
887.064	45.42
887.497	47.82
887.929	46.32
888.362	46.47
888.795	45.17
889.228	54.72
889.66	50.42
890.093	42.77
890.526	43.62
890.958	46.92
891.391	45.57
891.823	43.62
892.256	44.82
892.688	48.27
893.121	42.57
893.553	45.42
893.985	41.62
894.418	39.07
894.85	45.77
895.282	42.82
895.715	37.47
896.147	37.97
896.579	37.97
897.011	45.62
897.444	42.62
897.876	34.47
898.308	38.72
898.74	41.82
899.172	41.42
899.604	42.97
900.036	42.57
900.468	36.57
900.9	48.62
901.332	58.02
901.764	60.87
902.196	55.97
902.628	56.32
903.06	84.17
903.491	92.92
903.923	75.67
904.355	74.72
904.787	79.32
905.218	61.22
905.65	58.27
906.082	49.97
906.513	47.82
906.945	46.42
907.376	46.47
907.808	50.77
908.239	49.72
908.671	62.22
909.102	65.97
909.534	89.37
909.965	176.32
910.397	452.82
910.828	1281.72
911.259	794.57
911.691	429.42
912.122	252.12
912.553	127.12
912.984	70.32
913.415	63.12
913.847	57.12
914.278	51.97
914.709	44.97
915.14	40.27
915.571	45.02
916.002	43.27
916.433	38.12
916.864	42.27
917.295	42.57
917.726	51.22
918.157	65.97
918.587	64.37
919.018	62.12
919.449	54.12
919.88	66.12
920.311	96.97
920.741	269.67
921.172	475.27
921.603	241.37
922.033	149.12
922.464	97.77
922.895	65.52
923.325	44.07
923.756	41.47
924.186	53.62
924.617	77.97
925.047	109.82
925.478	98.17
925.908	70.82
926.338	52.37
926.769	43.22
927.199	39.77
927.629	38.92
928.06	39.02
928.49	38.87
928.92	32.17
929.35	33.52
929.78	23.67
930.21	25.52
930.641	18.67
931.071	25.97
931.501	25.17
931.931	19.62
932.361	23.12
932.791	28.47
933.221	28.97
933.651	37.62
934.08	64.27
934.51	40.57
934.94	33.17
935.37	24.97
935.8	19.27
936.229	21.02
936.659	19.52
937.089	36.32
937.519	57.82
937.948	82.27
938.378	48.92
938.807	25.97
939.237	18.02
939.666	15.22
940.096	13.57
940.525	7.67
940.955	15.27
941.384	11.87
941.814	15.27
942.243	13.52
942.672	8.27
943.102	10.12
943.531	7.07
943.96	10.32
944.39	11.37
944.819	12.17
945.248	8.87
945.677	14.32
946.106	12.67
946.535	11.22
946.964	12.52
947.393	9.42
947.822	6.92
948.251	14.22
948.68	10.02
949.109	11.07
949.538	9.02
949.967	7.67
950.396	5.67
950.825	12.37
951.254	7.22
951.682	8.72
952.111	5.07
952.54	4.42
952.969	9.67
953.397	6.47
953.826	7.22
954.254	10.37
954.683	8.17
955.112	14.82
955.54	6.87
955.969	6.12
956.397	8.67
956.826	10.37
957.254	7.97
957.682	7.77
958.111	9.22
958.539	8.47
958.967	4.67
959.396	14.07
959.824	5.52
960.252	10.12
960.68	4.87
961.109	12.42
961.537	13.12
961.965	5.42
962.393	5.32
962.821	9.57
963.249	8.72
963.677	14.82
964.105	77.97
964.533	135.67
964.961	70.77
965.389	35.62
965.817	18.97
966.245	15.32
966.672	4.37
967.1	11.22
967.528	4.02
967.956	3.17
968.383	6.77
968.811	6.47
969.239	5.22
969.666	4.62
970.094	11.47
970.522	2.27
970.949	5.32
971.377	-1.03
971.804	1.02
972.232	1.07
972.659	5.87
973.087	6.02
973.514	4.82
973.941	2.22
974.369	3.12
974.796	1.97
975.223	2.57
975.651	3.92
976.078	5.07
976.505	9.37
976.932	33.02
977.359	45.77
977.786	27.97
978.214	21.72
978.641	11.12
979.068	6.07
979.495	6.57
979.922	4.92
980.349	7.12
980.776	10.72
981.202	6.62
981.629	8.92
982.056	4.87
982.483	0.32
982.91	6.82
983.337	-1.23
983.763	1.22
984.19	8.97
984.617	0.87
985.043	7.22
985.47	6.27
985.897	5.12
986.323	11.42
986.75	5.57
987.176	4.07
987.603	3.67
988.029	8.07
988.456	7.47
988.882	1.52
989.308	-0.78
989.735	0.52
990.161	4.07
990.587	4.42
991.014	4.67
991.44	7.92
991.866	5.82
992.292	5.32
992.719	3.12
993.145	5.42
993.571	4.92
993.997	8.12
994.423	6.02
994.849	-3.78
995.275	8.22
995.701	5.37
996.127	-3.13
996.553	0.67
996.979	1.47
997.405	4.72
997.83	8.02
998.256	9.62
998.682	1.47
999.108	3.12
999.534	-1.28
999.959	-0.48
1000.385	4.62
1000.811	-0.03
1001.236	-1.33
1001.662	0.02
1002.087	4.67
1002.513	2.22
1002.938	-3.43
1003.364	2.82
1003.789	7.32
1004.215	5.17
1004.64	-3.28
1005.066	1.32
1005.491	5.62
1005.916	6.02
1006.342	3.62
1006.767	5.22
1007.192	8.82
1007.617	3.92
1008.042	1.72
1008.468	0.92
1008.893	8.42
1009.318	7.47
1009.743	17.22
1010.168	22.82
1010.593	23.77
1011.018	14.22
1011.443	8.57
1011.868	8.02
1012.293	3.02
1012.718	2.77
1013.143	0.92
1013.567	6.47
1013.992	5.92
1014.417	6.32
1014.842	1.47
1015.267	4.27
1015.691	6.02
1016.116	2.47
1016.541	2.57
1016.965	4.52
1017.39	6.32
1017.814	1.47
1018.239	-3.03
1018.663	-6.53
1019.088	-1.03
1019.512	7.07
1019.937	-2.43
1020.361	0.92
1020.785	0.87
1021.21	-2.18
1021.634	0.27
1022.058	0.22
1022.483	-3.08
1022.907	-0.63
1023.331	-0.38
1023.755	-3.83
1024.179	1.42
1024.604	-3.68
1025.028	4.42
1025.452	1.52
1025.876	0.42
1026.3	1.72
1026.724	0.37
1027.148	0.07
1027.572	0.02
1027.996	-0.48
1028.42	-1.68
1028.843	-2.03
1029.267	-0.78
1029.691	2.02
1030.115	-0.13
1030.539	-0.93
1030.962	-2.48
1031.386	3.82
1031.81	-0.58
1032.233	-1.43
1032.657	-6.48
1033.08	3.72
1033.504	-0.48
1033.927	-1.93
1034.351	-1.73
1034.774	0.72
1035.198	-4.28
1035.621	-0.93
1036.045	-1.28
1036.468	8.77
1036.891	1.52
1037.315	0.87
1037.738	0.62
1038.161	0.67
1038.584	-1.68
1039.008	2.27
1039.431	-2.43
1039.854	-2.88
1040.277	4.32
1040.7	-6.18
1041.123	2.47
1041.546	-3.68
1041.969	3.32
1042.392	1.57
1042.815	-9.48
1043.238	-2.78
1043.661	-0.63
1044.084	-1.58
1044.507	-2.58
1044.93	-3.63
1045.352	-2.13
1045.775	1.47
1046.198	6.92
1046.621	5.77
1047.043	3.12
1047.466	0.47
1047.889	3.12
1048.311	5.87
1048.734	-1.73
1049.156	-2.53
1049.579	-1.83
1050.001	-0.08
1050.424	0.22
1050.846	-3.98
1051.269	-6.83
1051.691	-2.73
1052.113	-1.83
1052.536	0.37
1052.958	-3.03
1053.38	0.62
1053.802	-0.53
1054.225	3.07
1054.647	-0.13
1055.069	-1.93
1055.491	3.92
1055.913	2.22
1056.335	-6.58
1056.757	-4.63
1057.179	-1.13
1057.601	1.17
1058.023	0.57
1058.445	-3.18
1058.867	-3.88
1059.289	-0.28
1059.711	-6.23
1060.133	0.17
1060.555	0.72
1060.976	-2.53
1061.398	-0.53
1061.82	-3.63
1062.241	-1.38
1062.663	-2.28
1063.085	-3.63
1063.506	-6.08
1063.928	-2.18
1064.35	-1.48
1064.771	-0.78
1065.193	-8.23
1065.614	-2.93
1066.035	6.02
1066.457	-1.28
1066.878	-2.08
1067.3	-5.38
1067.721	1.22
1068.142	4.62
1068.564	-1.03
1068.985	-0.73
1069.406	-6.03
1069.827	-0.53
1070.248	-4.88
1070.67	-6.53
1071.091	-0.08
1071.512	-2.83
1071.933	-2.43
1072.354	-5.73
1072.775	-1.38
1073.196	-1.03
1073.617	-4.13
1074.038	-2.13
1074.459	-2.53
1074.88	-0.03
1075.3	-1.53
1075.721	1.72
1076.142	-4.38
1076.563	-7.63
1076.983	1.07
1077.404	-8.03
1077.825	-3.48
1078.246	-3.38
1078.666	-3.73
1079.087	-2.08
1079.507	-5.33
1079.928	-2.93
1080.348	-1.98
1080.769	-3.03
1081.189	-2.38
1081.61	-4.93
1082.03	1.27
1082.451	-0.48
1082.871	-5.88
1083.291	-2.03
1083.711	-0.98
1084.132	-6.23
1084.552	-6.48
1084.972	-3.88
1085.392	-5.78
1085.813	-0.93
1086.233	-2.38
1086.653	2.17
1087.073	-2.18
1087.493	-2.83
1087.913	-9.08
1088.333	-2.73
1088.753	-2.53
1089.173	2.67
1089.593	0.82
1090.013	-1.48
1090.433	-6.43
1090.852	2.87
1091.272	-5.33
1091.692	-0.38
1092.112	-3.73
1092.531	-6.93
1092.951	-3.78
1093.371	-5.93
1093.79	-0.58
1094.21	-2.28
1094.63	-2.73
1095.049	-1.48
1095.469	-9.58
1095.888	-1.08
1096.308	0.17
1096.727	-2.28
1097.146	-4.28
1097.566	-1.63
1097.985	-2.48
1098.405	-1.13
1098.824	2.72
1099.243	-0.88
1099.662	-2.78
1100.082	-4.78
1100.501	0.32
1100.92	2.57
1101.339	4.12
1101.758	4.42
