Data from MSPlasma+Separation6_Subt14_10-13-33-161.txt Node
Date: Fri Jul 21 10:13:33 EDT 2017
User: Ender
Spectrometer: HR+D1039
Trigger mode: 0
Integration Time (sec): 6.430000E-3
Scans to average: 20
Electric dark correction enabled: true
Nonlinearity correction enabled: false
Boxcar width: 0
XAxis mode: Wavelengths
Number of Pixels in Spectrum: 2048
>>>>>Begin Spectral Data<<<<<
187.836	-1.17
188.309	-1.17
188.782	-1.17
189.255	3.38
189.728	0.68
190.201	-0.02
190.674	2.73
191.147	-0.97
191.619	-3.12
192.092	-4.62
192.565	-1.17
193.038	1.73
193.511	4.58
193.984	-0.92
194.456	-0.37
194.929	-0.37
195.402	-2.07
195.874	1.63
196.347	2.73
196.82	2.98
197.292	-0.07
197.765	-2.32
198.237	-2.22
198.71	-5.72
199.182	-0.32
199.655	4.53
200.127	4.98
200.6	0.88
201.072	1.28
201.544	-1.12
202.017	7.38
202.489	1.98
202.961	-2.67
203.433	0.08
203.906	-0.72
204.378	3.03
204.85	2.13
205.322	-3.77
205.794	2.08
206.266	-0.27
206.739	4.63
207.211	-2.72
207.683	3.33
208.155	1.28
208.627	3.33
209.099	5.58
209.57	3.13
210.042	4.63
210.514	2.08
210.986	-2.47
211.458	-2.57
211.93	5.38
212.402	4.98
212.873	5.33
213.345	-1.87
213.817	2.68
214.288	2.58
214.76	2.18
215.232	2.98
215.703	2.58
216.175	2.58
216.646	2.03
217.118	4.03
217.589	0.73
218.061	0.33
218.532	-0.52
219.004	5.88
219.475	3.68
219.946	5.23
220.418	8.88
220.889	5.43
221.36	6.68
221.832	9.58
222.303	8.08
222.774	5.23
223.245	7.03
223.717	5.18
224.188	11.33
224.659	6.38
225.13	2.93
225.601	7.18
226.072	8.48
226.543	12.48
227.014	7.78
227.485	7.93
227.956	7.28
228.427	10.03
228.898	10.08
229.369	9.33
229.839	7.83
230.31	8.08
230.781	10.38
231.252	16.08
231.722	12.28
232.193	11.33
232.664	11.08
233.135	9.08
233.605	12.38
234.076	18.13
234.546	13.23
235.017	16.48
235.487	16.18
235.958	12.68
236.428	13.33
236.899	11.53
237.369	20.38
237.84	17.58
238.31	21.43
238.78	13.58
239.251	15.88
239.721	14.58
240.191	16.18
240.662	20.33
241.132	17.78
241.602	20.33
242.072	14.53
242.542	21.38
243.013	21.43
243.483	24.88
243.953	17.03
244.423	23.38
244.893	19.38
245.363	20.78
245.833	20.58
246.303	23.93
246.773	30.13
247.243	23.93
247.712	25.08
248.182	25.28
248.652	27.63
249.122	25.13
249.592	31.03
250.061	22.58
250.531	28.73
251.001	29.63
251.471	29.68
251.94	24.98
252.41	29.53
252.879	33.03
253.349	40.13
253.818	29.53
254.288	37.98
254.757	34.43
255.227	39.73
255.696	34.98
256.166	40.93
256.635	40.28
257.105	38.53
257.574	34.23
258.043	37.63
258.513	39.33
258.982	37.68
259.451	45.08
259.92	37.48
260.389	42.98
260.859	45.68
261.328	46.48
261.797	43.98
262.266	49.78
262.735	44.33
263.204	39.68
263.673	49.48
264.142	47.43
264.611	47.23
265.08	47.53
265.549	46.43
266.018	51.28
266.487	49.58
266.955	46.48
267.424	55.28
267.893	55.13
268.362	52.58
268.83	51.73
269.299	50.98
269.768	53.08
270.236	56.43
270.705	60.28
271.174	54.18
271.642	62.58
272.111	62.88
272.579	62.68
273.048	61.33
273.516	61.98
273.985	58.18
274.453	63.03
274.922	62.18
275.39	62.38
275.858	61.83
276.327	60.63
276.795	67.08
277.263	71.48
277.731	64.43
278.2	69.03
278.668	68.63
279.136	71.38
279.604	74.58
280.072	70.18
280.54	74.58
281.008	72.48
281.477	80.58
281.945	71.13
282.413	77.18
282.881	77.13
283.348	78.28
283.816	77.98
284.284	81.18
284.752	84.48
285.22	82.13
285.688	81.68
286.156	86.13
286.623	81.53
287.091	83.48
287.559	85.78
288.026	87.58
288.494	90.88
288.962	89.28
289.429	87.93
289.897	92.98
290.364	86.98
290.832	91.63
291.3	85.83
291.767	90.98
292.234	96.08
292.702	97.08
293.169	98.08
293.637	94.58
294.104	96.88
294.571	96.53
295.039	96.98
295.506	97.78
295.973	99.03
296.44	99.88
296.908	103.23
297.375	102.33
297.842	107.68
298.309	104.53
298.776	103.93
299.243	110.58
299.71	105.93
300.177	106.73
300.644	109.73
301.111	110.18
301.578	115.23
302.045	116.33
302.512	110.33
302.979	117.23
303.446	118.78
303.913	126.38
304.379	123.03
304.846	122.43
305.313	131.33
305.78	130.83
306.246	128.03
306.713	131.18
307.18	134.03
307.646	136.58
308.113	140.88
308.579	141.08
309.046	141.48
309.512	139.23
309.979	147.28
310.445	144.83
310.912	152.43
311.378	153.78
311.845	149.83
312.311	149.78
312.777	151.23
313.244	160.43
313.71	155.53
314.176	163.38
314.642	162.88
315.109	161.18
315.575	157.23
316.041	159.43
316.507	163.73
316.973	174.98
317.439	172.93
317.905	170.28
318.371	169.88
318.837	169.58
319.303	174.28
319.769	172.03
320.235	179.23
320.701	178.98
321.167	172.03
321.633	182.93
322.099	176.93
322.564	182.73
323.03	182.88
323.496	188.23
323.962	188.53
324.427	193.03
324.893	188.38
325.359	197.93
325.824	197.53
326.29	201.08
326.755	193.98
327.221	198.13
327.686	211.83
328.152	206.43
328.617	213.78
329.083	219.23
329.548	221.53
330.014	218.23
330.479	220.58
330.944	220.73
331.41	233.18
331.875	219.33
332.34	220.33
332.805	227.33
333.271	225.58
333.736	227.03
334.201	227.03
334.666	246.43
335.131	249.58
335.596	246.58
336.061	239.03
336.526	233.98
336.991	231.78
337.456	232.13
337.921	226.88
338.386	230.43
338.851	233.88
339.316	230.83
339.781	231.78
340.246	242.63
340.711	243.33
341.175	246.53
341.64	256.63
342.105	251.33
342.569	264.88
343.034	261.23
343.499	261.13
343.963	269.38
344.428	276.38
344.893	271.68
345.357	283.88
345.822	278.73
346.286	277.58
346.751	286.68
347.215	289.03
347.679	301.93
348.144	327.43
348.608	323.18
349.073	326.58
349.537	333.48
350.001	336.28
350.465	326.48
350.93	328.18
351.394	338.53
351.858	334.33
352.322	344.58
352.786	345.53
353.25	345.23
353.715	353.03
354.179	367.48
354.643	374.58
355.107	377.48
355.571	368.98
356.035	370.48
356.498	368.28
356.962	372.83
357.426	368.33
357.89	365.73
358.354	362.43
358.818	365.13
359.281	363.03
359.745	368.08
360.209	362.03
360.673	358.73
361.136	364.48
361.6	368.73
362.064	376.23
362.527	384.68
362.991	382.28
363.454	377.28
363.918	391.83
364.381	394.28
364.845	385.33
365.308	387.83
365.772	400.43
366.235	395.43
366.698	395.38
367.162	393.73
367.625	400.08
368.088	412.73
368.552	400.28
369.015	406.93
369.478	412.98
369.941	414.08
370.404	419.83
370.867	411.23
371.331	413.58
371.794	433.28
372.257	431.38
372.72	430.58
373.183	436.53
373.646	435.33
374.109	437.68
374.572	439.88
375.035	441.43
375.497	452.18
375.96	455.13
376.423	464.53
376.886	464.88
377.349	476.48
377.811	474.13
378.274	469.53
378.737	465.38
379.199	476.88
379.662	478.08
380.125	487.28
380.587	487.78
381.05	501.18
381.512	499.28
381.975	513.08
382.437	528.78
382.9	525.08
383.362	523.83
383.825	530.93
384.287	533.68
384.75	535.23
385.212	535.13
385.674	535.23
386.136	544.33
386.599	543.43
387.061	538.43
387.523	549.48
387.985	549.13
388.447	557.93
388.91	553.88
389.372	556.53
389.834	559.88
390.296	547.93
390.758	561.48
391.22	558.93
391.682	557.48
392.144	563.98
392.606	566.73
393.068	586.73
393.529	606.23
393.991	623.58
394.453	589.28
394.915	581.03
395.377	564.83
395.838	572.83
396.3	569.38
396.762	584.53
397.224	585.73
397.685	575.13
398.147	582.58
398.608	592.33
399.07	604.78
399.531	604.53
399.993	617.73
400.454	621.83
400.916	622.83
401.377	641.48
401.839	645.53
402.3	644.63
402.762	671.43
403.223	713.73
403.684	715.13
404.145	688.13
404.607	672.88
405.068	664.03
405.529	674.33
405.99	686.48
406.451	696.03
406.913	677.48
407.374	692.88
407.835	684.93
408.296	699.78
408.757	705.63
409.218	722.98
409.679	734.83
410.14	733.88
410.601	754.08
411.062	756.08
411.522	757.63
411.983	756.28
412.444	764.23
412.905	778.73
413.366	801.03
413.826	845.08
414.287	939.63
414.748	1112.03
415.208	1138.63
415.669	955.73
416.13	865.18
416.59	848.63
417.051	882.83
417.511	927.43
417.972	991.98
418.432	1059.88
418.893	1168.68
419.353	1119.63
419.814	879.38
420.274	790.33
420.734	770.43
421.195	793.63
421.655	795.93
422.115	809.88
422.576	798.58
423.036	814.33
423.496	840.23
423.956	868.78
424.416	922.43
424.876	1036.38
425.336	1036.88
425.797	1023.08
426.257	1003.98
426.717	956.53
427.177	892.38
427.637	898.58
428.097	931.73
428.556	973.63
429.016	1034.33
429.476	1041.18
429.936	1028.18
430.396	1030.48
430.856	1049.78
431.315	1076.38
431.775	1150.73
432.235	1222.98
432.694	1245.78
433.154	1180.13
433.614	1161.03
434.073	1121.53
434.533	1005.33
434.993	975.48
435.452	967.43
435.912	948.83
436.371	952.63
436.83	937.53
437.29	913.43
437.749	895.18
438.209	889.23
438.668	901.83
439.127	915.53
439.587	894.68
440.046	864.83
440.505	885.18
440.964	890.98
441.424	928.13
441.883	942.38
442.342	890.08
442.801	852.93
443.26	868.23
443.719	854.08
444.178	849.88
444.637	871.93
445.096	866.58
445.555	871.88
446.014	870.38
446.473	869.08
446.932	871.83
447.391	880.28
447.849	897.28
448.308	882.68
448.767	880.43
449.226	902.33
449.685	919.28
450.143	956.03
450.602	943.78
451.061	895.78
451.519	904.68
451.978	881.78
452.436	884.93
452.895	889.93
453.353	896.53
453.812	874.48
454.27	884.38
454.729	885.13
455.187	900.48
455.646	895.83
456.104	903.28
456.562	915.33
457.021	930.23
457.479	888.03
457.937	909.83
458.395	941.23
458.854	930.38
459.312	914.48
459.77	930.53
460.228	936.38
460.686	953.53
461.144	950.58
461.602	942.38
462.06	945.08
462.518	960.43
462.976	959.88
463.434	981.48
463.892	983.88
464.35	1003.28
464.808	1016.08
465.266	1029.08
465.724	1034.93
466.181	1042.28
466.639	1037.08
467.097	1073.28
467.555	1115.18
468.012	1111.08
468.47	1123.08
468.928	1161.83
469.385	1185.98
469.843	1202.08
470.3	1189.78
470.758	1230.38
471.215	1248.33
471.673	1278.58
472.13	1311.43
472.588	1340.73
473.045	1333.13
473.503	1350.68
473.96	1416.68
474.417	1431.08
474.875	1489.73
475.332	1538.48
475.789	1569.28
476.246	1616.68
476.704	1685.73
477.161	1730.58
477.618	1784.98
478.075	1873.33
478.532	2021.08
478.989	2167.43
479.446	2401.73
479.903	2525.98
480.36	2739.03
480.817	2907.08
481.274	3087.08
481.731	3349.53
482.188	3621.73
482.645	3864.73
483.102	4096.88
483.558	4362.03
484.015	4554.38
484.472	4518.88
484.929	4384.83
485.385	4215.13
485.842	4119.33
486.299	3962.48
486.755	3641.93
487.212	3295.88
487.668	2975.08
488.125	2754.28
488.582	2553.68
489.038	2459.08
489.494	2374.43
489.951	2309.63
490.407	2246.88
490.864	2194.48
491.32	2151.43
491.776	2149.93
492.233	2139.83
492.689	2104.23
493.145	2062.13
493.602	2042.88
494.058	2056.38
494.514	2049.93
494.97	2049.83
495.426	2084.78
495.882	2088.73
496.338	2070.58
496.794	2093.23
497.251	2071.38
497.707	2102.88
498.163	2111.18
498.618	2102.38
499.074	2092.53
499.53	2122.03
499.986	2134.58
500.442	2114.23
500.898	2095.63
501.354	2123.33
501.809	2119.58
502.265	2112.23
502.721	2135.98
503.177	2138.18
503.632	2151.03
504.088	2165.28
504.543	2185.88
504.999	2201.43
505.455	2195.08
505.91	2170.03
506.366	2170.23
506.821	2173.93
507.277	2166.33
507.732	2180.03
508.187	2164.83
508.643	2192.43
509.098	2198.13
509.553	2218.38
510.009	2242.93
510.464	2277.88
510.919	2301.23
511.375	2321.38
511.83	2350.08
512.285	2379.98
512.74	2422.33
513.195	2448.43
513.65	2490.18
514.105	2530.78
514.56	2520.88
515.015	2565.53
515.47	2576.58
515.925	2557.08
516.38	2556.38
516.835	2563.38
517.29	2543.73
517.745	2549.38
518.2	2510.38
518.655	2461.63
519.109	2439.13
519.564	2397.23
520.019	2389.98
520.474	2374.58
520.928	2353.53
521.383	2330.63
521.838	2324.53
522.292	2302.83
522.747	2297.48
523.201	2288.93
523.656	2271.83
524.11	2255.08
524.565	2249.08
525.019	2250.58
525.474	2246.08
525.928	2234.18
526.382	2239.83
526.837	2239.93
527.291	2248.78
527.745	2233.18
528.2	2233.03
528.654	2206.18
529.108	2212.03
529.562	2214.18
530.016	2212.33
530.47	2221.38
530.925	2199.33
531.379	2202.88
531.833	2232.93
532.287	2229.43
532.741	2212.13
533.195	2214.78
533.649	2217.93
534.103	2215.03
534.556	2201.03
535.01	2210.23
535.464	2202.83
535.918	2205.43
536.372	2216.58
536.826	2211.98
537.279	2193.28
537.733	2194.88
538.187	2209.03
538.64	2217.18
539.094	2235.33
539.548	2254.88
540.001	2256.43
540.455	2257.68
540.908	2277.58
541.362	2296.03
541.815	2314.18
542.269	2355.98
542.722	2346.28
543.175	2381.73
543.629	2392.78
544.082	2404.68
544.536	2438.38
544.989	2432.13
545.442	2451.28
545.895	2442.08
546.349	2434.23
546.802	2434.78
547.255	2433.88
547.708	2459.23
548.161	2485.43
548.614	2480.33
549.067	2485.38
549.52	2478.73
549.973	2452.43
550.426	2439.38
550.879	2432.53
551.332	2440.83
551.785	2456.48
552.238	2477.38
552.691	2475.93
553.144	2514.78
553.596	2553.18
554.049	2580.73
554.502	2627.48
554.955	2668.88
555.407	2701.43
555.86	2685.68
556.313	2655.58
556.765	2622.48
557.218	2596.43
557.67	2591.68
558.123	2561.83
558.576	2556.03
559.028	2539.28
559.48	2552.83
559.933	2552.73
560.385	2480.68
560.838	2401.03
561.29	2349.48
561.742	2322.33
562.195	2274.68
562.647	2259.38
563.099	2240.73
563.551	2227.68
564.004	2255.68
564.456	2233.58
564.908	2183.43
565.36	2130.53
565.812	2089.78
566.264	2075.03
566.716	2059.13
567.168	2022.48
567.62	2024.38
568.072	2008.18
568.524	1990.23
568.976	1988.78
569.428	1963.58
569.88	1961.43
570.332	1977.68
570.784	1977.68
571.235	1971.18
571.687	1987.13
572.139	1986.53
572.59	2004.08
573.042	2011.78
573.494	2006.43
573.945	1982.23
574.397	1937.88
574.849	1931.83
575.3	1945.08
575.752	1914.48
576.203	1895.98
576.655	1914.98
577.106	1874.73
577.557	1877.83
578.009	1864.43
578.46	1863.48
578.912	1837.03
579.363	1865.28
579.814	1855.78
580.265	1864.53
580.717	1848.18
581.168	1851.83
581.619	1863.03
582.07	1881.28
582.521	1873.93
582.972	1865.28
583.423	1876.73
583.875	1886.93
584.326	1904.13
584.777	1924.33
585.227	1963.08
585.678	1980.78
586.129	2003.03
586.58	2026.18
587.031	2042.63
587.482	2114.08
587.933	2144.18
588.384	2131.53
588.834	2089.63
589.285	2104.23
589.736	2096.43
590.186	2084.83
590.637	2073.78
591.088	2020.63
591.538	1987.23
591.989	1958.48
592.439	1928.93
592.89	1918.63
593.34	1905.08
593.791	1906.83
594.241	1890.88
594.692	1879.13
595.142	1876.48
595.593	1872.93
596.043	1893.38
596.493	1901.73
596.943	1896.58
597.394	1955.13
597.844	1979.78
598.294	2011.53
598.744	2078.03
599.195	2178.63
599.645	2298.08
600.095	2409.33
600.545	2506.93
600.995	2629.38
601.445	2714.13
601.895	2837.08
602.345	2915.58
602.795	2885.33
603.245	2786.58
603.695	2638.68
604.145	2499.33
604.594	2377.43
605.044	2250.23
605.494	2121.58
605.944	2010.23
606.393	1955.48
606.843	1927.88
607.293	1922.13
607.743	1909.93
608.192	1917.83
608.642	1919.93
609.091	1922.38
609.541	1910.93
609.99	1914.78
610.44	1885.98
610.889	1857.73
611.339	1823.28
611.788	1811.68
612.238	1820.08
612.687	1819.53
613.136	1839.88
613.586	1854.33
614.035	1833.98
614.484	1857.38
614.933	1848.58
615.383	1819.73
615.832	1784.83
616.281	1750.53
616.73	1712.13
617.179	1690.63
617.628	1638.53
618.077	1622.83
618.526	1597.03
618.975	1589.98
619.424	1558.23
619.873	1558.48
620.322	1546.88
620.771	1551.03
621.22	1512.93
621.669	1494.23
622.118	1478.08
622.567	1467.13
623.015	1441.53
623.464	1436.08
623.913	1421.63
624.361	1427.98
624.81	1416.98
625.259	1412.73
625.707	1413.73
626.156	1413.93
626.604	1433.83
627.053	1438.08
627.501	1434.38
627.95	1453.18
628.398	1463.08
628.847	1452.48
629.295	1438.33
629.744	1430.08
630.192	1401.28
630.64	1383.53
631.089	1375.38
631.537	1335.58
631.985	1320.28
632.433	1323.53
632.881	1312.13
633.33	1319.43
633.778	1311.88
634.226	1323.78
634.674	1341.38
635.122	1347.03
635.57	1362.98
636.018	1392.28
636.466	1379.78
636.914	1385.23
637.362	1414.63
637.81	1434.13
638.258	1476.88
638.705	1486.08
639.153	1539.88
639.601	1548.83
640.049	1577.03
640.497	1623.93
640.944	1664.78
641.392	1599.53
641.84	1522.68
642.287	1451.58
642.735	1431.23
643.182	1408.38
643.63	1416.43
644.078	1416.23
644.525	1437.08
644.973	1482.53
645.42	1502.53
645.867	1547.68
646.315	1573.98
646.762	1643.23
647.21	1687.93
647.657	1777.43
648.104	1844.48
648.551	1895.63
648.999	2043.93
649.446	2243.58
649.893	2512.03
650.34	2937.73
650.787	3631.38
651.234	4660.18
651.682	6416.73
652.129	9055.98
652.576	12755.18
653.023	15530.03
653.47	15533.23
653.917	15533.28
654.363	15533.18
654.81	15530.18
655.257	15530.83
655.704	15533.68
656.151	10003.53
656.598	6581.78
657.044	4728.28
657.491	3682.63
657.938	2995.58
658.385	2531.83
658.831	2239.38
659.278	2000.53
659.724	1830.53
660.171	1712.58
660.618	1574.18
661.064	1485.33
661.511	1444.93
661.957	1412.33
662.404	1368.38
662.85	1354.03
663.296	1335.38
663.743	1298.38
664.189	1281.58
664.635	1277.93
665.082	1248.68
665.528	1228.28
665.974	1197.03
666.42	1169.78
666.867	1163.08
667.313	1107.33
667.759	1107.38
668.205	1090.18
668.651	1088.68
669.097	1089.53
669.543	1094.53
669.989	1104.63
670.435	1103.23
670.881	1115.83
671.327	1159.38
671.773	1239.93
672.219	1325.68
672.665	1419.53
673.11	1459.88
673.556	1480.23
674.002	1503.98
674.448	1529.63
674.893	1312.73
675.339	1150.93
675.785	1051.38
676.23	1000.98
676.676	962.98
677.122	936.28
677.567	904.43
678.013	880.48
678.458	878.78
678.904	875.03
679.349	861.68
679.794	864.18
680.24	854.63
680.685	849.08
681.131	845.63
681.576	854.18
682.021	858.53
682.466	864.83
682.912	868.13
683.357	917.93
683.802	994.53
684.247	1084.43
684.692	1150.98
685.137	1195.23
685.583	1211.88
686.028	1286.58
686.473	1220.53
686.918	1061.48
687.363	969.88
687.807	922.58
688.252	874.58
688.697	855.63
689.142	824.23
689.587	833.68
690.032	844.23
690.477	870.18
690.921	921.43
691.366	964.98
691.811	1006.08
692.255	1085.88
692.7	1306.08
693.145	1879.23
693.589	2874.58
694.034	3431.73
694.478	3652.03
694.923	3340.68
695.367	4729.83
695.812	2907.48
696.256	1234.03
696.701	899.98
697.145	844.98
697.59	802.68
698.034	789.13
698.478	783.73
698.922	792.53
699.367	805.98
699.811	853.38
700.255	923.93
700.699	995.98
701.143	1086.08
701.588	1149.28
702.032	1197.23
702.476	1249.33
702.92	1330.13
703.364	1726.58
703.808	2628.28
704.252	3289.03
704.696	3466.43
705.14	3279.38
705.584	4462.98
706.027	2502.08
706.471	1261.88
706.915	952.58
707.359	843.53
707.803	794.13
708.246	756.78
708.69	754.93
709.134	742.08
709.577	736.03
710.021	746.33
710.465	741.93
710.908	736.18
711.352	769.33
711.795	850.63
712.239	917.48
712.682	930.88
713.126	923.68
713.569	1010.08
714.012	844.78
714.456	741.43
714.899	696.38
715.342	664.18
715.786	638.38
716.229	626.78
716.672	609.43
717.115	611.73
717.558	612.88
718.002	631.03
718.445	658.08
718.888	693.43
719.331	704.23
719.774	720.33
720.217	701.88
720.66	671.48
721.103	639.68
721.546	602.43
721.989	587.18
722.432	570.98
722.874	573.83
723.317	585.23
723.76	632.13
724.203	766.18
724.645	1020.63
725.088	1211.73
725.531	1191.43
725.974	1296.43
726.416	1171.78
726.859	720.88
727.301	596.03
727.744	568.83
728.187	567.93
728.629	586.13
729.071	610.18
729.514	635.93
729.956	669.18
730.399	683.28
730.841	677.13
731.283	668.93
731.726	646.08
732.168	653.08
732.61	685.48
733.053	747.43
733.495	822.28
733.937	911.68
734.379	1065.38
734.821	1363.18
735.263	2160.53
735.705	3878.43
736.148	5710.28
736.59	5728.13
737.032	6212.53
737.474	5114.23
737.916	1964.18
738.357	1044.08
738.799	805.13
739.241	740.58
739.683	746.43
740.125	771.23
740.567	782.33
741.008	832.78
741.45	869.63
741.892	908.13
742.334	922.23
742.775	911.38
743.217	872.28
743.658	737.13
744.1	766.68
744.542	884.43
744.983	918.13
745.425	961.03
745.866	934.23
746.307	769.98
746.749	814.53
747.19	1166.58
747.632	2265.93
748.073	4225.83
748.514	5855.48
748.956	7737.88
749.397	9108.03
749.838	6314.03
750.279	5969.78
750.72	3113.93
751.162	1319.93
751.603	759.68
752.044	615.48
752.485	544.43
752.926	507.78
753.367	487.18
753.808	476.83
754.249	466.03
754.69	459.13
755.131	452.23
755.572	460.83
756.013	452.83
756.453	457.68
756.894	470.68
757.335	462.58
757.776	472.13
758.216	484.23
758.657	516.88
759.098	574.13
759.538	687.83
759.979	990.58
760.42	1985.23
760.86	5067.83
761.301	10517.38
761.741	12446.68
762.182	14178.23
762.622	9281.03
763.063	3317.88
763.503	1363.38
763.943	805.73
764.384	636.63
764.824	554.03
765.264	508.73
765.705	484.73
766.145	449.33
766.585	443.78
767.025	424.58
767.465	430.23
767.906	436.28
768.346	461.03
768.786	539.18
769.226	772.68
769.666	1555.48
770.106	3496.23
770.546	5004.58
770.986	5669.88
771.426	4320.93
771.866	1798.53
772.306	808.13
772.745	509.18
773.185	434.43
773.625	419.98
774.065	445.78
774.505	649.38
774.944	1154.18
775.384	1675.43
775.824	1883.18
776.263	1557.53
776.703	823.58
777.142	468.18
777.582	356.73
778.021	325.13
778.461	308.88
778.9	307.13
779.34	297.98
779.779	289.73
780.219	283.38
780.658	283.08
781.097	274.18
781.537	264.93
781.976	269.53
782.415	262.33
782.855	266.58
783.294	261.93
783.733	256.38
784.172	263.43
784.611	266.58
785.05	270.38
785.489	278.33
785.928	280.68
786.367	294.63
786.806	313.28
787.245	332.58
787.684	340.68
788.123	344.48
788.562	331.88
789.001	312.43
789.44	307.83
789.879	310.38
790.317	314.78
790.756	329.83
791.195	374.43
791.634	505.63
792.072	898.83
792.511	2201.48
792.95	4105.88
793.388	4967.08
793.827	3255.08
794.265	1486.38
794.704	714.53
795.142	437.53
795.581	363.58
796.019	332.23
796.458	331.18
796.896	341.68
797.334	383.68
797.773	518.93
798.211	978.78
798.649	2042.13
799.087	3435.58
799.526	4883.03
799.964	5050.93
800.402	3497.68
800.84	1579.58
801.278	771.28
801.716	475.18
802.154	380.23
802.592	362.63
803.03	365.88
803.468	368.03
803.906	370.38
804.344	365.78
804.782	354.63
805.22	356.93
805.658	371.38
806.096	394.18
806.533	437.43
806.971	564.93
807.409	815.78
807.847	1605.48
808.284	4079.38
808.722	7191.78
809.16	10089.18
809.597	13563.53
810.035	15535.18
810.472	11130.58
810.91	4719.68
811.347	2118.73
811.785	998.88
812.222	636.88
812.66	487.28
813.097	412.03
813.535	364.33
813.972	333.53
814.409	298.83
814.846	285.33
815.284	275.33
815.721	282.58
816.158	311.48
816.595	421.18
817.032	538.18
817.47	487.38
817.907	358.08
818.344	301.28
818.781	303.68
819.218	375.13
819.655	570.93
820.092	745.83
820.529	673.63
820.966	532.38
821.403	357.63
821.839	308.53
822.276	348.23
822.713	410.58
823.15	375.43
823.587	398.63
824.023	675.58
824.46	1674.28
824.897	2942.98
825.333	2319.83
825.77	1069.78
826.206	556.68
826.643	324.43
827.08	249.98
827.516	215.13
827.953	201.03
828.389	188.48
828.825	185.38
829.262	173.23
829.698	167.03
830.135	161.88
830.571	162.43
831.007	164.38
831.443	159.83
831.88	165.03
832.316	168.73
832.752	169.58
833.188	169.53
833.624	173.98
834.06	175.83
834.497	179.23
834.933	184.48
835.369	193.83
835.805	203.18
836.241	210.83
836.677	233.33
837.112	273.93
837.548	335.98
837.984	498.18
838.42	1047.88
838.856	2938.83
839.292	5836.98
839.727	4403.58
840.163	2925.48
840.599	4409.63
841.034	6757.93
841.47	3425.38
841.906	1643.93
842.341	885.93
842.777	665.53
843.212	692.13
843.648	431.13
844.083	295.98
844.519	222.43
844.954	185.68
845.39	168.58
845.825	160.13
846.261	150.13
846.696	147.73
847.131	136.38
847.566	146.78
848.002	149.08
848.437	159.83
848.872	163.33
849.307	207.43
849.742	364.08
850.177	952.68
850.613	2045.53
851.048	1502.78
851.483	679.13
851.918	381.03
852.353	215.18
852.788	156.38
853.223	140.08
853.657	123.78
854.092	120.93
854.527	119.68
854.962	132.48
855.397	144.98
855.832	122.73
856.266	110.48
856.701	111.33
857.136	116.13
857.57	141.88
858.005	173.63
858.44	145.78
858.874	131.08
859.309	131.03
859.743	133.68
860.178	128.18
860.612	144.58
861.047	192.08
861.481	274.93
861.915	191.23
862.35	140.23
862.784	110.58
863.218	105.88
863.653	115.08
864.087	143.68
864.521	171.93
864.955	282.18
865.39	484.53
865.824	381.88
866.258	492.53
866.692	768.18
867.126	554.53
867.56	296.03
867.994	186.08
868.428	158.18
868.862	199.98
869.296	181.88
869.73	219.73
870.164	190.98
870.598	174.28
871.031	124.53
871.465	106.48
871.899	87.83
872.333	76.58
872.766	75.83
873.2	80.33
873.634	76.38
874.067	79.93
874.501	81.08
874.935	80.58
875.368	84.13
875.802	71.48
876.235	70.43
876.669	65.53
877.102	60.98
877.535	63.78
877.969	62.58
878.402	64.38
878.836	65.48
879.269	59.73
879.702	66.88
880.135	66.53
880.569	69.58
881.002	58.78
881.435	62.58
881.868	61.83
882.301	56.03
882.734	56.98
883.167	62.58
883.601	62.78
884.034	53.98
884.467	52.33
884.899	55.08
885.332	49.58
885.765	46.23
886.198	48.43
886.631	51.53
887.064	48.88
887.497	50.43
887.929	54.33
888.362	49.68
888.795	52.13
889.228	54.58
889.66	49.68
890.093	47.23
890.526	50.48
890.958	48.78
891.391	49.48
891.823	47.53
892.256	50.23
892.688	50.38
893.121	42.83
893.553	52.73
893.985	45.48
894.418	46.58
894.85	47.13
895.282	47.43
895.715	42.73
896.147	42.58
896.579	36.43
897.011	47.28
897.444	40.48
897.876	46.03
898.308	42.78
898.74	44.23
899.172	47.78
899.604	46.13
900.036	49.93
900.468	41.53
900.9	47.63
901.332	59.98
901.764	61.58
902.196	57.93
902.628	62.03
903.06	91.13
903.491	99.28
903.923	81.18
904.355	79.93
904.787	86.08
905.218	66.88
905.65	61.33
906.082	59.08
906.513	58.28
906.945	50.58
907.376	53.18
907.808	57.88
908.239	60.78
908.671	62.33
909.102	73.43
909.534	99.53
909.965	182.63
910.397	477.53
910.828	1361.53
911.259	848.33
911.691	455.38
912.122	261.33
912.553	135.88
912.984	79.53
913.415	65.83
913.847	55.08
914.278	58.53
914.709	52.03
915.14	46.08
915.571	49.73
916.002	46.58
916.433	45.03
916.864	46.13
917.295	49.13
917.726	58.68
918.157	70.18
918.587	64.58
919.018	63.23
919.449	60.38
919.88	70.38
920.311	105.13
920.741	285.58
921.172	507.33
921.603	255.58
922.033	163.73
922.464	106.98
922.895	69.68
923.325	48.78
923.756	46.28
924.186	59.98
924.617	80.53
925.047	118.78
925.478	108.38
925.908	81.78
926.338	59.38
926.769	46.43
927.199	42.03
927.629	36.68
928.06	44.18
928.49	43.63
928.92	32.68
929.35	29.33
929.78	26.58
930.21	31.68
930.641	21.78
931.071	28.73
931.501	27.18
931.931	28.48
932.361	25.03
932.791	24.33
933.221	28.83
933.651	41.93
934.08	70.48
934.51	42.13
934.94	35.03
935.37	27.88
935.8	26.43
936.229	20.28
936.659	25.33
937.089	47.38
937.519	66.78
937.948	86.98
938.378	48.28
938.807	28.68
939.237	22.63
939.666	19.18
940.096	11.38
940.525	6.98
940.955	14.93
941.384	12.58
941.814	14.83
942.243	10.63
942.672	13.48
943.102	10.38
943.531	11.38
943.96	11.48
944.39	15.68
944.819	15.18
945.248	12.78
945.677	14.03
946.106	12.88
946.535	9.28
946.964	14.73
947.393	13.88
947.822	9.53
948.251	14.03
948.68	13.28
949.109	10.48
949.538	10.58
949.967	10.18
950.396	11.83
950.825	9.48
951.254	4.33
951.682	4.03
952.111	6.88
952.54	12.18
952.969	9.53
953.397	4.68
953.826	7.88
954.254	9.93
954.683	11.63
955.112	12.58
955.54	11.43
955.969	10.93
956.397	7.78
956.826	7.78
957.254	12.83
957.682	12.33
958.111	11.48
958.539	11.23
958.967	6.48
959.396	10.78
959.824	8.88
960.252	13.38
960.68	8.83
961.109	10.98
961.537	11.83
961.965	3.88
962.393	8.83
962.821	14.63
963.249	11.83
963.677	17.98
964.105	86.73
964.533	145.83
964.961	75.93
965.389	39.83
965.817	22.08
966.245	16.33
966.672	12.03
967.1	9.63
967.528	3.68
967.956	10.33
968.383	10.13
968.811	7.93
969.239	7.68
969.666	9.58
970.094	8.43
970.522	2.78
970.949	7.03
971.377	-1.52
971.804	4.53
972.232	6.03
972.659	5.48
973.087	4.83
973.514	3.43
973.941	3.98
974.369	2.48
974.796	5.53
975.223	7.38
975.651	7.23
976.078	7.08
976.505	16.03
976.932	33.63
977.359	41.13
977.786	27.43
978.214	17.98
978.641	12.98
979.068	5.43
979.495	7.28
979.922	4.18
980.349	8.88
980.776	7.88
981.202	6.18
981.629	8.08
982.056	5.98
982.483	2.63
982.91	11.98
983.337	5.68
983.763	5.98
984.19	10.23
984.617	1.63
985.043	3.48
985.47	7.08
985.897	7.08
986.323	7.13
986.75	7.28
987.176	5.18
987.603	-0.82
988.029	5.63
988.456	9.88
988.882	3.73
989.308	1.03
989.735	2.58
990.161	6.98
990.587	5.23
991.014	4.28
991.44	4.18
991.866	7.43
992.292	1.58
992.719	-1.92
993.145	4.63
993.571	5.03
993.997	7.38
994.423	7.63
994.849	0.33
995.275	5.13
995.701	8.18
996.127	3.33
996.553	1.48
996.979	2.38
997.405	7.63
997.83	5.53
998.256	2.13
998.682	3.63
999.108	5.23
999.534	-0.52
999.959	2.18
1000.385	7.88
1000.811	1.33
1001.236	-0.52
1001.662	2.28
1002.087	9.68
1002.513	4.48
1002.938	3.18
1003.364	5.18
1003.789	9.08
1004.215	4.73
1004.64	3.23
1005.066	5.03
1005.491	6.68
1005.916	6.33
1006.342	6.93
1006.767	3.33
1007.192	9.38
1007.617	6.38
1008.042	5.48
1008.468	1.73
1008.893	8.23
1009.318	14.33
1009.743	21.78
1010.168	30.28
1010.593	29.88
1011.018	17.98
1011.443	13.03
1011.868	11.38
1012.293	9.63
1012.718	6.23
1013.143	7.13
1013.567	7.28
1013.992	-0.42
1014.417	3.98
1014.842	1.38
1015.267	5.03
1015.691	5.93
1016.116	3.78
1016.541	2.38
1016.965	3.58
1017.39	5.53
1017.814	-2.07
1018.239	-2.02
1018.663	-1.22
1019.088	-1.82
1019.512	9.08
1019.937	-0.62
1020.361	1.38
1020.785	-0.92
1021.21	-7.47
1021.634	2.93
1022.058	7.08
1022.483	1.68
1022.907	-0.32
1023.331	3.93
1023.755	-0.07
1024.179	-2.17
1024.604	2.13
1025.028	3.03
1025.452	4.23
1025.876	1.38
1026.3	-0.02
1026.724	-1.02
1027.148	5.38
1027.572	1.73
1027.996	0.68
1028.42	0.88
1028.843	-0.77
1029.267	-1.92
1029.691	5.13
1030.115	-3.42
1030.539	-2.07
1030.962	-2.62
1031.386	1.73
1031.81	0.08
1032.233	1.28
1032.657	-5.37
1033.08	2.33
1033.504	-1.72
1033.927	0.53
1034.351	0.23
1034.774	-4.47
1035.198	0.68
1035.621	2.18
1036.045	2.28
1036.468	7.23
1036.891	1.83
1037.315	4.33
1037.738	-1.57
1038.161	4.53
1038.584	0.68
1039.008	-3.87
1039.431	-3.17
1039.854	-5.22
1040.277	4.38
1040.7	-0.87
1041.123	0.13
1041.546	0.73
1041.969	5.03
1042.392	6.23
1042.815	-11.07
1043.238	0.78
1043.661	3.63
1044.084	-4.47
1044.507	0.58
1044.93	4.03
1045.352	-1.12
1045.775	2.08
1046.198	2.38
1046.621	5.68
1047.043	-1.42
1047.466	-0.42
1047.889	0.68
1048.311	3.53
1048.734	1.88
1049.156	-2.37
1049.579	-3.47
1050.001	-2.07
1050.424	-1.82
1050.846	-3.62
1051.269	0.33
1051.691	-2.62
1052.113	0.48
1052.536	-1.87
1052.958	-7.47
1053.38	-1.27
1053.802	-0.27
1054.225	-0.62
1054.647	5.13
1055.069	-0.12
1055.491	1.33
1055.913	-0.57
1056.335	-7.37
1056.757	-3.27
1057.179	-2.22
1057.601	0.83
1058.023	3.93
1058.445	-3.82
1058.867	2.83
1059.289	3.13
1059.711	-6.52
1060.133	0.48
1060.555	-5.42
1060.976	0.78
1061.398	-5.72
1061.82	-0.22
1062.241	-1.27
1062.663	0.93
1063.085	-4.57
1063.506	-8.07
1063.928	-2.17
1064.35	1.98
1064.771	3.08
1065.193	-3.62
1065.614	-0.32
1066.035	4.38
1066.457	-0.27
1066.878	2.33
1067.3	-0.77
1067.721	3.58
1068.142	-0.92
1068.564	2.28
1068.985	1.43
1069.406	-3.32
1069.827	0.68
1070.248	2.08
1070.67	-3.52
1071.091	-4.62
1071.512	0.03
1071.933	-5.47
1072.354	-4.17
1072.775	-3.17
1073.196	-0.62
1073.617	-5.02
1074.038	-1.87
1074.459	-3.27
1074.88	-3.47
1075.3	0.23
1075.721	-2.02
1076.142	-4.82
1076.563	-5.07
1076.983	1.08
1077.404	-8.72
1077.825	-0.72
1078.246	-2.47
1078.666	-3.12
1079.087	-0.37
1079.507	-3.42
1079.928	1.13
1080.348	-2.22
1080.769	2.43
1081.189	-0.12
1081.61	-4.52
1082.03	1.03
1082.451	-1.37
1082.871	-5.17
1083.291	-5.32
1083.711	-4.37
1084.132	1.23
1084.552	-4.97
1084.972	-5.27
1085.392	-2.07
1085.813	0.58
1086.233	-3.77
1086.653	2.53
1087.073	-4.12
1087.493	-6.97
1087.913	-3.57
1088.333	-1.67
1088.753	-2.57
1089.173	4.88
1089.593	0.03
1090.013	-0.57
1090.433	-9.27
1090.852	-0.52
1091.272	-4.92
1091.692	0.38
1092.112	-1.72
1092.531	-7.17
1092.951	-0.47
1093.371	-0.67
1093.79	-1.77
1094.21	-5.42
1094.63	-1.62
1095.049	-1.57
1095.469	-7.07
1095.888	0.78
1096.308	1.28
1096.727	-1.67
1097.146	-3.47
1097.566	-5.62
1097.985	-0.62
1098.405	-5.02
1098.824	1.28
1099.243	-0.82
1099.662	1.23
1100.082	-3.42
1100.501	-1.77
1100.92	3.08
1101.339	0.58
1101.758	0.28
