Data from MSPlasma+Separation6_Subt14_10-13-58-878.txt Node
Date: Fri Jul 21 10:13:58 EDT 2017
User: Ender
Spectrometer: HR+D1039
Trigger mode: 0
Integration Time (sec): 6.430000E-3
Scans to average: 20
Electric dark correction enabled: true
Nonlinearity correction enabled: false
Boxcar width: 0
XAxis mode: Wavelengths
Number of Pixels in Spectrum: 2048
>>>>>Begin Spectral Data<<<<<
187.836	-0.7
188.309	-0.7
188.782	-0.7
189.255	0.45
189.728	3.7
190.201	-0.35
190.674	-2.75
191.147	-3.55
191.619	3.15
192.092	-1.7
192.565	-1.4
193.038	0.85
193.511	3.6
193.984	1.3
194.456	2.05
194.929	-3.4
195.402	-0.5
195.874	-0.7
196.347	4
196.82	3.65
197.292	-2
197.765	-2.1
198.237	-6.55
198.71	-6.65
199.182	-4.35
199.655	3.95
200.127	0.8
200.6	-1.35
201.072	1.2
201.544	2.15
202.017	-0.25
202.489	2.35
202.961	1.4
203.433	-3.15
203.906	1.75
204.378	1.65
204.85	-1.15
205.322	-5.3
205.794	-0.75
206.266	-0.3
206.739	-0.6
207.211	2.95
207.683	-0.75
208.155	4.05
208.627	3.5
209.099	3.55
209.57	8.8
210.042	3.1
210.514	1.35
210.986	-2.15
211.458	1.65
211.93	0.75
212.402	4.5
212.873	-2.15
213.345	-2.8
213.817	1.6
214.288	-0.7
214.76	2.65
215.232	-2.55
215.703	-1.15
216.175	-0.7
216.646	-0.15
217.118	-1.9
217.589	-2.1
218.061	2.15
218.532	-3.35
219.004	4.45
219.475	-0.5
219.946	4.7
220.418	7.05
220.889	2.95
221.36	5
221.832	5.45
222.303	5.5
222.774	6.35
223.245	2.6
223.717	4.3
224.188	3.45
224.659	1.55
225.13	-2.3
225.601	6.35
226.072	4.8
226.543	7.55
227.014	2.65
227.485	6.85
227.956	5.75
228.427	12
228.898	5.7
229.369	6
229.839	7.35
230.31	11.6
230.781	7.95
231.252	7.85
231.722	9.95
232.193	7.6
232.664	7.8
233.135	7.7
233.605	4.7
234.076	12.75
234.546	14
235.017	13
235.487	11.05
235.958	14.15
236.428	17.45
236.899	13.2
237.369	18.85
237.84	14.3
238.31	20.4
238.78	6.75
239.251	16.9
239.721	7.85
240.191	15.3
240.662	17.35
241.132	18.15
241.602	16.35
242.072	16.25
242.542	14.55
243.013	14.4
243.483	17.95
243.953	16.55
244.423	15.85
244.893	16.35
245.363	24.05
245.833	21.25
246.303	19.15
246.773	24.1
247.243	22.95
247.712	25.85
248.182	24.2
248.652	26.35
249.122	26.3
249.592	22.4
250.061	24.2
250.531	25.9
251.001	25.2
251.471	24.1
251.94	29.45
252.41	28.85
252.879	26.75
253.349	30.75
253.818	27.7
254.288	31.4
254.757	26.4
255.227	29.25
255.696	31.2
256.166	33.25
256.635	34.85
257.105	35.6
257.574	37.15
258.043	36.3
258.513	35
258.982	34.6
259.451	40.4
259.92	32.55
260.389	37.8
260.859	33.75
261.328	37.45
261.797	38.6
262.266	41.35
262.735	49.6
263.204	34.45
263.673	39.3
264.142	34.35
264.611	41.95
265.08	42.45
265.549	40.8
266.018	38.5
266.487	46
266.955	44.95
267.424	49.3
267.893	44.35
268.362	46.35
268.83	46.2
269.299	44.2
269.768	49.85
270.236	46.2
270.705	54.9
271.174	49.45
271.642	46.85
272.111	53.45
272.579	51.05
273.048	54.95
273.516	55.55
273.985	47.9
274.453	49.2
274.922	54.3
275.39	51.95
275.858	56.7
276.327	57.95
276.795	55.1
277.263	60.45
277.731	57.45
278.2	63.1
278.668	59.45
279.136	64.75
279.604	62.65
280.072	62.7
280.54	64.05
281.008	71.6
281.477	65.35
281.945	62.35
282.413	66.55
282.881	70.1
283.348	71
283.816	71.75
284.284	72.1
284.752	73.15
285.22	70.3
285.688	70.9
286.156	72.15
286.623	73.65
287.091	77
287.559	79.95
288.026	77.75
288.494	78.65
288.962	76.3
289.429	78.05
289.897	81.55
290.364	74.15
290.832	80.6
291.3	81
291.767	77.55
292.234	87.05
292.702	87.6
293.169	85.55
293.637	86.7
294.104	89.7
294.571	87.7
295.039	89.3
295.506	85.5
295.973	85.45
296.44	89.8
296.908	91.4
297.375	90.65
297.842	94.1
298.309	94.2
298.776	98.95
299.243	98.05
299.71	100.6
300.177	96
300.644	98.9
301.111	98.55
301.578	102.45
302.045	102.95
302.512	102.65
302.979	104.4
303.446	104.05
303.913	107
304.379	113.4
304.846	115.75
305.313	117.3
305.78	120.65
306.246	122.55
306.713	116.9
307.18	118.45
307.646	119.45
308.113	120.05
308.579	126.9
309.046	130.65
309.512	129.1
309.979	129.05
310.445	127.85
310.912	131.5
311.378	134.1
311.845	136.15
312.311	135.85
312.777	133.65
313.244	138.6
313.71	134.65
314.176	143.5
314.642	146.35
315.109	143.8
315.575	137.05
316.041	143.9
316.507	145.6
316.973	152.1
317.439	151.4
317.905	145.15
318.371	150.75
318.837	149.65
319.303	156.05
319.769	145.9
320.235	156.8
320.701	161.25
321.167	156.65
321.633	158.6
322.099	149.1
322.564	156.2
323.03	161.1
323.496	165.3
323.962	165
324.427	172
324.893	169.85
325.359	170.05
325.824	173
326.29	177.6
326.755	175.7
327.221	173
327.686	183.35
328.152	182.6
328.617	190.5
329.083	184.15
329.548	192
330.014	188.55
330.479	197.2
330.944	192.75
331.41	200.05
331.875	188
332.34	186.75
332.805	198
333.271	194.05
333.736	197.35
334.201	201.1
334.666	217.1
335.131	217.95
335.596	216.2
336.061	211.65
336.526	207.35
336.991	205.55
337.456	208.35
337.921	198.35
338.386	202.85
338.851	201.45
339.316	205.8
339.781	201.8
340.246	202.2
340.711	208.55
341.175	211.85
341.64	218.4
342.105	223.2
342.569	234.6
343.034	228.2
343.499	229.85
343.963	238.25
344.428	236.35
344.893	240.25
345.357	240.3
345.822	245.2
346.286	248.6
346.751	252.7
347.215	254.25
347.679	262.65
348.144	274.9
348.608	278.4
349.073	282.8
349.537	285.7
350.001	286.55
350.465	284
350.93	285.75
351.394	292.95
351.858	295.15
352.322	303.2
352.786	295.2
353.25	299
353.715	303.95
354.179	317.25
354.643	324.35
355.107	326.9
355.571	320.6
356.035	320.3
356.498	320.9
356.962	316.05
357.426	316.6
357.89	311.7
358.354	311.95
358.818	309.3
359.281	316.9
359.745	318.35
360.209	312.05
360.673	312
361.136	317.1
361.6	325.45
362.064	323.35
362.527	334.3
362.991	330.3
363.454	334.45
363.918	337.4
364.381	332.5
364.845	337.5
365.308	333.8
365.772	344.35
366.235	341.25
366.698	341.85
367.162	342.8
367.625	350.2
368.088	355
368.552	346.2
369.015	350.75
369.478	355.25
369.941	358.85
370.404	365.15
370.867	358.6
371.331	367.45
371.794	371.65
372.257	370.7
372.72	368.65
373.183	376.2
373.646	372.35
374.109	381.2
374.572	380.35
375.035	384.55
375.497	385.05
375.96	393.8
376.423	401.7
376.886	404.55
377.349	412.05
377.811	408.55
378.274	409.95
378.737	401.45
379.199	409.5
379.662	414.65
380.125	426.2
380.587	426.1
381.05	430.5
381.512	438.8
381.975	448.65
382.437	456.35
382.9	450.95
383.362	452.55
383.825	453.35
384.287	458.1
384.75	454.15
385.212	466.3
385.674	463.85
386.136	472.45
386.599	468.55
387.061	465.45
387.523	475.25
387.985	477.5
388.447	483.45
388.91	479.8
389.372	481.85
389.834	482.1
390.296	470.6
390.758	482.35
391.22	477.35
391.682	482.95
392.144	486.75
392.606	491.55
393.068	503.6
393.529	522.75
393.991	532.25
394.453	502.65
394.915	502.8
395.377	487.6
395.838	501.9
396.3	495.65
396.762	501.45
397.224	502.05
397.685	494
398.147	513.25
398.608	510.3
399.07	518.85
399.531	516.8
399.993	524.35
400.454	540.9
400.916	530.8
401.377	551.7
401.839	551.25
402.3	556.75
402.762	578.95
403.223	610.55
403.684	610.1
404.145	587.55
404.607	579.9
405.068	573.35
405.529	583.05
405.99	594.9
406.451	596.9
406.913	582
407.374	586.25
407.835	587.9
408.296	607.3
408.757	609.55
409.218	628.6
409.679	629.5
410.14	627.45
410.601	656.25
411.062	647.45
411.522	664.65
411.983	652.4
412.444	666.35
412.905	674.2
413.366	696.8
413.826	725.05
414.287	823
414.748	971.05
415.208	996.95
415.669	840.3
416.13	762.45
416.59	742.9
417.051	762.9
417.511	797.9
417.972	856.8
418.432	928.8
418.893	1021.65
419.353	980.1
419.814	759.6
420.274	686.65
420.734	671.35
421.195	687.15
421.655	690.4
422.115	700.45
422.576	701.35
423.036	706
423.496	730
423.956	759.7
424.416	805.2
424.876	904.05
425.336	904.9
425.797	884.6
426.257	872.95
426.717	827.85
427.177	767.5
427.637	773.95
428.097	811.55
428.556	836.35
429.016	897.55
429.476	895.05
429.936	871.35
430.396	871.7
430.856	900.2
431.315	915.35
431.775	977.95
432.235	1045.25
432.694	1062.75
433.154	996.85
433.614	977
434.073	948.8
434.533	860.35
434.993	829.7
435.452	835.95
435.912	814
436.371	817.15
436.83	809.5
437.29	792.95
437.749	777
438.209	768.1
438.668	784.25
439.127	793.5
439.587	785.9
440.046	761.3
440.505	774.55
440.964	783.3
441.424	813.2
441.883	825.35
442.342	782.8
442.801	747.65
443.26	751.6
443.719	754.15
444.178	750
444.637	760.35
445.096	762.6
445.555	775.65
446.014	775.55
446.473	763.25
446.932	764.95
447.391	780.6
447.849	794.8
448.308	778.2
448.767	786.85
449.226	789.05
449.685	800.85
450.143	843
450.602	837.8
451.061	801
451.519	802.95
451.978	788.45
452.436	784.8
452.895	792
453.353	784.85
453.812	776.95
454.27	784.4
454.729	786.1
455.187	798.25
455.646	794.85
456.104	805.9
456.562	812.25
457.021	816.5
457.479	781.85
457.937	805.5
458.395	836.85
458.854	835.5
459.312	814
459.77	814.85
460.228	833.9
460.686	840.5
461.144	852.35
461.602	835.6
462.06	843.65
462.518	854.25
462.976	853.6
463.434	869.75
463.892	880.25
464.35	896.45
464.808	908.95
465.266	915.4
465.724	926.25
466.181	930.4
466.639	925
467.097	958.45
467.555	994
468.012	989.15
468.47	998.55
468.928	1039.55
469.385	1050.65
469.843	1065.05
470.3	1055.65
470.758	1091.5
471.215	1115.95
471.673	1139.25
472.13	1173.25
472.588	1186.65
473.045	1186
473.503	1205.9
473.96	1250.55
474.417	1266.25
474.875	1323.2
475.332	1362.05
475.789	1394.75
476.246	1435.85
476.704	1486.5
477.161	1522.1
477.618	1561.05
478.075	1645.35
478.532	1761.45
478.989	1893.45
479.446	2063.9
479.903	2166.15
480.36	2337.95
480.817	2465.25
481.274	2608.8
481.731	2831.9
482.188	3011.8
482.645	3237.85
483.102	3418.05
483.558	3626.5
484.015	3760.05
484.472	3736.65
484.929	3639.8
485.385	3493.75
485.842	3443.3
486.299	3292.4
486.755	3053.75
487.212	2781.2
487.668	2534.45
488.125	2356.85
488.582	2209.15
489.038	2132.1
489.494	2081.5
489.951	2022
490.407	1974.15
490.864	1934.6
491.32	1906.05
491.776	1891.6
492.233	1901.4
492.689	1867.6
493.145	1829.25
493.602	1808.3
494.058	1828.4
494.514	1843.5
494.97	1841.15
495.426	1867.65
495.882	1863.6
496.338	1870.65
496.794	1881.8
497.251	1872.55
497.707	1893.75
498.163	1904.15
498.618	1906.1
499.074	1907.15
499.53	1925.8
499.986	1934.3
500.442	1911.9
500.898	1895.55
501.354	1922.4
501.809	1913.9
502.265	1906.75
502.721	1926.65
503.177	1926.25
503.632	1933.75
504.088	1946.05
504.543	1961
504.999	1979.8
505.455	1973.95
505.91	1962.3
506.366	1967.15
506.821	1966.15
507.277	1957.35
507.732	1957.8
508.187	1972.75
508.643	1978.3
509.098	1986.2
509.553	2005.05
510.009	2033.35
510.464	2074.05
510.919	2090.75
511.375	2104.35
511.83	2127.95
512.285	2159.3
512.74	2208.15
513.195	2229.45
513.65	2271.75
514.105	2282.4
514.56	2290.7
515.015	2327.7
515.47	2340.8
515.925	2321.55
516.38	2334
516.835	2336
517.29	2304.3
517.745	2305.55
518.2	2274.5
518.655	2237.8
519.109	2210.3
519.564	2184.8
520.019	2173.8
520.474	2140.1
520.928	2139.85
521.383	2123.3
521.838	2110.3
522.292	2100.1
522.747	2077.15
523.201	2070.5
523.656	2048.6
524.11	2052.1
524.565	2032.9
525.019	2044.85
525.474	2037.2
525.928	2030.05
526.382	2043.95
526.837	2032.55
527.291	2047.95
527.745	2034.1
528.2	2027.4
528.654	2006
529.108	2006.95
529.562	2008.65
530.016	2012.85
530.47	2021.15
530.925	2003.7
531.379	2005
531.833	2035
532.287	2034.45
532.741	2021.35
533.195	2019.9
533.649	2026.85
534.103	2017.35
534.556	2015.95
535.01	2033.1
535.464	2022.55
535.918	2023.9
536.372	2043.25
536.826	2034
537.279	2010.65
537.733	2008.6
538.187	2016.6
538.64	2010.55
539.094	2030.85
539.548	2061
540.001	2047.4
540.455	2061.2
540.908	2072.9
541.362	2088.6
541.815	2093.95
542.269	2143.5
542.722	2153.5
543.175	2176.05
543.629	2178.9
544.082	2194.4
544.536	2219.5
544.989	2213.25
545.442	2229
545.895	2228.05
546.349	2230.7
546.802	2246.55
547.255	2231.1
547.708	2253
548.161	2272.4
548.614	2273
549.067	2286.5
549.52	2272.35
549.973	2247.65
550.426	2246.7
550.879	2240.6
551.332	2230.45
551.785	2269.1
552.238	2272.8
552.691	2271.35
553.144	2311.5
553.596	2342
554.049	2374.2
554.502	2412.55
554.955	2452.15
555.407	2472.5
555.86	2464.45
556.313	2444.25
556.765	2405.65
557.218	2387.2
557.67	2361.55
558.123	2343.9
558.576	2324.25
559.028	2314.95
559.48	2357.55
559.933	2340.4
560.385	2261.35
560.838	2193.6
561.29	2147.05
561.742	2130.15
562.195	2069
562.647	2056.15
563.099	2057.6
563.551	2040.45
564.004	2059.25
564.456	2030.3
564.908	1997.45
565.36	1959.9
565.812	1917
566.264	1908.6
566.716	1886.6
567.168	1844.2
567.62	1850.55
568.072	1843.2
568.524	1821
568.976	1820.9
569.428	1793.7
569.88	1791
570.332	1809.55
570.784	1809.95
571.235	1814.7
571.687	1826.1
572.139	1819.9
572.59	1849.25
573.042	1837.45
573.494	1838.45
573.945	1818.05
574.397	1788.35
574.849	1788.5
575.3	1786.45
575.752	1755.45
576.203	1740.6
576.655	1757.15
577.106	1729.75
577.557	1724.85
578.009	1712.2
578.46	1713.1
578.912	1695.15
579.363	1711.65
579.814	1705.8
580.265	1713.15
580.717	1715.8
581.168	1713.15
581.619	1722.35
582.07	1726.5
582.521	1708.3
582.972	1702
583.423	1718.1
583.875	1728.3
584.326	1745.15
584.777	1772.8
585.227	1793
585.678	1806.9
586.129	1830.95
586.58	1848.25
587.031	1879.25
587.482	1930.45
587.933	1948.55
588.384	1954.35
588.834	1932.1
589.285	1919.8
589.736	1913.2
590.186	1927.75
590.637	1902.75
591.088	1864
591.538	1831.1
591.989	1796.75
592.439	1775.75
592.89	1763.45
593.34	1758.85
593.791	1745.1
594.241	1724.5
594.692	1739.45
595.142	1726.7
595.593	1727.65
596.043	1732.5
596.493	1752.6
596.943	1755.15
597.394	1798.8
597.844	1817.75
598.294	1861.15
598.744	1922.05
599.195	2002.4
599.645	2112.25
600.095	2216.95
600.545	2316.8
600.995	2441.7
601.445	2496.45
601.895	2621.5
602.345	2687.85
602.795	2666.75
603.245	2569.25
603.695	2414.35
604.145	2297.35
604.594	2195.25
605.044	2079.75
605.494	1947.1
605.944	1844.75
606.393	1805.7
606.843	1772.15
607.293	1760.25
607.743	1751.7
608.192	1770.55
608.642	1768.5
609.091	1762.5
609.541	1754.4
609.99	1767.9
610.44	1730.65
610.889	1710.75
611.339	1684.85
611.788	1660.9
612.238	1677.4
612.687	1674.8
613.136	1695.35
613.586	1708.7
614.035	1702.7
614.484	1708.85
614.933	1708.15
615.383	1682.6
615.832	1647.25
616.281	1617.7
616.73	1577.25
617.179	1547.45
617.628	1517.65
618.077	1500.8
618.526	1473.5
618.975	1467.85
619.424	1437.95
619.873	1438.9
620.322	1426.6
620.771	1423.6
621.22	1399.1
621.669	1371.65
622.118	1363.55
622.567	1340.3
623.015	1325.9
623.464	1326.6
623.913	1307.5
624.361	1313.4
624.81	1304.15
625.259	1308.85
625.707	1302.95
626.156	1306.35
626.604	1324.15
627.053	1332.5
627.501	1326.1
627.95	1334.35
628.398	1341.7
628.847	1322.1
629.295	1329
629.744	1319.35
630.192	1283.8
630.64	1275.75
631.089	1261.55
631.537	1227.5
631.985	1222.7
632.433	1219.65
632.881	1195.15
633.33	1212.4
633.778	1203.55
634.226	1221
634.674	1224.8
635.122	1236.1
635.57	1253.1
636.018	1276.8
636.466	1266.85
636.914	1272.1
637.362	1291.35
637.81	1310.15
638.258	1350.9
638.705	1369.15
639.153	1412.35
639.601	1427.6
640.049	1449.5
640.497	1489.7
640.944	1516
641.392	1469.05
641.84	1391
642.287	1326.2
642.735	1292.95
643.182	1274.05
643.63	1286.45
644.078	1282.7
644.525	1300.95
644.973	1332
645.42	1360.5
645.867	1402.05
646.315	1430.35
646.762	1471.5
647.21	1503.45
647.657	1578.7
648.104	1629.5
648.551	1679.2
648.999	1789.95
649.446	1958.25
649.893	2157.2
650.34	2501.8
650.787	3057.75
651.234	3893.65
651.682	5307.95
652.129	7436.15
652.576	10534.65
653.023	13869.85
653.47	15534.75
653.917	15534.8
654.363	15534.7
654.81	15531.7
655.257	15532.35
655.704	13426.5
656.151	8144.35
656.598	5401
657.044	3916.45
657.491	3087.55
657.938	2539.9
658.385	2168.45
658.831	1938.6
659.278	1746.3
659.724	1607.35
660.171	1503.95
660.618	1394.2
661.064	1324.05
661.511	1299.55
661.957	1255.2
662.404	1234.45
662.85	1220.05
663.296	1197.75
663.743	1174.55
664.189	1163.05
664.635	1159
665.082	1138.25
665.528	1125.65
665.974	1092.85
666.42	1068.4
666.867	1061.15
667.313	1008.75
667.759	998.4
668.205	985.9
668.651	994.7
669.097	996.2
669.543	1005.05
669.989	1011.55
670.435	1005.05
670.881	1020.5
671.327	1064
671.773	1143.9
672.219	1216.2
672.665	1288.2
673.11	1339.95
673.556	1357.45
674.002	1389.65
674.448	1399.5
674.893	1202.9
675.339	1047.25
675.785	967.4
676.23	922
676.676	892.35
677.122	856.85
677.567	836.65
678.013	815
678.458	800.2
678.904	799.9
679.349	789.9
679.794	789.4
680.24	786.7
680.685	785.65
681.131	780.5
681.576	782.6
682.021	792.35
682.466	798.85
682.912	806.25
683.357	844.85
683.802	911.65
684.247	1002.1
684.692	1054.1
685.137	1102.4
685.583	1125.1
686.028	1180.05
686.473	1130.85
686.918	981.9
687.363	889.5
687.807	854.3
688.252	806
688.697	781.1
689.142	757.35
689.587	763.05
690.032	775.5
690.477	808.15
690.921	846.5
691.366	888.7
691.811	928.3
692.255	1000.3
692.7	1216.95
693.145	1738.05
693.589	2662.45
694.034	3158.85
694.478	3379.3
694.923	3088.45
695.367	4336.45
695.812	2669.9
696.256	1140.95
696.701	838.65
697.145	771.4
697.59	734.9
698.034	727.05
698.478	726.25
698.922	731.7
699.367	748.75
699.811	782.45
700.255	853.75
700.699	928.3
701.143	1001.6
701.588	1061.3
702.032	1101.25
702.476	1148.8
702.92	1221.5
703.364	1598.2
703.808	2436.15
704.252	3035.95
704.696	3203.1
705.14	3006.45
705.584	4098.5
706.027	2315.25
706.471	1167.35
706.915	874.05
707.359	774.35
707.803	730.05
708.246	700.8
708.69	702
709.134	690.4
709.577	685.55
710.021	692.2
710.465	682.9
710.908	680.5
711.352	710.15
711.795	792.2
712.239	841.5
712.682	862.25
713.126	842.35
713.569	944.8
714.012	769.9
714.456	674.45
714.899	646.5
715.342	606.75
715.786	585.85
716.229	581
716.672	566.1
717.115	562.75
717.558	566.05
718.002	578.15
718.445	607.8
718.888	635.4
719.331	654.2
719.774	665.85
720.217	649.65
720.66	621.85
721.103	593.95
721.546	553.5
721.989	539.6
722.432	532.5
722.874	534.55
723.317	535.65
723.76	581.9
724.203	712.6
724.645	960.25
725.088	1122.6
725.531	1095.85
725.974	1198.85
726.416	1072.95
726.859	675.9
727.301	553.2
727.744	525.3
728.187	523.5
728.629	536.6
729.071	570.1
729.514	589.15
729.956	613.8
730.399	630.3
730.841	631.85
731.283	613.25
731.726	604.75
732.168	605.35
732.61	646.15
733.053	690.7
733.495	757.5
733.937	835.95
734.379	986.05
734.821	1266.3
735.263	2006.2
735.705	3604.3
736.148	5273.3
736.59	5281.65
737.032	5698.9
737.474	4709.25
737.916	1816.7
738.357	959.45
738.799	744.3
739.241	692.75
739.683	700.05
740.125	713.9
740.567	720.2
741.008	767.3
741.45	810.25
741.892	847.5
742.334	854.2
742.775	846.7
743.217	812.4
743.658	683.3
744.1	714.5
744.542	828.65
744.983	857
745.425	900.05
745.866	866.3
746.307	715.55
746.749	757.85
747.19	1086.35
747.632	2106.2
748.073	3903.25
748.514	5411.45
748.956	7157.8
749.397	8358.6
749.838	5838.25
750.279	5509.4
750.72	2868.15
751.162	1229.05
751.603	703.5
752.044	571.8
752.485	505.7
752.926	473.55
753.367	447.3
753.808	439.25
754.249	433.4
754.69	426.75
755.131	416.35
755.572	418.45
756.013	419.55
756.453	423.2
756.894	427.55
757.335	425.85
757.776	443.3
758.216	451.55
758.657	480.45
759.098	528.2
759.538	642
759.979	926.75
760.42	1853.95
760.86	4737.15
761.301	9779.15
761.741	11563.4
762.182	13135.3
762.622	8577.95
763.063	3085.45
763.503	1265.15
763.943	745.2
764.384	592.45
764.824	513.3
765.264	465
765.705	444.9
766.145	425
766.585	402.35
767.025	391.9
767.465	391.75
767.906	402.6
768.346	424.8
768.786	501.15
769.226	725.9
769.666	1451.7
770.106	3242
770.546	4618.25
770.986	5205.8
771.426	3954.8
771.866	1661.2
772.306	752.4
772.745	465
773.185	397.6
773.625	384.5
774.065	418.5
774.505	608.2
774.944	1085
775.384	1564.6
775.824	1751.95
776.263	1444.2
776.703	761.6
777.142	434.4
777.582	327.15
778.021	295.35
778.461	283.05
778.9	278
779.34	270.7
779.779	266.3
780.219	266.15
780.658	251.1
781.097	250.5
781.537	249.5
781.976	243.7
782.415	248.9
782.855	245.2
783.294	242.35
783.733	234.2
784.172	244.95
784.611	242.55
785.05	246.75
785.489	254.6
785.928	262.25
786.367	273.65
786.806	282.2
787.245	300.75
787.684	316.1
788.123	316.25
788.562	307.85
789.001	290.45
789.44	283.3
789.879	282
790.317	289.25
790.756	311.4
791.195	345.8
791.634	466.75
792.072	843.25
792.511	2062.8
792.95	3793.05
793.388	4566.35
793.827	2993.5
794.265	1370.5
794.704	658.2
795.142	404.55
795.581	332.75
796.019	305.15
796.458	303.5
796.896	314.15
797.334	357.65
797.773	478.25
798.211	904.9
798.649	1892.9
799.087	3175.1
799.526	4507.45
799.964	4639
800.402	3197.55
800.84	1459.05
801.278	715.25
801.716	430
802.154	353.75
802.592	336
803.03	332.4
803.468	339.6
803.906	341.55
804.344	335.45
804.782	327.95
805.22	332.3
805.658	342.55
806.096	364.7
806.533	412
806.971	522.85
807.409	758.8
807.847	1497.25
808.284	3797.4
808.722	6679.1
809.16	9364.55
809.597	12674.85
810.035	15313.3
810.472	10312.75
810.91	4376.9
811.347	1973.95
811.785	929.1
812.222	593.15
812.66	448.15
813.097	384.4
813.535	334.1
813.972	299.8
814.409	273.45
814.846	264.85
815.284	253.7
815.721	258.55
816.158	290.65
816.595	398.25
817.032	500.15
817.47	457.5
817.907	331.35
818.344	286.5
818.781	278.15
819.218	352.8
819.655	528.1
820.092	702.5
820.529	630.4
820.966	491.75
821.403	338.8
821.839	283.9
822.276	316.85
822.713	382.3
823.15	351
823.587	359.25
824.023	631.55
824.46	1556.6
824.897	2703.1
825.333	2122
825.77	979.45
826.206	513.3
826.643	304
827.08	225.3
827.516	201.15
827.953	182.9
828.389	170.95
828.825	168.85
829.262	159.3
829.698	152.3
830.135	150.95
830.571	145.3
831.007	153.2
831.443	151.7
831.88	150.75
832.316	153.6
832.752	156.25
833.188	157.75
833.624	156.15
834.06	160
834.497	163.05
834.933	169.45
835.369	177.85
835.805	188.35
836.241	196.65
836.677	209.95
837.112	250.15
837.548	311.9
837.984	463.45
838.42	983.6
838.856	2723.05
839.292	5378.55
839.727	4043.6
840.163	2708.4
840.599	4086.45
841.034	6254.6
841.47	3168.1
841.906	1531.9
842.341	824.6
842.777	617.3
843.212	634.85
843.648	398.95
844.083	264.65
844.519	205.25
844.954	174.4
845.39	150.85
845.825	144.45
846.261	139.35
846.696	136.75
847.131	127.55
847.566	135.6
848.002	134.05
848.437	141.2
848.872	152.4
849.307	185.85
849.742	345.25
850.177	886.05
850.613	1880.5
851.048	1372.35
851.483	639.05
851.918	353.45
852.353	193.15
852.788	138.2
853.223	123.05
853.657	111.05
854.092	112.3
854.527	113.1
854.962	118.9
855.397	131.5
855.832	117.6
856.266	98.75
856.701	103.05
857.136	102.45
857.57	129
858.005	158.25
858.44	133.55
858.874	127.5
859.309	126.5
859.743	125.65
860.178	117.1
860.612	132.2
861.047	182
861.481	259.75
861.915	177.95
862.35	135.55
862.784	104.2
863.218	98.55
863.653	106.85
864.087	126.4
864.521	158.1
864.955	262.05
865.39	454.45
865.824	352.95
866.258	465.25
866.692	719.6
867.126	520.65
867.56	275.25
867.994	176.95
868.428	154.3
868.862	186.35
869.296	170
869.73	204.95
870.164	177
870.598	158.6
871.031	112.45
871.465	102.85
871.899	81.05
872.333	72
872.766	70.45
873.2	73.25
873.634	72.45
874.067	74.85
874.501	77.35
874.935	77.45
875.368	75.2
875.802	69.8
876.235	64.3
876.669	62.45
877.102	59.75
877.535	63.85
877.969	57.95
878.402	57.65
878.836	58.4
879.269	59.15
879.702	55.45
880.135	57.4
880.569	60.3
881.002	55.05
881.435	57.05
881.868	55.05
882.301	53.8
882.734	51.1
883.167	59.55
883.601	52.4
884.034	54.05
884.467	42
884.899	50.85
885.332	42.85
885.765	50.9
886.198	46.75
886.631	46.95
887.064	48.9
887.497	42.1
887.929	48.2
888.362	45.95
888.795	40.55
889.228	49.05
889.66	42.1
890.093	42.8
890.526	47.55
890.958	43.75
891.391	46.15
891.823	39.75
892.256	44
892.688	47.1
893.121	37.6
893.553	44.7
893.985	45.2
894.418	35.5
894.85	44.25
895.282	40.7
895.715	38.1
896.147	38.6
896.579	39.15
897.011	42.4
897.444	41.85
897.876	32.8
898.308	36.7
898.74	39.45
899.172	44.95
899.604	41.45
900.036	42.4
900.468	41.2
900.9	45.8
901.332	55.4
901.764	57.5
902.196	53.8
902.628	60.55
903.06	87.2
903.491	90.05
903.923	71.1
904.355	70.75
904.787	79.25
905.218	64.75
905.65	59.8
906.082	51.15
906.513	49
906.945	47.3
907.376	47.05
907.808	46.55
908.239	51
908.671	57.05
909.102	63
909.534	92.35
909.965	172.35
910.397	445.5
910.828	1261.45
911.259	785.95
911.691	423.85
912.122	250.65
912.553	126.3
912.984	74.55
913.415	62.3
913.847	56.3
914.278	51
914.709	49.3
915.14	40.4
915.571	46.6
916.002	42.8
916.433	42.7
916.864	42.75
917.295	47.9
917.726	52.55
918.157	64
918.587	67.25
919.018	60.3
919.449	51.05
919.88	62.55
920.311	96.55
920.741	263.3
921.172	467.65
921.603	236.55
922.033	149.85
922.464	95.6
922.895	59.9
923.325	42.3
923.756	39.95
924.186	50.25
924.617	76.1
925.047	110.1
925.478	93.45
925.908	72.75
926.338	55.7
926.769	43.25
927.199	38.55
927.629	34.1
928.06	40.9
928.49	40.65
928.92	37.4
929.35	30.75
929.78	26.65
930.21	24.9
930.641	18.3
931.071	22.55
931.501	19.95
931.931	20.95
932.361	24.6
932.791	28.3
933.221	25.85
933.651	39.7
934.08	63.25
934.51	37.05
934.94	31.55
935.37	26.5
935.8	23.95
936.229	16.5
936.659	20.75
937.089	38.1
937.519	63
937.948	80.85
938.378	46.9
938.807	27.9
939.237	15.35
939.666	17.75
940.096	8.25
940.525	11.35
940.955	13.2
941.384	8.1
941.814	12.45
942.243	13.4
942.672	8.95
943.102	7.15
943.531	9.45
943.96	7.15
944.39	12.35
944.819	9.2
945.248	7.75
945.677	11.2
946.106	11.75
946.535	9.55
946.964	9.05
947.393	8.45
947.822	9.35
948.251	15.4
948.68	10.5
949.109	7.95
949.538	7.55
949.967	5.55
950.396	12.95
950.825	10.1
951.254	11.4
951.682	8.15
952.111	1.2
952.54	5.85
952.969	6.95
953.397	5
953.826	3.3
954.254	11.4
954.683	9.2
955.112	10.95
955.54	7.5
955.969	8.65
956.397	15
956.826	6.75
957.254	8
957.682	6.15
958.111	10.15
958.539	8.3
958.967	8.4
959.396	9.4
959.824	9.25
960.252	9.25
960.68	8.2
961.109	11.75
961.537	10.35
961.965	4.45
962.393	3.85
962.821	11.7
963.249	8.1
963.677	14.9
964.105	77.75
964.533	133.65
964.961	67.75
965.389	40.4
965.817	20.55
966.245	12.8
966.672	8.55
967.1	6.7
967.528	4.05
967.956	9.35
968.383	10.9
968.811	2.8
969.239	6.95
969.666	8.55
970.094	1.7
970.522	3.65
970.949	4.2
971.377	-0.8
971.804	2.9
972.232	1.9
972.659	2.4
973.087	6.8
973.514	0.55
973.941	1.5
974.369	1.25
974.796	2.65
975.223	0.35
975.651	6.95
976.078	1.65
976.505	13.25
976.932	34.3
977.359	42.6
977.786	24.15
978.214	21.2
978.641	10.1
979.068	8.7
979.495	2.55
979.922	10.1
980.349	9.55
980.776	4.45
981.202	3.65
981.629	11.05
982.056	4.4
982.483	-4.05
982.91	8.8
983.337	2.45
983.763	2.9
984.19	2.15
984.617	0.65
985.043	4.15
985.47	9.35
985.897	7
986.323	7.35
986.75	2.8
987.176	8.7
987.603	2.5
988.029	4.3
988.456	7.9
988.882	5.65
989.308	-0.1
989.735	1.65
990.161	6.7
990.587	2.7
991.014	4.25
991.44	7.55
991.866	4.8
992.292	1.5
992.719	3.15
993.145	8.35
993.571	3.7
993.997	5.85
994.423	9.45
994.849	-1.85
995.275	7.15
995.701	2.35
996.127	-2.65
996.553	2.5
996.979	2.6
997.405	4.8
997.83	3.65
998.256	7.35
998.682	1.55
999.108	1.75
999.534	-5.35
999.959	-1.9
1000.385	7.9
1000.811	2.95
1001.236	1.15
1001.662	6.7
1002.087	7.1
1002.513	4.3
1002.938	1.55
1003.364	-2.95
1003.789	5.75
1004.215	4.45
1004.64	1.15
1005.066	6.2
1005.491	7.05
1005.916	6.3
1006.342	1.25
1006.767	1.05
1007.192	5.6
1007.617	4.25
1008.042	4.65
1008.468	7.65
1008.893	9.5
1009.318	11.2
1009.743	17.45
1010.168	27.25
1010.593	22.7
1011.018	13.4
1011.443	6.05
1011.868	6.75
1012.293	4.15
1012.718	1.75
1013.143	6.05
1013.567	4.55
1013.992	4.4
1014.417	3.8
1014.842	0.2
1015.267	1.4
1015.691	6.7
1016.116	3.6
1016.541	7.05
1016.965	1.1
1017.39	1.9
1017.814	0.55
1018.239	-2.2
1018.663	-5
1019.088	-3.3
1019.512	5.15
1019.937	-1.75
1020.361	-1.5
1020.785	-0.15
1021.21	-2
1021.634	-1.65
1022.058	0.05
1022.483	-2.1
1022.907	-2.3
1023.331	-0.85
1023.755	-1.7
1024.179	1.6
1024.604	0.65
1025.028	1.75
1025.452	0.85
1025.876	1.2
1026.3	0.65
1026.724	-3.65
1027.148	2.4
1027.572	1.8
1027.996	1.35
1028.42	1.6
1028.843	-1.35
1029.267	-2.2
1029.691	2.2
1030.115	-5.7
1030.539	-3.65
1030.962	-3.3
1031.386	3.45
1031.81	3.85
1032.233	-1.7
1032.657	-7.1
1033.08	-1.05
1033.504	-1.05
1033.927	-0.35
1034.351	-5.85
1034.774	-2.85
1035.198	-6.65
1035.621	1
1036.045	-4.95
1036.468	6.95
1036.891	3.95
1037.315	3.8
1037.738	1.85
1038.161	0.25
1038.584	-0.1
1039.008	0.2
1039.431	-5.65
1039.854	-8.7
1040.277	1.5
1040.7	2.85
1041.123	0.85
1041.546	0.95
1041.969	-0.75
1042.392	3.85
1042.815	-4.35
1043.238	-2.6
1043.661	3.1
1044.084	-2.65
1044.507	-0.85
1044.93	-0.5
1045.352	2.7
1045.775	-1.2
1046.198	2.85
1046.621	2.05
1047.043	-4.45
1047.466	-0.65
1047.889	-5.5
1048.311	2.25
1048.734	-2.5
1049.156	1
1049.579	-0.25
1050.001	0.9
1050.424	0.45
1050.846	-4.75
1051.269	-3.25
1051.691	-0.95
1052.113	1.85
1052.536	-3.3
1052.958	-4.2
1053.38	-0.65
1053.802	1.25
1054.225	-0.45
1054.647	0.1
1055.069	-0.25
1055.491	0.95
1055.913	2.95
1056.335	-6.65
1056.757	-3.8
1057.179	0.25
1057.601	-5.05
1058.023	-2.9
1058.445	-4.4
1058.867	1.85
1059.289	3
1059.711	-6.5
1060.133	-2.85
1060.555	-4.5
1060.976	1.05
1061.398	-1.6
1061.82	-0.8
1062.241	-2.05
1062.663	-3.65
1063.085	-7.95
1063.506	-5.85
1063.928	-3.95
1064.35	-3.6
1064.771	-0.15
1065.193	-1.5
1065.614	-2.35
1066.035	3.95
1066.457	5.85
1066.878	-1.8
1067.3	-0.7
1067.721	1.95
1068.142	0.95
1068.564	3
1068.985	-1.3
1069.406	-5.65
1069.827	-1.55
1070.248	-1.6
1070.67	-2.8
1071.091	-4
1071.512	-4.55
1071.933	-2.05
1072.354	-6.6
1072.775	-1
1073.196	-0.7
1073.617	-5.45
1074.038	-0.55
1074.459	-7.45
1074.88	-4.3
1075.3	-3.6
1075.721	3.15
1076.142	1.45
1076.563	-5.4
1076.983	-1.45
1077.404	-3.9
1077.825	2.95
1078.246	-7.25
1078.666	-3.35
1079.087	-0.05
1079.507	-0.55
1079.928	1.35
1080.348	-2.6
1080.769	-4.2
1081.189	-1.9
1081.61	-7.9
1082.03	1
1082.451	1.05
1082.871	-6.95
1083.291	-2.9
1083.711	-6.85
1084.132	-4.8
1084.552	-5.65
1084.972	-4.2
1085.392	-2.5
1085.813	-1.6
1086.233	-2.95
1086.653	-0.15
1087.073	-3.9
1087.493	-2.65
1087.913	-3.7
1088.333	-0.3
1088.753	-4.3
1089.173	-2.9
1089.593	-2.95
1090.013	-1.35
1090.433	-1.65
1090.852	2.1
1091.272	-3.2
1091.692	-2.95
1092.112	-2.55
1092.531	-8
1092.951	-0.5
1093.371	-1.1
1093.79	0.65
1094.21	-3.1
1094.63	-1.15
1095.049	1.9
1095.469	-8.65
1095.888	-1.65
1096.308	-1.45
1096.727	-3.35
1097.146	-1.7
1097.566	-5.3
1097.985	-2.45
1098.405	-0.7
1098.824	0.7
1099.243	-4.05
1099.662	-4.45
1100.082	-1.25
1100.501	-3.85
1100.92	0.85
1101.339	0.35
1101.758	0.6
