Data from MSPlasma+Separation6_Subt14_10-14-37-126.txt Node
Date: Fri Jul 21 10:14:37 EDT 2017
User: Ender
Spectrometer: HR+D1039
Trigger mode: 0
Integration Time (sec): 6.430000E-3
Scans to average: 20
Electric dark correction enabled: true
Nonlinearity correction enabled: false
Boxcar width: 0
XAxis mode: Wavelengths
Number of Pixels in Spectrum: 2048
>>>>>Begin Spectral Data<<<<<
187.836	0.85
188.309	0.85
188.782	0.85
189.255	-1.35
189.728	2.55
190.201	0.6
190.674	2.65
191.147	-3.9
191.619	-1.15
192.092	0.85
192.565	-0.8
193.038	2.45
193.511	5.2
193.984	-5.1
194.456	0.15
194.929	-0.05
195.402	-3.4
195.874	0.45
196.347	4.3
196.82	1.35
197.292	-0.75
197.765	0
198.237	-0.85
198.71	-7
199.182	2.1
199.655	2.8
200.127	2.1
200.6	-4.3
201.072	5.85
201.544	-4.25
202.017	2.5
202.489	-0.9
202.961	-3.45
203.433	-4.4
203.906	-3.85
204.378	-1.8
204.85	-1.5
205.322	-0.4
205.794	5.4
206.266	1.35
206.739	2.2
207.211	-0.65
207.683	-0.2
208.155	3.25
208.627	1.85
209.099	3.3
209.57	3.15
210.042	7
210.514	4.7
210.986	-0.6
211.458	-1.6
211.93	3.8
212.402	0.85
212.873	-1.2
213.345	-3.8
213.817	4.2
214.288	-1.8
214.76	0.65
215.232	2.8
215.703	-0.45
216.175	5.85
216.646	3.1
217.118	3.5
217.589	-3.25
218.061	3.9
218.532	-3
219.004	3.9
219.475	2.85
219.946	7.05
220.418	9.75
220.889	3.8
221.36	6.95
221.832	6.1
222.303	7.05
222.774	5.15
223.245	2.65
223.717	-1.25
224.188	4.1
224.659	3.15
225.13	-0.35
225.601	4.05
226.072	5.85
226.543	9.3
227.014	6.45
227.485	5.85
227.956	12.7
228.427	13.9
228.898	9.3
229.369	2.6
229.839	4.95
230.31	12.9
230.781	10.1
231.252	9.55
231.722	7.9
232.193	9.8
232.664	10.95
233.135	8.7
233.605	9.75
234.076	18.1
234.546	14.5
235.017	15.5
235.487	12.4
235.958	11.55
236.428	19.3
236.899	17.95
237.369	19
237.84	18.05
238.31	18.8
238.78	13.25
239.251	18.05
239.721	14.75
240.191	12.45
240.662	19.9
241.132	15.25
241.602	18.3
242.072	18.75
242.542	17.25
243.013	16.2
243.483	21.5
243.953	15.2
244.423	19.05
244.893	19.75
245.363	22.3
245.833	20.75
246.303	23.85
246.773	25
247.243	24.8
247.712	24.45
248.182	25.5
248.652	27.45
249.122	26.75
249.592	30.35
250.061	25.55
250.531	33.75
251.001	28.8
251.471	29.55
251.94	29
252.41	32.35
252.879	29.7
253.349	35.6
253.818	29.85
254.288	30
254.757	30.55
255.227	34.8
255.696	31.05
256.166	36
256.635	40.75
257.105	32.1
257.574	35.8
258.043	37
258.513	38.3
258.982	35.8
259.451	41.7
259.92	37.5
260.389	41.1
260.859	36.15
261.328	40.65
261.797	37.85
262.266	41.9
262.735	42
263.204	37.35
263.673	46.45
264.142	40.4
264.611	43.2
265.08	44.7
265.549	39.15
266.018	50.05
266.487	48.4
266.955	46.4
267.424	51.1
267.893	52.15
268.362	49.3
268.83	45.75
269.299	46.45
269.768	52.45
270.236	51.45
270.705	53.2
271.174	51
271.642	52.15
272.111	57.5
272.579	52.55
273.048	56.2
273.516	63.4
273.985	60.4
274.453	59.35
274.922	54.2
275.39	55.45
275.858	59.65
276.327	60.75
276.795	57.05
277.263	58.05
277.731	61.6
278.2	66.85
278.668	71.2
279.136	71.8
279.604	67.6
280.072	64.3
280.54	67.4
281.008	72.05
281.477	70.4
281.945	66.45
282.413	72.55
282.881	68.8
283.348	72.15
283.816	73.75
284.284	75.75
284.752	76.45
285.22	76.9
285.688	74.7
286.156	77.45
286.623	76.65
287.091	79.4
287.559	81.3
288.026	83.85
288.494	84.95
288.962	82.3
289.429	82.3
289.897	85.9
290.364	80.55
290.832	82.8
291.3	89.5
291.767	86.4
292.234	94.85
292.702	87.7
293.169	90.25
293.637	95.1
294.104	97.15
294.571	94.15
295.039	92.2
295.506	93.05
295.973	96.75
296.44	92.1
296.908	103.9
297.375	95.25
297.842	96.9
298.309	96
298.776	100.95
299.243	106.15
299.71	103.85
300.177	101.95
300.644	102.35
301.111	103.5
301.578	106.7
302.045	109.6
302.512	108.75
302.979	113.45
303.446	115.75
303.913	117.85
304.379	119.05
304.846	116.15
305.313	122.8
305.78	129.55
306.246	127.6
306.713	126.35
307.18	125.65
307.646	123.15
308.113	125.5
308.579	133.2
309.046	137.55
309.512	131.65
309.979	140.7
310.445	136.25
310.912	138
311.378	144.3
311.845	145.35
312.311	142.25
312.777	143.25
313.244	148.35
313.71	150.1
314.176	154.85
314.642	152
315.109	159.25
315.575	149.1
316.041	153.35
316.507	152.75
316.973	160.8
317.439	160.95
317.905	158.1
318.371	156.9
318.837	157.4
319.303	160.25
319.769	159.2
320.235	168.95
320.701	167.5
321.167	163.5
321.633	164.7
322.099	168.05
322.564	170
323.03	169.8
323.496	175.7
323.962	181.7
324.427	181.05
324.893	180.35
325.359	184.35
325.824	183.25
326.29	188.8
326.755	186.85
327.221	187.55
327.686	196.7
328.152	195.8
328.617	199.1
329.083	200.35
329.548	204.05
330.014	203.55
330.479	209.65
330.944	206.9
331.41	209.6
331.875	198.05
332.34	204.65
332.805	208.55
333.271	211.4
333.736	214.85
334.201	215.5
334.666	226.85
335.131	226.6
335.596	232
336.061	220.7
336.526	221.5
336.991	213.4
337.456	217.3
337.921	220.35
338.386	211.7
338.851	216
339.316	222
339.781	218.95
340.246	224
340.711	229.25
341.175	223.55
341.64	237.15
342.105	240.2
342.569	251.3
343.034	241.3
343.499	244.45
343.963	249.05
344.428	250.1
344.893	256.25
345.357	265.25
345.822	262.75
346.286	267.15
346.751	266.75
347.215	272.65
347.679	284.65
348.144	292.25
348.608	297.6
349.073	298.7
349.537	306.55
350.001	304.75
350.465	305.85
350.93	306
351.394	307.25
351.858	310.15
352.322	320.35
352.786	317.15
353.25	319.15
353.715	325.85
354.179	337.9
354.643	349.8
355.107	352.65
355.571	346.7
356.035	349.05
356.498	340.3
356.962	340.25
357.426	333.2
357.89	337.05
358.354	328.55
358.818	334.75
359.281	336.4
359.745	340.15
360.209	336.45
360.673	331.35
361.136	333.05
361.6	342.95
362.064	349
362.527	355.55
362.991	357.7
363.454	348.6
363.918	358.15
364.381	363.7
364.845	362.35
365.308	361
365.772	366.9
366.235	366.25
366.698	369
367.162	368.9
367.625	372.85
368.088	378.7
368.552	377.05
369.015	373.5
369.478	378.5
369.941	378.15
370.404	385.9
370.867	378.25
371.331	382.55
371.794	397.1
372.257	394.55
372.72	395.15
373.183	400.6
373.646	401.15
374.109	405.75
374.572	405.2
375.035	410.55
375.497	411.55
375.96	418.15
376.423	428.9
376.886	430
377.349	436.85
377.811	435.4
378.274	438.65
378.737	438.25
379.199	443.4
379.662	444.05
380.125	453.25
380.587	452.7
381.05	458.8
381.512	467.15
381.975	466.75
382.437	484.45
382.9	478.55
383.362	477.5
383.825	487.6
384.287	491.15
384.75	489.1
385.212	485.55
385.674	490.9
386.136	502.75
386.599	494.15
387.061	491.95
387.523	504.7
387.985	502.9
388.447	504.75
388.91	512.65
389.372	513.35
389.834	516.35
390.296	505.9
390.758	512.55
391.22	511.45
391.682	517
392.144	523.3
392.606	528.1
393.068	532.8
393.529	568.8
393.991	567.6
394.453	540.95
394.915	524.8
395.377	526.5
395.838	529.1
396.3	528.25
396.762	535.95
397.224	530.5
397.685	533.35
398.147	532.45
398.608	543.25
399.07	556.1
399.531	548.1
399.993	559
400.454	570.35
400.916	568.1
401.377	579.2
401.839	581.85
402.3	580.9
402.762	616.1
403.223	660.2
403.684	653
404.145	629.65
404.607	620.05
405.068	604.65
405.529	618.05
405.99	633.45
406.451	639.4
406.913	625.8
407.374	630.8
407.835	634.1
408.296	648.9
408.757	644.55
409.218	660.4
409.679	671.15
410.14	681.55
410.601	697.35
411.062	695.3
411.522	699.55
411.983	694.2
412.444	709.25
412.905	716.45
413.366	748.4
413.826	782.9
414.287	879.65
414.748	1039.35
415.208	1069.6
415.669	885.6
416.13	810.65
416.59	788.3
417.051	812.7
417.511	854.05
417.972	921.95
418.432	993.4
418.893	1093.7
419.353	1055.95
419.814	813.45
420.274	730.65
420.734	711.95
421.195	733.4
421.655	733.95
422.115	746.5
422.576	744.5
423.036	754.2
423.496	776.45
423.956	807.45
424.416	861.45
424.876	966.45
425.336	962.15
425.797	945.05
426.257	930.4
426.717	881.75
427.177	820.75
427.637	834.8
428.097	852.75
428.556	892.4
429.016	955.1
429.476	961.15
429.936	931.65
430.396	934.1
430.856	952.75
431.315	972.45
431.775	1050.25
432.235	1120.7
432.694	1138.35
433.154	1070.6
433.614	1048.45
434.073	1010.45
434.533	916.95
434.993	885.55
435.452	890.65
435.912	875.35
436.371	875.05
436.83	857.1
437.29	845.95
437.749	819.9
438.209	819.1
438.668	825.8
439.127	853.2
439.587	822.15
440.046	805.3
440.505	823.15
440.964	826.35
441.424	861.95
441.883	876.7
442.342	829.05
442.801	794.2
443.26	795.95
443.719	790.05
444.178	792.2
444.637	803.8
445.096	810.25
445.555	821.35
446.014	809.25
446.473	806.5
446.932	807.25
447.391	815.5
447.849	832.55
448.308	826.4
448.767	825.6
449.226	840.4
449.685	853.75
450.143	895.85
450.602	885.5
451.061	847.9
451.519	849.95
451.978	829.95
452.436	824
452.895	836.9
453.353	835.15
453.812	823.65
454.27	827.75
454.729	828.3
455.187	842.4
455.646	840.95
456.104	845.65
456.562	856.7
457.021	868.55
457.479	821.95
457.937	857.7
458.395	877.1
458.854	867
459.312	854.9
459.77	871.15
460.228	876.85
460.686	889
461.144	890.4
461.602	888.35
462.06	883.8
462.518	903.7
462.976	901.4
463.434	907.55
463.892	929.3
464.35	936.1
464.808	949.6
465.266	961
465.724	973.7
466.181	972.85
466.639	972.45
467.097	1014.15
467.555	1042.55
468.012	1031.3
468.47	1043.9
468.928	1078.05
469.385	1119
469.843	1120.05
470.3	1114.15
470.758	1153.05
471.215	1167.15
471.673	1185.6
472.13	1227.75
472.588	1251.35
473.045	1243.8
473.503	1265.2
473.96	1316.65
474.417	1326.85
474.875	1388.9
475.332	1436.2
475.789	1457
476.246	1494.2
476.704	1557.2
477.161	1603.65
477.618	1649.75
478.075	1741.8
478.532	1860.9
478.989	1986.15
479.446	2172.8
479.903	2282.35
480.36	2480.55
480.817	2608.6
481.274	2774.1
481.731	3016.6
482.188	3228.45
482.645	3465.6
483.102	3642.55
483.558	3889.25
484.015	4055.2
484.472	4043.7
484.929	3911.75
485.385	3765.35
485.842	3679.4
486.299	3534.85
486.755	3268.75
487.212	2968.75
487.668	2696.1
488.125	2525.6
488.582	2336.1
489.038	2263.15
489.494	2193.85
489.951	2118.8
490.407	2078.85
490.864	2044
491.32	2005.7
491.776	1993.1
492.233	2001.15
492.689	1971.25
493.145	1929.75
493.602	1904.95
494.058	1932.25
494.514	1936.15
494.97	1934.35
495.426	1965.75
495.882	1955.35
496.338	1951.25
496.794	1967.6
497.251	1962.75
497.707	1987.85
498.163	1991.5
498.618	1985.85
499.074	1976.5
499.53	2005.45
499.986	2021.55
500.442	1999.75
500.898	1982.85
501.354	2004.3
501.809	2007.5
502.265	2008.85
502.721	2009.8
503.177	2008.55
503.632	2024.8
504.088	2029.35
504.543	2046.45
504.999	2082
505.455	2065.7
505.91	2039.15
506.366	2053.35
506.821	2058.15
507.277	2051.1
507.732	2049.1
508.187	2054.45
508.643	2070.7
509.098	2079.3
509.553	2105.95
510.009	2118.2
510.464	2164.65
510.919	2184.75
511.375	2207
511.83	2211.45
512.285	2260.05
512.74	2310.85
513.195	2333.7
513.65	2363.45
514.105	2400.35
514.56	2407.45
515.015	2437.55
515.47	2457.75
515.925	2422.1
516.38	2442.5
516.835	2444.6
517.29	2421.3
517.745	2410.4
518.2	2379.15
518.655	2336.85
519.109	2306.65
519.564	2274.2
520.019	2270.3
520.474	2252.05
520.928	2236.4
521.383	2209.1
521.838	2214.65
522.292	2199.55
522.747	2177.35
523.201	2172.2
523.656	2151.4
524.11	2142.35
524.565	2124.35
525.019	2147.5
525.474	2140.15
525.928	2114.05
526.382	2118.75
526.837	2128.95
527.291	2130.35
527.745	2124.45
528.2	2112.6
528.654	2086.7
529.108	2088.3
529.562	2095.25
530.016	2103.05
530.47	2100.3
530.925	2086.65
531.379	2090.15
531.833	2120.55
532.287	2113.45
532.741	2099.95
533.195	2106.35
533.649	2104.65
534.103	2117.45
534.556	2094.25
535.01	2104.6
535.464	2099.8
535.918	2103.8
536.372	2115.7
536.826	2110
537.279	2086.25
537.733	2103.8
538.187	2103.85
538.64	2106.65
539.094	2122.15
539.548	2149.6
540.001	2139.5
540.455	2158.7
540.908	2165.85
541.362	2187.75
541.815	2206.2
542.269	2250.5
542.722	2226.4
543.175	2264.8
543.629	2273.85
544.082	2292.75
544.536	2299.85
544.989	2317.7
545.442	2337.05
545.895	2331.3
546.349	2330.6
546.802	2327.1
547.255	2334.7
547.708	2348.8
548.161	2371.65
548.614	2379.25
549.067	2400.8
549.52	2369.7
549.973	2350.2
550.426	2344.45
550.879	2328.5
551.332	2329.6
551.785	2356.05
552.238	2368.4
552.691	2364.3
553.144	2413.45
553.596	2435.65
554.049	2461.85
554.502	2518.35
554.955	2549.8
555.407	2583.05
555.86	2565.9
556.313	2543.4
556.765	2525.5
557.218	2494.55
557.67	2481.7
558.123	2442.9
558.576	2431.1
559.028	2430.6
559.48	2457.7
559.933	2442.15
560.385	2379.6
560.838	2296.25
561.29	2229.5
561.742	2220.45
562.195	2165.15
562.647	2151.25
563.099	2126.6
563.551	2130.95
564.004	2143.4
564.456	2133.15
564.908	2079.55
565.36	2037.6
565.812	1991.6
566.264	1978.25
566.716	1962.3
567.168	1926.4
567.62	1922.8
568.072	1900.55
568.524	1903.15
568.976	1886.1
569.428	1875.8
569.88	1863.25
570.332	1889.8
570.784	1896.6
571.235	1881.7
571.687	1890.45
572.139	1892.85
572.59	1917.6
573.042	1922.9
573.494	1919.8
573.945	1913.4
574.397	1860.2
574.849	1855.2
575.3	1856.7
575.752	1821.45
576.203	1806.25
576.655	1819.9
577.106	1798.85
577.557	1783.8
578.009	1775.65
578.46	1781.35
578.912	1761.55
579.363	1775.5
579.814	1766.15
580.265	1758.15
580.717	1772.8
581.168	1776.4
581.619	1788.45
582.07	1787.2
582.521	1785.85
582.972	1780.85
583.423	1786.5
583.875	1798.6
584.326	1808.4
584.777	1856.4
585.227	1884.05
585.678	1909.8
586.129	1928.3
586.58	1956.1
587.031	1983.05
587.482	2032.1
587.933	2080.5
588.384	2058.05
588.834	2025.95
589.285	2002.65
589.736	2001.55
590.186	2009.2
590.637	1991.65
591.088	1934.25
591.538	1898.8
591.989	1872.95
592.439	1860.6
592.89	1838.65
593.34	1825.65
593.791	1828
594.241	1810.75
594.692	1794.7
595.142	1800.95
595.593	1799.05
596.043	1801.1
596.493	1827.75
596.943	1823.05
597.394	1868.7
597.844	1894.6
598.294	1931.9
598.744	1999.7
599.195	2097.2
599.645	2211.3
600.095	2321
600.545	2429.85
600.995	2542
601.445	2622
601.895	2756.95
602.345	2828.6
602.795	2793.4
603.245	2681.35
603.695	2533.75
604.145	2407.25
604.594	2284
605.044	2163.25
605.494	2027.25
605.944	1924.5
606.393	1873.7
606.843	1847.55
607.293	1834.25
607.743	1822.05
608.192	1843.85
608.642	1846.75
609.091	1825.55
609.541	1819.35
609.99	1824.9
610.44	1793.45
610.889	1768.5
611.339	1750.55
611.788	1721.65
612.238	1741.3
612.687	1731.3
613.136	1746.85
613.586	1759.8
614.035	1758.45
614.484	1765.9
614.933	1769.7
615.383	1739.6
615.832	1689.5
616.281	1673.65
616.73	1641.4
617.179	1607.65
617.628	1566.2
618.077	1553
618.526	1525.2
618.975	1523.45
619.424	1488.45
619.873	1501.85
620.322	1486.25
620.771	1483.15
621.22	1449
621.669	1427.05
622.118	1407.65
622.567	1397.15
623.015	1375
623.464	1381.2
623.913	1357.65
624.361	1360.35
624.81	1349.8
625.259	1361.4
625.707	1342.85
626.156	1367.05
626.604	1370.3
627.053	1375.15
627.501	1368.6
627.95	1385.2
628.398	1408.05
628.847	1386.8
629.295	1380.65
629.744	1370.4
630.192	1342.75
630.64	1324.7
631.089	1317.7
631.537	1285.4
631.985	1272.4
632.433	1260.05
632.881	1244.1
633.33	1263.5
633.778	1265.9
634.226	1268.35
634.674	1282.2
635.122	1281.15
635.57	1307.6
636.018	1326.7
636.466	1326.5
636.914	1323.8
637.362	1340.8
637.81	1368.75
638.258	1413.65
638.705	1429.75
639.153	1462.6
639.601	1487.85
640.049	1506.5
640.497	1549.45
640.944	1588.9
641.392	1526.55
641.84	1434.2
642.287	1373.95
642.735	1343.05
643.182	1328.3
643.63	1327.35
644.078	1329.6
644.525	1345.7
644.973	1376.55
645.42	1401
645.867	1439.65
646.315	1465.75
646.762	1523.1
647.21	1562.05
647.657	1633.05
648.104	1694.1
648.551	1730.15
648.999	1865.55
649.446	2034.5
649.893	2268.35
650.34	2641.8
650.787	3229.2
651.234	4125.45
651.682	5669.15
652.129	7931.5
652.576	11274.6
653.023	14737.6
653.47	15537.4
653.917	15537.45
654.363	15537.35
654.81	15534.35
655.257	15535
655.704	14439.5
656.151	8777.45
656.598	5786.85
657.044	4166.2
657.491	3279.05
657.938	2682.8
658.385	2286.85
658.831	2029.35
659.278	1828.45
659.724	1667
660.171	1568.7
660.618	1465.7
661.064	1392.85
661.511	1347.85
661.957	1302.05
662.404	1275
662.85	1264.6
663.296	1249.9
663.743	1222.3
664.189	1210.85
664.635	1201.25
665.082	1178.8
665.528	1154.55
665.974	1137.6
666.42	1120.8
666.867	1102
667.313	1048.65
667.759	1039.65
668.205	1032.85
668.651	1026.65
669.097	1029.3
669.543	1037.35
669.989	1054.65
670.435	1051.25
670.881	1064
671.327	1098.95
671.773	1172.5
672.219	1268.25
672.665	1346.9
673.11	1391.2
673.556	1412.9
674.002	1440.65
674.448	1462
674.893	1256.25
675.339	1094.85
675.785	1010.7
676.23	951.45
676.676	917
677.122	895.15
677.567	875.15
678.013	843.8
678.458	832.75
678.904	831.9
679.349	827.2
679.794	819.6
680.24	820.55
680.685	803.1
681.131	809.25
681.576	817.45
682.021	820.4
682.466	826.2
682.912	836.15
683.357	883.2
683.802	951.7
684.247	1044.3
684.692	1110.4
685.137	1165.8
685.583	1186.95
686.028	1241.25
686.473	1183.95
686.918	1025.45
687.363	927.6
687.807	889.85
688.252	844.15
688.697	815.2
689.142	789.8
689.587	797.35
690.032	809.85
690.477	843.4
690.921	888.15
691.366	928.25
691.811	962.3
692.255	1048.1
692.7	1270.05
693.145	1843.05
693.589	2801.8
694.034	3335.2
694.478	3556.9
694.923	3240
695.367	4621.55
695.812	2830.35
696.256	1198.45
696.701	865.9
697.145	807.05
697.59	768.05
698.034	754.05
698.478	755.05
698.922	756.65
699.367	776.65
699.811	816
700.255	883.3
700.699	970.45
701.143	1054.25
701.588	1104.6
702.032	1157.3
702.476	1195.45
702.92	1277.3
703.364	1683.25
703.808	2576.75
704.252	3208.7
704.696	3382.05
705.14	3187.5
705.584	4370.15
706.027	2443.85
706.471	1224.5
706.915	912.5
707.359	809.85
707.803	758.25
708.246	723
708.69	721.25
709.134	714
709.577	711.75
710.021	724.85
710.465	722.05
710.908	712.6
711.352	748.15
711.795	817.9
712.239	875.9
712.682	892.25
713.126	885.65
713.569	986.3
714.012	805.05
714.456	700.35
714.899	657.9
715.342	630.05
715.786	609.55
716.229	602.35
716.672	580.25
717.115	585.2
717.558	592.9
718.002	605.45
718.445	633
718.888	669.65
719.331	684
719.774	691.55
720.217	679.75
720.66	640.25
721.103	612.8
721.546	575.4
721.989	562.25
722.432	559.9
722.874	551.6
723.317	555.4
723.76	606.9
724.203	745.8
724.645	997.35
725.088	1180.55
725.531	1156.25
725.974	1253.4
726.416	1141.65
726.859	704.95
727.301	577.95
727.744	546.85
728.187	546.3
728.629	558.6
729.071	587.45
729.514	620.1
729.956	640.1
730.399	650.65
730.841	651.55
731.283	630.1
731.726	621.55
732.168	637.6
732.61	664.3
733.053	721.4
733.495	789.9
733.937	886.8
734.379	1038.5
734.821	1332.65
735.263	2112.1
735.705	3803.75
736.148	5590.45
736.59	5588.4
737.032	6055.85
737.474	4994.9
737.916	1917.75
738.357	1001.45
738.799	766.7
739.241	712.2
739.683	720.8
740.125	733.1
740.567	741.35
741.008	785.15
741.45	819
741.892	852.9
742.334	859.95
742.775	860.25
743.217	823.55
743.658	701.8
744.1	717.95
744.542	820.45
744.983	853.75
745.425	891.65
745.866	870.15
746.307	734.9
746.749	783.15
747.19	1151.2
747.632	2237.9
748.073	4168.95
748.514	5722.7
748.956	7588.35
749.397	8926.85
749.838	6175.95
750.279	5863.25
750.72	3030.95
751.162	1292.95
751.603	741.4
752.044	592.3
752.485	521.05
752.926	495.4
753.367	464.85
753.808	457.05
754.249	448.65
754.69	444.2
755.131	434.8
755.572	433.75
756.013	440.1
756.453	440.5
756.894	452.6
757.335	446.1
757.776	448.8
758.216	475.8
758.657	498.65
759.098	557.5
759.538	672.4
759.979	968.95
760.42	1969.7
760.86	5050.8
761.301	10364.85
761.741	12183.6
762.182	13907.7
762.622	9097.3
763.063	3254.9
763.503	1334.15
763.943	783.6
764.384	623.15
764.824	538.35
765.264	499.15
765.705	465.7
766.145	436.4
766.585	426.65
767.025	404.45
767.465	414
767.906	421.35
768.346	451.5
768.786	518.15
769.226	757.05
769.666	1545.45
770.106	3453.3
770.546	4910.35
770.986	5558.85
771.426	4205.1
771.866	1747.45
772.306	787.4
772.745	493.05
773.185	411.9
773.625	395.55
774.065	426.15
774.505	594.05
774.944	1038
775.384	1472.25
775.824	1640.4
776.263	1360.35
776.703	733.35
777.142	430.25
777.582	330.6
778.021	304.5
778.461	289.9
778.9	288.1
779.34	276.75
779.779	274.9
780.219	280.4
780.658	264.1
781.097	262
781.537	255.7
781.976	254.55
782.415	251.25
782.855	251.5
783.294	244.95
783.733	246.45
784.172	252.5
784.611	252.05
785.05	263.8
785.489	269.4
785.928	271.25
786.367	284.15
786.806	292.1
787.245	319.45
787.684	334.1
788.123	329.85
788.562	318.55
789.001	302.45
789.44	292.75
789.879	297.5
790.317	295.45
790.756	315.45
791.195	364.85
791.634	495.15
792.072	885.7
792.511	2173.6
792.95	4006.6
793.388	4848.85
793.827	3159.15
794.265	1439.3
794.704	690.75
795.142	419.25
795.581	342.5
796.019	316.2
796.458	315.2
796.896	326.35
797.334	375.95
797.773	503.95
798.211	968.75
798.649	2010.4
799.087	3406.1
799.526	4804.6
799.964	4939
800.402	3399.25
800.84	1538.1
801.278	753.65
801.716	461.45
802.154	372.9
802.592	349.25
803.03	349.35
803.468	353.45
803.906	352.4
804.344	350.15
804.782	345.3
805.22	339.5
805.658	357.65
806.096	383.4
806.533	427.7
806.971	552.2
807.409	794.35
807.847	1599.35
808.284	4045.45
808.722	7085.95
809.16	9953.4
809.597	13418.05
810.035	15539.35
810.472	10888.8
810.91	4633.5
811.347	2059.85
811.785	965.7
812.222	611.3
812.66	467.4
813.097	400.85
813.535	347.2
813.972	312.65
814.409	292.15
814.846	278.8
815.284	265.75
815.721	270.95
816.158	298.9
816.595	389.6
817.032	485.5
817.47	438.85
817.907	330.6
818.344	289.1
818.781	283.6
819.218	340.3
819.655	512.65
820.092	672.05
820.529	599.3
820.966	476.85
821.403	333.65
821.839	289.1
822.276	322.05
822.713	377.55
823.15	355.15
823.587	369.8
824.023	666.75
824.46	1646.15
824.897	2898.95
825.333	2244.95
825.77	1032.9
826.206	541.55
826.643	315.9
827.08	235.7
827.516	205.1
827.953	196.85
828.389	186.9
828.825	186.85
829.262	167.65
829.698	160.7
830.135	152.7
830.571	153.8
831.007	159
831.443	155.9
831.88	162.45
832.316	161.75
832.752	161.7
833.188	161.35
833.624	167.25
834.06	173.35
834.497	172.1
834.933	174.7
835.369	188.55
835.805	195.2
836.241	208.45
836.677	226.85
837.112	264.35
837.548	328.25
837.984	485.2
838.42	1043.8
838.856	2902.6
839.292	5741.65
839.727	4291.55
840.163	2873.75
840.599	4356.75
841.034	6667.8
841.47	3347.35
841.906	1610.05
842.341	855.2
842.777	621.45
843.212	625.4
843.648	391.95
844.083	277.5
844.519	203.8
844.954	175.7
845.39	157.4
845.825	155.9
846.261	149
846.696	143.45
847.131	132.75
847.566	138.4
848.002	143.25
848.437	149.65
848.872	151.95
849.307	197
849.742	364.85
850.177	951.75
850.613	2015.6
851.048	1453.45
851.483	668.5
851.918	373.1
852.353	202
852.788	148
853.223	134.8
853.657	119.65
854.092	115.6
854.527	117
854.962	127
855.397	132.15
855.832	117.3
856.266	105.25
856.701	103.7
857.136	106.05
857.57	128.25
858.005	156.8
858.44	131.95
858.874	125.65
859.309	129.65
859.743	128.4
860.178	119.75
860.612	135.5
861.047	182.65
861.481	246.6
861.915	170.1
862.35	133.3
862.784	100.65
863.218	104.75
863.653	107.7
864.087	131.5
864.521	163.95
864.955	274.9
865.39	469.8
865.824	354.85
866.258	452.95
866.692	671.75
867.126	480.6
867.56	262.35
867.994	170.95
868.428	144.4
868.862	180.1
869.296	162.15
869.73	195.9
870.164	173.65
870.598	158.8
871.031	112.25
871.465	98.6
871.899	79.4
872.333	70.8
872.766	72.2
873.2	79.7
873.634	70.4
874.067	80.15
874.501	74.15
874.935	74.7
875.368	78.1
875.802	74.55
876.235	67.2
876.669	65.15
877.102	61.05
877.535	61.7
877.969	58.95
878.402	59.55
878.836	59
879.269	57.7
879.702	59.8
880.135	58.9
880.569	62.45
881.002	54.55
881.435	60.05
881.868	59.6
882.301	55.8
882.734	53.6
883.167	52.25
883.601	52.95
884.034	58
884.467	49.15
884.899	53.4
885.332	43.3
885.765	48.05
886.198	46.4
886.631	50.75
887.064	51.3
887.497	49.85
887.929	48.05
888.362	47.55
888.795	46.6
889.228	49.55
889.66	48.5
890.093	46.25
890.526	44.2
890.958	45.4
891.391	48.7
891.823	44.35
892.256	46.95
892.688	48.9
893.121	46.4
893.553	47.45
893.985	44.55
894.418	39.65
894.85	46.45
895.282	44.5
895.715	39.7
896.147	36.1
896.579	37.35
897.011	46.4
897.444	44.65
897.876	36.7
898.308	36.2
898.74	40.05
899.172	42.15
899.604	41.85
900.036	40.5
900.468	40.4
900.9	48.3
901.332	54.45
901.764	57.75
902.196	58.4
902.628	55.8
903.06	82.5
903.491	85.95
903.923	71.9
904.355	72.05
904.787	71.8
905.218	59.8
905.65	59.85
906.082	56.1
906.513	49.85
906.945	51.85
907.376	49.4
907.808	51
908.239	55.05
908.671	65.85
909.102	65.65
909.534	91.9
909.965	181.2
910.397	471.35
910.828	1358.85
911.259	827.9
911.691	449.9
912.122	256.65
912.553	129.4
912.984	76.95
913.415	60.65
913.847	54.9
914.278	48.75
914.709	45.75
915.14	42.15
915.571	44.4
916.002	44.2
916.433	44.5
916.864	47.2
917.295	43.5
917.726	51.5
918.157	66.1
918.587	63.6
919.018	59.3
919.449	56.95
919.88	68.3
920.311	103.5
920.741	286.8
921.172	501.65
921.603	252.3
922.033	158.2
922.464	98.75
922.895	62.7
923.325	44.9
923.756	43.85
924.186	48.7
924.617	74.35
925.047	103.9
925.478	92.8
925.908	64.75
926.338	54.55
926.769	41.7
927.199	39.7
927.629	36.2
928.06	42.05
928.49	38.85
928.92	39.1
929.35	34.5
929.78	27.15
930.21	24.75
930.641	21.5
931.071	16.6
931.501	26.2
931.931	21.75
932.361	17.2
932.791	28.6
933.221	28.05
933.651	36.6
934.08	66.15
934.51	44.2
934.94	34.45
935.37	26.45
935.8	21.3
936.229	19.9
936.659	22.8
937.089	39.3
937.519	60.55
937.948	78
938.378	43.1
938.807	28.1
939.237	23.2
939.666	19.4
940.096	12.55
940.525	4.15
940.955	13.6
941.384	10.95
941.814	8.8
942.243	14.65
942.672	11.25
943.102	15.3
943.531	13
943.96	11.25
944.39	11.1
944.819	16.65
945.248	10.65
945.677	7.8
946.106	9.2
946.535	12.1
946.964	13
947.393	8.25
947.822	8.1
948.251	13.2
948.68	11.55
949.109	8.15
949.538	5.95
949.967	8.95
950.396	9.5
950.825	12.05
951.254	13
951.682	6.35
952.111	4.65
952.54	8.75
952.969	10.95
953.397	5.1
953.826	6.55
954.254	4.7
954.683	6.85
955.112	7.05
955.54	9.3
955.969	6.7
956.397	9.45
956.826	5.65
957.254	8.05
957.682	9.2
958.111	10.6
958.539	7.7
958.967	7.2
959.396	10.95
959.824	5.5
960.252	11.3
960.68	7.25
961.109	9.05
961.537	14.55
961.965	3.15
962.393	7.25
962.821	6.85
963.249	8.45
963.677	14.85
964.105	84.05
964.533	146.75
964.961	75.25
965.389	41.8
965.817	25.4
966.245	13.35
966.672	13.25
967.1	15.5
967.528	2.5
967.956	4.95
968.383	10.9
968.811	6.65
969.239	7.25
969.666	7.7
970.094	9.8
970.522	4.65
970.949	3.2
971.377	-0.15
971.804	4.3
972.232	6.1
972.659	6.3
973.087	6.65
973.514	4.15
973.941	3.35
974.369	-1.4
974.796	7.2
975.223	2.7
975.651	6.35
976.078	10.15
976.505	14.4
976.932	34.5
977.359	42.15
977.786	21.15
978.214	23.35
978.641	6.45
979.068	4.35
979.495	8.2
979.922	8.95
980.349	8.15
980.776	7.35
981.202	7.65
981.629	6.55
982.056	4.85
982.483	3.75
982.91	5
983.337	0.3
983.763	6.45
984.19	6.05
984.617	-0.1
985.043	8
985.47	9.15
985.897	6.65
986.323	9.3
986.75	3.45
987.176	8.05
987.603	3.65
988.029	4.8
988.456	4.9
988.882	6.65
989.308	-2.5
989.735	-1.75
990.161	4.45
990.587	4.4
991.014	6.2
991.44	5.9
991.866	4.4
992.292	3.35
992.719	6
993.145	9.25
993.571	7.8
993.997	6.6
994.423	7.8
994.849	-1.75
995.275	8.75
995.701	0.8
996.127	1.25
996.553	4.5
996.979	4.1
997.405	7.4
997.83	5.85
998.256	3.8
998.682	3.2
999.108	4.7
999.534	0.95
999.959	0.05
1000.385	6.5
1000.811	2.15
1001.236	-4
1001.662	2.35
1002.087	8.9
1002.513	4.05
1002.938	1.25
1003.364	4.65
1003.789	6.4
1004.215	3.4
1004.64	4.9
1005.066	4.15
1005.491	8.1
1005.916	1.9
1006.342	4.15
1006.767	3.7
1007.192	7.15
1007.617	3.7
1008.042	1.95
1008.468	2.2
1008.893	3.95
1009.318	6.65
1009.743	15.9
1010.168	27.1
1010.593	24.85
1011.018	12.15
1011.443	12.65
1011.868	7.6
1012.293	7.3
1012.718	1.75
1013.143	2.15
1013.567	9.25
1013.992	1.5
1014.417	1.15
1014.842	0.8
1015.267	0.9
1015.691	2.5
1016.116	2.45
1016.541	3.25
1016.965	2.4
1017.39	2.15
1017.814	-2.65
1018.239	1.55
1018.663	-3.6
1019.088	-2.25
1019.512	7.95
1019.937	-5.8
1020.361	2.3
1020.785	2.65
1021.21	-1.6
1021.634	0.55
1022.058	2.65
1022.483	-1.5
1022.907	-1.95
1023.331	-5.25
1023.755	-0.45
1024.179	3.15
1024.604	-0.3
1025.028	4.85
1025.452	-0.4
1025.876	1.3
1026.3	4.4
1026.724	-0.95
1027.148	0.5
1027.572	-0.35
1027.996	3.95
1028.42	1.9
1028.843	2
1029.267	-2.7
1029.691	1.05
1030.115	-1.85
1030.539	1.55
1030.962	0.1
1031.386	1.85
1031.81	2.15
1032.233	-1.3
1032.657	-4.75
1033.08	3.5
1033.504	0.95
1033.927	1.75
1034.351	-1.2
1034.774	0.9
1035.198	-0.9
1035.621	3.9
1036.045	-4.25
1036.468	8.1
1036.891	2.75
1037.315	3.5
1037.738	-2.1
1038.161	0.75
1038.584	2.35
1039.008	-1.5
1039.431	-2.35
1039.854	-4.85
1040.277	4.2
1040.7	-0.5
1041.123	-0.15
1041.546	-3.7
1041.969	4.5
1042.392	4.5
1042.815	-7.55
1043.238	-1.15
1043.661	0.4
1044.084	-3
1044.507	-1
1044.93	-0.9
1045.352	2.9
1045.775	5.8
1046.198	3.1
1046.621	3.55
1047.043	-1.95
1047.466	2.45
1047.889	-2.8
1048.311	1.1
1048.734	0.95
1049.156	-1.25
1049.579	1.15
1050.001	-0.75
1050.424	-0.95
1050.846	-2.65
1051.269	-4.5
1051.691	-1.25
1052.113	0.95
1052.536	-1.7
1052.958	-4.15
1053.38	0.1
1053.802	-3.35
1054.225	-2.1
1054.647	1.5
1055.069	-0.7
1055.491	0.25
1055.913	-0.1
1056.335	-10
1056.757	-5
1057.179	-4.95
1057.601	-2.7
1058.023	0.55
1058.445	-1.45
1058.867	4.5
1059.289	-0.7
1059.711	-2.5
1060.133	-0.9
1060.555	0.15
1060.976	-0.4
1061.398	-0.25
1061.82	-2.05
1062.241	1.05
1062.663	-1.95
1063.085	-6.45
1063.506	-2.75
1063.928	0
1064.35	-1.05
1064.771	1.9
1065.193	-2.35
1065.614	1.05
1066.035	2.25
1066.457	4
1066.878	0.8
1067.3	-1.05
1067.721	0.35
1068.142	2.1
1068.564	1.1
1068.985	-0.4
1069.406	-3.95
1069.827	0.3
1070.248	-0.85
1070.67	-5.85
1071.091	-7.15
1071.512	0.05
1071.933	-1.8
1072.354	-3.6
1072.775	-3.8
1073.196	2.1
1073.617	-2.35
1074.038	-1.8
1074.459	-4.95
1074.88	-1
1075.3	0.1
1075.721	-0.3
1076.142	-3.05
1076.563	-5.85
1076.983	3
1077.404	-5.1
1077.825	2.1
1078.246	-0.85
1078.666	-3.65
1079.087	-0.65
1079.507	1.85
1079.928	-3.5
1080.348	-2.45
1080.769	1.7
1081.189	-1.55
1081.61	-4.45
1082.03	0.5
1082.451	-1.05
1082.871	-2.5
1083.291	-2.95
1083.711	-4.9
1084.132	-2.45
1084.552	-4.85
1084.972	-5.7
1085.392	-2.45
1085.813	1.3
1086.233	-3.85
1086.653	1.25
1087.073	-3.7
1087.493	0.95
1087.913	-5.1
1088.333	-3.35
1088.753	-3.75
1089.173	-3.95
1089.593	1.65
1090.013	-0.05
1090.433	-1.5
1090.852	3.6
1091.272	-2.95
1091.692	-1.5
1092.112	0.5
1092.531	-4.95
1092.951	0.1
1093.371	-3.4
1093.79	-3.5
1094.21	-5.85
1094.63	-0.3
1095.049	-2.6
1095.469	-4.35
1095.888	-0.25
1096.308	1.15
1096.727	-2.2
1097.146	-6.35
1097.566	-5.6
1097.985	-1.35
1098.405	0.1
1098.824	-1.55
1099.243	-3.3
1099.662	-6.1
1100.082	-0.2
1100.501	-3.65
1100.92	1.55
1101.339	-0.65
1101.758	4.15
