Data from MSPlasma+Separation6_Subt14_10-13-15-673.txt Node
Date: Fri Jul 21 10:13:15 EDT 2017
User: Ender
Spectrometer: HR+D1039
Trigger mode: 0
Integration Time (sec): 6.430000E-3
Scans to average: 20
Electric dark correction enabled: true
Nonlinearity correction enabled: false
Boxcar width: 0
XAxis mode: Wavelengths
Number of Pixels in Spectrum: 2048
>>>>>Begin Spectral Data<<<<<
187.836	-2.23
188.309	-2.23
188.782	-2.23
189.255	1.47
189.728	2.57
190.201	0.57
190.674	1.47
191.147	0.47
191.619	0.57
192.092	-2.23
192.565	-3.03
193.038	2.12
193.511	4.02
193.984	-1.13
194.456	-0.08
194.929	-2.08
195.402	-4.13
195.874	1.72
196.347	4.52
196.82	2.02
197.292	-2.03
197.765	-0.03
198.237	1.52
198.71	-2.53
199.182	2.82
199.655	6.42
200.127	3.72
200.6	-1.43
201.072	4.12
201.544	3.07
202.017	2.12
202.489	-1.68
202.961	6.37
203.433	-2.43
203.906	-2.33
204.378	5.02
204.85	3.42
205.322	1.87
205.794	3.92
206.266	2.67
206.739	5.47
207.211	0.67
207.683	2.92
208.155	4.02
208.627	1.77
209.099	8.67
209.57	5.97
210.042	5.52
210.514	2.57
210.986	4.02
211.458	0.17
211.93	5.17
212.402	3.82
212.873	0.77
213.345	1.17
213.817	6.22
214.288	2.82
214.76	-0.83
215.232	4.32
215.703	1.02
216.175	6.47
216.646	1.72
217.118	5.57
217.589	3.07
218.061	5.67
218.532	4.67
219.004	6.27
219.475	10.32
219.946	4.07
220.418	10.82
220.889	6.37
221.36	9.92
221.832	12.72
222.303	8.82
222.774	6.87
223.245	4.87
223.717	6.12
224.188	8.62
224.659	2.97
225.13	2.02
225.601	4.97
226.072	8.12
226.543	11.47
227.014	8.02
227.485	7.97
227.956	9.12
228.427	13.42
228.898	10.27
229.369	9.37
229.839	12.12
230.31	15.12
230.781	13.42
231.252	15.12
231.722	11.37
232.193	14.97
232.664	16.57
233.135	12.97
233.605	16.02
234.076	19.72
234.546	14.17
235.017	16.37
235.487	16.22
235.958	12.57
236.428	25.77
236.899	14.77
237.369	21.27
237.84	19.87
238.31	22.97
238.78	14.72
239.251	20.72
239.721	20.67
240.191	21.57
240.662	24.17
241.132	20.37
241.602	26.02
242.072	24.62
242.542	19.37
243.013	23.07
243.483	25.77
243.953	23.52
244.423	22.12
244.893	24.92
245.363	25.42
245.833	29.77
246.303	25.57
246.773	29.27
247.243	28.62
247.712	30.42
248.182	26.52
248.652	29.12
249.122	30.37
249.592	30.17
250.061	29.17
250.531	33.52
251.001	31.72
251.471	33.67
251.94	35.67
252.41	34.07
252.879	32.22
253.349	39.97
253.818	35.47
254.288	42.42
254.757	39.37
255.227	39.07
255.696	41.57
256.166	39.17
256.635	42.02
257.105	38.87
257.574	44.57
258.043	41.37
258.513	48.07
258.982	42.92
259.451	49.97
259.92	46.17
260.389	43.82
260.859	45.37
261.328	49.17
261.797	50.52
262.266	53.27
262.735	52.02
263.204	42.57
263.673	54.37
264.142	47.97
264.611	55.12
265.08	50.77
265.549	47.72
266.018	50.32
266.487	56.27
266.955	52.12
267.424	57.92
267.893	57.72
268.362	57.12
268.83	55.72
269.299	58.22
269.768	57.72
270.236	59.62
270.705	60.62
271.174	59.02
271.642	59.72
272.111	62.92
272.579	64.27
273.048	66.22
273.516	65.02
273.985	66.97
274.453	68.57
274.922	61.52
275.39	66.12
275.858	70.22
276.327	72.82
276.795	70.87
277.263	68.92
277.731	75.42
278.2	80.62
278.668	74.47
279.136	78.82
279.604	77.32
280.072	77.02
280.54	76.77
281.008	81.67
281.477	79.37
281.945	78.57
282.413	82.27
282.881	84.17
283.348	83.57
283.816	89.82
284.284	87.02
284.752	90.57
285.22	90.92
285.688	87.37
286.156	91.87
286.623	91.92
287.091	89.87
287.559	90.37
288.026	95.42
288.494	95.97
288.962	95.07
289.429	100.22
289.897	101.22
290.364	95.27
290.832	97.87
291.3	95.87
291.767	102.72
292.234	106.77
292.702	99.47
293.169	102.67
293.637	112.77
294.104	107.57
294.571	106.47
295.039	106.37
295.506	103.12
295.973	107.82
296.44	104.62
296.908	113.17
297.375	112.72
297.842	118.97
298.309	111.82
298.776	114.27
299.243	118.12
299.71	118.42
300.177	123.57
300.644	117.77
301.111	119.72
301.578	124.92
302.045	125.22
302.512	124.67
302.979	130.67
303.446	131.07
303.913	134.47
304.379	140.62
304.846	132.17
305.313	139.47
305.78	143.52
306.246	142.97
306.713	141.32
307.18	153.72
307.646	142.17
308.113	153.67
308.579	162.22
309.046	161.92
309.512	153.22
309.979	162.82
310.445	156.12
310.912	166.32
311.378	167.67
311.845	166.37
312.311	168.42
312.777	167.27
313.244	172.67
313.71	174.87
314.176	179.42
314.642	181.72
315.109	176.72
315.575	176.97
316.041	182.62
316.507	175.22
316.973	193.72
317.439	186.02
317.905	192.17
318.371	184.87
318.837	188.77
319.303	192.42
319.769	189.57
320.235	194.67
320.701	197.37
321.167	191.72
321.633	196.07
322.099	195.57
322.564	204.72
323.03	204.47
323.496	203.87
323.962	208.72
324.427	214.92
324.893	207.27
325.359	221.52
325.824	220.62
326.29	222.67
326.755	217.32
327.221	221.77
327.686	236.22
328.152	231.47
328.617	233.17
329.083	238.57
329.548	242.47
330.014	242.37
330.479	242.02
330.944	244.12
331.41	248.82
331.875	246.02
332.34	248.87
332.805	246.47
333.271	247.92
333.736	251.72
334.201	250.07
334.666	272.07
335.131	281.47
335.596	273.77
336.061	262.42
336.526	268.17
336.991	263.87
337.456	257.12
337.921	260.17
338.386	260.27
338.851	261.62
339.316	260.62
339.781	264.02
340.246	264.62
340.711	267.97
341.175	279.47
341.64	287.02
342.105	288.17
342.569	301.77
343.034	295.72
343.499	293.22
343.963	311.77
344.428	303.47
344.893	313.77
345.357	313.57
345.822	316.67
346.286	322.97
346.751	324.67
347.215	332.97
347.679	339.72
348.144	359.42
348.608	359.22
349.073	361.22
349.537	370.97
350.001	369.07
350.465	371.42
350.93	364.32
351.394	378.57
351.858	376.62
352.322	381.67
352.786	389.42
353.25	389.82
353.715	389.62
354.179	402.82
354.643	411.82
355.107	420.32
355.571	414.17
356.035	411.72
356.498	412.17
356.962	418.92
357.426	410.12
357.89	413.27
358.354	406.22
358.818	407.52
359.281	414.07
359.745	414.62
360.209	410.67
360.673	413.22
361.136	413.97
361.6	419.57
362.064	422.72
362.527	426.92
362.991	432.92
363.454	426.82
363.918	441.32
364.381	445.97
364.845	442.67
365.308	440.42
365.772	455.12
366.235	450.52
366.698	447.97
367.162	448.42
367.625	450.02
368.088	463.77
368.552	457.72
369.015	464.67
369.478	470.32
369.941	473.97
370.404	480.27
370.867	475.27
371.331	481.87
371.794	490.37
372.257	493.12
372.72	490.37
373.183	499.57
373.646	495.37
374.109	488.87
374.572	508.72
375.035	504.37
375.497	517.57
375.96	514.57
376.423	528.57
376.886	531.47
377.349	538.27
377.811	535.67
378.274	541.27
378.737	536.87
379.199	546.72
379.662	545.87
380.125	559.07
380.587	569.37
381.05	576.67
381.512	581.52
381.975	593.82
382.437	603.87
382.9	595.12
383.362	600.52
383.825	612.82
384.287	610.22
384.75	597.77
385.212	611.77
385.674	615.92
386.136	626.42
386.599	617.32
387.061	625.32
387.523	632.02
387.985	623.37
388.447	637.42
388.91	641.87
389.372	644.77
389.834	648.02
390.296	627.57
390.758	649.77
391.22	644.87
391.682	654.87
392.144	655.27
392.606	659.52
393.068	663.62
393.529	702.17
393.991	713.47
394.453	689.37
394.915	667.62
395.377	662.17
395.838	668.22
396.3	663.02
396.762	671.57
397.224	665.67
397.685	674.37
398.147	679.92
398.608	685.62
399.07	692.32
399.531	698.87
399.993	711.92
400.454	725.42
400.916	718.37
401.377	742.62
401.839	744.57
402.3	738.27
402.762	774.07
403.223	816.32
403.684	826.57
404.145	789.47
404.607	786.12
405.068	782.67
405.529	796.22
405.99	802.87
406.451	809.87
406.913	806.52
407.374	809.07
407.835	809.12
408.296	827.22
408.757	830.62
409.218	851.47
409.679	855.67
410.14	859.82
410.601	875.42
411.062	880.12
411.522	881.07
411.983	884.92
412.444	884.52
412.905	898.17
413.366	927.17
413.826	966.82
414.287	1077.32
414.748	1243.92
415.208	1266.82
415.669	1082.22
416.13	996.12
416.59	965.87
417.051	997.02
417.511	1035.07
417.972	1112.72
418.432	1179.47
418.893	1293.17
419.353	1240.52
419.814	979.87
420.274	884.87
420.734	883.27
421.195	907.72
421.655	910.37
422.115	921.92
422.576	925.42
423.036	934.72
423.496	973.97
423.956	1003.02
424.416	1065.97
424.876	1185.42
425.336	1184.42
425.797	1180.62
426.257	1166.07
426.717	1131.07
427.177	1058.62
427.637	1088.32
428.097	1134.82
428.556	1188.72
429.016	1270.27
429.476	1287.92
429.936	1283.12
430.396	1292.32
430.856	1321.32
431.315	1345.17
431.775	1427.27
432.235	1514.52
432.694	1529.27
433.154	1457.87
433.614	1420.22
434.073	1372.77
434.533	1242.02
434.993	1188.42
435.452	1184.82
435.912	1153.47
436.371	1135.62
436.83	1108.72
437.29	1087.47
437.749	1058.52
438.209	1044.22
438.668	1061.27
439.127	1064.72
439.587	1043.47
440.046	1011.02
440.505	1018.97
440.964	1024.02
441.424	1064.52
441.883	1077.62
442.342	1020.02
442.801	968.72
443.26	983.12
443.719	979.12
444.178	972.32
444.637	983.87
445.096	986.67
445.555	996.02
446.014	997.72
446.473	988.27
446.932	987.42
447.391	1002.17
447.849	1016.22
448.308	1000.42
448.767	1004.72
449.226	1015.22
449.685	1028.57
450.143	1063.22
450.602	1063.32
451.061	1013.37
451.519	1016.97
451.978	1001.82
452.436	997.82
452.895	1005.47
453.353	1010.37
453.812	996.77
454.27	1005.87
454.729	1006.62
455.187	1012.02
455.646	1019.52
456.104	1024.22
456.562	1035.22
457.021	1061.32
457.479	1006.97
457.937	1033.07
458.395	1065.67
458.854	1057.97
459.312	1038.67
459.77	1045.92
460.228	1059.02
460.686	1077.77
461.144	1078.12
461.602	1066.47
462.06	1070.27
462.518	1099.62
462.976	1097.72
463.434	1114.12
463.892	1119.37
464.35	1148.12
464.808	1162.52
465.266	1170.47
465.724	1185.52
466.181	1191.57
466.639	1187.37
467.097	1246.52
467.555	1284.87
468.012	1269.92
468.47	1281.02
468.928	1325.27
469.385	1362.07
469.843	1384.57
470.3	1383.37
470.758	1432.77
471.215	1437.62
471.673	1477.47
472.13	1523.67
472.588	1552.87
473.045	1562.57
473.503	1586.37
473.96	1671.37
474.417	1686.12
474.875	1770.97
475.332	1847.52
475.789	1869.92
476.246	1955.92
476.704	2050.12
477.161	2138.02
477.618	2231.32
478.075	2390.82
478.532	2609.32
478.989	2854.42
479.446	3191.97
479.903	3426.82
480.36	3814.32
480.817	4108.37
481.274	4442.87
481.731	4889.82
482.188	5286.82
482.645	5717.12
483.102	6041.17
483.558	6429.32
484.015	6682.47
484.472	6624.97
484.929	6377.17
485.385	6052.77
485.842	5907.82
486.299	5624.57
486.755	5067.57
487.212	4491.62
487.668	3998.57
488.125	3648.52
488.582	3320.92
489.038	3133.42
489.494	3005.02
489.951	2875.67
490.407	2766.62
490.864	2694.72
491.32	2605.27
491.776	2570.52
492.233	2572.47
492.689	2514.57
493.145	2458.87
493.602	2414.92
494.058	2428.82
494.514	2430.42
494.97	2420.82
495.426	2456.12
495.882	2435.47
496.338	2419.72
496.794	2441.77
497.251	2425.52
497.707	2441.97
498.163	2453.92
498.618	2448.27
499.074	2441.22
499.53	2458.92
499.986	2484.32
500.442	2452.82
500.898	2434.52
501.354	2453.27
501.809	2458.72
502.265	2463.82
502.721	2456.02
503.177	2465.77
503.632	2479.77
504.088	2474.62
504.543	2500.07
504.999	2538.07
505.455	2520.57
505.91	2499.12
506.366	2497.27
506.821	2519.47
507.277	2501.97
507.732	2508.17
508.187	2506.07
508.643	2525.32
509.098	2524.57
509.553	2560.12
510.009	2593.32
510.464	2635.12
510.919	2652.82
511.375	2679.27
511.83	2692.77
512.285	2733.27
512.74	2798.47
513.195	2841.57
513.65	2864.27
514.105	2904.47
514.56	2907.77
515.015	2954.07
515.47	2964.47
515.925	2923.77
516.38	2940.62
516.835	2949.27
517.29	2927.42
517.745	2906.27
518.2	2878.22
518.655	2832.57
519.109	2794.72
519.564	2765.02
520.019	2750.42
520.474	2725.52
520.928	2706.92
521.383	2689.77
521.838	2668.97
522.292	2663.67
522.747	2644.87
523.201	2640.32
523.656	2612.57
524.11	2598.02
524.565	2584.52
525.019	2597.12
525.474	2590.82
525.928	2573.87
526.382	2594.87
526.837	2580.97
527.291	2601.52
527.745	2585.67
528.2	2566.22
528.654	2547.77
529.108	2558.12
529.562	2552.52
530.016	2553.92
530.47	2564.47
530.925	2559.37
531.379	2545.42
531.833	2567.02
532.287	2574.67
532.741	2567.57
533.195	2559.47
533.649	2566.57
534.103	2564.17
534.556	2538.97
535.01	2567.37
535.464	2565.17
535.918	2548.57
536.372	2573.87
536.826	2568.97
537.279	2544.92
537.733	2544.72
538.187	2556.27
538.64	2557.82
539.094	2585.77
539.548	2614.82
540.001	2599.32
540.455	2620.32
540.908	2625.52
541.362	2652.77
541.815	2680.42
542.269	2728.82
542.722	2727.77
543.175	2749.17
543.629	2746.87
544.082	2785.42
544.536	2799.72
544.989	2797.07
545.442	2839.02
545.895	2836.72
546.349	2821.82
546.802	2833.87
547.255	2823.62
547.708	2857.62
548.161	2873.87
548.614	2870.37
549.067	2883.77
549.52	2865.02
549.973	2827.47
550.426	2834.67
550.879	2835.47
551.332	2824.37
551.785	2844.67
552.238	2865.92
552.691	2881.27
553.144	2915.27
553.596	2959.32
554.049	2988.52
554.502	3047.42
554.955	3084.67
555.407	3119.92
555.86	3108.77
556.313	3064.77
556.765	3043.32
557.218	3014.77
557.67	2988.57
558.123	2963.42
558.576	2943.47
559.028	2943.57
559.48	2952.72
559.933	2949.72
560.385	2861.07
560.838	2779.92
561.29	2698.72
561.742	2698.32
562.195	2619.17
562.647	2618.07
563.099	2602.12
563.551	2572.27
564.004	2588.12
564.456	2580.17
564.908	2515.02
565.36	2481.07
565.812	2429.02
566.264	2412.97
566.716	2377.02
567.168	2339.17
567.62	2331.22
568.072	2329.27
568.524	2316.72
568.976	2299.62
569.428	2287.62
569.88	2279.07
570.332	2294.07
570.784	2303.17
571.235	2294.12
571.687	2304.62
572.139	2309.57
572.59	2323.67
573.042	2341.42
573.494	2345.32
573.945	2301.92
574.397	2261.62
574.849	2267.02
575.3	2262.12
575.752	2219.17
576.203	2207.02
576.655	2218.62
577.106	2184.22
577.557	2178.27
578.009	2164.52
578.46	2167.97
578.912	2144.32
579.363	2168.37
579.814	2154.72
580.265	2160.22
580.717	2159.22
581.168	2150.37
581.619	2171.32
582.07	2190.72
582.521	2184.02
582.972	2161.42
583.423	2181.42
583.875	2191.87
584.326	2211.02
584.777	2252.62
585.227	2289.77
585.678	2318.42
586.129	2340.17
586.58	2368.07
587.031	2410.52
587.482	2459.02
587.933	2496.12
588.384	2472.12
588.834	2446.12
589.285	2431.47
589.736	2427.77
590.186	2428.67
590.637	2398.92
591.088	2349.02
591.538	2316.52
591.989	2284.02
592.439	2254.37
592.89	2229.92
593.34	2228.17
593.791	2206.57
594.241	2189.82
594.692	2191.82
595.142	2182.32
595.593	2178.37
596.043	2199.47
596.493	2226.32
596.943	2214.57
597.394	2274.12
597.844	2291.87
598.294	2359.22
598.744	2435.32
599.195	2545.02
599.645	2677.47
600.095	2812.52
600.545	2939.72
600.995	3063.32
601.445	3171.77
601.895	3292.77
602.345	3373.02
602.795	3326.77
603.245	3206.12
603.695	3027.17
604.145	2869.62
604.594	2753.72
605.044	2611.22
605.494	2454.52
605.944	2336.12
606.393	2279.12
606.843	2245.52
607.293	2231.62
607.743	2212.12
608.192	2236.77
608.642	2224.92
609.091	2214.82
609.541	2223.22
609.99	2221.87
610.44	2176.82
610.889	2158.02
611.339	2129.92
611.788	2103.82
612.238	2118.72
612.687	2119.77
613.136	2146.42
613.586	2151.22
614.035	2145.97
614.484	2160.97
614.933	2151.52
615.383	2114.32
615.832	2064.92
616.281	2042.22
616.73	1998.52
617.179	1951.82
617.628	1927.12
618.077	1889.12
618.526	1881.27
618.975	1863.17
619.424	1829.12
619.873	1827.67
620.322	1805.07
620.771	1799.27
621.22	1778.27
621.669	1741.57
622.118	1727.82
622.567	1708.47
623.015	1687.52
623.464	1676.47
623.913	1658.32
624.361	1670.27
624.81	1652.22
625.259	1664.47
625.707	1651.72
626.156	1670.02
626.604	1695.12
627.053	1686.42
627.501	1680.12
627.95	1693.67
628.398	1716.77
628.847	1688.32
629.295	1686.52
629.744	1678.97
630.192	1649.72
630.64	1640.07
631.089	1611.07
631.537	1576.17
631.985	1561.52
632.433	1550.72
632.881	1540.92
633.33	1558.22
633.778	1556.52
634.226	1563.67
634.674	1589.42
635.122	1596.12
635.57	1620.57
636.018	1644.72
636.466	1640.47
636.914	1642.12
637.362	1683.02
637.81	1713.22
638.258	1763.17
638.705	1783.97
639.153	1839.92
639.601	1862.37
640.049	1889.32
640.497	1934.52
640.944	1974.37
641.392	1918.32
641.84	1828.97
642.287	1761.67
642.735	1733.42
643.182	1725.47
643.63	1733.77
644.078	1762.57
644.525	1793.32
644.973	1851.47
645.42	1916.22
645.867	1984.77
646.315	2032.17
646.762	2135.92
647.21	2232.07
647.657	2381.12
648.104	2507.82
648.551	2643.57
648.999	2941.12
649.446	3331.02
649.893	3850.47
650.34	4622.32
650.787	5893.62
651.234	7741.97
651.682	10822.52
652.129	15161.92
652.576	15530.32
653.023	15529.67
653.47	15532.87
653.917	15532.92
654.363	15532.82
654.81	15529.82
655.257	15530.47
655.704	15534.27
656.151	15488.97
656.598	10613.87
657.044	7505.52
657.491	5771.27
657.938	4578.37
658.385	3786.02
658.831	3258.02
659.278	2857.27
659.724	2545.47
660.171	2342.42
660.618	2145.42
661.064	1995.47
661.511	1902.52
661.957	1820.67
662.404	1766.82
662.85	1733.87
663.296	1687.17
663.743	1633.72
664.189	1603.52
664.635	1572.47
665.082	1541.07
665.528	1500.92
665.974	1473.57
666.42	1432.07
666.867	1413.47
667.313	1356.32
667.759	1340.52
668.205	1317.97
668.651	1325.47
669.097	1321.02
669.543	1320.47
669.989	1332.02
670.435	1320.87
670.881	1344.17
671.327	1397.12
671.773	1490.07
672.219	1590.82
672.665	1677.37
673.11	1732.52
673.556	1741.67
674.002	1759.57
674.448	1754.72
674.893	1525.82
675.339	1351.37
675.785	1236.87
676.23	1170.22
676.676	1127.07
677.122	1099.87
677.567	1065.52
678.013	1039.87
678.458	1034.87
678.904	1033.02
679.349	1018.02
679.794	1019.72
680.24	1000.47
680.685	996.87
681.131	999.67
681.576	995.07
682.021	997.47
682.466	1009.32
682.912	1029.52
683.357	1073.47
683.802	1160.62
684.247	1275.22
684.692	1350.87
685.137	1397.37
685.583	1415.32
686.028	1467.52
686.473	1404.77
686.918	1228.77
687.363	1128.22
687.807	1072.12
688.252	1020.47
688.697	985.87
689.142	958.07
689.587	966.67
690.032	991.17
690.477	1018.47
690.921	1075.07
691.366	1124.77
691.811	1170.77
692.255	1262.27
692.7	1523.37
693.145	2225.87
693.589	3402.97
694.034	4024.72
694.478	4195.62
694.923	3768.02
695.367	5171.37
695.812	3259.27
696.256	1418.62
696.701	1045.52
697.145	971.47
697.59	937.07
698.034	919.17
698.478	924.07
698.922	927.67
699.367	946.12
699.811	988.87
700.255	1066.12
700.699	1161.07
701.143	1259.57
701.588	1324.62
702.032	1379.12
702.476	1422.27
702.92	1525.82
703.364	2024.67
703.808	3100.52
704.252	3847.97
704.696	3983.12
705.14	3666.27
705.584	4901.47
706.027	2814.52
706.471	1445.37
706.915	1088.47
707.359	971.02
707.803	915.67
708.246	886.72
708.69	877.32
709.134	859.42
709.577	857.12
710.021	865.42
710.465	865.97
710.908	859.02
711.352	898.37
711.795	990.07
712.239	1054.87
712.682	1078.52
713.126	1055.07
713.569	1163.72
714.012	975.47
714.456	843.07
714.899	800.07
715.342	767.87
715.786	738.67
716.229	724.87
716.672	706.92
717.115	711.12
717.558	715.17
718.002	732.57
718.445	761.62
718.888	804.77
719.331	810.22
719.774	822.02
720.217	813.77
720.66	773.32
721.103	726.67
721.546	700.22
721.989	681.37
722.432	678.72
722.874	668.27
723.317	677.02
723.76	739.12
724.203	904.07
724.645	1205.02
725.088	1402.72
725.531	1357.97
725.974	1452.97
726.416	1313.47
726.859	834.42
727.301	693.82
727.744	661.87
728.187	672.57
728.629	676.22
729.071	704.22
729.514	738.17
729.956	766.32
730.399	783.77
730.841	781.62
731.283	767.32
731.726	750.12
732.168	759.32
732.61	805.62
733.053	865.02
733.495	948.52
733.937	1047.92
734.379	1231.42
734.821	1587.72
735.263	2505.02
735.705	4536.47
736.148	6592.42
736.59	6488.72
737.032	6754.22
737.474	5634.87
737.916	2233.02
738.357	1189.37
738.799	922.67
739.241	856.17
739.683	862.32
740.125	888.07
740.567	880.72
741.008	934.42
741.45	987.67
741.892	1041.62
742.334	1045.57
742.775	1023.37
743.217	980.82
743.658	853.12
744.1	881.02
744.542	1006.57
744.983	1035.87
745.425	1052.12
745.866	1034.52
746.307	884.22
746.749	941.12
747.19	1359.02
747.632	2656.27
748.073	4920.62
748.514	6729.32
748.956	8729.17
749.397	10207.82
749.838	7078.77
750.279	6525.52
750.72	3472.82
751.162	1503.72
751.603	878.37
752.044	698.07
752.485	622.42
752.926	585.67
753.367	569.32
753.808	549.42
754.249	541.77
754.69	535.77
755.131	525.72
755.572	522.87
756.013	526.92
756.453	524.67
756.894	538.82
757.335	542.02
757.776	549.92
758.216	564.27
758.657	600.22
759.098	663.87
759.538	800.77
759.979	1153.02
760.42	2340.37
760.86	5957.47
761.301	12090.57
761.741	13967.02
762.182	15131.17
762.622	10195.57
763.063	3735.07
763.503	1542.42
763.943	916.62
764.384	728.67
764.824	638.67
765.264	591.52
765.705	550.92
766.145	518.57
766.585	508.22
767.025	493.12
767.465	493.17
767.906	505.32
768.346	539.22
768.786	618.07
769.226	898.87
769.666	1811.57
770.106	4057.72
770.546	5732.32
770.986	6208.42
771.426	4711.37
771.866	2012.72
772.306	929.32
772.745	587.57
773.185	493.77
773.625	476.42
774.065	513.67
774.505	746.97
774.944	1336.67
775.384	1900.42
775.824	2052.67
776.263	1681.87
776.703	921.22
777.142	541.62
777.582	410.47
778.021	378.22
778.461	364.92
778.9	353.82
779.34	341.82
779.779	337.77
780.219	328.62
780.658	323.62
781.097	326.22
781.537	312.07
781.976	305.72
782.415	302.37
782.855	302.52
783.294	302.77
783.733	302.82
784.172	308.82
784.611	307.17
785.05	318.82
785.489	318.97
785.928	329.87
786.367	340.37
786.806	355.47
787.245	385.87
787.684	392.47
788.123	388.92
788.562	384.42
789.001	366.67
789.44	355.92
789.879	354.82
790.317	362.92
790.756	378.32
791.195	429.57
791.634	590.27
792.072	1043.37
792.511	2547.82
792.95	4667.32
793.388	5447.47
793.827	3569.52
794.265	1661.47
794.704	818.52
795.142	506.47
795.581	420.62
796.019	380.37
796.458	374.77
796.896	393.82
797.334	447.22
797.773	602.17
798.211	1129.27
798.649	2334.67
799.087	3875.12
799.526	5486.27
799.964	5585.77
800.402	3794.97
800.84	1770.37
801.278	877.47
801.716	543.92
802.154	443.32
802.592	416.92
803.03	413.47
803.468	423.72
803.906	420.07
804.344	419.12
804.782	411.47
805.22	414.72
805.658	426.37
806.096	448.27
806.533	506.77
806.971	635.32
807.409	929.92
807.847	1856.92
808.284	4700.57
808.722	8092.12
809.16	11220.82
809.597	15072.42
810.035	15534.82
810.472	12097.87
810.91	5315.97
811.347	2391.37
811.785	1141.57
812.222	726.92
812.66	559.92
813.097	470.07
813.535	409.02
813.972	375.82
814.409	347.87
814.846	331.17
815.284	312.72
815.721	317.17
816.158	354.77
816.595	476.42
817.032	590.42
817.47	529.87
817.907	396.07
818.344	349.27
818.781	347.77
819.218	420.47
819.655	636.47
820.092	804.52
820.529	721.02
820.966	585.57
821.403	407.12
821.839	351.07
822.276	388.72
822.713	453.27
823.15	426.77
823.587	448.57
824.023	769.32
824.46	1902.02
824.897	3256.82
825.333	2534.62
825.77	1189.67
826.206	635.97
826.643	371.52
827.08	280.67
827.516	250.67
827.953	233.77
828.389	220.22
828.825	211.77
829.262	202.02
829.698	200.87
830.135	187.77
830.571	185.12
831.007	186.62
831.443	186.02
831.88	187.72
832.316	195.02
832.752	198.22
833.188	194.17
833.624	202.87
834.06	206.82
834.497	201.77
834.933	206.67
835.369	219.72
835.805	232.82
836.241	246.42
836.677	267.07
837.112	310.62
837.548	389.32
837.984	565.32
838.42	1203.87
838.856	3328.52
839.292	6400.82
839.727	4824.87
840.163	3291.37
840.599	4984.72
841.034	7340.17
841.47	3793.37
841.906	1856.07
842.341	1003.82
842.777	740.97
843.212	753.77
843.648	478.12
844.083	328.32
844.519	249.82
844.954	211.37
845.39	186.12
845.825	184.97
846.261	175.27
846.696	171.52
847.131	163.47
847.566	163.92
848.002	169.97
848.437	178.22
848.872	186.62
849.307	240.92
849.742	423.82
850.177	1080.82
850.613	2262.97
851.048	1638.32
851.483	768.07
851.918	428.32
852.353	242.27
852.788	175.62
853.223	160.07
853.657	148.02
854.092	139.17
854.527	139.37
854.962	151.52
855.397	159.22
855.832	139.77
856.266	127.67
856.701	130.17
857.136	137.32
857.57	160.42
858.005	190.67
858.44	160.87
858.874	152.57
859.309	154.87
859.743	148.37
860.178	146.57
860.612	165.67
861.047	219.67
861.481	296.72
861.915	202.12
862.35	152.67
862.784	131.17
863.218	116.02
863.653	129.42
864.087	166.27
864.521	194.02
864.955	318.72
865.39	527.02
865.824	421.32
866.258	538.97
866.692	800.57
867.126	585.62
867.56	320.52
867.994	211.42
868.428	181.22
868.862	214.07
869.296	197.67
869.73	238.67
870.164	204.92
870.598	186.97
871.031	132.32
871.465	124.92
871.899	99.97
872.333	90.47
872.766	85.92
873.2	92.47
873.634	87.82
874.067	93.87
874.501	90.17
874.935	94.17
875.368	94.57
875.802	88.82
876.235	83.82
876.669	86.12
877.102	74.47
877.535	73.87
877.969	71.42
878.402	75.47
878.836	73.47
879.269	77.02
879.702	72.32
880.135	74.32
880.569	81.37
881.002	66.37
881.435	68.82
881.868	68.42
882.301	68.07
882.734	62.12
883.167	68.42
883.601	67.72
884.034	63.82
884.467	60.57
884.899	64.27
885.332	60.52
885.765	56.42
886.198	55.72
886.631	59.72
887.064	61.77
887.497	59.32
887.929	61.27
888.362	62.07
888.795	58.37
889.228	59.17
889.66	57.42
890.093	56.97
890.526	53.32
890.958	57.42
891.391	59.32
891.823	58.37
892.256	59.27
892.688	62.72
893.121	54.17
893.553	58.27
893.985	55.27
894.418	48.47
894.85	56.07
895.282	50.62
895.715	52.77
896.147	50.67
896.579	47.62
897.011	56.02
897.444	53.87
897.876	49.92
898.308	51.42
898.74	54.22
899.172	55.77
899.604	54.77
900.036	58.07
900.468	54.32
900.9	59.47
901.332	73.37
901.764	70.87
902.196	63.67
902.628	73.72
903.06	99.87
903.491	104.97
903.923	86.87
904.355	87.72
904.787	90.37
905.218	79.17
905.65	68.22
906.082	63.67
906.513	63.07
906.945	60.82
907.376	63.57
907.808	61.17
908.239	67.72
908.671	77.07
909.102	84.62
909.534	112.77
909.965	212.97
910.397	527.37
910.828	1471.32
911.259	923.57
911.691	512.57
912.122	300.07
912.553	157.07
912.984	90.82
913.415	79.72
913.847	64.27
914.278	68.17
914.709	59.72
915.14	59.67
915.571	59.72
916.002	53.97
916.433	51.82
916.864	52.37
917.295	52.47
917.726	64.62
918.157	73.72
918.587	80.07
919.018	77.32
919.449	69.87
919.88	81.07
920.311	121.72
920.741	313.17
921.172	546.37
921.603	284.37
922.033	192.57
922.464	122.12
922.895	74.92
923.325	55.87
923.756	48.87
924.186	62.17
924.617	91.22
925.047	128.12
925.478	117.42
925.908	88.42
926.338	65.72
926.769	56.12
927.199	50.57
927.629	46.52
928.06	50.27
928.49	51.12
928.92	44.57
929.35	42.97
929.78	33.02
930.21	32.87
930.641	27.57
931.071	34.12
931.501	30.87
931.931	26.37
932.361	29.77
932.791	32.92
933.221	36.77
933.651	43.92
934.08	77.42
934.51	48.92
934.94	41.52
935.37	33.22
935.8	27.17
936.229	27.07
936.659	28.77
937.089	53.57
937.519	68.52
937.948	92.77
938.378	57.87
938.807	34.77
939.237	26.47
939.666	24.72
940.096	18.62
940.525	13.47
940.955	19.37
941.384	18.12
941.814	17.72
942.243	13.37
942.672	12.02
943.102	11.27
943.531	12.17
943.96	18.22
944.39	14.12
944.819	19.57
945.248	12.97
945.677	13.62
946.106	11.57
946.535	12.97
946.964	14.32
947.393	11.87
947.822	17.72
948.251	15.32
948.68	19.92
949.109	21.17
949.538	12.22
949.967	14.92
950.396	13.52
950.825	14.77
951.254	16.07
951.682	12.52
952.111	10.42
952.54	12.47
952.969	9.62
953.397	10.17
953.826	12.32
954.254	15.72
954.683	14.17
955.112	17.57
955.54	14.92
955.969	13.67
956.397	10.57
956.826	10.07
957.254	9.32
957.682	8.67
958.111	11.67
958.539	12.02
958.967	11.12
959.396	12.22
959.824	10.42
960.252	15.12
960.68	10.17
961.109	15.97
961.537	16.52
961.965	10.12
962.393	11.67
962.821	12.57
963.249	14.87
963.677	20.77
964.105	94.62
964.533	159.97
964.961	82.97
965.389	49.37
965.817	30.27
966.245	19.37
966.672	14.82
967.1	15.32
967.528	3.67
967.956	7.67
968.383	12.32
968.811	6.17
969.239	12.52
969.666	7.67
970.094	8.92
970.522	9.47
970.949	9.87
971.377	0.37
971.804	7.27
972.232	4.67
972.659	7.72
973.087	7.42
973.514	9.87
973.941	7.42
974.369	6.67
974.796	3.72
975.223	6.12
975.651	10.52
976.078	13.02
976.505	16.42
976.932	41.07
977.359	46.47
977.786	34.22
978.214	22.27
978.641	8.87
979.068	9.12
979.495	6.17
979.922	8.07
980.349	7.07
980.776	5.37
981.202	4.82
981.629	12.22
982.056	11.57
982.483	8.82
982.91	11.12
983.337	1.52
983.763	6.97
984.19	10.22
984.617	6.22
985.043	6.02
985.47	13.47
985.897	10.32
986.323	14.92
986.75	4.87
987.176	6.17
987.603	10.47
988.029	8.72
988.456	9.02
988.882	4.22
989.308	5.17
989.735	3.87
990.161	8.57
990.587	3.12
991.014	10.62
991.44	7.77
991.866	5.67
992.292	9.67
992.719	5.37
993.145	9.87
993.571	7.27
993.997	10.92
994.423	12.67
994.849	1.52
995.275	7.17
995.701	5.77
996.127	2.52
996.553	3.97
996.979	-1.78
997.405	9.42
997.83	6.37
998.256	5.02
998.682	4.52
999.108	6.82
999.534	-1.13
999.959	4.42
1000.385	9.27
1000.811	4.27
1001.236	-1.43
1001.662	3.72
1002.087	11.32
1002.513	9.47
1002.938	0.92
1003.364	5.52
1003.789	4.12
1004.215	0.42
1004.64	5.17
1005.066	4.27
1005.491	6.97
1005.916	5.77
1006.342	5.47
1006.767	6.62
1007.192	8.62
1007.617	8.57
1008.042	5.47
1008.468	9.27
1008.893	13.42
1009.318	15.32
1009.743	23.87
1010.168	36.22
1010.593	30.17
1011.018	18.72
1011.443	15.67
1011.868	11.52
1012.293	13.52
1012.718	8.17
1013.143	6.92
1013.567	8.47
1013.992	7.47
1014.417	6.32
1014.842	1.57
1015.267	4.22
1015.691	6.47
1016.116	8.17
1016.541	7.22
1016.965	8.92
1017.39	8.12
1017.814	-0.98
1018.239	3.47
1018.663	1.02
1019.088	2.37
1019.512	8.62
1019.937	1.77
1020.361	4.37
1020.785	3.47
1021.21	-1.43
1021.634	1.12
1022.058	4.72
1022.483	1.57
1022.907	3.02
1023.331	2.82
1023.755	-0.53
1024.179	-0.23
1024.604	9.37
1025.028	1.42
1025.452	3.27
1025.876	5.77
1026.3	3.47
1026.724	1.12
1027.148	3.07
1027.572	3.32
1027.996	2.77
1028.42	4.72
1028.843	4.62
1029.267	4.17
1029.691	3.62
1030.115	0.67
1030.539	-0.43
1030.962	3.22
1031.386	3.17
1031.81	2.42
1032.233	-1.98
1032.657	-3.28
1033.08	3.27
1033.504	3.27
1033.927	1.17
1034.351	-0.43
1034.774	-0.13
1035.198	-1.13
1035.621	2.27
1036.045	4.62
1036.468	7.77
1036.891	4.57
1037.315	8.17
1037.738	1.37
1038.161	3.22
1038.584	1.52
1039.008	0.07
1039.431	-0.68
1039.854	-1.63
1040.277	2.02
1040.7	-1.63
1041.123	1.82
1041.546	-0.48
1041.969	2.92
1042.392	5.52
1042.815	-1.88
1043.238	0.32
1043.661	0.22
1044.084	-0.03
1044.507	0.47
1044.93	5.12
1045.352	6.42
1045.775	8.92
1046.198	5.22
1046.621	3.62
1047.043	4.47
1047.466	7.22
1047.889	-0.93
1048.311	4.72
1048.734	0.72
1049.156	1.02
1049.579	4.97
1050.001	-0.58
1050.424	2.77
1050.846	-3.48
1051.269	-0.08
1051.691	-1.53
1052.113	4.72
1052.536	-0.08
1052.958	-0.73
1053.38	3.92
1053.802	4.72
1054.225	2.07
1054.647	2.42
1055.069	-1.83
1055.491	3.12
1055.913	2.02
1056.335	-5.53
1056.757	-2.48
1057.179	-0.43
1057.601	-0.88
1058.023	1.82
1058.445	-0.23
1058.867	2.72
1059.289	3.62
1059.711	-2.78
1060.133	-3.03
1060.555	-0.08
1060.976	3.22
1061.398	-4.48
1061.82	2.92
1062.241	1.37
1062.663	-2.08
1063.085	-4.28
1063.506	-5.53
1063.928	0.37
1064.35	4.12
1064.771	1.77
1065.193	-3.83
1065.614	-2.18
1066.035	5.37
1066.457	10.57
1066.878	6.62
1067.3	2.97
1067.721	2.92
1068.142	2.12
1068.564	4.37
1068.985	0.37
1069.406	-2.53
1069.827	-4.48
1070.248	-2.98
1070.67	-1.23
1071.091	-3.23
1071.512	-0.83
1071.933	-0.43
1072.354	-1.48
1072.775	-2.18
1073.196	-0.03
1073.617	-1.08
1074.038	1.77
1074.459	-0.63
1074.88	3.02
1075.3	2.72
1075.721	-0.78
1076.142	3.52
1076.563	0.22
1076.983	5.47
1077.404	-5.58
1077.825	2.47
1078.246	-4.23
1078.666	-3.18
1079.087	-1.88
1079.507	-3.23
1079.928	-0.93
1080.348	-1.43
1080.769	5.97
1081.189	-1.88
1081.61	-5.03
1082.03	-1.58
1082.451	0.97
1082.871	-2.83
1083.291	-1.88
1083.711	-0.88
1084.132	-0.73
1084.552	-2.18
1084.972	-6.18
1085.392	-2.18
1085.813	2.07
1086.233	-1.43
1086.653	-0.33
1087.073	-4.33
1087.493	-0.98
1087.913	0.97
1088.333	-1.03
1088.753	0.47
1089.173	1.02
1089.593	4.22
1090.013	-1.98
1090.433	-4.33
1090.852	2.22
1091.272	-1.28
1091.692	-1.63
1092.112	-0.13
1092.531	-0.68
1092.951	3.37
1093.371	-1.88
1093.79	-3.18
1094.21	1.07
1094.63	3.32
1095.049	1.62
1095.469	-6.33
1095.888	3.32
1096.308	1.17
1096.727	-5.38
1097.146	-1.38
1097.566	-3.38
1097.985	0.37
1098.405	2.92
1098.824	1.02
1099.243	-3.48
1099.662	-0.33
1100.082	-1.13
1100.501	-1.28
1100.92	4.07
1101.339	1.22
1101.758	1.92
