Data from MSPlasma+Separation6_Subt14_10-14-13-466.txt Node
Date: Fri Jul 21 10:14:13 EDT 2017
User: Ender
Spectrometer: HR+D1039
Trigger mode: 0
Integration Time (sec): 6.430000E-3
Scans to average: 20
Electric dark correction enabled: true
Nonlinearity correction enabled: false
Boxcar width: 0
XAxis mode: Wavelengths
Number of Pixels in Spectrum: 2048
>>>>>Begin Spectral Data<<<<<
187.836	-1.37
188.309	-1.37
188.782	-1.37
189.255	0.13
189.728	0.93
190.201	-0.77
190.674	1.48
191.147	1.08
191.619	-0.17
192.092	1.18
192.565	-2.12
193.038	3.53
193.511	0.08
193.984	-0.62
194.456	2.93
194.929	-2.47
195.402	-4.92
195.874	1.18
196.347	4.08
196.82	3.83
197.292	-2.62
197.765	-3.02
198.237	-3.77
198.71	-5.67
199.182	-0.02
199.655	3.68
200.127	-0.47
200.6	-1.92
201.072	0.53
201.544	-1.82
202.017	3.28
202.489	0.53
202.961	-0.97
203.433	-6.12
203.906	2.28
204.378	4.03
204.85	1.68
205.322	-0.17
205.794	2.63
206.266	-1.72
206.739	3.58
207.211	-2.32
207.683	2.63
208.155	2.43
208.627	1.38
209.099	-0.07
209.57	5.53
210.042	2.63
210.514	1.23
210.986	-0.37
211.458	-1.07
211.93	2.88
212.402	-2.62
212.873	4.78
213.345	-0.92
213.817	3.58
214.288	0.38
214.76	3.13
215.232	-1.22
215.703	-2.32
216.175	2.08
216.646	3.23
217.118	2.43
217.589	-3.02
218.061	5.48
218.532	-0.12
219.004	5.73
219.475	4.03
219.946	5.88
220.418	5.33
220.889	5.73
221.36	4.33
221.832	8.23
222.303	3.23
222.774	2.48
223.245	2.63
223.717	1.18
224.188	7.38
224.659	3.53
225.13	2.88
225.601	7.53
226.072	7.58
226.543	7.18
227.014	7.98
227.485	10.93
227.956	10.58
228.427	17.23
228.898	12.48
229.369	7.38
229.839	6.03
230.31	10.18
230.781	9.13
231.252	11.53
231.722	10.83
232.193	9.43
232.664	9.83
233.135	10.98
233.605	6.48
234.076	12.08
234.546	15.48
235.017	14.48
235.487	13.18
235.958	13.53
236.428	22.03
236.899	12.88
237.369	20.93
237.84	14.48
238.31	18.93
238.78	9.93
239.251	19.03
239.721	11.98
240.191	13.48
240.662	16.83
241.132	14.98
241.602	22.18
242.072	17.73
242.542	19.73
243.013	15.13
243.483	26.48
243.953	21.38
244.423	23.03
244.893	21.18
245.363	19.83
245.833	18.58
246.303	23.18
246.773	27.63
247.243	25.73
247.712	24.13
248.182	29.63
248.652	30.83
249.122	25.78
249.592	27.98
250.061	30.28
250.531	28.08
251.001	28.18
251.471	30.68
251.94	30.43
252.41	28.23
252.879	30.63
253.349	34.03
253.818	33.73
254.288	37.08
254.757	32.28
255.227	33.83
255.696	32.88
256.166	36.98
256.635	38.33
257.105	35.13
257.574	33.68
258.043	33.93
258.513	34.88
258.982	39.28
259.451	44.53
259.92	34.18
260.389	42.48
260.859	41.33
261.328	44.33
261.797	43.68
262.266	44.43
262.735	43.53
263.204	41.78
263.673	49.38
264.142	36.83
264.611	45.93
265.08	45.63
265.549	46.63
266.018	50.23
266.487	47.98
266.955	47.68
267.424	55.48
267.893	53.73
268.362	51.23
268.83	53.28
269.299	51.33
269.768	53.83
270.236	57.08
270.705	58.58
271.174	58.53
271.642	53.08
272.111	55.98
272.579	59.83
273.048	58.03
273.516	59.43
273.985	55.18
274.453	58.13
274.922	56.03
275.39	56.53
275.858	62.18
276.327	62.98
276.795	62.73
277.263	64.78
277.731	68.18
278.2	65.33
278.668	66.93
279.136	67.03
279.604	69.18
280.072	64.63
280.54	69.48
281.008	75.43
281.477	71.73
281.945	69.93
282.413	71.93
282.881	77.48
283.348	73.38
283.816	73.98
284.284	78.23
284.752	77.43
285.22	84.33
285.688	76.58
286.156	73.73
286.623	79.93
287.091	82.13
287.559	82.03
288.026	87.63
288.494	84.58
288.962	85.13
289.429	82.98
289.897	87.48
290.364	79.68
290.832	88.78
291.3	87.33
291.767	88.23
292.234	87.38
292.702	86.93
293.169	90.98
293.637	93.83
294.104	94.08
294.571	92.53
295.039	95.38
295.506	90.63
295.973	96.03
296.44	97.48
296.908	93.63
297.375	98.08
297.842	100.28
298.309	99.78
298.776	102.28
299.243	109.98
299.71	107.23
300.177	104.28
300.644	104.63
301.111	107.63
301.578	112.13
302.045	108.48
302.512	107.83
302.979	112.98
303.446	117.33
303.913	116.93
304.379	122.78
304.846	120.68
305.313	130.13
305.78	131.13
306.246	124.08
306.713	128.73
307.18	131.83
307.646	129.78
308.113	132.73
308.579	132.33
309.046	138.63
309.512	139.08
309.979	142.78
310.445	139.13
310.912	148.48
311.378	144.98
311.845	146.58
312.311	145.63
312.777	147.83
313.244	152.63
313.71	151.78
314.176	155.98
314.642	154.03
315.109	153.83
315.575	155.93
316.041	154.18
316.507	157.73
316.973	162.13
317.439	159.18
317.905	166.63
318.371	160.18
318.837	160.78
319.303	162.28
319.769	162.28
320.235	169.18
320.701	171.58
321.167	169.33
321.633	172.88
322.099	166.23
322.564	171.73
323.03	168.98
323.496	174.03
323.962	175.88
324.427	179.88
324.893	184.28
325.359	185.43
325.824	184.48
326.29	185.58
326.755	189.73
327.221	190.03
327.686	193.83
328.152	197.83
328.617	200.98
329.083	204.63
329.548	199.88
330.014	209.48
330.479	203.38
330.944	210.28
331.41	213.63
331.875	199.63
332.34	207.03
332.805	210.68
333.271	212.03
333.736	216.68
334.201	215.18
334.666	232.03
335.131	229.28
335.596	231.23
336.061	228.73
336.526	226.83
336.991	221.83
337.456	218.48
337.921	222.18
338.386	217.28
338.851	216.18
339.316	213.83
339.781	220.38
340.246	223.58
340.711	223.33
341.175	229.33
341.64	238.63
342.105	238.03
342.569	246.58
343.034	244.13
343.499	251.58
343.963	252.23
344.428	259.28
344.893	250.98
345.357	260.08
345.822	263.18
346.286	263.63
346.751	272.83
347.215	276.68
347.679	276.98
348.144	297.38
348.608	297.03
349.073	301.03
349.537	305.43
350.001	310.38
350.465	307.58
350.93	304.53
351.394	310.83
351.858	316.33
352.322	311.53
352.786	314.13
353.25	320.53
353.715	323.58
354.179	340.28
354.643	347.03
355.107	354.08
355.571	343.48
356.035	341.78
356.498	340.08
356.962	334.68
357.426	337.13
357.89	338.43
358.354	333.33
358.818	332.63
359.281	337.13
359.745	336.28
360.209	336.58
360.673	333.73
361.136	337.63
361.6	344.43
362.064	350.58
362.527	357.88
362.991	358.28
363.454	346.58
363.918	354.53
364.381	360.83
364.845	363.03
365.308	360.98
365.772	367.33
366.235	363.23
366.698	359.48
367.162	365.58
367.625	368.58
368.088	377.43
368.552	371.08
369.015	370.53
369.478	373.98
369.941	377.08
370.404	387.33
370.867	381.48
371.331	385.63
371.794	394.18
372.257	388.38
372.72	393.23
373.183	399.93
373.646	398.78
374.109	396.73
374.572	401.23
375.035	401.78
375.497	408.48
375.96	419.33
376.423	428.38
376.886	430.08
377.349	428.68
377.811	426.88
378.274	434.18
378.737	428.83
379.199	445.73
379.662	439.38
380.125	442.13
380.587	448.38
381.05	454.03
381.512	463.43
381.975	475.38
382.437	479.03
382.9	472.88
383.362	478.33
383.825	473.43
384.287	487.03
384.75	484.43
385.212	487.18
385.674	493.33
386.136	494.43
386.599	495.23
387.061	487.53
387.523	501.88
387.985	502.78
388.447	508.48
388.91	511.48
389.372	506.78
389.834	510.83
390.296	502.93
390.758	507.43
391.22	501.03
391.682	509.58
392.144	514.83
392.606	515.48
393.068	530.93
393.529	558.08
393.991	562.58
394.453	537.03
394.915	527.88
395.377	513.98
395.838	516.93
396.3	527.08
396.762	525.78
397.224	532.28
397.685	526.78
398.147	533.48
398.608	538.38
399.07	549.63
399.531	542.53
399.993	555.38
400.454	570.13
400.916	563.03
401.377	578.13
401.839	580.28
402.3	591.03
402.762	607.38
403.223	643.73
403.684	650.58
404.145	628.98
404.607	616.18
405.068	600.28
405.529	611.48
405.99	624.38
406.451	626.88
406.913	619.53
407.374	626.48
407.835	624.73
408.296	643.33
408.757	644.68
409.218	663.93
409.679	665.63
410.14	669.73
410.601	686.73
411.062	691.18
411.522	688.33
411.983	686.63
412.444	701.33
412.905	711.33
413.366	734.13
413.826	767.08
414.287	863.23
414.748	1013.98
415.208	1032.83
415.669	865.98
416.13	790.03
416.59	779.38
417.051	803.63
417.511	843.28
417.972	903.73
418.432	966.28
418.893	1067.33
419.353	1030.58
419.814	797.78
420.274	716.48
420.734	707.03
421.195	725.58
421.655	726.53
422.115	732.18
422.576	731.88
423.036	739.43
423.496	760.18
423.956	795.08
424.416	849.13
424.876	957.23
425.336	946.73
425.797	935.28
426.257	923.53
426.717	869.08
427.177	812.58
427.637	827.43
428.097	854.43
428.556	890.73
429.016	954.13
429.476	956.68
429.936	941.78
430.396	938.88
430.856	965.73
431.315	980.53
431.775	1053.33
432.235	1129.13
432.694	1140.98
433.154	1076.88
433.614	1061.63
434.073	1019.88
434.533	920.78
434.993	886.63
435.452	888.78
435.912	881.83
436.371	862.48
436.83	855.73
437.29	838.68
437.749	813.43
438.209	809.93
438.668	817.23
439.127	831.53
439.587	822.98
440.046	799.48
440.505	817.93
440.964	820.43
441.424	845.98
441.883	866.78
442.342	812.23
442.801	779.28
443.26	789.43
443.719	785.53
444.178	774.93
444.637	785.28
445.096	799.08
445.555	807.08
446.014	801.03
446.473	787.93
446.932	797.73
447.391	803.08
447.849	825.93
448.308	815.28
448.767	811.58
449.226	835.23
449.685	842.78
450.143	882.48
450.602	869.28
451.061	826.58
451.519	833.33
451.978	820.63
452.436	812.33
452.895	827.58
453.353	820.28
453.812	816.38
454.27	814.43
454.729	817.48
455.187	815.58
455.646	826.18
456.104	831.88
456.562	831.93
457.021	854.28
457.479	815.73
457.937	847.43
458.395	868.78
458.854	862.08
459.312	841.43
459.77	852.78
460.228	866.73
460.686	872.53
461.144	880.23
461.602	862.43
462.06	866.68
462.518	892.38
462.976	893.38
463.434	898.63
463.892	911.53
464.35	925.08
464.808	946.08
465.266	946.28
465.724	966.23
466.181	969.38
466.639	964.43
467.097	992.23
467.555	1032.38
468.012	1022.48
468.47	1034.58
468.928	1067.63
469.385	1091.43
469.843	1107.13
470.3	1102.18
470.758	1142.98
471.215	1153.88
471.673	1178.28
472.13	1215.28
472.588	1241.23
473.045	1228.18
473.503	1249.62
473.96	1305.33
474.417	1323.12
474.875	1381.28
475.332	1434.88
475.789	1458.03
476.246	1493.22
476.704	1567.83
477.161	1612.58
477.618	1663.48
478.075	1749.38
478.532	1891.08
478.989	2030.58
479.446	2221.97
479.903	2367.13
480.36	2565.88
480.817	2713.88
481.274	2920.68
481.731	3182.07
482.188	3418.82
482.645	3663.93
483.102	3878.03
483.558	4152.72
484.015	4327.23
484.472	4312.43
484.929	4175.23
485.385	3988.62
485.842	3903.52
486.299	3754.43
486.755	3438.33
487.212	3095.12
487.668	2790.22
488.125	2581.97
488.582	2396.38
489.038	2303.98
489.494	2237.88
489.951	2157.63
490.407	2107.23
490.864	2060.78
491.32	2011.23
491.776	1996.58
492.233	1996.22
492.689	1966.52
493.145	1930.13
493.602	1905.68
494.058	1920.78
494.514	1920.93
494.97	1922.13
495.426	1950.78
495.882	1946.28
496.338	1938.28
496.794	1968.73
497.251	1963.23
497.707	1986.58
498.163	1982.78
498.618	1977.28
499.074	1972.92
499.53	1986.97
499.986	2001.47
500.442	1985.48
500.898	1965.43
501.354	1992.72
501.809	1996.18
502.265	1987.73
502.721	1991.07
503.177	2003.13
503.632	2005.08
504.088	2011.48
504.543	2046.23
504.999	2072.53
505.455	2057.18
505.91	2026.53
506.366	2043.98
506.821	2044.08
507.277	2035.03
507.732	2052.78
508.187	2035.93
508.643	2041.68
509.098	2054.32
509.553	2075.48
510.009	2100.73
510.464	2147.97
510.919	2157.48
511.375	2182.32
511.83	2204.22
512.285	2243.73
512.74	2281.88
513.195	2317.53
513.65	2347.73
514.105	2385.82
514.56	2392.47
515.015	2424.53
515.47	2433.77
515.925	2409.63
516.38	2417.93
516.835	2428.83
517.29	2401.43
517.745	2400.58
518.2	2368.43
518.655	2321.93
519.109	2300.92
519.564	2264.57
520.019	2258.57
520.474	2234.38
520.928	2227.88
521.383	2210.03
521.838	2190.47
522.292	2174.18
522.747	2164.03
523.201	2155.57
523.656	2127.08
524.11	2121.38
524.565	2117.73
525.019	2123.62
525.474	2117.28
525.928	2113.92
526.382	2121.53
526.837	2107.93
527.291	2127.33
527.745	2103.23
528.2	2118.23
528.654	2087.53
529.108	2094.22
529.562	2093.18
530.016	2085.48
530.47	2087.57
530.925	2085.97
531.379	2092.38
531.833	2108.72
532.287	2107.53
532.741	2103.57
533.195	2113.13
533.649	2114.38
534.103	2107.07
534.556	2089.18
535.01	2101.78
535.464	2099.38
535.918	2098.32
536.372	2110.13
536.826	2105.38
537.279	2076.97
537.733	2093.03
538.187	2100.33
538.64	2100.93
539.094	2114.78
539.548	2142.38
540.001	2134.28
540.455	2149.32
540.908	2152.68
541.362	2173.48
541.815	2196.82
542.269	2229.08
542.722	2224.12
543.175	2251.68
543.629	2257.88
544.082	2275.93
544.536	2300.53
544.989	2289.33
545.442	2322.73
545.895	2311.53
546.349	2307.68
546.802	2328.22
547.255	2313.97
547.708	2317.02
548.161	2356.93
548.614	2357.27
549.067	2372.97
549.52	2350.77
549.973	2336.82
550.426	2329.67
550.879	2300.62
551.332	2319.12
551.785	2342.58
552.238	2354.93
552.691	2358.27
553.144	2402.43
553.596	2436.08
554.049	2449.08
554.502	2508.68
554.955	2555.18
555.407	2583.67
555.86	2562.08
556.313	2521.57
556.765	2492.73
557.218	2463.07
557.67	2464.57
558.123	2443.13
558.576	2414.73
559.028	2416.53
559.48	2450.63
559.933	2431.38
560.385	2356.28
560.838	2298.78
561.29	2218.97
561.742	2221.68
562.195	2160.63
562.647	2135.03
563.099	2128.68
563.551	2113.02
564.004	2136.88
564.456	2119.23
564.908	2078.43
565.36	2035.12
565.812	1985.03
566.264	1970.32
566.716	1953.72
567.168	1917.58
567.62	1917.98
568.072	1913.73
568.524	1885.93
568.976	1884.78
569.428	1870.73
569.88	1859.78
570.332	1886.53
570.784	1885.78
571.235	1866.53
571.687	1900.68
572.139	1895.68
572.59	1908.12
573.042	1910.08
573.494	1920.23
573.945	1894.73
574.397	1862.22
574.849	1845.78
575.3	1849.62
575.752	1820.38
576.203	1806.03
576.655	1817.93
577.106	1794.83
577.557	1783.47
578.009	1778.98
578.46	1778.93
578.912	1757.78
579.363	1775.18
579.814	1768.83
580.265	1767.58
580.717	1777.48
581.168	1765.53
581.619	1785.58
582.07	1792.18
582.521	1789.88
582.972	1772.23
583.423	1778.58
583.875	1786.88
584.326	1805.48
584.777	1827.28
585.227	1857.53
585.678	1878.97
586.129	1896.93
586.58	1909.38
587.031	1943.33
587.482	1993.98
587.933	2012.37
588.384	2015.58
588.834	2000.48
589.285	1995.38
589.736	1990.22
590.186	1992.88
590.637	1979.17
591.088	1924.73
591.538	1894.33
591.989	1871.83
592.439	1847.68
592.89	1831.18
593.34	1830.03
593.791	1822.18
594.241	1791.98
594.692	1792.53
595.142	1787.03
595.593	1788.73
596.043	1791.68
596.493	1823.93
596.943	1807.48
597.394	1868.63
597.844	1886.53
598.294	1935.03
598.744	1992.08
599.195	2084.52
599.645	2202.52
600.095	2310.68
600.545	2407.93
600.995	2518.97
601.445	2619.48
601.895	2729.18
602.345	2804.38
602.795	2786.97
603.245	2669.07
603.695	2526.53
604.145	2392.78
604.594	2278.62
605.044	2162.23
605.494	2024.68
605.944	1920.33
606.393	1874.93
606.843	1856.53
607.293	1834.38
607.743	1817.18
608.192	1835.68
608.642	1832.13
609.091	1822.08
609.541	1823.38
609.99	1830.03
610.44	1806.73
610.889	1775.93
611.339	1746.88
611.788	1729.48
612.238	1738.68
612.687	1741.68
613.136	1754.68
613.586	1760.88
614.035	1765.73
614.484	1772.18
614.933	1783.43
615.383	1750.48
615.832	1705.43
616.281	1685.47
616.73	1647.38
617.179	1607.43
617.628	1576.38
618.077	1545.33
618.526	1539.33
618.975	1524.08
619.424	1496.23
619.873	1496.98
620.322	1483.88
620.771	1477.38
621.22	1464.93
621.669	1430.93
622.118	1410.33
622.567	1403.13
623.015	1380.68
623.464	1380.23
623.913	1358.68
624.361	1362.88
624.81	1361.58
625.259	1362.78
625.707	1347.98
626.156	1357.08
626.604	1373.12
627.053	1381.28
627.501	1378.63
627.95	1390.38
628.398	1400.13
628.847	1387.73
629.295	1384.93
629.744	1372.13
630.192	1341.43
630.64	1331.68
631.089	1302.83
631.537	1272.58
631.985	1265.58
632.433	1268.58
632.881	1251.33
633.33	1257.38
633.778	1264.13
634.226	1270.88
634.674	1275.08
635.122	1292.83
635.57	1304.98
636.018	1324.88
636.466	1322.53
636.914	1314.08
637.362	1349.78
637.81	1382.68
638.258	1415.68
638.705	1432.23
639.153	1476.83
639.601	1493.48
640.049	1519.53
640.497	1556.13
640.944	1610.28
641.392	1538.98
641.84	1459.58
642.287	1392.68
642.735	1361.38
643.182	1350.73
643.63	1361.73
644.078	1364.03
644.525	1391.53
644.973	1422.13
645.42	1448.62
645.867	1481.38
646.315	1521.28
646.762	1577.08
647.21	1624.58
647.657	1716.58
648.104	1771.93
648.551	1830.58
648.999	1975.53
649.446	2171.03
649.893	2440.23
650.34	2856.88
650.787	3524.27
651.234	4541.52
651.682	6249.82
652.129	8835.93
652.576	12505.28
653.023	15532.98
653.47	15536.18
653.917	15536.23
654.363	15536.12
654.81	15533.12
655.257	15533.78
655.704	15537.58
656.151	9855.68
656.598	6476.52
657.044	4624.12
657.491	3598.47
657.938	2928.27
658.385	2469.92
658.831	2166.73
659.278	1934.38
659.724	1777.38
660.171	1656.43
660.618	1528.73
661.064	1442.93
661.511	1398.53
661.957	1340.98
662.404	1324.83
662.85	1301.08
663.296	1285.28
663.743	1251.28
664.189	1235.98
664.635	1221.68
665.082	1200.98
665.528	1176.68
665.974	1136.33
666.42	1132.53
666.867	1114.58
667.313	1070.33
667.759	1055.88
668.205	1042.68
668.651	1046.88
669.097	1046.78
669.543	1053.93
669.989	1056.33
670.435	1062.48
670.881	1071.03
671.327	1113.93
671.773	1187.28
672.219	1278.78
672.665	1352.63
673.11	1404.23
673.556	1412.18
674.002	1443.98
674.448	1459.97
674.893	1259.93
675.339	1089.43
675.785	1016.58
676.23	956.38
676.676	919.68
677.122	898.18
677.567	873.58
678.013	849.18
678.458	845.03
678.904	829.03
679.349	824.08
679.794	821.18
680.24	820.58
680.685	813.23
681.131	812.73
681.576	820.18
682.021	823.58
682.466	825.73
682.912	839.23
683.357	883.93
683.802	955.28
684.247	1033.43
684.692	1106.33
685.137	1158.03
685.583	1174.53
686.028	1231.28
686.473	1169.78
686.918	1023.83
687.363	939.73
687.807	888.23
688.252	850.18
688.697	817.68
689.142	795.33
689.587	802.03
690.032	812.28
690.477	843.28
690.921	886.38
691.366	927.53
691.811	967.98
692.255	1039.62
692.7	1254.62
693.145	1797.48
693.589	2744.38
694.034	3281.43
694.478	3509.43
694.923	3225.67
695.367	4564.23
695.812	2799.98
696.256	1185.18
696.701	866.58
697.145	802.53
697.59	768.08
698.034	760.13
698.478	753.28
698.922	763.83
699.367	777.63
699.811	809.53
700.255	880.48
700.699	963.33
701.143	1040.08
701.588	1103.13
702.032	1157.23
702.476	1189.83
702.92	1266.18
703.364	1649.18
703.808	2519.12
704.252	3136.93
704.696	3333.82
705.14	3149.88
705.584	4310.57
706.027	2415.18
706.471	1213.48
706.915	915.38
707.359	815.38
707.803	758.83
708.246	724.03
708.69	730.03
709.134	706.88
709.577	714.63
710.021	721.38
710.465	714.08
710.908	710.23
711.352	739.33
711.795	816.18
712.239	875.93
712.682	896.98
713.126	871.33
713.569	979.38
714.012	802.33
714.456	698.68
714.899	668.63
715.342	637.68
715.786	612.48
716.229	602.03
716.672	578.28
717.115	586.78
717.558	589.83
718.002	602.48
718.445	634.18
718.888	663.58
719.331	677.83
719.774	691.08
720.217	677.48
720.66	648.53
721.103	613.43
721.546	578.78
721.989	566.53
722.432	549.93
722.874	544.78
723.317	563.33
723.76	607.18
724.203	741.08
724.645	988.18
725.088	1162.78
725.531	1144.23
725.974	1249.83
726.416	1127.53
726.859	702.98
727.301	580.98
727.744	549.43
728.187	549.73
728.629	558.48
729.071	582.23
729.514	611.33
729.956	636.78
730.399	651.83
730.841	653.03
731.283	638.63
731.726	620.73
732.168	633.73
732.61	664.63
733.053	712.23
733.495	785.28
733.937	878.08
734.379	1028.03
734.821	1309.58
735.263	2069.12
735.705	3719.62
736.148	5465.43
736.59	5512.93
737.032	5994.07
737.474	4948.12
737.916	1904.63
738.357	1000.78
738.799	770.78
739.241	714.38
739.683	720.58
740.125	742.68
740.567	748.03
741.008	798.53
741.45	838.13
741.892	877.33
742.334	894.43
742.775	882.73
743.217	854.53
743.658	710.28
744.1	735.23
744.542	854.53
744.983	892.78
745.425	930.78
745.866	897.43
746.307	741.58
746.749	784.53
747.19	1126.78
747.632	2172.98
748.073	4045.88
748.514	5627.52
748.956	7453.28
749.397	8749.08
749.838	6075.88
750.279	5789.73
750.72	3014.02
751.162	1277.78
751.603	734.98
752.044	583.88
752.485	519.93
752.926	491.43
753.367	465.48
753.808	457.78
754.249	449.83
754.69	444.08
755.131	438.03
755.572	437.53
756.013	431.98
756.453	430.88
756.894	450.13
757.335	443.23
757.776	454.48
758.216	469.83
758.657	502.83
759.098	555.88
759.538	665.23
759.979	960.73
760.42	1918.03
760.86	4910.62
761.301	10141.48
761.741	12021.58
762.182	13782.58
762.622	8994.33
763.063	3209.33
763.503	1312.88
763.943	764.28
764.384	605.28
764.824	526.58
765.264	488.28
765.705	456.93
766.145	435.98
766.585	422.33
767.025	411.73
767.465	410.78
767.906	422.78
768.346	442.48
768.786	511.53
769.226	745.08
769.666	1501.43
770.106	3364.68
770.546	4823.67
770.986	5468.78
771.426	4170.28
771.866	1723.08
772.306	784.93
772.745	482.38
773.185	411.63
773.625	396.78
774.065	424.58
774.505	621.63
774.944	1120.58
775.384	1623.08
775.824	1834.53
776.263	1519.43
776.703	800.68
777.142	454.48
777.582	339.28
778.021	312.03
778.461	303.08
778.9	295.58
779.34	280.43
779.779	280.08
780.219	273.83
780.658	265.33
781.097	261.73
781.537	247.88
781.976	251.48
782.415	252.43
782.855	253.98
783.294	252.13
783.733	245.63
784.172	251.53
784.611	256.28
785.05	256.28
785.489	265.53
785.928	271.03
786.367	285.48
786.806	306.93
787.245	318.63
787.684	330.28
788.123	328.88
788.562	312.43
789.001	305.88
789.44	299.83
789.879	297.63
790.317	298.23
790.756	317.48
791.195	364.43
791.634	492.58
792.072	870.38
792.511	2141.08
792.95	3947.72
793.388	4790.88
793.827	3136.08
794.265	1429.38
794.704	688.13
795.142	420.93
795.581	349.58
796.019	316.13
796.458	319.73
796.896	328.68
797.334	370.78
797.773	498.63
798.211	945.33
798.649	1974.43
799.087	3339.62
799.526	4709.57
799.964	4866.27
800.402	3370.82
800.84	1529.83
801.278	747.58
801.716	454.88
802.154	366.38
802.592	348.98
803.03	342.83
803.468	353.98
803.906	353.03
804.344	347.93
804.782	336.28
805.22	341.18
805.658	356.18
806.096	379.08
806.533	424.38
806.971	548.43
807.409	783.63
807.847	1567.53
808.284	3961.28
808.722	6969.88
809.16	9790.88
809.597	13199.93
810.035	15538.12
810.472	10804.62
810.91	4576.88
811.347	2042.28
811.785	964.03
812.222	606.13
812.66	467.78
813.097	393.88
813.535	348.13
813.972	312.93
814.409	292.88
814.846	278.98
815.284	266.03
815.721	272.18
816.158	301.68
816.595	414.78
817.032	518.33
817.47	480.23
817.907	341.53
818.344	298.53
818.781	298.23
819.218	358.73
819.655	558.23
820.092	717.73
820.529	648.73
820.966	515.93
821.403	349.18
821.839	300.83
822.276	324.53
822.713	398.13
823.15	361.98
823.587	373.13
824.023	654.63
824.46	1612.78
824.897	2848.28
825.333	2227.82
825.77	1027.53
826.206	529.83
826.643	313.18
827.08	236.08
827.516	210.23
827.953	200.83
828.389	184.88
828.825	176.03
829.262	169.03
829.698	161.58
830.135	157.78
830.571	155.78
831.007	157.48
831.443	159.63
831.88	160.93
832.316	159.68
832.752	158.53
833.188	160.68
833.624	160.03
834.06	169.18
834.497	171.13
834.933	170.88
835.369	188.83
835.805	195.48
836.241	202.58
836.677	228.73
837.112	263.78
837.548	329.13
837.984	477.08
838.42	1024.58
838.856	2841.38
839.292	5668.58
839.727	4249.38
840.163	2824.88
840.599	4271.43
841.034	6567.62
841.47	3306.82
841.906	1592.38
842.341	855.48
842.777	640.93
843.212	669.98
843.648	417.58
844.083	282.18
844.519	208.03
844.954	181.68
845.39	162.28
845.825	149.28
846.261	143.18
846.696	138.78
847.131	136.63
847.566	137.93
848.002	141.93
848.437	147.13
848.872	156.53
849.307	200.63
849.742	355.28
850.177	928.08
850.613	1989.43
851.048	1449.43
851.483	660.23
851.918	375.43
852.353	204.33
852.788	145.33
853.223	131.88
853.657	119.23
854.092	125.43
854.527	110.53
854.962	122.63
855.397	139.23
855.832	121.03
856.266	103.68
856.701	103.43
857.136	111.33
857.57	133.83
858.005	163.58
858.44	137.93
858.874	126.53
859.309	127.73
859.743	130.78
860.178	129.03
860.612	135.18
861.047	188.33
861.481	267.78
861.915	188.13
862.35	135.33
862.784	105.18
863.218	100.48
863.653	110.98
864.087	136.78
864.521	169.88
864.955	273.68
865.39	470.98
865.824	361.73
866.258	487.43
866.692	752.83
867.126	541.98
867.56	288.13
867.994	181.43
868.428	158.58
868.862	195.03
869.296	178.18
869.73	217.08
870.164	187.03
870.598	165.43
871.031	118.48
871.465	99.58
871.899	84.53
872.333	76.18
872.766	73.48
873.2	80.03
873.634	75.78
874.067	80.08
874.501	78.83
874.935	77.58
875.368	81.43
875.802	74.98
876.235	67.28
876.669	63.98
877.102	62.88
877.535	60.68
877.969	60.98
878.402	62.58
878.836	58.93
879.269	60.53
879.702	57.38
880.135	58.53
880.569	64.33
881.002	56.08
881.435	56.68
881.868	55.78
882.301	54.23
882.734	57.33
883.167	58.33
883.601	56.73
884.034	52.98
884.467	47.68
884.899	54.63
885.332	48.18
885.765	53.33
886.198	47.93
886.631	50.53
887.064	50.13
887.497	49.73
887.929	49.13
888.362	46.88
888.795	44.13
889.228	57.98
889.66	48.33
890.093	43.68
890.526	47.28
890.958	44.48
891.391	48.38
891.823	47.08
892.256	45.13
892.688	47.68
893.121	44.28
893.553	52.43
893.985	42.68
894.418	41.28
894.85	48.08
895.282	46.83
895.715	40.93
896.147	40.28
896.579	40.28
897.011	46.08
897.444	45.98
897.876	36.13
898.308	40.63
898.74	42.03
899.172	42.13
899.604	47.83
900.036	46.08
900.468	42.88
900.9	47.03
901.332	58.28
901.764	62.13
902.196	57.73
902.628	63.13
903.06	89.88
903.491	94.93
903.923	77.98
904.355	75.03
904.787	81.53
905.218	62.98
905.65	60.78
906.082	55.38
906.513	48.48
906.945	52.38
907.376	53.33
907.808	52.78
908.239	54.93
908.671	63.43
909.102	64.73
909.534	98.33
909.965	183.83
910.397	459.63
910.828	1337.23
911.259	822.13
911.691	441.93
912.122	257.58
912.553	129.58
912.984	76.53
913.415	67.13
913.847	54.68
914.278	54.98
914.709	48.68
915.14	44.08
915.571	45.48
916.002	44.18
916.433	46.78
916.864	39.43
917.295	44.78
917.726	50.33
918.157	69.88
918.587	64.48
919.018	61.93
919.449	58.18
919.88	71.88
920.311	102.83
920.741	276.78
921.172	494.98
921.603	246.38
922.033	159.98
922.464	101.83
922.895	61.88
923.325	45.93
923.756	43.43
924.186	54.78
924.617	83.03
925.047	121.88
925.478	102.03
925.908	73.53
926.338	53.63
926.769	41.43
927.199	43.68
927.629	38.98
928.06	43.78
928.49	40.68
928.92	36.63
929.35	30.73
929.78	26.83
930.21	27.03
930.641	22.43
931.071	26.53
931.501	22.13
931.931	21.53
932.361	19.03
932.791	26.88
933.221	28.03
933.651	40.33
934.08	61.23
934.51	39.68
934.94	34.58
935.37	27.63
935.8	22.88
936.229	20.53
936.659	19.58
937.089	42.28
937.519	63.48
937.948	82.83
938.378	49.53
938.807	27.68
939.237	20.38
939.666	18.08
940.096	13.23
940.525	10.73
940.955	12.83
941.384	10.68
941.814	13.68
942.243	10.73
942.672	10.88
943.102	9.88
943.531	6.23
943.96	9.08
944.39	9.78
944.819	13.18
945.248	9.18
945.677	12.38
946.106	11.53
946.535	12.83
946.964	10.28
947.393	13.03
947.822	8.43
948.251	13.63
948.68	9.08
949.109	10.93
949.538	14.98
949.967	11.73
950.396	6.53
950.825	9.03
951.254	8.23
951.682	3.73
952.111	5.18
952.54	12.63
952.969	6.43
953.397	4.78
953.826	4.28
954.254	12.63
954.683	12.78
955.112	13.83
955.54	9.43
955.969	8.78
956.397	11.78
956.826	6.38
957.254	11.23
957.682	6.93
958.111	10.58
958.539	11.13
958.967	7.13
959.396	10.88
959.824	11.13
960.252	8.33
960.68	7.43
961.109	9.18
961.537	14.58
961.965	3.43
962.393	6.28
962.821	5.33
963.249	11.63
963.677	14.28
964.105	81.23
964.533	139.58
964.961	72.73
965.389	39.38
965.817	21.23
966.245	12.88
966.672	10.28
967.1	10.08
967.528	2.03
967.956	7.78
968.383	5.33
968.811	5.63
969.239	6.28
969.666	8.13
970.094	7.68
970.522	1.88
970.949	5.73
971.377	-1.12
971.804	5.88
972.232	3.28
972.659	8.48
973.087	5.48
973.514	4.73
973.941	2.53
974.369	3.43
974.796	2.18
975.223	4.78
975.651	8.13
976.078	4.33
976.505	13.93
976.932	34.03
977.359	47.93
977.786	27.23
978.214	20.63
978.641	5.38
979.068	6.38
979.495	5.73
979.922	5.38
980.349	7.53
980.776	6.98
981.202	3.53
981.629	9.78
982.056	6.83
982.483	2.53
982.91	6.28
983.337	1.98
983.763	8.43
984.19	8.73
984.617	3.08
985.043	4.78
985.47	12.63
985.897	5.43
986.323	7.08
986.75	4.43
987.176	6.83
987.603	7.28
988.029	4.83
988.456	6.28
988.882	4.93
989.308	2.53
989.735	1.73
990.161	3.33
990.587	4.33
991.014	8.73
991.44	6.08
991.866	4.88
992.292	3.48
992.719	4.53
993.145	6.48
993.571	3.33
993.997	5.43
994.423	4.83
994.849	-4.37
995.275	4.48
995.701	6.78
996.127	-4.77
996.553	4.43
996.979	-0.37
997.405	6.38
997.83	2.08
998.256	0.73
998.682	1.88
999.108	4.28
999.534	-1.02
999.959	0.98
1000.385	5.03
1000.811	-0.07
1001.236	-2.57
1001.662	2.53
1002.087	11.58
1002.513	5.38
1002.938	2.48
1003.364	2.78
1003.789	7.73
1004.215	-1.92
1004.64	3.08
1005.066	6.63
1005.491	2.93
1005.916	5.88
1006.342	9.78
1006.767	7.43
1007.192	4.63
1007.617	4.63
1008.042	3.13
1008.468	5.38
1008.893	9.43
1009.318	13.08
1009.743	19.68
1010.168	32.68
1010.593	27.58
1011.018	19.43
1011.443	11.88
1011.868	11.03
1012.293	8.53
1012.718	6.78
1013.143	5.33
1013.567	9.33
1013.992	6.43
1014.417	1.28
1014.842	1.73
1015.267	3.48
1015.691	5.78
1016.116	4.63
1016.541	2.58
1016.965	4.88
1017.39	4.58
1017.814	-3.62
1018.239	-1.57
1018.663	-1.07
1019.088	-2.02
1019.512	5.38
1019.937	-0.07
1020.361	-0.12
1020.785	0.28
1021.21	-1.27
1021.634	2.78
1022.058	1.83
1022.483	-2.87
1022.907	-0.07
1023.331	1.93
1023.755	3.58
1024.179	0.78
1024.604	2.08
1025.028	-0.27
1025.452	1.53
1025.876	0.48
1026.3	4.78
1026.724	-3.17
1027.148	4.28
1027.572	1.68
1027.996	8.63
1028.42	2.23
1028.843	-0.12
1029.267	-4.32
1029.691	3.83
1030.115	-6.77
1030.539	2.58
1030.962	-4.42
1031.386	-0.72
1031.81	-1.77
1032.233	-1.82
1032.657	-6.37
1033.08	-0.22
1033.504	1.38
1033.927	-1.62
1034.351	-0.77
1034.774	-1.32
1035.198	-0.67
1035.621	-1.72
1036.045	-2.12
1036.468	4.18
1036.891	4.73
1037.315	2.03
1037.738	1.43
1038.161	-1.67
1038.584	0.13
1039.008	-7.42
1039.431	-5.42
1039.854	-9.62
1040.277	1.83
1040.7	-0.27
1041.123	-1.07
1041.546	-2.92
1041.969	1.73
1042.392	1.73
1042.815	-3.37
1043.238	-0.47
1043.661	-0.82
1044.084	-1.17
1044.507	-2.37
1044.93	-0.12
1045.352	-2.12
1045.775	3.83
1046.198	6.13
1046.621	5.58
1047.043	1.18
1047.466	2.93
1047.889	-2.27
1048.311	4.23
1048.734	-2.42
1049.156	-3.92
1049.579	2.83
1050.001	-1.92
1050.424	-0.47
1050.846	-5.77
1051.269	-2.72
1051.691	0.18
1052.113	5.88
1052.536	-4.67
1052.958	-3.62
1053.38	-3.37
1053.802	-1.07
1054.225	-0.72
1054.647	6.03
1055.069	-3.87
1055.491	0.63
1055.913	-0.17
1056.335	-3.87
1056.757	-4.97
1057.179	-3.77
1057.601	-4.27
1058.023	-0.27
1058.445	-7.02
1058.867	1.88
1059.289	3.78
1059.711	-2.77
1060.133	-0.97
1060.555	0.18
1060.976	1.28
1061.398	1.28
1061.82	1.38
1062.241	-4.92
1062.663	0.08
1063.085	-2.62
1063.506	-2.97
1063.928	-2.37
1064.35	-0.27
1064.771	0.88
1065.193	-3.07
1065.614	-6.17
1066.035	3.73
1066.457	4.58
1066.878	2.03
1067.3	0.28
1067.721	2.63
1068.142	-0.32
1068.564	-1.37
1068.985	1.73
1069.406	-7.62
1069.827	1.13
1070.248	-5.17
1070.67	-1.77
1071.091	-3.72
1071.512	-6.02
1071.933	-0.97
1072.354	-4.27
1072.775	-0.52
1073.196	-0.52
1073.617	-7.32
1074.038	-0.92
1074.459	-2.87
1074.88	-2.77
1075.3	-1.12
1075.721	-2.82
1076.142	-4.12
1076.563	-8.82
1076.983	0.63
1077.404	-8.82
1077.825	2.38
1078.246	-5.67
1078.666	-0.87
1079.087	-0.42
1079.507	-0.27
1079.928	1.48
1080.348	-1.27
1080.769	-0.77
1081.189	-4.07
1081.61	-7.27
1082.03	3.03
1082.451	-1.12
1082.871	-5.32
1083.291	-3.87
1083.711	-4.42
1084.132	-6.82
1084.552	-4.17
1084.972	-8.67
1085.392	-3.67
1085.813	-0.32
1086.233	-6.27
1086.653	-1.67
1087.073	-1.92
1087.493	0.83
1087.913	-6.17
1088.333	0.08
1088.753	-0.12
1089.173	3.78
1089.593	0.73
1090.013	0.53
1090.433	-2.12
1090.852	2.53
1091.272	-4.87
1091.692	-1.37
1092.112	-2.12
1092.531	-7.72
1092.951	-2.92
1093.371	-3.42
1093.79	-3.72
1094.21	-5.62
1094.63	0.78
1095.049	-0.72
1095.469	-11.32
1095.888	4.33
1096.308	-2.37
1096.727	-5.52
1097.146	-6.87
1097.566	-1.67
1097.985	-0.37
1098.405	4.38
1098.824	3.63
1099.243	-2.12
1099.662	-0.77
1100.082	-1.37
1100.501	-0.92
1100.92	1.53
1101.339	0.53
1101.758	1.73
