Data from MSPlasma+Separation6_Subt14_10-13-54-764.txt Node
Date: Fri Jul 21 10:13:54 EDT 2017
User: Ender
Spectrometer: HR+D1039
Trigger mode: 0
Integration Time (sec): 6.430000E-3
Scans to average: 20
Electric dark correction enabled: true
Nonlinearity correction enabled: false
Boxcar width: 0
XAxis mode: Wavelengths
Number of Pixels in Spectrum: 2048
>>>>>Begin Spectral Data<<<<<
187.836	-1.45
188.309	-1.45
188.782	-1.45
189.255	1.8
189.728	4.3
190.201	-0.15
190.674	-0.7
191.147	-2.95
191.619	0.1
192.092	-0.95
192.565	-2.95
193.038	3.95
193.511	3.65
193.984	1.6
194.456	0.65
194.929	-1.7
195.402	-2.8
195.874	-2.4
196.347	5.6
196.82	2.9
197.292	-2.35
197.765	-3.35
198.237	-2.85
198.71	-3.85
199.182	-3.5
199.655	7.2
200.127	1.3
200.6	1.35
201.072	3.4
201.544	-3.35
202.017	3.05
202.489	6.25
202.961	4.35
203.433	-3.75
203.906	0.2
204.378	-0.4
204.85	2.35
205.322	-2.75
205.794	4.25
206.266	-0.25
206.739	5.15
207.211	1
207.683	-4.05
208.155	1.85
208.627	0.25
209.099	2.5
209.57	4.8
210.042	2.85
210.514	1.95
210.986	-5.05
211.458	-3
211.93	-0.9
212.402	1.95
212.873	-4.05
213.345	-3.1
213.817	2.35
214.288	-4.5
214.76	5.6
215.232	-3.9
215.703	-0.05
216.175	-1.35
216.646	3.4
217.118	-2.1
217.589	-0.35
218.061	-0.2
218.532	-4.55
219.004	3.75
219.475	1.25
219.946	2.75
220.418	3.7
220.889	5.1
221.36	10.9
221.832	5.1
222.303	5.2
222.774	6.85
223.245	1.5
223.717	1.1
224.188	8.4
224.659	2.8
225.13	4.3
225.601	3.85
226.072	5.2
226.543	8.9
227.014	3.35
227.485	8.65
227.956	7.35
228.427	11.6
228.898	1.75
229.369	7.8
229.839	7.55
230.31	10.8
230.781	11.25
231.252	11.1
231.722	14.9
232.193	9
232.664	7.5
233.135	7.65
233.605	11.05
234.076	15
234.546	13.15
235.017	12.35
235.487	10.9
235.958	10.55
236.428	15.8
236.899	12.8
237.369	16.15
237.84	19.2
238.31	20.7
238.78	11.75
239.251	15.6
239.721	13.2
240.191	18.7
240.662	17
241.132	14.25
241.602	19.05
242.072	17.9
242.542	15.75
243.013	14.05
243.483	22.9
243.953	16.5
244.423	21.65
244.893	16.25
245.363	27.05
245.833	15
246.303	24.6
246.773	25.25
247.243	21.55
247.712	23.5
248.182	23.6
248.652	28.7
249.122	23.5
249.592	27.2
250.061	23.35
250.531	25.35
251.001	31.6
251.471	26.95
251.94	25.85
252.41	26.5
252.879	30.05
253.349	37.7
253.818	29.6
254.288	35.3
254.757	36.2
255.227	33.35
255.696	33.85
256.166	40.85
256.635	34.7
257.105	37
257.574	34.45
258.043	33.1
258.513	40.45
258.982	33.95
259.451	41.5
259.92	34.2
260.389	41.6
260.859	36.1
261.328	44.5
261.797	37.95
262.266	48.2
262.735	42.3
263.204	38.25
263.673	44.4
264.142	41.6
264.611	45.6
265.08	45.75
265.549	44.1
266.018	46.45
266.487	52.65
266.955	43.9
267.424	53.5
267.893	51.2
268.362	51.9
268.83	48.3
269.299	47.3
269.768	51.9
270.236	54.15
270.705	57.05
271.174	51.85
271.642	50.15
272.111	58.15
272.579	57.4
273.048	57.65
273.516	58.9
273.985	60.4
274.453	55.45
274.922	59.4
275.39	53.5
275.858	63.75
276.327	63.2
276.795	61.85
277.263	65.3
277.731	68
278.2	69.65
278.668	63.1
279.136	71.9
279.604	69.7
280.072	66.15
280.54	70.7
281.008	70.2
281.477	74.9
281.945	67.6
282.413	71.6
282.881	71.75
283.348	72.9
283.816	69.9
284.284	71.6
284.752	78.15
285.22	78.55
285.688	83.1
286.156	81.5
286.623	83.85
287.091	77.25
287.559	83.15
288.026	85.35
288.494	83.75
288.962	88.4
289.429	83.6
289.897	83.55
290.364	80.15
290.832	89.8
291.3	85.55
291.767	90.9
292.234	90.4
292.702	86.45
293.169	85.35
293.637	90.4
294.104	90.8
294.571	92.15
295.039	100
295.506	91.9
295.973	96.35
296.44	96.2
296.908	102.4
297.375	97.4
297.842	99.25
298.309	99.15
298.776	96.75
299.243	106.1
299.71	105.2
300.177	100.85
300.644	103
301.111	107.75
301.578	112.5
302.045	102.6
302.512	109.3
302.979	110.2
303.446	117.85
303.913	122.15
304.379	122.7
304.846	121.6
305.313	125.85
305.78	129.3
306.246	122.25
306.713	126.2
307.18	127.75
307.646	133.1
308.113	127.15
308.579	136.1
309.046	136
309.512	135.1
309.979	135.65
310.445	139.2
310.912	141.8
311.378	145.45
311.845	141.55
312.311	140.85
312.777	145.65
313.244	152.75
313.71	149.25
314.176	152
314.642	152.65
315.109	154.45
315.575	150.8
316.041	151.35
316.507	149
316.973	162.9
317.439	162.45
317.905	158.05
318.371	162.4
318.837	158.5
319.303	168.85
319.769	162.35
320.235	165.25
320.701	168.15
321.167	166.85
321.633	171.85
322.099	162.55
322.564	171.1
323.03	169.35
323.496	174.15
323.962	176.35
324.427	179.15
324.893	176.3
325.359	178.05
325.824	185.2
326.29	187.9
326.755	183.2
327.221	184.3
327.686	200.25
328.152	192.5
328.617	200.85
329.083	196.75
329.548	202.4
330.014	201.45
330.479	202.05
330.944	208.4
331.41	212.7
331.875	201.45
332.34	205
332.805	207.55
333.271	214.45
333.736	207.15
334.201	209.3
334.666	221.15
335.131	226.9
335.596	223.35
336.061	219.4
336.526	223.5
336.991	213.6
337.456	214.75
337.921	212.55
338.386	213.7
338.851	211.55
339.316	215.3
339.781	213.8
340.246	221.45
340.711	224.7
341.175	230.7
341.64	236.55
342.105	234.9
342.569	248.8
343.034	244.15
343.499	247.35
343.963	251.05
344.428	253.3
344.893	250.85
345.357	254.15
345.822	257.05
346.286	262.25
346.751	265.4
347.215	272.35
347.679	277.15
348.144	294.5
348.608	288.35
349.073	289.25
349.537	305.3
350.001	303.5
350.465	306.55
350.93	300
351.394	301.5
351.858	311.6
352.322	315.05
352.786	311.85
353.25	312.15
353.715	321.1
354.179	337.65
354.643	342.9
355.107	346.85
355.571	336.75
356.035	333.3
356.498	335.4
356.962	333.45
357.426	333.65
357.89	330
358.354	327.75
358.818	324.45
359.281	335.25
359.745	333
360.209	328.35
360.673	337.45
361.136	331.55
361.6	340.15
362.064	345
362.527	355.15
362.991	347
363.454	344.1
363.918	355.35
364.381	357.8
364.845	351.9
365.308	353.5
365.772	356.6
366.235	357
366.698	361.3
367.162	360.75
367.625	366.75
368.088	376.2
368.552	369
369.015	365.8
369.478	370.4
369.941	375.7
370.404	382.2
370.867	375.2
371.331	382.1
371.794	391.6
372.257	387.3
372.72	392.9
373.183	391.7
373.646	395.3
374.109	393.25
374.572	398.4
375.035	396.6
375.497	406.65
375.96	413.55
376.423	413.85
376.886	422.9
377.349	423.5
377.811	427.25
378.274	434.15
378.737	423.85
379.199	431.35
379.662	438.3
380.125	442.75
380.587	442.2
381.05	452.2
381.512	453.8
381.975	468.6
382.437	472.4
382.9	470.8
383.362	472.35
383.825	479.55
384.287	481.4
384.75	477.15
385.212	483.3
385.674	481.85
386.136	495.6
386.599	489.55
387.061	484.75
387.523	497.65
387.985	496.4
388.447	497.45
388.91	498.2
389.372	506.6
389.834	504.7
390.296	496.35
390.758	507.75
391.22	496.4
391.682	499.55
392.144	506.1
392.606	512.05
393.068	522.45
393.529	554.55
393.991	560.4
394.453	530.6
394.915	517
395.377	506.85
395.838	513.45
396.3	511.4
396.762	519.8
397.224	526.5
397.685	516.2
398.147	531.3
398.608	527.8
399.07	536.15
399.531	538.7
399.993	554.75
400.454	562.7
400.916	563.35
401.377	569.75
401.839	576.8
402.3	579.45
402.762	600.05
403.223	643.85
403.684	639.85
404.145	618.85
404.607	605.3
405.068	604
405.529	611.95
405.99	617
406.451	629.25
406.913	617.25
407.374	620.1
407.835	612.4
408.296	636.55
408.757	640.3
409.218	650.5
409.679	657.25
410.14	653.5
410.601	675.9
411.062	680.8
411.522	684.75
411.983	679.3
412.444	688.65
412.905	706.5
413.366	729.5
413.826	765.9
414.287	855.8
414.748	1009.85
415.208	1036.85
415.669	870.55
416.13	786.45
416.59	773.3
417.051	793.65
417.511	831.1
417.972	895.4
418.432	957.4
418.893	1065.55
419.353	1016.2
419.814	799.3
420.274	707.6
420.734	703.65
421.195	714
421.655	722.9
422.115	731.25
422.576	717.65
423.036	738.35
423.496	762.2
423.956	794.55
424.416	847.95
424.876	952.35
425.336	944.8
425.797	927.6
426.257	919.4
426.717	867.65
427.177	806.85
427.637	814.5
428.097	840.2
428.556	879
429.016	938.05
429.476	938.55
429.936	916.3
430.396	920.4
430.856	932.4
431.315	967.9
431.775	1026.2
432.235	1099.95
432.694	1110.7
433.154	1047.6
433.614	1027.1
434.073	1001.9
434.533	902
434.993	867.4
435.452	871.8
435.912	860.85
436.371	864
436.83	849.85
437.29	835.75
437.749	807.95
438.209	799.05
438.668	816.25
439.127	833.9
439.587	821.65
440.046	800.1
440.505	815.2
440.964	814.85
441.424	852.3
441.883	862.7
442.342	811.05
442.801	781.75
443.26	775.2
443.719	781.15
444.178	780.3
444.637	788.9
445.096	794.25
445.555	805.25
446.014	804.7
446.473	791.6
446.932	792.3
447.391	806.8
447.849	818
448.308	809
448.767	822.35
449.226	833.65
449.685	838.7
450.143	876.3
450.602	874.35
451.061	828.7
451.519	832.7
451.978	826.5
452.436	816.35
452.895	826.8
453.353	825.15
453.812	809.6
454.27	818.05
454.729	815.4
455.187	823.25
455.646	830.35
456.104	839.4
456.562	838.8
457.021	854.3
457.479	820.9
457.937	842.75
458.395	868.5
458.854	859.15
459.312	848.5
459.77	850.5
460.228	867.05
460.686	875.05
461.144	879.2
461.602	866.1
462.06	876.9
462.518	893.15
462.976	897.1
463.434	909.55
463.892	918.15
464.35	935.4
464.808	946.35
465.266	954.65
465.724	962.2
466.181	970.75
466.639	966.9
467.097	1001.3
467.555	1049.4
468.012	1034.45
468.47	1045
468.928	1067.7
469.385	1098.7
469.843	1112.85
470.3	1102
470.758	1148.95
471.215	1149.65
471.673	1187.6
472.13	1218.25
472.588	1232.7
473.045	1234.2
473.503	1251.55
473.96	1307.85
474.417	1325.75
474.875	1382.4
475.332	1430.9
475.789	1455.15
476.246	1488.2
476.704	1564.7
477.161	1593.15
477.618	1633.6
478.075	1725.05
478.532	1850.5
478.989	1991.8
479.446	2175.65
479.903	2282.1
480.36	2467.45
480.817	2598.05
481.274	2771.65
481.731	3032.35
482.188	3228.9
482.645	3478.5
483.102	3640
483.558	3895.4
484.015	4045.35
484.472	4040.4
484.929	3914.1
485.385	3753.25
485.842	3675.95
486.299	3551.35
486.755	3273.35
487.212	2963.3
487.668	2673.65
488.125	2506.9
488.582	2335.45
489.038	2259.65
489.494	2193.3
489.951	2124.4
490.407	2076.8
490.864	2040.55
491.32	2001.85
491.776	1989.6
492.233	1999.25
492.689	1966.55
493.145	1931.45
493.602	1900.6
494.058	1919.45
494.514	1936.1
494.97	1934.95
495.426	1961.3
495.882	1963.35
496.338	1965.35
496.794	1969.65
497.251	1967.55
497.707	1986.45
498.163	2006.9
498.618	2006.75
499.074	1991.65
499.53	2016.55
499.986	2011.45
500.442	2003.15
500.898	1966.65
501.354	1992.05
501.809	2001.7
502.265	2002.5
502.721	2019.45
503.177	2008
503.632	2022.4
504.088	2033.8
504.543	2058.75
504.999	2079.3
505.455	2070.15
505.91	2058.25
506.366	2057.3
506.821	2055.9
507.277	2044.6
507.732	2062.65
508.187	2057.85
508.643	2074.3
509.098	2079.85
509.553	2101.85
510.009	2134.1
510.464	2173.3
510.919	2176.95
511.375	2206.55
511.83	2226.5
512.285	2263.45
512.74	2316.5
513.195	2334.55
513.65	2377
514.105	2407.1
514.56	2409.35
515.015	2454.5
515.47	2467.05
515.925	2429.95
516.38	2446.05
516.835	2447.15
517.29	2417.45
517.745	2422.6
518.2	2393.75
518.655	2350.85
519.109	2332.05
519.564	2289.65
520.019	2272.2
520.474	2260.4
520.928	2242.1
521.383	2224.6
521.838	2206.65
522.292	2206.05
522.747	2186.55
523.201	2178.05
523.656	2147.5
524.11	2149.2
524.565	2135.5
525.019	2141.7
525.474	2143.6
525.928	2134.5
526.382	2134.1
526.837	2142.05
527.291	2141.55
527.745	2123.75
528.2	2126.75
528.654	2108.1
529.108	2109.35
529.562	2114.95
530.016	2111.25
530.47	2114.6
530.925	2114.8
531.379	2109.65
531.833	2147.9
532.287	2142.65
532.741	2122.6
533.195	2122.95
533.649	2134.1
534.103	2137.5
534.556	2131
535.01	2130.7
535.464	2131.45
535.918	2126.95
536.372	2143.5
536.826	2128.65
537.279	2113.85
537.733	2115.3
538.187	2115.15
538.64	2124.7
539.094	2135.6
539.548	2166
540.001	2141.7
540.455	2169.1
540.908	2174.45
541.362	2197.3
541.815	2198.2
542.269	2254.85
542.722	2259.9
543.175	2274.5
543.629	2288.3
544.082	2304.95
544.536	2325.15
544.989	2320
545.442	2336.35
545.895	2340.8
546.349	2342.55
546.802	2351.65
547.255	2343.8
547.708	2367.1
548.161	2377.85
548.614	2393.05
549.067	2396.8
549.52	2378.65
549.973	2347.2
550.426	2343.2
550.879	2357.7
551.332	2350.05
551.785	2368.55
552.238	2388.55
552.691	2396.95
553.144	2429.5
553.596	2455.65
554.049	2495.45
554.502	2535.6
554.955	2587
555.407	2608.95
555.86	2576.25
556.313	2554.95
556.765	2545.35
557.218	2514.5
557.67	2503.5
558.123	2472.15
558.576	2441.4
559.028	2444.45
559.48	2476.75
559.933	2476
560.385	2392.1
560.838	2303.25
561.29	2245.7
561.742	2232.75
562.195	2184.7
562.647	2160.7
563.099	2170.75
563.551	2150.4
564.004	2163.55
564.456	2144.7
564.908	2105.45
565.36	2059.5
565.812	2018.7
566.264	2000.6
566.716	1970.1
567.168	1943
567.62	1937.95
568.072	1930.8
568.524	1918.95
568.976	1913.05
569.428	1889.3
569.88	1893.85
570.332	1897.35
570.784	1903.6
571.235	1897.55
571.687	1919.35
572.139	1919.7
572.59	1933.3
573.042	1938.5
573.494	1952.95
573.945	1912.9
574.397	1892.45
574.849	1884.2
575.3	1887.35
575.752	1851.05
576.203	1830.85
576.655	1849.65
577.106	1812.5
577.557	1807.35
578.009	1802.75
578.46	1804.5
578.912	1794.2
579.363	1806.45
579.814	1792.75
580.265	1792.6
580.717	1804.55
581.168	1793.8
581.619	1806.75
582.07	1817.35
582.521	1809.05
582.972	1793.7
583.423	1807.5
583.875	1812.4
584.326	1839.05
584.777	1864.55
585.227	1890.55
585.678	1916.65
586.129	1919.5
586.58	1946.55
587.031	1978.25
587.482	2022.7
587.933	2049.9
588.384	2034.95
588.834	2028.5
589.285	2011.2
589.736	2024
590.186	2003.85
590.637	1998.9
591.088	1960.35
591.538	1921.3
591.989	1896.4
592.439	1874.3
592.89	1852.6
593.34	1836.1
593.791	1845.15
594.241	1826.55
594.692	1816.1
595.142	1823.25
595.593	1814.5
596.043	1829.1
596.493	1837.6
596.943	1840.1
597.394	1887.85
597.844	1918.5
598.294	1940.8
598.744	2020.75
599.195	2103.4
599.645	2218.7
600.095	2332.65
600.545	2450.65
600.995	2555.6
601.445	2648.8
601.895	2773.4
602.345	2839.25
602.795	2821.2
603.245	2707.8
603.695	2547.55
604.145	2424.8
604.594	2311.35
605.044	2199.1
605.494	2059.15
605.944	1956.55
606.393	1902.1
606.843	1866.35
607.293	1866.95
607.743	1844
608.192	1845.8
608.642	1856.6
609.091	1854.2
609.541	1850.45
609.99	1859.2
610.44	1815.7
610.889	1796.6
611.339	1761.3
611.788	1743.7
612.238	1766.15
612.687	1754.9
613.136	1780.2
613.586	1790.05
614.035	1789.7
614.484	1792.65
614.933	1805.85
615.383	1763
615.832	1721.85
616.281	1695.2
616.73	1666.95
617.179	1629.1
617.628	1593.5
618.077	1576.75
618.526	1543.25
618.975	1544.15
619.424	1513.55
619.873	1511.7
620.322	1491.75
620.771	1495.4
621.22	1470.55
621.669	1448.8
622.118	1435.4
622.567	1428.75
623.015	1395.55
623.464	1389
623.913	1367.8
624.361	1384.75
624.81	1365.95
625.259	1382.1
625.707	1357.85
626.156	1372.8
626.604	1394.85
627.053	1397
627.501	1403.1
627.95	1400.95
628.398	1413.45
628.847	1403.15
629.295	1398.9
629.744	1376.85
630.192	1362.6
630.64	1349
631.089	1322.2
631.537	1299.55
631.985	1282.1
632.433	1282.4
632.881	1260.05
633.33	1276.45
633.778	1267.9
634.226	1280.2
634.674	1289.35
635.122	1302.45
635.57	1328.2
636.018	1337.05
636.466	1344.95
636.914	1339.45
637.362	1367.5
637.81	1382.05
638.258	1431.8
638.705	1441.75
639.153	1485.7
639.601	1503.9
640.049	1524.3
640.497	1565.1
640.944	1601.7
641.392	1556.8
641.84	1465.25
642.287	1392.9
642.735	1369.25
643.182	1355.05
643.63	1361.1
644.078	1365.65
644.525	1377.4
644.973	1408.8
645.42	1444.1
645.867	1474.65
646.315	1495.2
646.762	1556.7
647.21	1599.1
647.657	1679
648.104	1739.6
648.551	1782.45
648.999	1911.85
649.446	2080
649.893	2316.05
650.34	2692.15
650.787	3290.5
651.234	4223.35
651.682	5766.05
652.129	8083.5
652.576	11414.95
653.023	14913.35
653.47	15534.25
653.917	15534.3
654.363	15534.2
654.81	15531.2
655.257	15531.85
655.704	14704.45
656.151	8981.8
656.598	5933.95
657.044	4284.8
657.491	3358.7
657.938	2767.35
658.385	2344.85
658.831	2072.1
659.278	1873.15
659.724	1720.35
660.171	1606.6
660.618	1490.75
661.064	1415.6
661.511	1373.85
661.957	1324.2
662.404	1311.3
662.85	1290.7
663.296	1280.65
663.743	1247.4
664.189	1234.1
664.635	1227.55
665.082	1195.2
665.528	1184.25
665.974	1145.75
666.42	1135.3
666.867	1117.35
667.313	1067.4
667.759	1062.3
668.205	1042.8
668.651	1055.2
669.097	1049.65
669.543	1054.85
669.989	1062.65
670.435	1075.35
670.881	1076.1
671.327	1120.95
671.773	1202.25
672.219	1281.1
672.665	1374.5
673.11	1408.3
673.556	1431.05
674.002	1468.2
674.448	1475.15
674.893	1263.7
675.339	1110.5
675.785	1021.2
676.23	962.15
676.676	932.85
677.122	910.2
677.567	882.35
678.013	853.8
678.458	840.35
678.904	847.25
679.349	827.55
679.794	830.45
680.24	825.05
680.685	822.85
681.131	821.65
681.576	816.8
682.021	827
682.466	834.3
682.912	847.8
683.357	889.55
683.802	961.5
684.247	1048.8
684.692	1112.65
685.137	1158.7
685.583	1180.7
686.028	1239
686.473	1184.85
686.918	1034.8
687.363	941.6
687.807	899.55
688.252	853.95
688.697	830.4
689.142	802.55
689.587	801.45
690.032	816.65
690.477	844.9
690.921	892.25
691.366	937.3
691.811	978.9
692.255	1047.5
692.7	1285.1
693.145	1839.2
693.589	2790.2
694.034	3320.65
694.478	3539.3
694.923	3256.75
695.367	4612.5
695.812	2827.1
696.256	1204.35
696.701	884.3
697.145	814.8
697.59	782.9
698.034	768.1
698.478	765.75
698.922	773.9
699.367	788.8
699.811	822.45
700.255	891.75
700.699	968.75
701.143	1056.7
701.588	1114.65
702.032	1166.35
702.476	1202.95
702.92	1288
703.364	1673.95
703.808	2553.75
704.252	3183.15
704.696	3375.9
705.14	3191.75
705.584	4363.1
706.027	2435.7
706.471	1221.1
706.915	924.25
707.359	816.4
707.803	768.15
708.246	735.15
708.69	729
709.134	716.9
709.577	720.85
710.021	720.6
710.465	719.9
710.908	715.6
711.352	742.3
711.795	823
712.239	888.05
712.682	909.9
713.126	893.15
713.569	989.3
714.012	821.2
714.456	713.05
714.899	672.35
715.342	638.75
715.786	623.6
716.229	603.5
716.672	594
717.115	593.95
717.558	596.6
718.002	615.65
718.445	631.7
718.888	669.65
719.331	685.75
719.774	700.5
720.217	687.75
720.66	657
721.103	615.15
721.546	589.9
721.989	569.6
722.432	565.5
722.874	563.7
723.317	573
723.76	615.25
724.203	742.6
724.645	1004
725.088	1185.05
725.531	1157.5
725.974	1275.4
726.416	1145.05
726.859	707.5
727.301	584.1
727.744	553.8
728.187	556.8
728.629	567.25
729.071	593.85
729.514	617.8
729.956	646.7
730.399	662.2
730.841	664.9
731.283	646.4
731.726	630.55
732.168	637.75
732.61	672.75
733.053	712.9
733.495	793.5
733.937	890.25
734.379	1035.4
734.821	1322.05
735.263	2098.65
735.705	3776.55
736.148	5554.35
736.59	5587.8
737.032	6063.75
737.474	4999.85
737.916	1921.65
738.357	1016.2
738.799	777.9
739.241	718.3
739.683	726.85
740.125	747.4
740.567	756.85
741.008	803
741.45	850.05
741.892	896.35
742.334	899.1
742.775	900.6
743.217	861.85
743.658	724.35
744.1	756.25
744.542	871.75
744.983	902.05
745.425	943.35
745.866	915.8
746.307	749.55
746.749	796.75
747.19	1142.05
747.632	2213.7
748.073	4100.95
748.514	5708.25
748.956	7552.7
749.397	8879.15
749.838	6179.3
750.279	5851.4
750.72	3027.65
751.162	1288.45
751.603	747.3
752.044	596.4
752.485	530.85
752.926	492.4
753.367	475
753.808	457.25
754.249	457.4
754.69	451.55
755.131	446.85
755.572	435.65
756.013	441.55
756.453	443.7
756.894	453.25
757.335	450.85
757.776	458.1
758.216	470.5
758.657	508.05
759.098	559.3
759.538	677.15
759.979	967.45
760.42	1940
760.86	4946.95
761.301	10268.1
761.741	12182.85
762.182	13941.2
762.622	9103.1
763.063	3238.35
763.503	1328
763.943	778.95
764.384	612.95
764.824	537.85
765.264	493.05
765.705	459.6
766.145	442
766.585	424.45
767.025	409.55
767.465	416.35
767.906	425
768.346	449.6
768.786	518.05
769.226	755.45
769.666	1529.7
770.106	3395.1
770.546	4894.5
770.986	5533.1
771.426	4199.55
771.866	1751
772.306	793.25
772.745	492.5
773.185	413.8
773.625	405.65
774.065	437.35
774.505	626.35
774.944	1141.5
775.384	1645.35
775.824	1865.85
776.263	1532.35
776.703	806.7
777.142	456.5
777.582	348.55
778.021	311.4
778.461	298.85
778.9	297.7
779.34	288.05
779.779	281.7
780.219	271.7
780.658	269.8
781.097	263.7
781.537	261.05
781.976	256.25
782.415	250.85
782.855	255.25
783.294	253.8
783.733	248.55
784.172	254.75
784.611	256.7
785.05	262
785.489	271.3
785.928	278.35
786.367	283.9
786.806	298.75
787.245	315.65
787.684	331.95
788.123	331
788.562	323.65
789.001	308.3
789.44	304
789.879	299.75
790.317	304.8
790.756	323.55
791.195	364.35
791.634	493.8
792.072	875.4
792.511	2153.6
792.95	3995.9
793.388	4842.25
793.827	3163.3
794.265	1446.6
794.704	696.65
795.142	431.1
795.581	351.6
796.019	326.9
796.458	320.75
796.896	326.45
797.334	380.3
797.773	503.55
798.211	961.45
798.649	1994.7
799.087	3351.65
799.526	4771.1
799.964	4900.85
800.402	3410.5
800.84	1542.55
801.278	750.15
801.716	455.45
802.154	368.6
802.592	349.1
803.03	348.8
803.468	364.65
803.906	365.35
804.344	351.4
804.782	341.5
805.22	346.6
805.658	358
806.096	376.95
806.533	432.05
806.971	547.65
807.409	796.3
807.847	1561.8
808.284	3991.85
808.722	7031.2
809.16	9887.65
809.597	13324.3
810.035	15536.2
810.472	10904.15
810.91	4629.2
811.347	2072.3
811.785	983.2
812.222	610.2
812.66	472.9
813.097	406.45
813.535	350.6
813.972	317.05
814.409	296.15
814.846	276.05
815.284	266.05
815.721	272.95
816.158	304.5
816.595	412.8
817.032	534.65
817.47	487.3
817.907	342.9
818.344	303.95
818.781	293.65
819.218	371.05
819.655	568.7
820.092	748.85
820.529	670.7
820.966	521.4
821.403	358.05
821.839	302.1
822.276	335.3
822.713	404.65
823.15	372.65
823.587	380.5
824.023	663.9
824.46	1639.45
824.897	2866.4
825.333	2261.15
825.77	1037.95
826.206	543.55
826.643	316.85
827.08	244.15
827.516	208.15
827.953	197.3
828.389	183.05
828.825	174.65
829.262	169.7
829.698	161.25
830.135	157.75
830.571	155.25
831.007	161.1
831.443	155.3
831.88	159.7
832.316	159.15
832.752	161.8
833.188	166.1
833.624	165.3
834.06	175.05
834.497	167.05
834.933	174.5
835.369	187.05
835.805	200.5
836.241	205.15
836.677	229.15
837.112	265.2
837.548	333.85
837.984	482.15
838.42	1032.9
838.856	2870
839.292	5699.3
839.727	4297.6
840.163	2847.3
840.599	4319.3
841.034	6652.1
841.47	3357.25
841.906	1617.25
842.341	861
842.777	649.15
843.212	672.9
843.648	423.3
844.083	284.15
844.519	213.9
844.954	183.2
845.39	157.1
845.825	156.15
846.261	149.9
846.696	145.85
847.131	137.1
847.566	139.8
848.002	139.55
848.437	145.75
848.872	159.65
849.307	194
849.742	363.4
850.177	940.2
850.613	2002.15
851.048	1453
851.483	665.75
851.918	369.55
852.353	206.8
852.788	142.8
853.223	134.5
853.657	122.85
854.092	118.1
854.527	116.5
854.962	126.35
855.397	139.9
855.832	117.85
856.266	103.6
856.701	102.1
857.136	112.95
857.57	138.1
858.005	169.4
858.44	141.6
858.874	129.4
859.309	126.95
859.743	127.55
860.178	124.4
860.612	143.55
861.047	188.85
861.481	269.25
861.915	184.8
862.35	136.45
862.784	110.1
863.218	102.05
863.653	112.65
864.087	140.25
864.521	166.45
864.955	270.2
865.39	477.15
865.824	374.3
866.258	489
866.692	752.4
867.126	545.95
867.56	294.35
867.994	183.75
868.428	159
868.862	189.75
869.296	178.2
869.73	219.7
870.164	186.95
870.598	169.45
871.031	118.95
871.465	107.25
871.899	81.45
872.333	73.75
872.766	72.1
873.2	80.65
873.634	77.45
874.067	79.75
874.501	79.5
874.935	79
875.368	83.5
875.802	70.8
876.235	72.5
876.669	65.9
877.102	58.45
877.535	60.7
877.969	62.75
878.402	62.9
878.836	64.5
879.269	61
879.702	66.5
880.135	62.8
880.569	64.05
881.002	59.35
881.435	59.8
881.868	56.3
882.301	60.8
882.734	48.75
883.167	53.9
883.601	52.25
884.034	55.95
884.467	45.8
884.899	52.1
885.332	46.35
885.765	48.45
886.198	45.6
886.631	49.85
887.064	48.25
887.497	43.1
887.929	46.3
888.362	45.25
888.795	48.05
889.228	47.6
889.66	45.85
890.093	45.8
890.526	42.7
890.958	48.4
891.391	40.5
891.823	44.1
892.256	45.25
892.688	45.4
893.121	44.05
893.553	45.25
893.985	44.2
894.418	39
894.85	47.35
895.282	42.55
895.715	39.85
896.147	42.5
896.579	45.8
897.011	50.4
897.444	40.65
897.876	37.9
898.308	37.5
898.74	44.9
899.172	44.35
899.604	49.1
900.036	44.55
900.468	40.55
900.9	43.95
901.332	57.3
901.764	58.9
902.196	58.35
902.628	57.2
903.06	88.7
903.491	94
903.923	79.2
904.355	77.85
904.787	84.25
905.218	68.25
905.65	60.45
906.082	53.55
906.513	52.1
906.945	47.7
907.376	51.9
907.808	50.6
908.239	52.8
908.671	60.35
909.102	70.85
909.534	101.2
909.965	179.55
910.397	475.6
910.828	1338.8
911.259	833.8
911.691	442.4
912.122	261.7
912.553	131.75
912.984	74.05
913.415	68.65
913.847	51.1
914.278	57.15
914.709	44.95
915.14	43.55
915.571	48.8
916.002	47.4
916.433	40.6
916.864	44.35
917.295	45.5
917.726	52.45
918.157	67.4
918.587	64.8
919.018	60.35
919.449	56.65
919.88	62.95
920.311	101.7
920.741	272.75
921.172	493.45
921.603	248.4
922.033	163.75
922.464	104.1
922.895	69.45
923.325	44.7
923.756	42.45
924.186	57.65
924.617	82.55
925.047	119.35
925.478	101.05
925.908	81.25
926.338	55.95
926.769	45.4
927.199	39.7
927.629	37.5
928.06	44.15
928.49	38.8
928.92	36.65
929.35	30.1
929.78	24.25
930.21	26.9
930.641	21
931.071	27.1
931.501	22.5
931.931	18.55
932.361	23.25
932.791	30.8
933.221	23.55
933.651	40.15
934.08	68
934.51	37
934.94	36
935.37	24.2
935.8	26.15
936.229	22.45
936.659	27.45
937.089	39.65
937.519	63.05
937.948	85.3
938.378	51.4
938.807	29.65
939.237	21.2
939.666	19.45
940.096	12.5
940.525	11.8
940.955	14.35
941.384	11.55
941.814	12.4
942.243	11.8
942.672	9.1
943.102	8.75
943.531	11.3
943.96	4.6
944.39	10.8
944.819	12.8
945.248	5.9
945.677	8.65
946.106	11.8
946.535	16.15
946.964	10.55
947.393	8.45
947.822	7.7
948.251	15.8
948.68	12.55
949.109	12.95
949.538	5.5
949.967	8.1
950.396	10.1
950.825	9.15
951.254	12.35
951.682	5.9
952.111	5.75
952.54	5.6
952.969	8.6
953.397	1.2
953.826	5.2
954.254	9.1
954.683	4
955.112	11.85
955.54	6.2
955.969	6.45
956.397	11.65
956.826	5.35
957.254	8.1
957.682	6.05
958.111	10.25
958.539	9.75
958.967	8
959.396	6.9
959.824	6.5
960.252	7.5
960.68	6.3
961.109	7.9
961.537	13.4
961.965	4.45
962.393	7.35
962.821	6.5
963.249	5.65
963.677	16
964.105	84.4
964.533	144.8
964.961	69.45
965.389	39.6
965.817	19.35
966.245	10.25
966.672	10.15
967.1	9.9
967.528	5.1
967.956	6.35
968.383	6.4
968.811	2.7
969.239	6
969.666	6.2
970.094	2.3
970.522	4.35
970.949	3.6
971.377	-2.15
971.804	3.1
972.232	0
972.659	5.15
973.087	2.3
973.514	1.85
973.941	3.45
974.369	4.3
974.796	0.15
975.223	5.5
975.651	7.25
976.078	5.95
976.505	17.65
976.932	35.65
977.359	42.85
977.786	18.9
978.214	17.65
978.641	4.9
979.068	7.8
979.495	0.6
979.922	5
980.349	6.35
980.776	0.25
981.202	5.8
981.629	7.1
982.056	8.15
982.483	-3.6
982.91	5.75
983.337	0.9
983.763	2.9
984.19	10.25
984.617	6.2
985.043	8.9
985.47	6.65
985.897	7.45
986.323	5.45
986.75	4.25
987.176	3.35
987.603	1.4
988.029	6.6
988.456	3.9
988.882	2.6
989.308	0.6
989.735	5
990.161	3.25
990.587	2.7
991.014	5.2
991.44	1.15
991.866	2.3
992.292	3.9
992.719	5.15
993.145	3.75
993.571	4.5
993.997	7.4
994.423	1.65
994.849	-0.1
995.275	4.75
995.701	8.25
996.127	-0.75
996.553	0.45
996.979	-0.7
997.405	7.4
997.83	2.65
998.256	1.35
998.682	1.45
999.108	2.25
999.534	-3.95
999.959	1.6
1000.385	3.5
1000.811	-1.15
1001.236	0.55
1001.662	-1.25
1002.087	9.2
1002.513	6.6
1002.938	-0.35
1003.364	4.1
1003.789	2.65
1004.215	5.15
1004.64	-0.4
1005.066	3.85
1005.491	7.3
1005.916	3.35
1006.342	2.05
1006.767	4.45
1007.192	7.7
1007.617	6.9
1008.042	4.1
1008.468	2.5
1008.893	8.75
1009.318	12.55
1009.743	16.55
1010.168	32.25
1010.593	27.4
1011.018	18.75
1011.443	9.15
1011.868	8.55
1012.293	6.3
1012.718	-0.45
1013.143	3.05
1013.567	7.2
1013.992	6.95
1014.417	1.65
1014.842	0.85
1015.267	-1.2
1015.691	8.4
1016.116	4.4
1016.541	5.1
1016.965	0.1
1017.39	2.4
1017.814	-4.55
1018.239	-0.95
1018.663	-2.05
1019.088	-3
1019.512	9.35
1019.937	-2.15
1020.361	3.5
1020.785	-2.1
1021.21	-1.75
1021.634	2
1022.058	6.2
1022.483	-1.45
1022.907	-3.25
1023.331	1.35
1023.755	-1.6
1024.179	2.15
1024.604	1.7
1025.028	3.9
1025.452	5.45
1025.876	3
1026.3	3.65
1026.724	-2
1027.148	0.15
1027.572	1.45
1027.996	3.1
1028.42	1.2
1028.843	-1.25
1029.267	0.75
1029.691	-0.1
1030.115	-0.75
1030.539	-1.25
1030.962	2.5
1031.386	-0.65
1031.81	0.95
1032.233	-1.25
1032.657	-6.5
1033.08	-0.25
1033.504	-1.9
1033.927	1.75
1034.351	-2.95
1034.774	-4.55
1035.198	-4.4
1035.621	-0.45
1036.045	-3.7
1036.468	4.6
1036.891	3.7
1037.315	7.45
1037.738	0.3
1038.161	1.65
1038.584	0.05
1039.008	-3.4
1039.431	-5.35
1039.854	-5.1
1040.277	4.2
1040.7	2.2
1041.123	-3.95
1041.546	1.65
1041.969	0.3
1042.392	0.75
1042.815	-6.95
1043.238	-2.9
1043.661	-0.7
1044.084	-5.15
1044.507	-3.95
1044.93	-3.1
1045.352	4.15
1045.775	-0.75
1046.198	5.2
1046.621	5
1047.043	-4.05
1047.466	2.8
1047.889	-3.05
1048.311	6.05
1048.734	-5.1
1049.156	-2.5
1049.579	-0.95
1050.001	1.95
1050.424	-0.05
1050.846	-3.75
1051.269	-2.3
1051.691	-4.45
1052.113	1.55
1052.536	-4
1052.958	-4.15
1053.38	-0.65
1053.802	-2.2
1054.225	3.85
1054.647	1.85
1055.069	2.3
1055.491	-5.5
1055.913	4.75
1056.335	-8.8
1056.757	-4.25
1057.179	-0.75
1057.601	1.85
1058.023	-0.35
1058.445	-3.05
1058.867	4.15
1059.289	-0.75
1059.711	0
1060.133	2.4
1060.555	-1.45
1060.976	1.45
1061.398	-0.7
1061.82	-0.5
1062.241	-5.55
1062.663	-2.4
1063.085	-5.15
1063.506	-4.6
1063.928	-4.4
1064.35	3.95
1064.771	1.4
1065.193	-0.9
1065.614	1.8
1066.035	4.2
1066.457	0.15
1066.878	-1.85
1067.3	-1.1
1067.721	0
1068.142	-2.7
1068.564	3.15
1068.985	1
1069.406	-3.5
1069.827	0.6
1070.248	-0.75
1070.67	-5.75
1071.091	-1.85
1071.512	-2.7
1071.933	-6
1072.354	-8.95
1072.775	-1.45
1073.196	0.65
1073.617	-6.1
1074.038	3.65
1074.459	-6.15
1074.88	-5.35
1075.3	0.4
1075.721	-6.9
1076.142	-2.85
1076.563	-9.65
1076.983	0.95
1077.404	-6.55
1077.825	-2.2
1078.246	-9.15
1078.666	-1.4
1079.087	-4
1079.507	-4.25
1079.928	1.05
1080.348	-2.3
1080.769	-6.1
1081.189	-7.1
1081.61	-5
1082.03	-1.05
1082.451	-4
1082.871	-7.75
1083.291	-4.85
1083.711	-3.7
1084.132	-4.2
1084.552	-6.7
1084.972	-8.2
1085.392	-1.4
1085.813	1.8
1086.233	-0.35
1086.653	2.75
1087.073	-4.85
1087.493	-6
1087.913	-2.7
1088.333	-1.2
1088.753	-5.35
1089.173	1.8
1089.593	-3.1
1090.013	-3.4
1090.433	-1.9
1090.852	-0.95
1091.272	-2.6
1091.692	1.3
1092.112	1.75
1092.531	-4.25
1092.951	-3.6
1093.371	-5.5
1093.79	-4.1
1094.21	-1.6
1094.63	-2.25
1095.049	-0.5
1095.469	-6.6
1095.888	-2.45
1096.308	-0.05
1096.727	-1.8
1097.146	-3.6
1097.566	-2.1
1097.985	-0.3
1098.405	-1.25
1098.824	2
1099.243	-6.8
1099.662	-2.45
1100.082	-0.7
1100.501	-2.75
1100.92	1.05
1101.339	0.65
1101.758	1.45
