Data from MSPlasma+Separation6_Subt14_10-13-17-730.txt Node
Date: Fri Jul 21 10:13:17 EDT 2017
User: Ender
Spectrometer: HR+D1039
Trigger mode: 0
Integration Time (sec): 6.430000E-3
Scans to average: 20
Electric dark correction enabled: true
Nonlinearity correction enabled: false
Boxcar width: 0
XAxis mode: Wavelengths
Number of Pixels in Spectrum: 2048
>>>>>Begin Spectral Data<<<<<
187.836	0.35
188.309	0.35
188.782	0.35
189.255	-1.95
189.728	3.75
190.201	1.85
190.674	1.75
191.147	0.6
191.619	1.1
192.092	-1.2
192.565	-0.95
193.038	4.15
193.511	-0.35
193.984	-1.55
194.456	-3.55
194.929	-1.25
195.402	-2.85
195.874	0.15
196.347	1.25
196.82	4.2
197.292	-4.25
197.765	-0.1
198.237	-1.55
198.71	-2.05
199.182	0.5
199.655	3.2
200.127	3.6
200.6	-1.6
201.072	3.3
201.544	0.2
202.017	2.1
202.489	3.45
202.961	1.95
203.433	-5.2
203.906	1.75
204.378	1.15
204.85	3.6
205.322	-1.45
205.794	6.75
206.266	-0.7
206.739	2.8
207.211	1.85
207.683	1.5
208.155	1.7
208.627	4.6
209.099	4.1
209.57	3.5
210.042	5.15
210.514	2.35
210.986	3.25
211.458	-0.8
211.93	3
212.402	-0.85
212.873	-1.3
213.345	-3.7
213.817	1.9
214.288	-3.45
214.76	4.1
215.232	1.5
215.703	3
216.175	6.35
216.646	5.7
217.118	7.9
217.589	2.85
218.061	5.5
218.532	1.7
219.004	7.6
219.475	10.85
219.946	10
220.418	11.6
220.889	3.55
221.36	11.05
221.832	10
222.303	12.3
222.774	8.75
223.245	7.3
223.717	5.6
224.188	10.6
224.659	6.3
225.13	3.1
225.601	4.95
226.072	7.85
226.543	10.3
227.014	7.3
227.485	11.35
227.956	16.25
228.427	18.4
228.898	15.05
229.369	15.5
229.839	15.6
230.31	16.35
230.781	17.25
231.252	19.85
231.722	17.8
232.193	19.25
232.664	20.35
233.135	14.75
233.605	17.45
234.076	25.9
234.546	23.3
235.017	19.85
235.487	22.95
235.958	16.7
236.428	22.25
236.899	18.45
237.369	24.05
237.84	28.9
238.31	25.7
238.78	21.65
239.251	24.9
239.721	21.1
240.191	25.85
240.662	26.2
241.132	25.05
241.602	29.8
242.072	27.45
242.542	26.4
243.013	26.45
243.483	34.8
243.953	26.45
244.423	29.95
244.893	34.65
245.363	34
245.833	32.45
246.303	31.05
246.773	38.15
247.243	34.8
247.712	39.6
248.182	38.55
248.652	36.15
249.122	39.75
249.592	47.7
250.061	40.7
250.531	44.55
251.001	36.3
251.471	46
251.94	44.2
252.41	47.7
252.879	45.5
253.349	49.75
253.818	46.65
254.288	55.35
254.757	50.2
255.227	53.7
255.696	56.25
256.166	56.6
256.635	54.35
257.105	53.1
257.574	56.35
258.043	53.15
258.513	59.8
258.982	57.5
259.451	62.75
259.92	55.8
260.389	60.95
260.859	60.3
261.328	64.65
261.797	63.75
262.266	70.5
262.735	72.5
263.204	67.75
263.673	69.15
264.142	66.5
264.611	69.35
265.08	69.55
265.549	68.85
266.018	73.1
266.487	74.4
266.955	71.85
267.424	75.55
267.893	79.85
268.362	81.35
268.83	72.25
269.299	75.4
269.768	81.85
270.236	81.75
270.705	86.1
271.174	78.65
271.642	78.2
272.111	81.9
272.579	87.05
273.048	81.95
273.516	91.05
273.985	88.2
274.453	86.7
274.922	91.95
275.39	89.85
275.858	90.2
276.327	94.75
276.795	96.9
277.263	100.25
277.731	96.7
278.2	97.45
278.668	98.35
279.136	105.35
279.604	101.7
280.072	104
280.54	104.05
281.008	108.85
281.477	107.65
281.945	107
282.413	107.9
282.881	109.65
283.348	107.15
283.816	110.3
284.284	110.95
284.752	113.6
285.22	118.85
285.688	122
286.156	120.3
286.623	120.9
287.091	123.05
287.559	125.5
288.026	125.5
288.494	125.6
288.962	124.8
289.429	127.95
289.897	132.05
290.364	120.7
290.832	129.45
291.3	131.5
291.767	138
292.234	133.8
292.702	133.85
293.169	137.3
293.637	138.85
294.104	140.65
294.571	138.05
295.039	140
295.506	136.45
295.973	145.4
296.44	140.8
296.908	147.85
297.375	143.6
297.842	147.85
298.309	153
298.776	149.8
299.243	155.15
299.71	155.25
300.177	159.85
300.644	158.2
301.111	163.6
301.578	163.15
302.045	164.35
302.512	167
302.979	170.35
303.446	174.65
303.913	176.65
304.379	183.7
304.846	180.45
305.313	192.55
305.78	187.2
306.246	188.45
306.713	188.55
307.18	187.75
307.646	192.7
308.113	191.4
308.579	197.5
309.046	203.25
309.512	202.65
309.979	203.5
310.445	208.15
310.912	213.8
311.378	217.5
311.845	221.65
312.311	214.15
312.777	219.4
313.244	221.15
313.71	225.55
314.176	232.95
314.642	228.8
315.109	232.7
315.575	231.95
316.041	232.65
316.507	231.6
316.973	243.65
317.439	245
317.905	243.9
318.371	239.25
318.837	243.8
319.303	250.9
319.769	242.55
320.235	256.6
320.701	251.55
321.167	252.15
321.633	260.9
322.099	258.35
322.564	264.45
323.03	266.15
323.496	267.2
323.962	268.95
324.427	270.85
324.893	270.25
325.359	285.35
325.824	277.6
326.29	284.7
326.755	284.9
327.221	281.7
327.686	298
328.152	295.25
328.617	307.7
329.083	304.05
329.548	309.9
330.014	315
330.479	312
330.944	313.75
331.41	326.6
331.875	318.2
332.34	316.9
332.805	319.1
333.271	321
333.736	325.05
334.201	331.65
334.666	351.55
335.131	353
335.596	350.1
336.061	339.7
336.526	343.5
336.991	338.75
337.456	333.8
337.921	328.7
338.386	328.3
338.851	331.5
339.316	337.65
339.781	333.2
340.246	347.7
340.711	349.95
341.175	356.6
341.64	366.55
342.105	374.1
342.569	378.2
343.034	372.25
343.499	370.5
343.963	385.35
344.428	388.6
344.893	389.2
345.357	399.25
345.822	400.9
346.286	409.35
346.751	413.35
347.215	422.15
347.679	425.9
348.144	446.65
348.608	452.65
349.073	453
349.537	465.25
350.001	462.35
350.465	465.2
350.93	461.5
351.394	466.2
351.858	467.2
352.322	480.4
352.786	481.4
353.25	484.1
353.715	490.05
354.179	511.9
354.643	526.7
355.107	531.2
355.571	528.95
356.035	516.2
356.498	515.45
356.962	519.4
357.426	519
357.89	519.15
358.354	503.6
358.818	501.15
359.281	509.9
359.745	513.9
360.209	515.2
360.673	523.45
361.136	518.4
361.6	523.3
362.064	528.35
362.527	536.6
362.991	542.95
363.454	530.85
363.918	543.85
364.381	549.05
364.845	554.45
365.308	550.6
365.772	557.6
366.235	558.4
366.698	556.5
367.162	554.8
367.625	568.95
368.088	572.05
368.552	572.1
369.015	569.35
369.478	573.55
369.941	585.65
370.404	594.55
370.867	584.5
371.331	585.7
371.794	606.5
372.257	612.45
372.72	607.25
373.183	613.6
373.646	611.75
374.109	613.25
374.572	620.15
375.035	627.9
375.497	630.1
375.96	636.05
376.423	648.95
376.886	655.55
377.349	658.35
377.811	657.1
378.274	668.05
378.737	665.65
379.199	674.55
379.662	680.4
380.125	690.85
380.587	692.95
381.05	701.95
381.512	703.55
381.975	728.4
382.437	733.65
382.9	737.75
383.362	739.35
383.825	750.7
384.287	745.2
384.75	741.9
385.212	742.25
385.674	755.25
386.136	759.85
386.599	750.25
387.061	757.2
387.523	763.5
387.985	763.45
388.447	775
388.91	778.8
389.372	781.65
389.834	775.15
390.296	771.05
390.758	781.65
391.22	777.55
391.682	782.65
392.144	787.85
392.606	795.05
393.068	806.7
393.529	847.15
393.991	861.95
394.453	831.05
394.915	810.25
395.377	792.8
395.838	804.35
396.3	795.65
396.762	814.45
397.224	816.15
397.685	810.95
398.147	813.85
398.608	833.4
399.07	834.45
399.531	832.75
399.993	852.6
400.454	876.1
400.916	866.95
401.377	886.05
401.839	887.9
402.3	898.65
402.762	931.4
403.223	990.4
403.684	997.85
404.145	956
404.607	939.35
405.068	932.9
405.529	938.4
405.99	966.1
406.451	975.1
406.913	970.05
407.374	970.65
407.835	964.05
408.296	986
408.757	991.15
409.218	1020.55
409.679	1021
410.14	1031.75
410.601	1042.95
411.062	1039.65
411.522	1041.5
411.983	1046.7
412.444	1050.25
412.905	1061.85
413.366	1084.35
413.826	1145.9
414.287	1273.9
414.748	1510.7
415.208	1552.8
415.669	1294.75
416.13	1175.9
416.59	1144.15
417.051	1192.4
417.511	1236.4
417.972	1334.75
418.432	1439.6
418.893	1590.55
419.353	1538.9
419.814	1186.65
420.274	1064
420.734	1052.4
421.195	1084.25
421.655	1079.5
422.115	1092.15
422.576	1083.5
423.036	1093.2
423.496	1141.2
423.956	1192.05
424.416	1262
424.876	1421.75
425.336	1422.15
425.797	1414.05
426.257	1399.4
426.717	1333.05
427.177	1246.3
427.637	1258.5
428.097	1313.95
428.556	1370.75
429.016	1466.9
429.476	1493.15
429.936	1471.05
430.396	1474.45
430.856	1520.8
431.315	1561.55
431.775	1680.25
432.235	1795.2
432.694	1809.75
433.154	1728.35
433.614	1691.6
434.073	1624.6
434.533	1457
434.993	1396.25
435.452	1383.3
435.912	1361.75
436.371	1343.65
436.83	1315.75
437.29	1277.9
437.749	1237.3
438.209	1223.25
438.668	1233
439.127	1246.7
439.587	1218.65
440.046	1185.35
440.505	1211.35
440.964	1209.85
441.424	1256
441.883	1284.05
442.342	1193.35
442.801	1147.55
443.26	1163
443.719	1150.6
444.178	1143.55
444.637	1162.15
445.096	1166.1
445.555	1173.1
446.014	1172.2
446.473	1166.25
446.932	1170.55
447.391	1181.25
447.849	1197.35
448.308	1172.6
448.767	1180.75
449.226	1207.5
449.685	1216
450.143	1254.35
450.602	1258.8
451.061	1204.4
451.519	1202.2
451.978	1182.95
452.436	1178.9
452.895	1195.8
453.353	1186
453.812	1175.1
454.27	1180.75
454.729	1172.55
455.187	1192.65
455.646	1191.5
456.104	1204.45
456.562	1222.6
457.021	1235.45
457.479	1185.65
457.937	1222.3
458.395	1256.25
458.854	1234.9
459.312	1215.7
459.77	1242.4
460.228	1235.35
460.686	1261.7
461.144	1260.35
461.602	1250.55
462.06	1260.5
462.518	1279.35
462.976	1282.35
463.434	1294.75
463.892	1307.7
464.35	1325.9
464.808	1358.7
465.266	1363.65
465.724	1381.2
466.181	1393.05
466.639	1380.4
467.097	1426.25
467.555	1482.75
468.012	1476.6
468.47	1494.25
468.928	1532.45
469.385	1575.45
469.843	1597.6
470.3	1588.8
470.758	1641.4
471.215	1670.1
471.673	1713.6
472.13	1760.9
472.588	1786.2
473.045	1784.75
473.503	1826.05
473.96	1909.4
474.417	1936.1
474.875	2024.7
475.332	2100.75
475.789	2143.7
476.246	2227.25
476.704	2322.35
477.161	2419.65
477.618	2504
478.075	2656.65
478.532	2899.75
478.989	3149.35
479.446	3509.1
479.903	3757.6
480.36	4134.35
480.817	4457.4
481.274	4790.25
481.731	5277.65
482.188	5726.55
482.645	6240.75
483.102	6621.1
483.558	7117.15
484.015	7426.35
484.472	7388.95
484.929	7130.95
485.385	6857.45
485.842	6707.45
486.299	6435.2
486.755	5844.3
487.212	5197.6
487.668	4601.1
488.125	4186.35
488.582	3813.5
489.038	3613.6
489.494	3455.25
489.951	3313.7
490.407	3187.9
490.864	3092.5
491.32	3000.35
491.776	2943.45
492.233	2949.5
492.689	2894.2
493.145	2815.8
493.602	2777.8
494.058	2798.7
494.514	2794.8
494.97	2782.35
495.426	2818.95
495.882	2798.25
496.338	2788.65
496.794	2813.1
497.251	2794.45
497.707	2818.2
498.163	2823.55
498.618	2819.65
499.074	2809.6
499.53	2836.45
499.986	2850.2
500.442	2829.1
500.898	2801.45
501.354	2811.3
501.809	2810.75
502.265	2827.15
502.721	2825.45
503.177	2829.15
503.632	2857.8
504.088	2866.5
504.543	2890.1
504.999	2914.7
505.455	2911.9
505.91	2874.55
506.366	2889.4
506.821	2878.65
507.277	2879.25
507.732	2885.2
508.187	2884.75
508.643	2916.8
509.098	2901.25
509.553	2934.95
510.009	2971.15
510.464	3026.6
510.919	3021.65
511.375	3073.65
511.83	3093.85
512.285	3145.05
512.74	3201.95
513.195	3253.55
513.65	3301.9
514.105	3330.95
514.56	3331.8
515.015	3402.4
515.47	3405.85
515.925	3364.3
516.38	3369.95
516.835	3405.25
517.29	3369.3
517.745	3376.45
518.2	3321.5
518.655	3266.3
519.109	3229.75
519.564	3168.35
520.019	3161.2
520.474	3132.3
520.928	3117.9
521.383	3087.8
521.838	3077.05
522.292	3054.9
522.747	3020.1
523.201	3021.3
523.656	2992.95
524.11	2980.3
524.565	2968.25
525.019	2982.4
525.474	2977.75
525.928	2951.35
526.382	2946.6
526.837	2956.4
527.291	2970.55
527.745	2945.7
528.2	2948.6
528.654	2916.85
529.108	2912.05
529.562	2930.1
530.016	2922.15
530.47	2911.35
530.925	2904.3
531.379	2902.85
531.833	2942.05
532.287	2932.95
532.741	2905.3
533.195	2920.1
533.649	2940.15
534.103	2929
534.556	2910.85
535.01	2928.15
535.464	2919.55
535.918	2919.35
536.372	2936.3
536.826	2913.2
537.279	2887.15
537.733	2902.4
538.187	2914.8
538.64	2911.35
539.094	2933.25
539.548	2981.7
540.001	2964.4
540.455	2981.8
540.908	2989.95
541.362	3016.4
541.815	3032.05
542.269	3101.1
542.722	3091.15
543.175	3123.8
543.629	3133.7
544.082	3157.3
544.536	3189.35
544.989	3193.5
545.442	3202.65
545.895	3214.2
546.349	3208.05
546.802	3213.5
547.255	3217.05
547.708	3255.25
548.161	3267.05
548.614	3265.85
549.067	3281.35
549.52	3257.45
549.973	3226.75
550.426	3221.95
550.879	3201.8
551.332	3207.1
551.785	3239.45
552.238	3252.35
552.691	3240.85
553.144	3289.9
553.596	3344.4
554.049	3373.5
554.502	3454.75
554.955	3498.75
555.407	3564.35
555.86	3507.4
556.313	3481.4
556.765	3435.85
557.218	3402.85
557.67	3393
558.123	3344.65
558.576	3347.4
559.028	3334.8
559.48	3366.15
559.933	3336.05
560.385	3254
560.838	3144.75
561.29	3066.2
561.742	3038.95
562.195	2972.75
562.647	2962.6
563.099	2941.2
563.551	2913.65
564.004	2940.45
564.456	2923.6
564.908	2880.65
565.36	2800.05
565.812	2734.5
566.264	2722.25
566.716	2684.2
567.168	2637.05
567.62	2641.3
568.072	2621.1
568.524	2623.1
568.976	2602.4
569.428	2573.3
569.88	2570.8
570.332	2597.65
570.784	2592.25
571.235	2562.65
571.687	2592.1
572.139	2602.85
572.59	2620.25
573.042	2633.55
573.494	2641.2
573.945	2595.7
574.397	2535.05
574.849	2539.8
575.3	2562.25
575.752	2501.55
576.203	2489.25
576.655	2501.35
577.106	2468.15
577.557	2452
578.009	2434.7
578.46	2435.05
578.912	2409.1
579.363	2430.35
579.814	2427.15
580.265	2425.45
580.717	2427.15
581.168	2424
581.619	2436.4
582.07	2457.05
582.521	2451.15
582.972	2439.7
583.423	2451.5
583.875	2450.85
584.326	2470.35
584.777	2505.7
585.227	2558.5
585.678	2570.9
586.129	2596.7
586.58	2630.75
587.031	2671.45
587.482	2737.6
587.933	2790.85
588.384	2770.8
588.834	2730.25
589.285	2727.1
589.736	2722.05
590.186	2733.1
590.637	2708.15
591.088	2629.95
591.538	2596.75
591.989	2558
592.439	2526.55
592.89	2495.7
593.34	2491.75
593.791	2479.9
594.241	2451.8
594.692	2443.1
595.142	2463.95
595.593	2458.05
596.043	2453.85
596.493	2480.5
596.943	2485.5
597.394	2541.1
597.844	2555
598.294	2616.7
598.744	2703.9
599.195	2825.1
599.645	2980.2
600.095	3128.15
600.545	3245.55
600.995	3399.2
601.445	3523.35
601.895	3689.75
602.345	3798.8
602.795	3778.55
603.245	3631.95
603.695	3427.75
604.145	3265.85
604.594	3105.45
605.044	2949.8
605.494	2780.5
605.944	2622.95
606.393	2553.8
606.843	2515.35
607.293	2489.7
607.743	2481.55
608.192	2501.85
608.642	2481.4
609.091	2484.45
609.541	2502.5
609.99	2486.05
610.44	2444.75
610.889	2410.1
611.339	2379.9
611.788	2354.95
612.238	2373.95
612.687	2370.55
613.136	2386.95
613.586	2412.25
614.035	2399.15
614.484	2430.7
614.933	2413.05
615.383	2377.4
615.832	2323.7
616.281	2275.85
616.73	2228.5
617.179	2189.2
617.628	2148.65
618.077	2116.15
618.526	2081.25
618.975	2072.35
619.424	2037.45
619.873	2046.3
620.322	2021.1
620.771	2015.95
621.22	1986.1
621.669	1949.55
622.118	1926.35
622.567	1911.85
623.015	1882.8
623.464	1869.25
623.913	1852.8
624.361	1856.05
624.81	1854.8
625.259	1845
625.707	1826.55
626.156	1850.15
626.604	1877.05
627.053	1873.45
627.501	1874.05
627.95	1890.25
628.398	1901.05
628.847	1885.25
629.295	1881.75
629.744	1869.15
630.192	1839.55
630.64	1817.9
631.089	1786.6
631.537	1751.8
631.985	1727.8
632.433	1729.35
632.881	1713.65
633.33	1730.3
633.778	1723
634.226	1733.95
634.674	1750.3
635.122	1760.4
635.57	1787.75
636.018	1827.4
636.466	1814.35
636.914	1824.45
637.362	1859.9
637.81	1885.2
638.258	1943.45
638.705	1968.85
639.153	2024.6
639.601	2050
640.049	2087.65
640.497	2136.7
640.944	2207.2
641.392	2131.65
641.84	2024.15
642.287	1940.75
642.735	1901.1
643.182	1885.85
643.63	1903.2
644.078	1921.6
644.525	1951.3
644.973	2015.05
645.42	2071.8
645.867	2135.85
646.315	2189.95
646.762	2298.95
647.21	2403.35
647.657	2554.5
648.104	2688.65
648.551	2792.4
648.999	3079.4
649.446	3429.65
649.893	3911.7
650.34	4688.3
650.787	5898.3
651.234	7626.2
651.682	10618.35
652.129	14867.1
652.576	15528.3
653.023	15527.65
653.47	15530.85
653.917	15530.9
654.363	15530.8
654.81	15527.8
655.257	15528.45
655.704	15532.25
656.151	15526.25
656.598	11441.75
657.044	8068.15
657.491	6232.05
657.938	4925.5
658.385	4081.25
658.831	3510.25
659.278	3080.7
659.724	2769.95
660.171	2538.7
660.618	2315.6
661.064	2168.55
661.511	2076.35
661.957	1979.25
662.404	1916.95
662.85	1866.1
663.296	1844.85
663.743	1780.45
664.189	1741.1
664.635	1720.65
665.082	1681.6
665.528	1654.95
665.974	1602.7
666.42	1577.2
666.867	1556.1
667.313	1483.2
667.759	1472.25
668.205	1453.8
668.651	1452.6
669.097	1444.45
669.543	1452.7
669.989	1469.85
670.435	1465.7
670.881	1486.85
671.327	1526.25
671.773	1629.1
672.219	1720.95
672.665	1842.05
673.11	1895
673.556	1930.8
674.002	1965.75
674.448	1998.4
674.893	1721
675.339	1484.45
675.785	1380.1
676.23	1317.95
676.676	1245.9
677.122	1225.5
677.567	1188.95
678.013	1155.25
678.458	1145.9
678.904	1139.1
679.349	1123.45
679.794	1117.1
680.24	1115.25
680.685	1104.45
681.131	1105.35
681.576	1110.5
682.021	1115.6
682.466	1126.1
682.912	1134.85
683.357	1187.7
683.802	1271.45
684.247	1385.9
684.692	1472
685.137	1547.6
685.583	1575.6
686.028	1668.3
686.473	1580.35
686.918	1369
687.363	1255.1
687.807	1196.45
688.252	1142.85
688.697	1104.2
689.142	1070.95
689.587	1065.4
690.032	1090.7
690.477	1124.8
690.921	1181.1
691.366	1242.15
691.811	1285.7
692.255	1392.2
692.7	1665.35
693.145	2350.4
693.589	3585.4
694.034	4332.1
694.478	4687.8
694.923	4359.95
695.367	6254.2
695.812	3773.3
696.256	1585.75
696.701	1167.4
697.145	1088.4
697.59	1039.05
698.034	1022.45
698.478	1022.1
698.922	1024.65
699.367	1047.25
699.811	1082.95
700.255	1179.15
700.699	1281.25
701.143	1388.45
701.588	1477.15
702.032	1541.75
702.476	1590.3
702.92	1687.15
703.364	2160.35
703.808	3297.6
704.252	4136.2
704.696	4449.75
705.14	4242.5
705.584	5925.75
706.027	3228.7
706.471	1617.6
706.915	1222.05
707.359	1083.25
707.803	1024.3
708.246	981.5
708.69	974.95
709.134	959.3
709.577	957.45
710.021	964.15
710.465	957.9
710.908	945
711.352	987.1
711.795	1093.65
712.239	1163.8
712.682	1197.8
713.126	1185.3
713.569	1320.2
714.012	1086.9
714.456	946.9
714.899	904.05
715.342	865.95
715.786	828
716.229	805.25
716.672	784.15
717.115	792.4
717.558	795
718.002	812.1
718.445	843.55
718.888	889.2
719.331	904.85
719.774	932.3
720.217	914.6
720.66	871
721.103	817.55
721.546	774.45
721.989	756.25
722.432	756.7
722.874	748.45
723.317	757.55
723.76	806.45
724.203	976.5
724.645	1289.7
725.088	1538.35
725.531	1534.6
725.974	1697.9
726.416	1517.15
726.859	938.65
727.301	771.45
727.744	733.25
728.187	741.55
728.629	751.6
729.071	788.75
729.514	819.55
729.956	850.7
730.399	879.1
730.841	876
731.283	854.75
731.726	836.55
732.168	848.7
732.61	883.5
733.053	949.9
733.495	1043.85
733.937	1169.35
734.379	1355.95
734.821	1723.75
735.263	2693.5
735.705	4874.1
736.148	7183.8
736.59	7343.85
737.032	8109.9
737.474	6711.35
737.916	2501.05
738.357	1333.6
738.799	1030
739.241	959.9
739.683	956.15
740.125	983.2
740.567	995
741.008	1056.95
741.45	1111.2
741.892	1160.8
742.334	1176.55
742.775	1185.65
743.217	1133.25
743.658	941.3
744.1	972.05
744.542	1120.4
744.983	1171.95
745.425	1235.35
745.866	1199.55
746.307	985
746.749	1034.6
747.19	1463.1
747.632	2818.15
748.073	5294.45
748.514	7383.95
748.956	9936.2
749.397	11730.2
749.838	8111.6
750.279	7840.1
750.72	4012.3
751.162	1683.45
751.603	977.7
752.044	782.35
752.485	704.5
752.926	654.1
753.367	630.7
753.808	609.4
754.249	600.35
754.69	592.2
755.131	579.6
755.572	587.4
756.013	585.45
756.453	584.5
756.894	593.1
757.335	596.15
757.776	605.2
758.216	628.3
758.657	664.95
759.098	723.55
759.538	877.05
759.979	1238.1
760.42	2472.25
760.86	6303.25
761.301	13128.45
761.741	15444.25
762.182	15529.05
762.622	12082.15
763.063	4231.2
763.503	1737.3
763.943	1020.2
764.384	812.7
764.824	711.55
765.264	652.45
765.705	623.4
766.145	585.15
766.585	558.5
767.025	545.15
767.465	548.15
767.906	559.15
768.346	590.7
768.786	691.5
769.226	976.9
769.666	1942.5
770.106	4407.75
770.546	6430.65
770.986	7403.25
771.426	5662
771.866	2279.8
772.306	1031.75
772.745	655.1
773.185	546.6
773.625	531.15
774.065	579.45
774.505	811.7
774.944	1466.65
775.384	2151.75
775.824	2461.15
776.263	2049.35
776.703	1053.3
777.142	606.15
777.582	457.65
778.021	417.55
778.461	394.55
778.9	398.45
779.34	382.15
779.779	379.85
780.219	368.75
780.658	359.05
781.097	355.35
781.537	346.7
781.976	345.7
782.415	343.05
782.855	345.45
783.294	339.6
783.733	340.95
784.172	341.5
784.611	341.7
785.05	352.35
785.489	361
785.928	364.7
786.367	386.7
786.806	397.6
787.245	426.15
787.684	441.3
788.123	439.75
788.562	432.6
789.001	411.95
789.44	404.75
789.879	402.7
790.317	402.85
790.756	421.55
791.195	481.2
791.634	634.6
792.072	1129.25
792.511	2756.65
792.95	5249.75
793.388	6533.9
793.827	4256.4
794.265	1886.3
794.704	911.25
795.142	565.95
795.581	466.55
796.019	424.65
796.458	425.35
796.896	434.95
797.334	491.65
797.773	656.65
798.211	1228.7
798.649	2582.25
799.087	4422.55
799.526	6289.3
799.964	6585.05
800.402	4581.25
800.84	2008.2
801.278	974.65
801.716	600.8
802.154	485.05
802.592	465.5
803.03	460
803.468	467.7
803.906	470.25
804.344	458.6
804.782	453.45
805.22	458.45
805.658	469.5
806.096	499.75
806.533	560.85
806.971	718.9
807.409	1030.4
807.847	2016.3
808.284	5171.35
808.722	9226.75
809.16	12948.95
809.597	15527.2
810.035	15532.8
810.472	14491.05
810.91	6077.5
811.347	2668.25
811.785	1274.5
812.222	807.15
812.66	623.15
813.097	526.1
813.535	456.5
813.972	418.35
814.409	390.95
814.846	376.25
815.284	360.55
815.721	365.8
816.158	398.95
816.595	531.75
817.032	692.75
817.47	632.5
817.907	451.65
818.344	395.4
818.781	388.2
819.218	473
819.655	719.85
820.092	957.35
820.529	865.3
820.966	683
821.403	465
821.839	397.15
822.276	433.35
822.713	523
823.15	477.65
823.587	493.6
824.023	845.25
824.46	2122.65
824.897	3829.25
825.333	3044
825.77	1356
826.206	708.15
826.643	421.15
827.08	317.6
827.516	276.9
827.953	258.1
828.389	245.95
828.825	232.3
829.262	223.2
829.698	214.6
830.135	206.85
830.571	207.75
831.007	209.85
831.443	208.25
831.88	207.7
832.316	217.65
832.752	216.95
833.188	216.95
833.624	218.75
834.06	226.85
834.497	224.8
834.933	232.1
835.369	250.75
835.805	253.8
836.241	272.25
836.677	300.7
837.112	351.9
837.548	424.25
837.984	629.85
838.42	1327.2
838.856	3737.75
839.292	7536.75
839.727	5759.55
840.163	3707.8
840.599	5639.05
841.034	8820.75
841.47	4469.75
841.906	2089.3
842.341	1131.05
842.777	835.15
843.212	892.35
843.648	556.35
844.083	379.25
844.519	284.1
844.954	239.75
845.39	213.7
845.825	200.95
846.261	198.35
846.696	189.9
847.131	184.5
847.566	186.2
848.002	195.35
848.437	199.85
848.872	206.45
849.307	266.1
849.742	465.75
850.177	1208.45
850.613	2672.75
851.048	1955.4
851.483	875.5
851.918	482.2
852.353	272.8
852.788	198.45
853.223	177.5
853.657	159.7
854.092	154.5
854.527	149.8
854.962	165.3
855.397	185.55
855.832	161.25
856.266	139.35
856.701	139.45
857.136	148.9
857.57	180.55
858.005	218.6
858.44	184.7
858.874	172.55
859.309	176
859.743	173.45
860.178	167.45
860.612	183.4
861.047	250.25
861.481	358.8
861.915	243.05
862.35	177.6
862.784	147.75
863.218	134.95
863.653	151.3
864.087	184
864.521	215.25
864.955	361.2
865.39	625.1
865.824	486.7
866.258	633
866.692	972.8
867.126	715.25
867.56	381.2
867.994	242.4
868.428	204.6
868.862	254.9
869.296	235.3
869.73	286.85
870.164	241.4
870.598	221.3
871.031	158.15
871.465	135.05
871.899	114.5
872.333	101.05
872.766	99.5
873.2	101
873.634	98.15
874.067	103.05
874.501	105.6
874.935	110.3
875.368	106.75
875.802	98.15
876.235	95.6
876.669	96
877.102	83.8
877.535	84.1
877.969	84.85
878.402	84
878.836	79.45
879.269	83
879.702	84
880.135	80.65
880.569	88.3
881.002	76.6
881.435	79.9
881.868	80.3
882.301	73.95
882.734	71.85
883.167	75.45
883.601	76.75
884.034	73.15
884.467	74.7
884.899	69.25
885.332	68.4
885.765	65.85
886.198	68.7
886.631	67.35
887.064	69.75
887.497	67.2
887.929	62.7
888.362	65.95
888.795	63.95
889.228	69.65
889.66	64.45
890.093	63.1
890.526	65.3
890.958	63.05
891.391	63.4
891.823	64.1
892.256	62.4
892.688	61.95
893.121	62.1
893.553	65.65
893.985	59.9
894.418	56.4
894.85	59.4
895.282	60.25
895.715	58.45
896.147	54.85
896.579	52.5
897.011	57.65
897.444	61.75
897.876	53.7
898.308	57.15
898.74	59.1
899.172	57.95
899.604	58.15
900.036	58.6
900.468	56.75
900.9	67.5
901.332	80
901.764	85
902.196	78.45
902.628	82.5
903.06	117.2
903.491	130.7
903.923	105
904.355	100.25
904.787	108.75
905.218	84.2
905.65	82.05
906.082	78.4
906.513	70.5
906.945	70.4
907.376	74.3
907.808	76.4
908.239	76.95
908.671	82.2
909.102	92.7
909.534	129.4
909.965	238.15
910.397	611.55
910.828	1791.75
911.259	1107.55
911.691	583.05
912.122	340.3
912.553	173.9
912.984	96.25
913.415	85.05
913.847	78.1
914.278	72.2
914.709	65.05
915.14	59.55
915.571	66.2
916.002	60.85
916.433	61.55
916.864	61.65
917.295	61.45
917.726	77.4
918.157	89.95
918.587	89.8
919.018	80.05
919.449	79.95
919.88	88.25
920.311	139.25
920.741	361.4
921.172	658.85
921.603	334.5
922.033	203.75
922.464	137.75
922.895	86.65
923.325	61.9
923.756	59.4
924.186	74.05
924.617	102.8
925.047	157.25
925.478	142.8
925.908	98.8
926.338	72
926.769	54.85
927.199	54.85
927.629	52.3
928.06	56.25
928.49	57.15
928.92	45.5
929.35	41.25
929.78	37.95
930.21	34.25
930.641	32.5
931.071	34.9
931.501	28.05
931.931	32
932.361	32.75
932.791	32.75
933.221	35.75
933.651	57.5
934.08	89.7
934.51	56.3
934.94	45.9
935.37	37.85
935.8	33.05
936.229	28.65
936.659	29.45
937.089	55.75
937.519	84.05
937.948	108.9
938.378	63.95
938.807	40.25
939.237	26.35
939.666	26.7
940.096	19.7
940.525	10.7
940.955	23.65
941.384	16.7
941.814	19.3
942.243	14.4
942.672	14.35
943.102	13.35
943.531	17.85
943.96	13.95
944.39	18.35
944.819	21.3
945.248	19.9
945.677	18.5
946.106	16
946.535	18.4
946.964	13.15
947.393	14.45
947.822	15.4
948.251	19.1
948.68	15.95
949.109	12
949.538	15
949.967	12.7
950.396	13.55
950.825	16.95
951.254	14.05
951.682	10.4
952.111	7.85
952.54	9.05
952.969	10.7
953.397	13.55
953.826	10.45
954.254	14
954.683	13.5
955.112	19.15
955.54	8.95
955.969	11
956.397	15.65
956.826	10.3
957.254	11.75
957.682	13.5
958.111	14.7
958.539	12.3
958.967	11.3
959.396	13.3
959.824	12.25
960.252	13.85
960.68	12.35
961.109	15.7
961.537	17.3
961.965	11.35
962.393	10.7
962.821	15.7
963.249	14.55
963.677	23.85
964.105	115.3
964.533	192.7
964.961	97.4
965.389	57.75
965.817	31.05
966.245	16.2
966.672	11.9
967.1	13.35
967.528	9.6
967.956	9.95
968.383	7.8
968.811	9.3
969.239	11
969.666	9.45
970.094	4.85
970.522	-0
970.949	3.7
971.377	2.3
971.804	6.15
972.232	5.75
972.659	8.8
973.087	7.7
973.514	2.85
973.941	2.7
974.369	4.15
974.796	9
975.223	5.7
975.651	11.5
976.078	9.65
976.505	16.5
976.932	45.05
977.359	56.35
977.786	35
978.214	24.15
978.641	10.05
979.068	9.1
979.495	7.05
979.922	6.2
980.349	12.05
980.776	11.85
981.202	6
981.629	8.3
982.056	6.15
982.483	2
982.91	10.7
983.337	5.25
983.763	5.3
984.19	10.15
984.617	4.5
985.043	8.75
985.47	10.95
985.897	10.35
986.323	10.9
986.75	3.75
987.176	3.6
987.603	7.85
988.029	6.3
988.456	9.2
988.882	3.25
989.308	1.8
989.735	3.95
990.161	6.3
990.587	2
991.014	8.35
991.44	4.85
991.866	7.05
992.292	6.25
992.719	4.3
993.145	3
993.571	1.85
993.997	9.4
994.423	5.4
994.849	-0.85
995.275	2.9
995.701	9.05
996.127	3.05
996.553	3.45
996.979	1.8
997.405	8.8
997.83	6.2
998.256	4.65
998.682	4.45
999.108	3.6
999.534	-4.55
999.959	1.4
1000.385	6.1
1000.811	1.25
1001.236	0.55
1001.662	4.25
1002.087	8.65
1002.513	1.25
1002.938	1.05
1003.364	-0.7
1003.789	7.35
1004.215	0.2
1004.64	4
1005.066	4.25
1005.491	10.95
1005.916	9.05
1006.342	6.55
1006.767	4.6
1007.192	10.45
1007.617	8.1
1008.042	3.05
1008.468	5.9
1008.893	10.85
1009.318	15.6
1009.743	22.6
1010.168	39.7
1010.593	30.95
1011.018	24.1
1011.443	12.6
1011.868	17.55
1012.293	6.25
1012.718	2.6
1013.143	6
1013.567	10
1013.992	5.95
1014.417	5.9
1014.842	3
1015.267	2.85
1015.691	5.5
1016.116	5.05
1016.541	1.95
1016.965	5.65
1017.39	3.45
1017.814	-3.2
1018.239	1.1
1018.663	-4.5
1019.088	-2.15
1019.512	5.15
1019.937	-4.25
1020.361	0.2
1020.785	0.3
1021.21	-0.75
1021.634	2.85
1022.058	4.45
1022.483	-4
1022.907	-0.85
1023.331	-4.55
1023.755	3.1
1024.179	4.9
1024.604	0.4
1025.028	0.85
1025.452	2.65
1025.876	3.7
1026.3	0.35
1026.724	0.25
1027.148	2.8
1027.572	3.8
1027.996	5.05
1028.42	1.4
1028.843	2.65
1029.267	3.65
1029.691	5.6
1030.115	-0.3
1030.539	-1.65
1030.962	-1.4
1031.386	0.7
1031.81	-2.75
1032.233	0.15
1032.657	-2.9
1033.08	2.9
1033.504	1
1033.927	0.8
1034.351	-0.5
1034.774	-1
1035.198	-1.7
1035.621	4.6
1036.045	0.7
1036.468	3.2
1036.891	-2.1
1037.315	2.3
1037.738	0.45
1038.161	-0.3
1038.584	1.45
1039.008	-1.65
1039.431	-2.5
1039.854	-3.2
1040.277	0.15
1040.7	-1.95
1041.123	-1.65
1041.546	-3.55
1041.969	-2.85
1042.392	4.65
1042.815	0.5
1043.238	-4
1043.661	-5.05
1044.084	-2.25
1044.507	-1.8
1044.93	6.05
1045.352	2.1
1045.775	4
1046.198	-1.85
1046.621	4.4
1047.043	-1.45
1047.466	2.8
1047.889	-1.05
1048.311	6.95
1048.734	-0.35
1049.156	1
1049.579	1.05
1050.001	-0.85
1050.424	-0
1050.846	-3.75
1051.269	0.65
1051.691	-0.7
1052.113	2.6
1052.536	-0.65
1052.958	-2.4
1053.38	3.8
1053.802	2.05
1054.225	-0.05
1054.647	0.9
1055.069	-2.6
1055.491	5.3
1055.913	0.05
1056.335	-8.6
1056.757	-5.65
1057.179	-0.4
1057.601	-3.55
1058.023	-1.55
1058.445	-6.4
1058.867	3.7
1059.289	-0
1059.711	-4
1060.133	1.7
1060.555	1.6
1060.976	4.7
1061.398	-7.15
1061.82	-0.5
1062.241	-1.85
1062.663	-1.35
1063.085	-3
1063.506	-6.8
1063.928	-3.45
1064.35	0.65
1064.771	-2.1
1065.193	-2.95
1065.614	-1.95
1066.035	3.45
1066.457	1.15
1066.878	3.15
1067.3	-5.55
1067.721	-0.9
1068.142	0.4
1068.564	3.4
1068.985	-5.1
1069.406	-8.7
1069.827	-1.65
1070.248	-3.05
1070.67	0.6
1071.091	-7.2
1071.512	-2.75
1071.933	-0.3
1072.354	-5.6
1072.775	-6
1073.196	-0.6
1073.617	-2.1
1074.038	-2.15
1074.459	-6.55
1074.88	-1.45
1075.3	-2.15
1075.721	-1.65
1076.142	-1.35
1076.563	-4.55
1076.983	-0.6
1077.404	-6.7
1077.825	0.2
1078.246	-4.85
1078.666	-1.5
1079.087	-1.15
1079.507	-4.7
1079.928	-0.95
1080.348	-2.8
1080.769	-1.85
1081.189	-1.5
1081.61	-10.05
1082.03	1.4
1082.451	1.3
1082.871	-6.5
1083.291	-6.95
1083.711	-0.8
1084.132	-1.45
1084.552	-6.4
1084.972	-9.05
1085.392	-4.35
1085.813	-1.6
1086.233	-2.95
1086.653	2.4
1087.073	-0.85
1087.493	-2.55
1087.913	-8.15
1088.333	-3.2
1088.753	-1.15
1089.173	3.9
1089.593	-0.3
1090.013	-2.25
1090.433	-6.75
1090.852	3.8
1091.272	-6.85
1091.692	-4.05
1092.112	-6.55
1092.531	-4.7
1092.951	-3.8
1093.371	-2.3
1093.79	-3.55
1094.21	-4.7
1094.63	-3.45
1095.049	-1.05
1095.469	-8.25
1095.888	-1.2
1096.308	1.1
1096.727	-5.5
1097.146	-5.95
1097.566	-3.65
1097.985	-3.6
1098.405	-2.05
1098.824	1.7
1099.243	-3
1099.662	-0.5
1100.082	-2.6
1100.501	-3.55
1100.92	0.45
1101.339	0.95
1101.758	4.2
