Data from MSPlasma+Separation6_Subt14_10-14-28-896.txt Node
Date: Fri Jul 21 10:14:28 EDT 2017
User: Ender
Spectrometer: HR+D1039
Trigger mode: 0
Integration Time (sec): 6.430000E-3
Scans to average: 20
Electric dark correction enabled: true
Nonlinearity correction enabled: false
Boxcar width: 0
XAxis mode: Wavelengths
Number of Pixels in Spectrum: 2048
>>>>>Begin Spectral Data<<<<<
187.836	-1.65
188.309	-1.65
188.782	-1.65
189.255	2.2
189.728	-0.65
190.201	-2.25
190.674	-0.25
191.147	-1.75
191.619	3.25
192.092	-0.8
192.565	-6.3
193.038	4.45
193.511	2.6
193.984	2.05
194.456	-2.2
194.929	-0.5
195.402	1.9
195.874	-0.1
196.347	2.35
196.82	1.9
197.292	-1.45
197.765	0.05
198.237	-3.75
198.71	-5.65
199.182	0.7
199.655	2.25
200.127	1.95
200.6	2.05
201.072	2.3
201.544	-0.05
202.017	3.15
202.489	2.45
202.961	-0.5
203.433	-3.25
203.906	-0.9
204.378	-2.35
204.85	-1.45
205.322	-0.45
205.794	6.2
206.266	-4
206.739	-2.3
207.211	-1.7
207.683	-1.9
208.155	4.75
208.627	3
209.099	2.55
209.57	5.2
210.042	1.35
210.514	4.1
210.986	-1.95
211.458	-0.95
211.93	3.55
212.402	2.4
212.873	2.35
213.345	-1.75
213.817	1.55
214.288	-0.5
214.76	2.75
215.232	3.65
215.703	0.95
216.175	3.5
216.646	5.75
217.118	1.7
217.589	-1.6
218.061	0.8
218.532	-1
219.004	5.05
219.475	8.2
219.946	4.5
220.418	9.15
220.889	5.35
221.36	7.55
221.832	7.25
222.303	3.05
222.774	7.8
223.245	1.8
223.717	0.9
224.188	3.25
224.659	4.3
225.13	-0.1
225.601	5.3
226.072	3.45
226.543	9
227.014	5.45
227.485	7.05
227.956	9.2
228.427	8.9
228.898	8
229.369	5.15
229.839	11
230.31	11.25
230.781	10.45
231.252	9.75
231.722	14.35
232.193	12.2
232.664	12.95
233.135	14.35
233.605	13.5
234.076	16.5
234.546	12.75
235.017	16.55
235.487	17.8
235.958	13.75
236.428	22.9
236.899	17.35
237.369	21.45
237.84	16.65
238.31	20.85
238.78	17
239.251	17.55
239.721	15.85
240.191	20.3
240.662	18.7
241.132	17.35
241.602	22.65
242.072	19.8
242.542	19.95
243.013	22.75
243.483	24.75
243.953	20.05
244.423	22.85
244.893	26.6
245.363	29
245.833	23.3
246.303	20.65
246.773	28.3
247.243	25.9
247.712	29.5
248.182	27.25
248.652	31.75
249.122	30.8
249.592	29.6
250.061	32
250.531	33.55
251.001	33.95
251.471	32.6
251.94	36.25
252.41	34.25
252.879	38.95
253.349	41.1
253.818	37.2
254.288	45.35
254.757	40.95
255.227	37.1
255.696	35.8
256.166	41.1
256.635	42.05
257.105	37.2
257.574	43.4
258.043	41.5
258.513	46.2
258.982	44.25
259.451	45.4
259.92	44.5
260.389	46.45
260.859	45
261.328	48.3
261.797	48.05
262.266	53.7
262.735	53.9
263.204	48.2
263.673	52.85
264.142	47.95
264.611	51.45
265.08	54.25
265.549	55.3
266.018	54.9
266.487	53.5
266.955	54.9
267.424	55.05
267.893	57.45
268.362	55.4
268.83	55.4
269.299	55.55
269.768	59.9
270.236	62.6
270.705	60.9
271.174	66.45
271.642	62.05
272.111	62
272.579	64.4
273.048	69
273.516	71.1
273.985	68.05
274.453	75.2
274.922	68.9
275.39	68.65
275.858	72.8
276.327	73.45
276.795	70
277.263	77.4
277.731	73.35
278.2	81
278.668	78.55
279.136	82.15
279.604	81.05
280.072	74.15
280.54	78.3
281.008	85
281.477	85.95
281.945	80.1
282.413	79.3
282.881	84.2
283.348	83.4
283.816	87.95
284.284	90.25
284.752	85
285.22	88.9
285.688	88.95
286.156	96.05
286.623	91.4
287.091	95.9
287.559	96.5
288.026	99.5
288.494	98.25
288.962	98.8
289.429	97.15
289.897	96.2
290.364	94.55
290.832	100.05
291.3	100
291.767	98.55
292.234	99.3
292.702	100.25
293.169	101.05
293.637	105.05
294.104	107.2
294.571	103.95
295.039	109.25
295.506	106.1
295.973	104.2
296.44	110.05
296.908	115.5
297.375	112.9
297.842	115.05
298.309	111.85
298.776	115.85
299.243	121.25
299.71	114.35
300.177	121.45
300.644	118.3
301.111	122.1
301.578	126.65
302.045	122.5
302.512	125.5
302.979	128.95
303.446	134.5
303.913	131.9
304.379	137
304.846	135.3
305.313	145
305.78	145.85
306.246	145.95
306.713	140.05
307.18	144.2
307.646	151.75
308.113	147.25
308.579	154.2
309.046	154.05
309.512	158.25
309.979	161.25
310.445	156.95
310.912	161.65
311.378	170.4
311.845	166
312.311	162.25
312.777	163.7
313.244	164.55
313.71	174.1
314.176	174.75
314.642	175
315.109	178.15
315.575	181.55
316.041	173.65
316.507	175.7
316.973	183.5
317.439	181.3
317.905	180.85
318.371	185.1
318.837	184.6
319.303	184.5
319.769	187.75
320.235	195.85
320.701	200.75
321.167	195.55
321.633	193.25
322.099	192.2
322.564	195.9
323.03	197.15
323.496	198.2
323.962	200.8
324.427	210.35
324.893	203
325.359	211.45
325.824	209.25
326.29	215.05
326.755	213
327.221	213.5
327.686	225.75
328.152	222.6
328.617	236.45
329.083	232
329.548	230.1
330.014	234.55
330.479	235.5
330.944	241.8
331.41	241.1
331.875	232.85
332.34	233.8
332.805	239.65
333.271	241.5
333.736	245.7
334.201	247.55
334.666	266.85
335.131	261.3
335.596	262.95
336.061	257.55
336.526	256
336.991	247.2
337.456	251.75
337.921	246.9
338.386	249.25
338.851	250.5
339.316	249.2
339.781	250.35
340.246	257.2
340.711	258
341.175	264.3
341.64	271.15
342.105	277.25
342.569	281.05
343.034	278.55
343.499	283.9
343.963	289.55
344.428	286.1
344.893	294.95
345.357	299
345.822	299.05
346.286	302.65
346.751	313.9
347.215	316.45
347.679	323.05
348.144	339.1
348.608	344.95
349.073	346.25
349.537	350.35
350.001	349.25
350.465	352.3
350.93	348.9
351.394	355.5
351.858	356.5
352.322	365.85
352.786	361.85
353.25	362.95
353.715	375.95
354.179	390.1
354.643	394.35
355.107	404.25
355.571	396.15
356.035	385.85
356.498	391.15
356.962	393.05
357.426	393.6
357.89	384.3
358.354	384.5
358.818	383.8
359.281	386.8
359.745	386.55
360.209	384.2
360.673	389.05
361.136	382.4
361.6	391.35
362.064	399.35
362.527	407.45
362.991	401.65
363.454	404.85
363.918	417.35
364.381	415.4
364.845	416.7
365.308	412.6
365.772	418.75
366.235	425
366.698	419.05
367.162	414.4
367.625	425.45
368.088	435.7
368.552	431.6
369.015	428
369.478	432.45
369.941	437.85
370.404	443.2
370.867	431.15
371.331	442.7
371.794	448.05
372.257	452.85
372.72	450.45
373.183	457.65
373.646	454.85
374.109	452.35
374.572	457.75
375.035	467.95
375.497	472.7
375.96	474.75
376.423	481.75
376.886	488.15
377.349	491.25
377.811	497.85
378.274	494.4
378.737	492.75
379.199	505.7
379.662	502.9
380.125	515.95
380.587	515.05
381.05	519.75
381.512	536
381.975	539.85
382.437	550.4
382.9	553.05
383.362	538.6
383.825	560.75
384.287	558.95
384.75	562.55
385.212	563.4
385.674	557.9
386.136	563.6
386.599	564.65
387.061	571.4
387.523	574.05
387.985	571.5
388.447	587.4
388.91	581.65
389.372	586.65
389.834	582.35
390.296	580.1
390.758	584.05
391.22	579.5
391.682	587.2
392.144	593.45
392.606	600.3
393.068	605.75
393.529	639.55
393.991	652.9
394.453	625.25
394.915	608.6
395.377	596.85
395.838	606.1
396.3	602.05
396.762	608.25
397.224	604.8
397.685	606.25
398.147	619.35
398.608	622.3
399.07	623.95
399.531	629.35
399.993	644.3
400.454	653.55
400.916	649.35
401.377	663.85
401.839	668.15
402.3	672.05
402.762	697.2
403.223	749.4
403.684	751.95
404.145	722.35
404.607	705.95
405.068	687.5
405.529	704.95
405.99	715.8
406.451	715.15
406.913	710.35
407.374	720.15
407.835	713.45
408.296	738
408.757	739.45
409.218	751.3
409.679	752.8
410.14	761.1
410.601	787.35
411.062	784.1
411.522	792
411.983	783.35
412.444	797.45
412.905	804.15
413.366	838.3
413.826	876.95
414.287	983.75
414.748	1178.6
415.208	1199.95
415.669	1001.65
416.13	914.45
416.59	891.7
417.051	923.15
417.511	974.35
417.972	1042.5
418.432	1125.05
418.893	1250.65
419.353	1194
419.814	912.2
420.274	814.85
420.734	808.05
421.195	828.85
421.655	819.35
422.115	840.25
422.576	837.75
423.036	846.25
423.496	876.3
423.956	908.85
424.416	967.5
424.876	1094.2
425.336	1099.2
425.797	1075.8
426.257	1054.7
426.717	995.35
427.177	922.4
427.637	934.95
428.097	968.75
428.556	998
429.016	1077.65
429.476	1082.15
429.936	1057.95
430.396	1057.65
430.856	1086.2
431.315	1106.85
431.775	1192.95
432.235	1283.95
432.694	1296.65
433.154	1214.5
433.614	1197.6
434.073	1144.25
434.533	1034.35
434.993	1000.55
435.452	1004.8
435.912	985.9
436.371	976.75
436.83	966.25
437.29	948.8
437.749	924.85
438.209	920.45
438.668	927.05
439.127	948.65
439.587	925.75
440.046	904.5
440.505	927.95
440.964	931.2
441.424	966.95
441.883	979.6
442.342	924.2
442.801	888.2
443.26	903.05
443.719	892
444.178	896.25
444.637	907.6
445.096	918.25
445.555	916.45
446.014	915.5
446.473	907.1
446.932	904.2
447.391	919.3
447.849	933.9
448.308	924.05
448.767	926.2
449.226	949.1
449.685	960.9
450.143	989.7
450.602	1003.95
451.061	941.35
451.519	953.55
451.978	929.5
452.436	929.8
452.895	943.5
453.353	929.9
453.812	912.1
454.27	926.55
454.729	934.8
455.187	937.55
455.646	944.6
456.104	943.8
456.562	954.05
457.021	966.15
457.479	934.1
457.937	956.55
458.395	986
458.854	982.05
459.312	956.25
459.77	969.8
460.228	978.2
460.686	991.65
461.144	994.5
461.602	980.6
462.06	985.4
462.518	1008.7
462.976	1009.5
463.434	1017.05
463.892	1025.75
464.35	1042.8
464.808	1071.4
465.266	1074.85
465.724	1086.8
466.181	1086.5
466.639	1084.1
467.097	1135
467.555	1170.25
468.012	1158.1
468.47	1171.5
468.928	1213
469.385	1239.25
469.843	1242.65
470.3	1236.55
470.758	1284.75
471.215	1301.4
471.673	1331.9
472.13	1376.35
472.588	1400.3
473.045	1388.7
473.503	1416.8
473.96	1477.65
474.417	1489.8
474.875	1554.7
475.332	1610.95
475.789	1630.25
476.246	1680.75
476.704	1747.5
477.161	1789.5
477.618	1849.25
478.075	1942.05
478.532	2082.55
478.989	2238
479.446	2447.85
479.903	2561.35
480.36	2793.1
480.817	2954.25
481.274	3129.45
481.731	3422.2
482.188	3662.9
482.645	3936.95
483.102	4152
483.558	4459.05
484.015	4662.45
484.472	4636.3
484.929	4515.35
485.385	4333.55
485.842	4232.6
486.299	4087.15
486.755	3756.35
487.212	3391.1
487.668	3064.45
488.125	2858.2
488.582	2643.15
489.038	2547
489.494	2464.6
489.951	2399.8
490.407	2330.45
490.864	2290.65
491.32	2242.65
491.776	2234.05
492.233	2238.8
492.689	2200.7
493.145	2154.85
493.602	2131.65
494.058	2162.95
494.514	2154.4
494.97	2153.4
495.426	2190.75
495.882	2177.5
496.338	2176.65
496.794	2194.65
497.251	2194.1
497.707	2204.3
498.163	2213.75
498.618	2211.3
499.074	2202.1
499.53	2227
499.986	2250.15
500.442	2223.15
500.898	2207
501.354	2224.25
501.809	2238.1
502.265	2229.4
502.721	2232.2
503.177	2238.1
503.632	2255.3
504.088	2261.55
504.543	2295.25
504.999	2315.25
505.455	2307.3
505.91	2275.1
506.366	2287.8
506.821	2286.85
507.277	2282
507.732	2287.1
508.187	2284.3
508.643	2307.75
509.098	2313.95
509.553	2333.4
510.009	2362.15
510.464	2402.6
510.919	2425.65
511.375	2450
511.83	2465.2
512.285	2495.2
512.74	2560.8
513.195	2595.65
513.65	2629.25
514.105	2666.6
514.56	2671.55
515.015	2714.05
515.47	2734.6
515.925	2698.55
516.38	2703.8
516.835	2713.8
517.29	2701.35
517.745	2704.35
518.2	2665.45
518.655	2589.8
519.109	2568
519.564	2534.5
520.019	2527.55
520.474	2507.6
520.928	2493.95
521.383	2457.55
521.838	2458.8
522.292	2442.95
522.747	2412.65
523.201	2408.25
523.656	2381.2
524.11	2397.05
524.565	2360.8
525.019	2379
525.474	2370.6
525.928	2348.75
526.382	2357.45
526.837	2357.9
527.291	2365.55
527.745	2350
528.2	2332.95
528.654	2318.1
529.108	2318.9
529.562	2328.9
530.016	2314.6
530.47	2324.6
530.925	2314.9
531.379	2315
531.833	2343.4
532.287	2342.6
532.741	2328.45
533.195	2332
533.649	2344.65
534.103	2338.45
534.556	2326.35
535.01	2319.8
535.464	2318.4
535.918	2325.8
536.372	2329.9
536.826	2330
537.279	2310.25
537.733	2314.3
538.187	2337.35
538.64	2338.1
539.094	2351.6
539.548	2373.15
540.001	2382.6
540.455	2385.85
540.908	2391.85
541.362	2415.6
541.815	2446.35
542.269	2494.55
542.722	2484.6
543.175	2512.05
543.629	2525
544.082	2528.7
544.536	2567.7
544.989	2575.8
545.442	2581.7
545.895	2577.6
546.349	2571.4
546.802	2586.1
547.255	2594.45
547.708	2586.1
548.161	2623.5
548.614	2621.8
549.067	2650.85
549.52	2627.05
549.973	2587.95
550.426	2589.45
550.879	2571.6
551.332	2586.8
551.785	2598.6
552.238	2613.35
552.691	2629.65
553.144	2650.7
553.596	2688.45
554.049	2731.65
554.502	2792.25
554.955	2817.5
555.407	2863.95
555.86	2849.35
556.313	2797.85
556.765	2782.7
557.218	2745.9
557.67	2733.55
558.123	2701.8
558.576	2688.95
559.028	2676.05
559.48	2721.7
559.933	2699.35
560.385	2609.3
560.838	2535.25
561.29	2454.4
561.742	2441.85
562.195	2384.65
562.647	2368.7
563.099	2358.65
563.551	2356.35
564.004	2365.9
564.456	2352.55
564.908	2296.3
565.36	2255.45
565.812	2209
566.264	2183.4
566.716	2161.8
567.168	2111.1
567.62	2124.7
568.072	2120.25
568.524	2087.9
568.976	2077.55
569.428	2058.75
569.88	2071.6
570.332	2086.6
570.784	2080.75
571.235	2073.75
571.687	2077.95
572.139	2092.1
572.59	2119.65
573.042	2135.75
573.494	2129.55
573.945	2086.05
574.397	2048.05
574.849	2038.05
575.3	2034.6
575.752	2014.7
576.203	1992.45
576.655	2023.5
577.106	1967
577.557	1965
578.009	1953.6
578.46	1966.95
578.912	1944.75
579.363	1950.05
579.814	1946.85
580.265	1942.25
580.717	1954.25
581.168	1953.35
581.619	1957.95
582.07	1984
582.521	1976.25
582.972	1954.95
583.423	1980.85
583.875	1976.85
584.326	2000.5
584.777	2038.3
585.227	2066.45
585.678	2112
586.129	2134.35
586.58	2144.4
587.031	2183.8
587.482	2244.6
587.933	2293.5
588.384	2279.8
588.834	2243.4
589.285	2206.1
589.736	2206.2
590.186	2209.15
590.637	2193.65
591.088	2134.65
591.538	2093.1
591.989	2064.55
592.439	2041.2
592.89	2013.75
593.34	2017.35
593.791	2001.05
594.241	1983.45
594.692	1980.45
595.142	1978.35
595.593	1975.9
596.043	1976.75
596.493	2005.95
596.943	1996.9
597.394	2051.8
597.844	2071.85
598.294	2118.3
598.744	2197.15
599.195	2302.4
599.645	2416.2
600.095	2545.7
600.545	2670.9
600.995	2790.25
601.445	2890.1
601.895	3036.85
602.345	3129.3
602.795	3089.6
603.245	2962.95
603.695	2795.3
604.145	2643.35
604.594	2520.75
605.044	2376.05
605.494	2235.2
605.944	2107.45
606.393	2051.65
606.843	2022.7
607.293	2018.75
607.743	2007.7
608.192	2022.25
608.642	2008.45
609.091	2015.3
609.541	2014.1
609.99	2011.65
610.44	1966.55
610.889	1959.15
611.339	1920
611.788	1898.1
612.238	1913.85
612.687	1914.15
613.136	1925.9
613.586	1942.4
614.035	1924.85
614.484	1948.9
614.933	1949.35
615.383	1912.85
615.832	1869.4
616.281	1836.7
616.73	1794.65
617.179	1768.05
617.628	1732.2
618.077	1703.15
618.526	1677.05
618.975	1670.35
619.424	1641.55
619.873	1643.9
620.322	1630.1
620.771	1623.7
621.22	1601.75
621.669	1566.2
622.118	1549.45
622.567	1540.6
623.015	1514.75
623.464	1502.85
623.913	1485.3
624.361	1495.9
624.81	1498.2
625.259	1488.6
625.707	1476.15
626.156	1496.7
626.604	1510.4
627.053	1508.15
627.501	1509.25
627.95	1515.3
628.398	1535.05
628.847	1521.8
629.295	1524.65
629.744	1501.35
630.192	1482.5
630.64	1457.4
631.089	1444.15
631.537	1408.15
631.985	1392.95
632.433	1381.45
632.881	1370.7
633.33	1384.1
633.778	1379.8
634.226	1388.7
634.674	1402.4
635.122	1420.1
635.57	1438.2
636.018	1449.75
636.466	1447.3
636.914	1451.7
637.362	1477.85
637.81	1504.6
638.258	1544.9
638.705	1566.95
639.153	1609.75
639.601	1631.6
640.049	1659.8
640.497	1708.95
640.944	1758.9
641.392	1676.95
641.84	1574.05
642.287	1507.85
642.735	1473.4
643.182	1459.45
643.63	1469.55
644.078	1460.2
644.525	1485.1
644.973	1531.05
645.42	1554.05
645.867	1589.9
646.315	1618.05
646.762	1676.15
647.21	1737.9
647.657	1810.8
648.104	1881.7
648.551	1927.4
648.999	2062.8
649.446	2272.45
649.893	2540.25
650.34	2942.05
650.787	3609.95
651.234	4635.3
651.682	6352.25
652.129	8924.05
652.576	12608.95
653.023	15533.45
653.47	15536.65
653.917	15536.7
654.363	15536.6
654.81	15533.6
655.257	15534.25
655.704	15538.05
656.151	10111.5
656.598	6649.75
657.044	4771.65
657.491	3742.9
657.938	3030.35
658.385	2575.5
658.831	2278.25
659.278	2045.1
659.724	1889.55
660.171	1753.25
660.618	1630.65
661.064	1544.1
661.511	1490.7
661.957	1441.5
662.404	1409.35
662.85	1391.35
663.296	1384.8
663.743	1351.3
664.189	1336.65
664.635	1317.7
665.082	1288.85
665.528	1285.1
665.974	1240
666.42	1226.1
666.867	1208.35
667.313	1155.6
667.759	1142.55
668.205	1143.1
668.651	1138.95
669.097	1131.95
669.543	1141.9
669.989	1150.6
670.435	1153.25
670.881	1167
671.327	1202.7
671.773	1292
672.219	1384.25
672.665	1475.95
673.11	1539.15
673.556	1552.05
674.002	1587
674.448	1611.65
674.893	1377.3
675.339	1197.95
675.785	1101.95
676.23	1047.9
676.676	1005.35
677.122	985
677.567	949.65
678.013	918.95
678.458	918.35
678.904	920.25
679.349	903.2
679.794	899.65
680.24	899.05
680.685	887.3
681.131	894.7
681.576	898.35
682.021	898.55
682.466	905.25
682.912	917.35
683.357	961.25
683.802	1040.25
684.247	1134.75
684.692	1201
685.137	1262.5
685.583	1297.1
686.028	1361.4
686.473	1298.5
686.918	1124.65
687.363	1022.15
687.807	975.05
688.252	929.35
688.697	895.45
689.142	863.6
689.587	873.75
690.032	886.2
690.477	920.5
690.921	961.95
691.366	1014.8
691.811	1053.1
692.255	1145.35
692.7	1387.9
693.145	1981.8
693.589	3026.7
694.034	3645.95
694.478	3908.1
694.923	3601.75
695.367	5190.2
695.812	3141.15
696.256	1311.75
696.701	952.45
697.145	885.35
697.59	849.2
698.034	832.75
698.478	836.25
698.922	830.85
699.367	855.15
699.811	891.25
700.255	977.6
700.699	1062.35
701.143	1147.65
701.588	1219.6
702.032	1272.75
702.476	1304.65
702.92	1397.15
703.364	1819.05
703.808	2776.75
704.252	3490.2
704.696	3705.4
705.14	3531.7
705.584	4914.25
706.027	2704.05
706.471	1344.85
706.915	1000.15
707.359	892.1
707.803	836
708.246	804.55
708.69	794.1
709.134	773.65
709.577	778
710.021	791.45
710.465	790.25
710.908	774.05
711.352	806
711.795	889.3
712.239	963.3
712.682	983.85
713.126	981.7
713.569	1085.15
714.012	889.25
714.456	768.6
714.899	729.7
715.342	696.85
715.786	670.15
716.229	663.85
716.672	634.85
717.115	638.4
717.558	647.1
718.002	663.5
718.445	689.05
718.888	727.15
719.331	748.15
719.774	756.65
720.217	742.7
720.66	708.2
721.103	665.35
721.546	629.65
721.989	618.65
722.432	608.1
722.874	605.3
723.317	610.45
723.76	661
724.203	814.2
724.645	1090.1
725.088	1283.65
725.531	1264.45
725.974	1399.95
726.416	1252.5
726.859	769.2
727.301	631.85
727.744	604.05
728.187	598.1
728.629	617.7
729.071	643.85
729.514	675.8
729.956	700.85
730.399	716.55
730.841	714.15
731.283	700.1
731.726	682.8
732.168	688.5
732.61	726.3
733.053	785.3
733.495	861.65
733.937	962.25
734.379	1143.45
734.821	1454.3
735.263	2292.7
735.705	4126.4
736.148	6077.3
736.59	6146.65
737.032	6765.7
737.474	5595.8
737.916	2103.9
738.357	1107.7
738.799	841.35
739.241	783.85
739.683	783.5
740.125	809.1
740.567	809
741.008	862.05
741.45	910
741.892	936.45
742.334	959.4
742.775	945.3
743.217	913.35
743.658	773.75
744.1	790.4
744.542	896.6
744.983	931.5
745.425	980.2
745.866	960.4
746.307	798.7
746.749	850.45
747.19	1236.5
747.632	2413.5
748.073	4529.55
748.514	6278.25
748.956	8371.6
749.397	9864.5
749.838	6825.05
750.279	6558.95
750.72	3370.45
751.162	1413.85
751.603	807.25
752.044	642.8
752.485	575.45
752.926	541.25
753.367	513.1
753.808	494.75
754.249	492.65
754.69	484.65
755.131	474.15
755.572	480.65
756.013	479.95
756.453	482.45
756.894	483.05
757.335	485.75
757.776	489.1
758.216	511.7
758.657	542.15
759.098	604.45
759.538	731.6
759.979	1052.85
760.42	2119.85
760.86	5445.25
761.301	11299.65
761.741	13351.4
762.182	15264.55
762.622	10126.1
763.063	3555.45
763.503	1452.25
763.943	859
764.384	682.1
764.824	594.35
765.264	540.2
765.705	512.95
766.145	477.7
766.585	468.65
767.025	449.1
767.465	452.3
767.906	461.9
768.346	492.4
768.786	569.5
769.226	826.6
769.666	1663.7
770.106	3765.75
770.546	5403.9
770.986	6205.2
771.426	4705.4
771.866	1917.45
772.306	872.2
772.745	535.05
773.185	455.05
773.625	435.75
774.065	464.35
774.505	647.3
774.944	1150.5
775.384	1650.6
775.824	1871.55
776.263	1550.8
776.703	820.2
777.142	478.5
777.582	367.85
778.021	339.45
778.461	327.75
778.9	318.75
779.34	307.6
779.779	304.25
780.219	293.25
780.658	291.75
781.097	291.9
781.537	275.75
781.976	275.1
782.415	272.25
782.855	278.65
783.294	269.6
783.733	267.7
784.172	275.5
784.611	276.9
785.05	283.15
785.489	293.15
785.928	305.25
786.367	308
786.806	326.75
787.245	352.5
787.684	363.05
788.123	360.5
788.562	349.75
789.001	335.65
789.44	329.3
789.879	326.3
790.317	328.95
790.756	353.25
791.195	400.2
791.634	526
792.072	958.3
792.511	2367.05
792.95	4421.55
793.388	5436.6
793.827	3514.75
794.265	1577.95
794.704	756.85
795.142	464.3
795.581	382.8
796.019	348.45
796.458	350.65
796.896	358.55
797.334	410.15
797.773	553.3
798.211	1050.2
798.649	2189.35
799.087	3746.75
799.526	5289.5
799.964	5493.75
800.402	3804.2
800.84	1693.35
801.278	821.05
801.716	499.2
802.154	402.7
802.592	377.95
803.03	378.95
803.468	388.9
803.906	392.6
804.344	387.05
804.782	372.75
805.22	380.6
805.658	390.1
806.096	416.75
806.533	460.8
806.971	598.65
807.409	866.25
807.847	1728.3
808.284	4426.9
808.722	7788.75
809.16	10986.05
809.597	14563.65
810.035	15538.6
810.472	12104.35
810.91	5103.95
811.347	2260.25
811.785	1069.95
812.222	679.3
812.66	514.3
813.097	439.7
813.535	375.95
813.972	346.85
814.409	314.15
814.846	305.25
815.284	286.15
815.721	295.15
816.158	323.3
816.595	432.85
817.032	543.65
817.47	498.5
817.907	361.7
818.344	315.8
818.781	315.9
819.218	382.85
819.655	569.7
820.092	742.5
820.529	669.95
820.966	528.15
821.403	367.55
821.839	314
822.276	346.25
822.713	411.55
823.15	392.65
823.587	408.45
824.023	721.55
824.46	1807.1
824.897	3212.9
825.333	2523.65
825.77	1141.75
826.206	595.45
826.643	346.25
827.08	258.9
827.516	228.85
827.953	214.95
828.389	201.15
828.825	194.3
829.262	191.4
829.698	178.1
830.135	169
830.571	174.6
831.007	174.55
831.443	170.1
831.88	169.35
832.316	177.1
832.752	176.25
833.188	175.95
833.624	186.3
834.06	182.95
834.497	185.3
834.933	190.05
835.369	202.1
835.805	214.9
836.241	226
836.677	250.75
837.112	288.05
837.548	361.55
837.984	532.8
838.42	1141.8
838.856	3188.65
839.292	6400.4
839.727	4774.6
840.163	3160.65
840.599	4793.8
841.034	7387.5
841.47	3720.9
841.906	1777.1
842.341	936.7
842.777	680.4
843.212	695.65
843.648	443
844.083	305.35
844.519	232.45
844.954	194.7
845.39	168.85
845.825	169.2
846.261	155.45
846.696	157.35
847.131	145.55
847.566	153.65
848.002	153.25
848.437	162.55
848.872	168.2
849.307	211.6
849.742	397.55
850.177	1035.3
850.613	2247.3
851.048	1626.45
851.483	735.15
851.918	405.5
852.353	225.75
852.788	161.2
853.223	145.35
853.657	132.5
854.092	127.95
854.527	129.35
854.962	134
855.397	149.7
855.832	127.25
856.266	112.7
856.701	113.45
857.136	118
857.57	141.15
858.005	175
858.44	149.4
858.874	142.9
859.309	142.8
859.743	139.05
860.178	133.85
860.612	148.8
861.047	197.95
861.481	279.4
861.915	193.7
862.35	143.1
862.784	118.7
863.218	112.55
863.653	117.75
864.087	143.9
864.521	186.25
864.955	306.6
865.39	519
865.824	400.9
866.258	493.3
866.692	757.4
867.126	549.6
867.56	296.65
867.994	187.5
868.428	162.3
868.862	199.05
869.296	184.25
869.73	221.8
870.164	189.1
870.598	175.8
871.031	123.7
871.465	109.35
871.899	88.6
872.333	81.8
872.766	80.45
873.2	82.45
873.634	80.1
874.067	81.25
874.501	86.6
874.935	85.75
875.368	86.35
875.802	80.2
876.235	77.6
876.669	71.3
877.102	65
877.535	64.6
877.969	68.5
878.402	72.3
878.836	71.75
879.269	66.3
879.702	65.85
880.135	62.7
880.569	69.1
881.002	57.85
881.435	66
881.868	64.25
882.301	62.15
882.734	59.7
883.167	66.4
883.601	58.85
884.034	60.7
884.467	54.95
884.899	59.6
885.332	56.25
885.765	55.35
886.198	53.95
886.631	53.3
887.064	55.45
887.497	52.2
887.929	51.15
888.362	51.9
888.795	50.3
889.228	57.35
889.66	51.55
890.093	52.2
890.526	52.15
890.958	53.3
891.391	54.7
891.823	45.6
892.256	46.1
892.688	49.5
893.121	47.6
893.553	52.25
893.985	49.45
894.418	47.2
894.85	54.85
895.282	50.1
895.715	46.8
896.147	43.45
896.579	45.5
897.011	49.5
897.444	45.05
897.876	40.8
898.308	48.9
898.74	50.7
899.172	47.25
899.604	46.4
900.036	47.2
900.468	45.65
900.9	49
901.332	64.1
901.764	63.5
902.196	65.15
902.628	65.4
903.06	96
903.491	104.1
903.923	82.45
904.355	83.2
904.787	85.95
905.218	69.65
905.65	64.05
906.082	60.65
906.513	52.2
906.945	55.35
907.376	57.8
907.808	60.5
908.239	58.8
908.671	67.15
909.102	78.25
909.534	104.4
909.965	203.8
910.397	523.6
910.828	1518.45
911.259	911
911.691	483.3
912.122	280.05
912.553	146.55
912.984	82.05
913.415	69.8
913.847	62.4
914.278	63.55
914.709	52.9
915.14	41.7
915.571	50.35
916.002	48.95
916.433	44.5
916.864	46.95
917.295	52.45
917.726	62
918.157	70
918.587	73
919.018	66.15
919.449	61.55
919.88	76.05
920.311	113.1
920.741	307.7
921.172	557.7
921.603	278.8
922.033	175
922.464	111.75
922.895	69.95
923.325	48.25
923.756	44.95
924.186	57.1
924.617	78.15
925.047	117.95
925.478	105.9
925.908	80.75
926.338	60.35
926.769	47.7
927.199	44.3
927.629	42.1
928.06	43.05
928.49	47.4
928.92	39.5
929.35	35.4
929.78	28.4
930.21	31.85
930.641	24.45
931.071	31.3
931.501	27.5
931.931	20.5
932.361	28.2
932.791	32.1
933.221	29.2
933.651	41.05
934.08	74.35
934.51	44.9
934.94	35.05
935.37	27.55
935.8	22.8
936.229	27.15
936.659	23.15
937.089	43.5
937.519	65.55
937.948	83.9
938.378	54.85
938.807	30
939.237	19.85
939.666	18.75
940.096	16.75
940.525	9.85
940.955	18.6
941.384	12.1
941.814	13.2
942.243	12.05
942.672	12.65
943.102	9.25
943.531	9.8
943.96	10.3
944.39	11.55
944.819	17.6
945.248	11.6
945.677	13.3
946.106	10.1
946.535	12.05
946.964	12.65
947.393	11.7
947.822	10.35
948.251	14.85
948.68	12
949.109	16.25
949.538	13.6
949.967	8.85
950.396	7.75
950.825	12.7
951.254	9.75
951.682	1.5
952.111	5.45
952.54	5.55
952.969	8.2
953.397	3.5
953.826	9.3
954.254	12.9
954.683	8.3
955.112	12.95
955.54	6.65
955.969	4.5
956.397	10.45
956.826	11.4
957.254	8.35
957.682	7
958.111	8.2
958.539	8.2
958.967	11.35
959.396	12.05
959.824	9.5
960.252	8.6
960.68	6.8
961.109	11.8
961.537	18.75
961.965	2.6
962.393	9.15
962.821	9.2
963.249	11.25
963.677	18.1
964.105	92.35
964.533	161.65
964.961	79
965.389	47.55
965.817	25.05
966.245	13.2
966.672	11.7
967.1	6.75
967.528	3.65
967.956	6.9
968.383	9.15
968.811	2.65
969.239	9.65
969.666	8.55
970.094	8.85
970.522	2.9
970.949	7
971.377	3.75
971.804	6.6
972.232	8.95
972.659	3.1
973.087	9.85
973.514	2.8
973.941	5.55
974.369	4.6
974.796	3.55
975.223	4.35
975.651	8.25
976.078	3.8
976.505	13.55
976.932	40.45
977.359	47.75
977.786	30.3
978.214	19.55
978.641	8
979.068	8.25
979.495	3.15
979.922	6.8
980.349	5.15
980.776	9.15
981.202	8.55
981.629	7.95
982.056	9.8
982.483	0.4
982.91	9.45
983.337	3.1
983.763	9.25
984.19	8.4
984.617	4.6
985.043	5.7
985.47	7.85
985.897	9.75
986.323	10.1
986.75	3.1
987.176	4.6
987.603	6
988.029	2.5
988.456	8.9
988.882	6.25
989.308	0.4
989.735	6.3
990.161	4.3
990.587	6.05
991.014	5.1
991.44	9.7
991.866	5.65
992.292	1.65
992.719	2.7
993.145	5.35
993.571	5.1
993.997	6.1
994.423	8.75
994.849	0.35
995.275	1.4
995.701	5.55
996.127	-5.25
996.553	1.95
996.979	1.35
997.405	7.75
997.83	7.1
998.256	3
998.682	4.6
999.108	4.35
999.534	-0.75
999.959	1.3
1000.385	6.45
1000.811	3.1
1001.236	-0.25
1001.662	-1.75
1002.087	4.6
1002.513	1.4
1002.938	-1.45
1003.364	3.35
1003.789	2.65
1004.215	3.15
1004.64	-0.05
1005.066	3.75
1005.491	8.35
1005.916	5.4
1006.342	5
1006.767	3.6
1007.192	3.9
1007.617	4.2
1008.042	7.45
1008.468	6.8
1008.893	8.2
1009.318	11.55
1009.743	17.6
1010.168	26.9
1010.593	26.8
1011.018	19.25
1011.443	10.8
1011.868	9
1012.293	5.75
1012.718	3
1013.143	2.45
1013.567	5.5
1013.992	7.95
1014.417	6.85
1014.842	-1.2
1015.267	0.65
1015.691	4
1016.116	1.05
1016.541	9.1
1016.965	1.05
1017.39	3.2
1017.814	2.2
1018.239	-3.65
1018.663	-1.8
1019.088	-2.45
1019.512	5.25
1019.937	-0.1
1020.361	4.15
1020.785	-2.85
1021.21	-4.2
1021.634	2.45
1022.058	2.5
1022.483	0.9
1022.907	-2.1
1023.331	-1.75
1023.755	0.95
1024.179	-1.65
1024.604	2.6
1025.028	2.7
1025.452	8.8
1025.876	2.65
1026.3	1.9
1026.724	-2.85
1027.148	5.55
1027.572	-1.85
1027.996	4.5
1028.42	-0.3
1028.843	-0.35
1029.267	0.05
1029.691	1.7
1030.115	-0.6
1030.539	-1.5
1030.962	-2.3
1031.386	0.65
1031.81	1.25
1032.233	-2.4
1032.657	-3.65
1033.08	6.9
1033.504	3.3
1033.927	0.9
1034.351	-3.8
1034.774	-2.05
1035.198	-2.95
1035.621	1.65
1036.045	-0.8
1036.468	4.75
1036.891	1.6
1037.315	2.25
1037.738	2.5
1038.161	2.6
1038.584	-1.55
1039.008	-5.3
1039.431	-2.35
1039.854	-4.55
1040.277	4.6
1040.7	-1.65
1041.123	-0.75
1041.546	-4.2
1041.969	1.4
1042.392	3.85
1042.815	-6.8
1043.238	0.85
1043.661	-1
1044.084	-0.1
1044.507	-2.25
1044.93	1
1045.352	-0.55
1045.775	2.2
1046.198	3.1
1046.621	4.85
1047.043	-1.15
1047.466	1.65
1047.889	0.75
1048.311	3.05
1048.734	-1.6
1049.156	-2.65
1049.579	-3.05
1050.001	-0.25
1050.424	-0.3
1050.846	2.2
1051.269	-3.8
1051.691	-1.1
1052.113	1.35
1052.536	1.2
1052.958	-0.35
1053.38	0.1
1053.802	2.45
1054.225	4.45
1054.647	1.55
1055.069	-3.35
1055.491	1.05
1055.913	0.3
1056.335	-10.95
1056.757	-2.7
1057.179	-1.15
1057.601	-2.95
1058.023	1.8
1058.445	-8.2
1058.867	3.4
1059.289	-0.25
1059.711	-1.8
1060.133	0.25
1060.555	-0.9
1060.976	-2.15
1061.398	1.05
1061.82	1.35
1062.241	-3.6
1062.663	2.35
1063.085	-0.2
1063.506	-1.05
1063.928	-2.9
1064.35	1.65
1064.771	-0.55
1065.193	-1.15
1065.614	-2.45
1066.035	0.5
1066.457	3.75
1066.878	1.35
1067.3	-2.3
1067.721	1.3
1068.142	3.5
1068.564	3.1
1068.985	0
1069.406	-2.2
1069.827	-0.1
1070.248	-2.5
1070.67	-7.95
1071.091	-8.5
1071.512	-1.65
1071.933	-0.5
1072.354	-6.35
1072.775	-3.35
1073.196	-2.65
1073.617	-2.7
1074.038	0.2
1074.459	-1.7
1074.88	-0.95
1075.3	-4.35
1075.721	1.3
1076.142	-4.65
1076.563	-6
1076.983	-3.2
1077.404	-3.7
1077.825	-1.35
1078.246	-8.65
1078.666	-5.9
1079.087	-4.55
1079.507	-2.35
1079.928	-1.9
1080.348	-4.05
1080.769	0.2
1081.189	-2.4
1081.61	-7.05
1082.03	-3.5
1082.451	-1.25
1082.871	-2.05
1083.291	-2.65
1083.711	-2.15
1084.132	-4.25
1084.552	-3.2
1084.972	-7.9
1085.392	-3.6
1085.813	-1.95
1086.233	-4.45
1086.653	3.7
1087.073	-1
1087.493	-3.65
1087.913	-6.1
1088.333	-3.1
1088.753	-0.35
1089.173	-1.8
1089.593	0.8
1090.013	-5.65
1090.433	-4.75
1090.852	2.85
1091.272	-8.1
1091.692	0.35
1092.112	-2.9
1092.531	-4.5
1092.951	-3.2
1093.371	-4.2
1093.79	-4.05
1094.21	-1.15
1094.63	-1.9
1095.049	-1.7
1095.469	-9.45
1095.888	0.25
1096.308	-2.65
1096.727	-1.1
1097.146	-4.3
1097.566	-2.55
1097.985	-3.4
1098.405	0.55
1098.824	3.15
1099.243	-1.75
1099.662	-4.35
1100.082	-7.1
1100.501	-3
1100.92	-0.95
1101.339	0.4
1101.758	1.05
