Data from MSPlasma+Separation6_Subt14_10-13-46-534.txt Node
Date: Fri Jul 21 10:13:46 EDT 2017
User: Ender
Spectrometer: HR+D1039
Trigger mode: 0
Integration Time (sec): 6.430000E-3
Scans to average: 20
Electric dark correction enabled: true
Nonlinearity correction enabled: false
Boxcar width: 0
XAxis mode: Wavelengths
Number of Pixels in Spectrum: 2048
>>>>>Begin Spectral Data<<<<<
187.836	4.09
188.309	4.09
188.782	4.09
189.255	4.14
189.728	3.34
190.201	-1.71
190.674	1.59
191.147	-3.41
191.619	-1.96
192.092	4.09
192.565	-2.51
193.038	2.24
193.511	1.59
193.984	-3.16
194.456	-2.76
194.929	-0.81
195.402	-3.61
195.874	-1.16
196.347	5.99
196.82	1.69
197.292	-2.06
197.765	-0.36
198.237	-1.71
198.71	-3.11
199.182	4.99
199.655	4.44
200.127	3.59
200.6	3.09
201.072	-0.56
201.544	-0.36
202.017	5.24
202.489	2.34
202.961	1.84
203.433	-5.26
203.906	-1.21
204.378	2.09
204.85	-1.76
205.322	2.69
205.794	7.54
206.266	1.59
206.739	5.04
207.211	-3.21
207.683	3.54
208.155	0.74
208.627	2.59
209.099	4.54
209.57	0.44
210.042	-0.11
210.514	3.59
210.986	2.39
211.458	-3.11
211.93	0.79
212.402	2.69
212.873	-1.66
213.345	1.04
213.817	3.89
214.288	2.14
214.76	2.49
215.232	-0.56
215.703	-0.76
216.175	1.69
216.646	4.64
217.118	2.69
217.589	2.04
218.061	2.84
218.532	1.74
219.004	4.49
219.475	5.09
219.946	1.84
220.418	7.34
220.889	4.49
221.36	2.99
221.832	2.89
222.303	4.54
222.774	7.89
223.245	-1.36
223.717	2.74
224.188	5.04
224.659	5.34
225.13	4.24
225.601	4.39
226.072	4.99
226.543	5.84
227.014	1.89
227.485	6.69
227.956	11.74
228.427	14.39
228.898	5.04
229.369	8.39
229.839	6.09
230.31	9.64
230.781	9.39
231.252	10.74
231.722	7.94
232.193	7.09
232.664	12.59
233.135	10.74
233.605	12.34
234.076	15.74
234.546	9.54
235.017	9.69
235.487	15.74
235.958	11.44
236.428	18.49
236.899	12.24
237.369	21.09
237.84	16.64
238.31	19.99
238.78	11.19
239.251	15.69
239.721	14.64
240.191	14.94
240.662	19.39
241.132	14.59
241.602	15.74
242.072	18.74
242.542	12.99
243.013	17.89
243.483	22.69
243.953	16.74
244.423	20.84
244.893	19.09
245.363	24.89
245.833	19.29
246.303	22.64
246.773	29.89
247.243	21.94
247.712	25.59
248.182	28.34
248.652	28.84
249.122	28.14
249.592	26.14
250.061	26.19
250.531	23.19
251.001	26.89
251.471	25.64
251.94	29.09
252.41	31.44
252.879	30.29
253.349	35.39
253.818	30.74
254.288	32.19
254.757	33.84
255.227	34.59
255.696	29.34
256.166	36.84
256.635	37.39
257.105	33.34
257.574	37.24
258.043	37.99
258.513	34.79
258.982	36.89
259.451	42.59
259.92	34.09
260.389	41.24
260.859	38.49
261.328	44.64
261.797	39.59
262.266	42.04
262.735	46.29
263.204	43.79
263.673	41.59
264.142	39.89
264.611	45.64
265.08	43.64
265.549	42.44
266.018	49.64
266.487	52.29
266.955	47.69
267.424	49.49
267.893	54.89
268.362	53.74
268.83	48.49
269.299	50.04
269.768	53.44
270.236	52.39
270.705	59.09
271.174	53.54
271.642	51.89
272.111	54.84
272.579	56.84
273.048	55.44
273.516	58.59
273.985	61.04
274.453	58.79
274.922	61.54
275.39	56.59
275.858	59.24
276.327	63.84
276.795	63.14
277.263	67.64
277.731	68.49
278.2	71.59
278.668	62.19
279.136	68.94
279.604	67.84
280.072	64.29
280.54	66.99
281.008	71.64
281.477	71.59
281.945	70.89
282.413	71.69
282.881	73.64
283.348	75.94
283.816	75.89
284.284	77.54
284.752	75.39
285.22	84.19
285.688	77.44
286.156	79.44
286.623	80.99
287.091	77.09
287.559	82.14
288.026	87.84
288.494	85.44
288.962	87.04
289.429	86.64
289.897	86.49
290.364	84.94
290.832	89.09
291.3	87.54
291.767	87.29
292.234	91.84
292.702	96.29
293.169	91.14
293.637	94.59
294.104	96.49
294.571	94.49
295.039	96.29
295.506	90.39
295.973	96.24
296.44	96.79
296.908	103.89
297.375	101.24
297.842	101.19
298.309	96.79
298.776	102.34
299.243	110.09
299.71	109.74
300.177	106.39
300.644	108.09
301.111	109.24
301.578	109.94
302.045	102.54
302.512	105.44
302.979	113.84
303.446	116.74
303.913	116.59
304.379	119.94
304.846	125.19
305.313	128.79
305.78	128.79
306.246	127.99
306.713	129.34
307.18	133.49
307.646	132.84
308.113	139.14
308.579	135.54
309.046	139.99
309.512	135.34
309.979	140.54
310.445	137.04
310.912	148.69
311.378	149.44
311.845	148.79
312.311	149.14
312.777	148.49
313.244	155.04
313.71	151.94
314.176	153.69
314.642	152.84
315.109	160.84
315.575	153.89
316.041	153.19
316.507	153.84
316.973	163.39
317.439	162.34
317.905	166.59
318.371	158.49
318.837	163.19
319.303	163.89
319.769	163.49
320.235	167.99
320.701	177.24
321.167	173.69
321.633	174.34
322.099	169.64
322.564	179.69
323.03	177.39
323.496	175.54
323.962	180.19
324.427	184.99
324.893	183.39
325.359	188.69
325.824	187.64
326.29	192.49
326.755	187.14
327.221	188.29
327.686	197.74
328.152	199.89
328.617	203.54
329.083	204.94
329.548	207.39
330.014	209.14
330.479	210.49
330.944	208.94
331.41	222.49
331.875	206.44
332.34	209.49
332.805	220.84
333.271	216.19
333.736	212.24
334.201	217.59
334.666	234.34
335.131	236.84
335.596	234.79
336.061	227.19
336.526	224.14
336.991	217.19
337.456	214.14
337.921	216.24
338.386	216.94
338.851	218.94
339.316	226.29
339.781	219.69
340.246	223.69
340.711	232.99
341.175	236.89
341.64	240.99
342.105	246.29
342.569	257.29
343.034	245.79
343.499	252.09
343.963	256.39
344.428	255.69
344.893	257.49
345.357	267.04
345.822	262.64
346.286	266.74
346.751	267.29
347.215	279.04
347.679	281.34
348.144	296.19
348.608	304.29
349.073	307.64
349.537	303.34
350.001	311.44
350.465	314.94
350.93	314.19
351.394	318.99
351.858	320.19
352.322	324.54
352.786	324.59
353.25	326.04
353.715	332.14
354.179	352.09
354.643	355.09
355.107	355.99
355.571	351.44
356.035	347.29
356.498	347.14
356.962	346.79
357.426	346.39
357.89	341.14
358.354	338.19
358.818	341.64
359.281	344.64
359.745	338.04
360.209	332.14
360.673	339.09
361.136	341.99
361.6	348.64
362.064	347.84
362.527	367.99
362.991	362.49
363.454	357.94
363.918	368.34
364.381	363.69
364.845	363.69
365.308	365.79
365.772	362.44
366.235	373.14
366.698	369.69
367.162	366.74
367.625	374.74
368.088	383.74
368.552	385.09
369.015	381.14
369.478	383.64
369.941	388.14
370.404	392.29
370.867	385.74
371.331	396.49
371.794	402.24
372.257	397.74
372.72	396.69
373.183	409.04
373.646	405.59
374.109	401.84
374.572	402.49
375.035	411.29
375.497	414.84
375.96	422.99
376.423	431.79
376.886	436.09
377.349	437.84
377.811	441.19
378.274	443.34
378.737	437.39
379.199	446.24
379.662	445.54
380.125	448.39
380.587	461.19
381.05	461.99
381.512	467.44
381.975	478.59
382.437	482.34
382.9	489.64
383.362	484.79
383.825	490.44
384.287	494.09
384.75	489.49
385.212	499.79
385.674	502.79
386.136	511.64
386.599	510.99
387.061	497.44
387.523	506.34
387.985	506.64
388.447	515.49
388.91	510.84
389.372	519.14
389.834	520.09
390.296	513.39
390.758	519.99
391.22	514.39
391.682	520.09
392.144	519.94
392.606	522.84
393.068	538.44
393.529	565.39
393.991	579.24
394.453	547.69
394.915	538.79
395.377	517.44
395.838	525.14
396.3	531.69
396.762	530.64
397.224	534.29
397.685	536.84
398.147	547.04
398.608	546.79
399.07	560.34
399.531	554.14
399.993	574.89
400.454	582.19
400.916	576.29
401.377	591.09
401.839	597.79
402.3	588.94
402.762	617.14
403.223	662.24
403.684	654.34
404.145	630.99
404.607	621.14
405.068	615.24
405.529	620.14
405.99	638.04
406.451	638.29
406.913	629.94
407.374	636.54
407.835	630.94
408.296	639.79
408.757	648.49
409.218	669.29
409.679	671.84
410.14	680.44
410.601	702.19
411.062	699.99
411.522	699.54
411.983	695.34
412.444	701.99
412.905	721.24
413.366	745.24
413.826	785.44
414.287	874.64
414.748	1039.94
415.208	1062.34
415.669	895.44
416.13	812.89
416.59	788.74
417.051	815.99
417.511	856.29
417.972	924.44
418.432	986.89
418.893	1092.69
419.353	1047.44
419.814	814.49
420.274	728.24
420.734	716.49
421.195	736.59
421.655	739.49
422.115	751.39
422.576	745.64
423.036	754.29
423.496	778.79
423.956	808.54
424.416	862.79
424.876	970.44
425.336	965.14
425.797	959.29
426.257	935.84
426.717	883.49
427.177	824.09
427.637	828.69
428.097	865.94
428.556	896.89
429.016	961.04
429.476	955.89
429.936	930.09
430.396	937.64
430.856	965.29
431.315	981.74
431.775	1048.34
432.235	1128.04
432.694	1140.89
433.154	1070.19
433.614	1058.99
434.073	1018.99
434.533	919.39
434.993	883.54
435.452	897.34
435.912	874.04
436.371	870.09
436.83	864.54
437.29	849.29
437.749	826.89
438.209	815.39
438.668	835.39
439.127	851.59
439.587	833.29
440.046	813.84
440.505	840.49
440.964	837.84
441.424	872.79
441.883	888.79
442.342	834.69
442.801	800.34
443.26	803.14
443.719	802.44
444.178	797.29
444.637	807.94
445.096	822.59
445.555	826.14
446.014	824.89
446.473	813.24
446.932	814.79
447.391	823.89
447.849	837.64
448.308	830.04
448.767	831.69
449.226	848.49
449.685	859.89
450.143	895.74
450.602	890.14
451.061	850.49
451.519	864.39
451.978	841.74
452.436	833.99
452.895	849.14
453.353	843.94
453.812	830.74
454.27	835.39
454.729	833.74
455.187	849.84
455.646	852.89
456.104	847.09
456.562	858.39
457.021	867.24
457.479	838.69
457.937	864.69
458.395	884.24
458.854	877.64
459.312	866.84
459.77	878.09
460.228	886.14
460.686	897.84
461.144	907.79
461.602	890.09
462.06	885.44
462.518	906.94
462.976	909.19
463.434	922.14
463.892	928.44
464.35	952.79
464.808	962.69
465.266	977.39
465.724	984.34
466.181	986.89
466.639	979.69
467.097	1015.34
467.555	1061.79
468.012	1048.24
468.47	1067.04
468.928	1108.24
469.385	1131.24
469.843	1137.44
470.3	1127.04
470.758	1162.64
471.215	1178.69
471.673	1204.19
472.13	1241.09
472.588	1262.49
473.045	1255.84
473.503	1265.59
473.96	1333.34
474.417	1349.44
474.875	1406.34
475.332	1457.54
475.789	1479.49
476.246	1513.59
476.704	1577.09
477.161	1624.94
477.618	1667.39
478.075	1743.49
478.532	1873.74
478.989	2009.99
479.446	2201.89
479.903	2312.89
480.36	2501.04
480.817	2631.94
481.274	2803.14
481.731	3048.44
482.188	3247.79
482.645	3482.94
483.102	3664.69
483.558	3907.29
484.015	4061.59
484.472	4049.94
484.929	3940.14
485.385	3778.29
485.842	3714.44
486.299	3570.64
486.755	3298.19
487.212	2996.99
487.668	2710.99
488.125	2534.49
488.582	2379.54
489.038	2280.69
489.494	2224.59
489.951	2158.54
490.407	2108.34
490.864	2080.49
491.32	2035.79
491.776	2022.79
492.233	2022.54
492.689	1993.39
493.145	1961.94
493.602	1940.44
494.058	1961.29
494.514	1954.14
494.97	1967.09
495.426	1995.84
495.882	1985.69
496.338	1986.59
496.794	2007.44
497.251	1994.94
497.707	2022.49
498.163	2023.74
498.618	2026.94
499.074	2012.59
499.53	2036.34
499.986	2049.04
500.442	2024.09
500.898	2013.19
501.354	2024.29
501.809	2036.39
502.265	2035.79
502.721	2033.99
503.177	2040.59
503.632	2053.99
504.088	2050.29
504.543	2085.84
504.999	2106.39
505.455	2097.44
505.91	2074.54
506.366	2085.89
506.821	2084.89
507.277	2078.54
507.732	2095.09
508.187	2087.24
508.643	2104.74
509.098	2113.54
509.553	2128.99
510.009	2156.64
510.464	2201.19
510.919	2207.34
511.375	2237.99
511.83	2259.74
512.285	2288.19
512.74	2337.99
513.195	2368.89
513.65	2406.39
514.105	2428.34
514.56	2445.74
515.015	2478.49
515.47	2489.59
515.925	2459.24
516.38	2478.34
516.835	2470.89
517.29	2456.24
517.745	2459.59
518.2	2419.39
518.655	2377.74
519.109	2351.69
519.564	2315.64
520.019	2306.59
520.474	2292.59
520.928	2277.04
521.383	2253.44
521.838	2241.64
522.292	2226.89
522.747	2208.34
523.201	2204.94
523.656	2181.39
524.11	2168.89
524.565	2167.54
525.019	2177.04
525.474	2167.19
525.928	2157.04
526.382	2165.64
526.837	2159.19
527.291	2176.69
527.745	2162.54
528.2	2156.44
528.654	2131.19
529.108	2137.09
529.562	2139.54
530.016	2141.84
530.47	2146.64
530.925	2136.34
531.379	2137.19
531.833	2166.84
532.287	2146.74
532.741	2144.64
533.195	2147.54
533.649	2161.04
534.103	2163.64
534.556	2140.39
535.01	2148.99
535.464	2139.49
535.918	2146.04
536.372	2152.39
536.826	2145.49
537.279	2127.39
537.733	2132.54
538.187	2142.89
538.64	2144.04
539.094	2157.04
539.548	2179.24
540.001	2172.04
540.455	2185.79
540.908	2199.24
541.362	2213.19
541.815	2228.39
542.269	2278.09
542.722	2276.04
543.175	2306.19
543.629	2292.14
544.082	2316.54
544.536	2353.49
544.989	2349.64
545.442	2368.79
545.895	2381.14
546.349	2352.69
546.802	2374.89
547.255	2363.24
547.708	2382.94
548.161	2411.89
548.614	2413.49
549.067	2412.19
549.52	2411.14
549.973	2372.29
550.426	2368.14
550.879	2365.59
551.332	2362.04
551.785	2396.34
552.238	2415.14
552.691	2405.04
553.144	2457.64
553.596	2497.89
554.049	2507.09
554.502	2566.04
554.955	2600.84
555.407	2633.74
555.86	2604.59
556.313	2570.99
556.765	2548.79
557.218	2517.49
557.67	2516.74
558.123	2483.84
558.576	2476.14
559.028	2478.04
559.48	2497.84
559.933	2489.59
560.385	2413.49
560.838	2321.54
561.29	2267.44
561.742	2257.99
562.195	2206.94
562.647	2177.54
563.099	2177.64
563.551	2164.24
564.004	2177.84
564.456	2164.59
564.908	2114.99
565.36	2079.09
565.812	2039.34
566.264	2011.04
566.716	1985.34
567.168	1951.29
567.62	1953.74
568.072	1943.09
568.524	1932.84
568.976	1924.49
569.428	1904.59
569.88	1897.34
570.332	1918.74
570.784	1916.54
571.235	1910.59
571.687	1934.09
572.139	1936.14
572.59	1955.99
573.042	1955.04
573.494	1963.19
573.945	1937.89
574.397	1898.09
574.849	1878.14
575.3	1894.44
575.752	1858.94
576.203	1846.34
576.655	1855.79
577.106	1826.69
577.557	1825.94
578.009	1792.94
578.46	1816.04
578.912	1799.74
579.363	1807.69
579.814	1800.44
580.265	1808.79
580.717	1809.54
581.168	1813.74
581.619	1814.34
582.07	1826.49
582.521	1810.24
582.972	1810.79
583.423	1823.59
583.875	1837.19
584.326	1841.04
584.777	1860.59
585.227	1892.29
585.678	1931.34
586.129	1945.09
586.58	1959.99
587.031	1995.84
587.482	2034.14
587.933	2069.14
588.384	2059.54
588.834	2043.69
589.285	2032.14
589.736	2030.54
590.186	2034.49
590.637	2017.84
591.088	1965.69
591.538	1939.29
591.989	1898.54
592.439	1880.24
592.89	1879.59
593.34	1856.64
593.791	1848.84
594.241	1838.64
594.692	1831.09
595.142	1824.09
595.593	1820.89
596.043	1844.49
596.493	1863.39
596.943	1847.59
597.394	1893.94
597.844	1922.54
598.294	1962.44
598.744	2023.89
599.195	2117.49
599.645	2229.34
600.095	2338.39
600.545	2458.94
600.995	2561.99
601.445	2661.69
601.895	2784.74
602.345	2853.29
602.795	2827.59
603.245	2720.19
603.695	2565.04
604.145	2435.19
604.594	2322.04
605.044	2197.09
605.494	2065.09
605.944	1958.64
606.393	1909.59
606.843	1874.09
607.293	1866.29
607.743	1864.54
608.192	1872.24
608.642	1871.24
609.091	1869.14
609.541	1858.74
609.99	1856.04
610.44	1826.44
610.889	1804.09
611.339	1769.89
611.788	1753.84
612.238	1778.59
612.687	1767.59
613.136	1787.89
613.586	1813.54
614.035	1799.59
614.484	1815.89
614.933	1816.49
615.383	1768.49
615.832	1729.44
616.281	1713.04
616.73	1673.29
617.179	1642.09
617.628	1600.89
618.077	1579.09
618.526	1554.39
618.975	1549.54
619.424	1510.24
619.873	1529.14
620.322	1509.24
620.771	1506.54
621.22	1486.34
621.669	1461.39
622.118	1445.19
622.567	1433.14
623.015	1403.19
623.464	1406.14
623.913	1376.24
624.361	1380.64
624.81	1369.59
625.259	1377.69
625.707	1375.19
626.156	1379.64
626.604	1395.19
627.053	1405.49
627.501	1402.34
627.95	1404.14
628.398	1426.99
628.847	1402.79
629.295	1399.69
629.744	1395.49
630.192	1363.44
630.64	1344.94
631.089	1332.54
631.537	1302.74
631.985	1287.19
632.433	1276.34
632.881	1273.34
633.33	1275.44
633.778	1277.84
634.226	1294.79
634.674	1295.19
635.122	1304.14
635.57	1324.94
636.018	1348.29
636.466	1345.89
636.914	1348.64
637.362	1362.59
637.81	1402.49
638.258	1430.19
638.705	1442.14
639.153	1495.09
639.601	1509.39
640.049	1524.84
640.497	1577.34
640.944	1612.69
641.392	1553.54
641.84	1467.94
642.287	1402.44
642.735	1371.89
643.182	1358.84
643.63	1361.99
644.078	1363.44
644.525	1385.39
644.973	1425.49
645.42	1444.19
645.867	1473.69
646.315	1504.69
646.762	1563.29
647.21	1606.44
647.657	1688.04
648.104	1730.59
648.551	1783.29
648.999	1905.89
649.446	2071.54
649.893	2303.49
650.34	2667.24
650.787	3260.59
651.234	4172.74
651.682	5689.14
652.129	7969.59
652.576	11251.39
653.023	14697.59
653.47	15533.79
653.917	15533.84
654.363	15533.74
654.81	15530.74
655.257	15531.39
655.704	14562.59
656.151	8892.19
656.598	5892.74
657.044	4236.29
657.491	3341.79
657.938	2733.64
658.385	2319.64
658.831	2072.09
659.278	1860.94
659.724	1720.14
660.171	1604.54
660.618	1496.29
661.064	1423.34
661.511	1371.44
661.957	1323.54
662.404	1306.99
662.85	1291.44
663.296	1278.09
663.743	1249.14
664.189	1239.84
664.635	1224.64
665.082	1195.29
665.528	1180.59
665.974	1152.04
666.42	1135.99
666.867	1122.19
667.313	1074.04
667.759	1054.34
668.205	1053.34
668.651	1061.04
669.097	1052.34
669.543	1055.99
669.989	1069.79
670.435	1073.74
670.881	1092.24
671.327	1125.39
671.773	1196.64
672.219	1289.14
672.665	1368.14
673.11	1413.89
673.556	1439.44
674.002	1466.89
674.448	1479.49
674.893	1270.89
675.339	1121.19
675.785	1023.19
676.23	971.14
676.676	932.69
677.122	912.14
677.567	881.64
678.013	853.19
678.458	849.54
678.904	852.19
679.349	841.09
679.794	837.59
680.24	832.09
680.685	828.74
681.131	828.44
681.576	828.99
682.021	834.19
682.466	839.79
682.912	846.59
683.357	890.94
683.802	959.44
684.247	1057.24
684.692	1114.59
685.137	1164.24
685.583	1190.09
686.028	1257.04
686.473	1195.69
686.918	1037.49
687.363	951.39
687.807	906.59
688.252	860.19
688.697	825.29
689.142	803.04
689.587	809.19
690.032	827.04
690.477	855.44
690.921	893.09
691.366	939.34
691.811	980.14
692.255	1061.64
692.7	1275.34
693.145	1833.24
693.589	2785.69
694.034	3327.54
694.478	3568.89
694.923	3276.69
695.367	4649.19
695.812	2840.59
696.256	1208.39
696.701	882.29
697.145	810.94
697.59	780.39
698.034	773.14
698.478	764.59
698.922	772.69
699.367	789.74
699.811	827.54
700.255	898.04
700.699	972.84
701.143	1059.84
701.588	1122.59
702.032	1174.79
702.476	1200.09
702.92	1294.24
703.364	1667.19
703.808	2550.34
704.252	3185.74
704.696	3394.99
705.14	3199.64
705.584	4409.64
706.027	2457.34
706.471	1226.84
706.915	926.69
707.359	828.04
707.803	767.19
708.246	739.19
708.69	737.54
709.134	725.69
709.577	718.34
710.021	732.89
710.465	728.79
710.908	722.69
711.352	753.59
711.795	822.94
712.239	892.74
712.682	906.69
713.126	903.79
713.569	999.69
714.012	828.44
714.456	719.24
714.899	680.44
715.342	643.24
715.786	629.59
716.229	605.69
716.672	594.84
717.115	592.19
717.558	600.39
718.002	616.04
718.445	639.44
718.888	674.44
719.331	688.04
719.774	696.74
720.217	688.24
720.66	656.49
721.103	616.34
721.546	590.09
721.989	572.79
722.432	569.84
722.874	559.44
723.317	570.29
723.76	615.74
724.203	756.99
724.645	1001.74
725.088	1177.84
725.531	1164.49
725.974	1270.89
726.416	1147.24
726.859	710.99
727.301	583.99
727.744	554.39
728.187	560.69
728.629	567.54
729.071	598.94
729.514	622.79
729.956	652.99
730.399	660.74
730.841	661.29
731.283	649.14
731.726	635.79
732.168	641.24
732.61	668.99
733.053	719.64
733.495	800.19
733.937	887.74
734.379	1049.34
734.821	1332.59
735.263	2102.24
735.705	3764.29
736.148	5557.44
736.59	5604.84
737.032	6104.74
737.474	5048.89
737.916	1935.39
738.357	1013.49
738.799	789.54
739.241	727.14
739.683	729.84
740.125	757.99
740.567	765.84
741.008	812.79
741.45	849.04
741.892	895.79
742.334	904.14
742.775	901.74
743.217	859.24
743.658	726.94
744.1	750.19
744.542	861.74
744.983	913.89
745.425	941.89
745.866	914.99
746.307	754.99
746.749	787.09
747.19	1146.94
747.632	2210.69
748.073	4093.24
748.514	5711.54
748.956	7565.69
749.397	8911.14
749.838	6189.74
750.279	5886.39
750.72	3043.14
751.162	1294.69
751.603	753.74
752.044	595.39
752.485	526.79
752.926	498.44
753.367	476.69
753.808	462.54
754.249	459.29
754.69	452.84
755.131	441.59
755.572	447.14
756.013	444.54
756.453	444.19
756.894	453.29
757.335	454.69
757.776	458.19
758.216	473.04
758.657	502.59
759.098	553.89
759.538	672.39
759.979	969.69
760.42	1931.74
760.86	4954.29
761.301	10231.39
761.741	12208.74
762.182	13991.34
762.622	9147.99
763.063	3255.84
763.503	1327.59
763.943	784.29
764.384	620.99
764.824	538.14
765.264	496.14
765.705	466.34
766.145	439.29
766.585	429.44
767.025	411.39
767.465	417.39
767.906	423.54
768.346	450.09
768.786	522.09
769.226	759.59
769.666	1525.59
770.106	3398.74
770.546	4908.69
770.986	5554.64
771.426	4222.54
771.866	1760.29
772.306	794.59
772.745	499.34
773.185	422.94
773.625	406.99
774.065	440.39
774.505	631.19
774.944	1154.64
775.384	1658.69
775.824	1874.49
776.263	1551.19
776.703	812.64
777.142	465.09
777.582	345.34
778.021	320.49
778.461	293.34
778.9	301.24
779.34	282.49
779.779	284.79
780.219	276.49
780.658	275.19
781.097	262.04
781.537	261.09
781.976	256.04
782.415	253.44
782.855	259.09
783.294	251.69
783.733	251.24
784.172	256.24
784.611	255.44
785.05	264.99
785.489	272.04
785.928	275.94
786.367	289.69
786.806	304.39
787.245	321.49
787.684	331.34
788.123	339.54
788.562	325.24
789.001	309.14
789.44	302.89
789.879	300.29
790.317	307.04
790.756	318.94
791.195	365.09
791.634	494.24
792.072	877.34
792.511	2159.79
792.95	4020.79
793.388	4883.54
793.827	3181.49
794.265	1451.29
794.704	700.34
795.142	429.09
795.581	351.49
796.019	324.69
796.458	322.54
796.896	335.74
797.334	382.94
797.773	508.59
798.211	961.54
798.649	1989.54
799.087	3368.74
799.526	4778.49
799.964	4942.34
800.402	3426.64
800.84	1538.94
801.278	754.69
801.716	464.39
802.154	377.34
802.592	344.24
803.03	351.29
803.468	364.34
803.906	358.74
804.344	356.34
804.782	344.29
805.22	352.19
805.658	363.59
806.096	379.69
806.533	432.74
806.971	548.99
807.409	793.49
807.847	1566.64
808.284	3997.74
808.722	7055.94
809.16	9909.94
809.597	13297.89
810.035	15535.74
810.472	10990.29
810.91	4634.74
811.347	2084.34
811.785	977.84
812.222	620.59
812.66	474.19
813.097	410.69
813.535	358.94
813.972	315.99
814.409	294.24
814.846	282.84
815.284	271.14
815.721	279.94
816.158	307.09
816.595	410.44
817.032	532.84
817.47	486.99
817.907	346.09
818.344	299.84
818.781	293.89
819.218	366.84
819.655	558.59
820.092	748.74
820.529	676.34
820.966	525.79
821.403	356.79
821.839	303.79
822.276	344.54
822.713	405.14
823.15	375.69
823.587	384.19
824.023	651.54
824.46	1639.64
824.897	2889.04
825.333	2280.49
825.77	1039.04
826.206	548.54
826.643	323.89
827.08	242.19
827.516	211.04
827.953	196.59
828.389	184.19
828.825	179.54
829.262	173.54
829.698	166.14
830.135	157.59
830.571	153.19
831.007	162.54
831.443	154.64
831.88	157.39
832.316	165.79
832.752	163.99
833.188	166.59
833.624	168.89
834.06	173.34
834.497	170.49
834.933	176.99
835.369	190.99
835.805	195.79
836.241	210.29
836.677	230.74
837.112	268.84
837.548	330.14
837.984	483.49
838.42	1040.14
838.856	2877.19
839.292	5728.99
839.727	4313.94
840.163	2859.39
840.599	4335.84
841.034	6683.89
841.47	3379.84
841.906	1616.14
842.341	867.44
842.777	646.99
843.212	682.74
843.648	423.39
844.083	288.49
844.519	214.74
844.954	184.34
845.39	166.34
845.825	151.54
846.261	144.39
846.696	145.94
847.131	139.54
847.566	138.39
848.002	143.04
848.437	153.69
848.872	160.09
849.307	198.24
849.742	359.59
850.177	932.54
850.613	2006.44
851.048	1472.59
851.483	671.34
851.918	373.84
852.353	201.59
852.788	145.44
853.223	136.54
853.657	122.04
854.092	117.49
854.527	113.09
854.962	127.04
855.397	140.54
855.832	117.74
856.266	107.79
856.701	109.79
857.136	112.14
857.57	136.19
858.005	169.49
858.44	141.99
858.874	136.99
859.309	126.59
859.743	131.24
860.178	126.49
860.612	137.94
861.047	191.59
861.481	276.34
861.915	186.79
862.35	136.14
862.784	110.69
863.218	104.09
863.653	113.09
864.087	134.29
864.521	165.54
864.955	281.19
865.39	482.59
865.824	377.99
866.258	491.99
866.692	763.24
867.126	549.29
867.56	296.89
867.994	186.89
868.428	157.14
868.862	192.24
869.296	181.94
869.73	220.79
870.164	186.84
870.598	167.34
871.031	121.24
871.465	106.94
871.899	82.19
872.333	74.04
872.766	74.74
873.2	77.54
873.634	74.64
874.067	75.24
874.501	80.09
874.935	77.84
875.368	82.19
875.802	73.89
876.235	68.29
876.669	65.39
877.102	65.19
877.535	62.49
877.969	63.49
878.402	68.69
878.836	62.54
879.269	61.34
879.702	59.49
880.135	67.84
880.569	69.04
881.002	58.29
881.435	58.34
881.868	60.04
882.301	58.34
882.734	55.04
883.167	57.69
883.601	55.44
884.034	54.24
884.467	52.44
884.899	53.19
885.332	45.69
885.765	49.54
886.198	51.09
886.631	52.69
887.064	48.79
887.497	49.84
887.929	48.04
888.362	49.39
888.795	44.94
889.228	54.14
889.66	45.29
890.093	45.09
890.526	44.39
890.958	48.74
891.391	49.89
891.823	45.34
892.256	47.54
892.688	48.39
893.121	43.79
893.553	49.04
893.985	43.74
894.418	45.59
894.85	43.49
895.282	44.74
895.715	42.14
896.147	36.54
896.579	37.69
897.011	46.04
897.444	43.84
897.876	37.39
898.308	39.74
898.74	43.59
899.172	48.99
899.604	43.14
900.036	45.19
900.468	41.39
900.9	54.14
901.332	62.19
901.764	62.79
902.196	58.49
902.628	60.49
903.06	92.19
903.491	92.69
903.923	77.59
904.355	75.64
904.787	86.29
905.218	62.84
905.65	57.74
906.082	58.29
906.513	56.64
906.945	53.84
907.376	47.19
907.808	55.49
908.239	57.09
908.671	60.74
909.102	67.24
909.534	95.34
909.965	183.79
910.397	468.59
910.828	1351.34
911.259	835.64
911.691	443.94
912.122	255.14
912.553	130.19
912.984	73.24
913.415	66.09
913.847	58.49
914.278	55.69
914.709	45.94
915.14	44.89
915.571	46.39
916.002	48.34
916.433	43.74
916.864	41.44
917.295	47.44
917.726	54.49
918.157	70.89
918.587	66.59
919.018	63.39
919.449	59.04
919.88	71.59
920.311	106.49
920.741	280.79
921.172	494.69
921.603	253.79
922.033	161.84
922.464	103.44
922.895	67.44
923.325	50.59
923.756	41.79
924.186	52.54
924.617	82.64
925.047	116.64
925.478	108.89
925.908	73.79
926.338	58.84
926.769	45.89
927.199	45.34
927.629	38.59
928.06	44.64
928.49	42.64
928.92	35.19
929.35	33.94
929.78	29.44
930.21	24.44
930.641	20.74
931.071	25.59
931.501	19.34
931.931	21.44
932.361	27.89
932.791	34.04
933.221	25.24
933.651	42.89
934.08	67.44
934.51	45.04
934.94	36.69
935.37	25.19
935.8	20.89
936.229	20.99
936.659	24.09
937.089	43.04
937.519	62.99
937.948	86.79
938.378	49.79
938.807	27.49
939.237	23.09
939.666	19.39
940.096	9.69
940.525	11.79
940.955	14.24
941.384	13.59
941.814	11.99
942.243	10.69
942.672	7.94
943.102	10.54
943.531	9.74
943.96	10.69
944.39	13.69
944.819	15.24
945.248	11.29
945.677	12.29
946.106	11.19
946.535	12.34
946.964	11.39
947.393	10.04
947.822	11.99
948.251	13.64
948.68	15.14
949.109	11.99
949.538	7.94
949.967	13.24
950.396	7.59
950.825	11.79
951.254	10.54
951.682	3.74
952.111	5.89
952.54	9.24
952.969	11.04
953.397	6.14
953.826	5.34
954.254	13.74
954.683	10.74
955.112	11.89
955.54	6.59
955.969	7.49
956.397	9.09
956.826	7.89
957.254	9.29
957.682	10.59
958.111	9.34
958.539	10.39
958.967	10.04
959.396	10.29
959.824	8.94
960.252	9.49
960.68	4.99
961.109	4.39
961.537	9.74
961.965	7.14
962.393	8.69
962.821	9.39
963.249	13.24
963.677	13.99
964.105	85.69
964.533	141.34
964.961	75.14
965.389	43.74
965.817	22.19
966.245	10.64
966.672	9.89
967.1	10.59
967.528	8.94
967.956	5.29
968.383	9.79
968.811	5.54
969.239	5.24
969.666	6.24
970.094	5.99
970.522	1.89
970.949	8.69
971.377	3.64
971.804	2.09
972.232	5.24
972.659	2.54
973.087	7.14
973.514	2.99
973.941	-0.26
974.369	2.54
974.796	6.89
975.223	2.34
975.651	12.89
976.078	7.64
976.505	13.69
976.932	35.39
977.359	47.44
977.786	24.99
978.214	16.74
978.641	8.34
979.068	4.09
979.495	3.24
979.922	5.09
980.349	7.64
980.776	5.79
981.202	3.59
981.629	6.39
982.056	4.84
982.483	3.54
982.91	8.84
983.337	1.94
983.763	5.34
984.19	8.09
984.617	-1.81
985.043	7.74
985.47	6.44
985.897	6.34
986.323	8.54
986.75	3.39
987.176	3.49
987.603	3.59
988.029	4.89
988.456	8.04
988.882	1.14
989.308	4.99
989.735	6.49
990.161	5.19
990.587	3.09
991.014	5.29
991.44	4.19
991.866	3.04
992.292	5.09
992.719	4.59
993.145	5.54
993.571	8.49
993.997	11.79
994.423	8.49
994.849	1.69
995.275	0.99
995.701	4.24
996.127	2.44
996.553	6.44
996.979	4.99
997.405	8.54
997.83	3.39
998.256	3.64
998.682	3.89
999.108	2.99
999.534	-5.36
999.959	1.24
1000.385	7.69
1000.811	1.84
1001.236	-0.76
1001.662	2.74
1002.087	6.69
1002.513	3.39
1002.938	-0.56
1003.364	4.44
1003.789	3.29
1004.215	1.04
1004.64	3.29
1005.066	3.59
1005.491	5.34
1005.916	4.19
1006.342	4.59
1006.767	5.99
1007.192	7.44
1007.617	1.79
1008.042	-1.06
1008.468	1.34
1008.893	7.34
1009.318	14.89
1009.743	21.54
1010.168	31.44
1010.593	29.34
1011.018	15.79
1011.443	11.84
1011.868	12.49
1012.293	3.39
1012.718	3.24
1013.143	4.44
1013.567	6.49
1013.992	8.04
1014.417	3.39
1014.842	2.29
1015.267	4.59
1015.691	9.79
1016.116	3.69
1016.541	2.04
1016.965	2.89
1017.39	3.94
1017.814	3.14
1018.239	0.19
1018.663	-5.76
1019.088	-0.26
1019.512	3.69
1019.937	-1.91
1020.361	1.49
1020.785	2.64
1021.21	-8.96
1021.634	2.99
1022.058	2.14
1022.483	-4.36
1022.907	0.69
1023.331	1.19
1023.755	1.59
1024.179	2.64
1024.604	0.94
1025.028	4.39
1025.452	1.44
1025.876	1.29
1026.3	-2.16
1026.724	-4.66
1027.148	4.24
1027.572	-2.56
1027.996	3.19
1028.42	2.04
1028.843	3.84
1029.267	2.64
1029.691	3.79
1030.115	-1.76
1030.539	2.89
1030.962	0.04
1031.386	-2.46
1031.81	-4.21
1032.233	-0.81
1032.657	-8.76
1033.08	1.44
1033.504	-3.56
1033.927	1.79
1034.351	-1.46
1034.774	0.19
1035.198	-0.01
1035.621	2.79
1036.045	-0.96
1036.468	3.74
1036.891	-1.16
1037.315	3.84
1037.738	0.79
1038.161	2.99
1038.584	4.19
1039.008	-6.46
1039.431	-0.76
1039.854	-3.91
1040.277	5.89
1040.7	-0.51
1041.123	-1.21
1041.546	-0.51
1041.969	2.04
1042.392	3.59
1042.815	-10.01
1043.238	-1.41
1043.661	-0.66
1044.084	-0.46
1044.507	-1.81
1044.93	-1.91
1045.352	1.54
1045.775	1.44
1046.198	1.54
1046.621	5.19
1047.043	-1.71
1047.466	5.49
1047.889	1.64
1048.311	5.64
1048.734	-3.26
1049.156	-1.36
1049.579	-1.06
1050.001	-4.56
1050.424	1.54
1050.846	-0.76
1051.269	-7.01
1051.691	2.94
1052.113	1.94
1052.536	-2.11
1052.958	-5.91
1053.38	-2.91
1053.802	2.04
1054.225	1.39
1054.647	3.19
1055.069	0.64
1055.491	0.74
1055.913	2.44
1056.335	-9.36
1056.757	-6.51
1057.179	-1.01
1057.601	-1.06
1058.023	3.79
1058.445	-2.06
1058.867	3.89
1059.289	0.14
1059.711	-6.66
1060.133	-1.91
1060.555	-5.71
1060.976	2.74
1061.398	-2.46
1061.82	1.14
1062.241	-3.31
1062.663	-1.31
1063.085	-4.66
1063.506	-3.21
1063.928	-0.96
1064.35	1.14
1064.771	-1.81
1065.193	-5.51
1065.614	-3.36
1066.035	3.29
1066.457	6.29
1066.878	-0.26
1067.3	2.49
1067.721	-1.21
1068.142	3.34
1068.564	1.89
1068.985	-3.81
1069.406	-4.16
1069.827	-4.36
1070.248	-4.01
1070.67	-2.11
1071.091	-5.86
1071.512	-1.61
1071.933	-3.56
1072.354	-9.86
1072.775	-0.76
1073.196	2.64
1073.617	-5.41
1074.038	-3.66
1074.459	-8.31
1074.88	-3.26
1075.3	-0.81
1075.721	0.64
1076.142	-1.36
1076.563	-4.91
1076.983	0.59
1077.404	-4.51
1077.825	2.39
1078.246	-1.46
1078.666	-5.31
1079.087	-3.26
1079.507	-5.71
1079.928	-1.91
1080.348	-0.61
1080.769	-1.91
1081.189	-0.71
1081.61	-6.91
1082.03	0.44
1082.451	-1.76
1082.871	-2.66
1083.291	-2.16
1083.711	-2.01
1084.132	-3.26
1084.552	-5.41
1084.972	-4.51
1085.392	-1.16
1085.813	1.29
1086.233	-3.86
1086.653	-1.31
1087.073	-5.06
1087.493	-4.96
1087.913	-5.56
1088.333	-4.81
1088.753	-3.81
1089.173	4.34
1089.593	-0.96
1090.013	-4.11
1090.433	-9.01
1090.852	0.69
1091.272	-7.36
1091.692	-0.41
1092.112	-4.31
1092.531	-2.31
1092.951	-4.21
1093.371	-4.81
1093.79	-0.51
1094.21	-5.31
1094.63	-3.41
1095.049	1.09
1095.469	-6.76
1095.888	-2.36
1096.308	-2.31
1096.727	-3.06
1097.146	-7.76
1097.566	-1.56
1097.985	-1.86
1098.405	-2.86
1098.824	-1.81
1099.243	-4.26
1099.662	-4.66
1100.082	-4.91
1100.501	-3.56
1100.92	2.04
1101.339	-0.71
1101.758	-1.06
