Data from MSPlasma+Separation6_Subt14_10-13-36-247.txt Node
Date: Fri Jul 21 10:13:36 EDT 2017
User: Ender
Spectrometer: HR+D1039
Trigger mode: 0
Integration Time (sec): 6.430000E-3
Scans to average: 20
Electric dark correction enabled: true
Nonlinearity correction enabled: false
Boxcar width: 0
XAxis mode: Wavelengths
Number of Pixels in Spectrum: 2048
>>>>>Begin Spectral Data<<<<<
187.836	-2.24
188.309	-2.24
188.782	-2.24
189.255	1.36
189.728	2.41
190.201	-3.69
190.674	-1.14
191.147	-3.44
191.619	-0.59
192.092	-0.39
192.565	2.71
193.038	-0.39
193.511	4.71
193.984	0.21
194.456	1.46
194.929	0.21
195.402	-1.09
195.874	-0.04
196.347	-1.09
196.82	-1.24
197.292	-4.14
197.765	-2.39
198.237	-1.34
198.71	-6.74
199.182	-2.04
199.655	3.31
200.127	-1.59
200.6	-0.39
201.072	-1.19
201.544	-2.84
202.017	-2.49
202.489	-1.54
202.961	-3.39
203.433	-1.49
203.906	-1.69
204.378	2.46
204.85	-1.39
205.322	-0.74
205.794	1.26
206.266	-6.49
206.739	2.06
207.211	-0.94
207.683	-0.69
208.155	1.36
208.627	1.91
209.099	5.01
209.57	2.51
210.042	1.21
210.514	3.86
210.986	0.36
211.458	-2.59
211.93	-0.29
212.402	1.61
212.873	-0.89
213.345	-5.14
213.817	3.46
214.288	-4.34
214.76	1.46
215.232	1.06
215.703	1.61
216.175	1.61
216.646	-1.99
217.118	0.51
217.589	-2.54
218.061	0.51
218.532	-2.14
219.004	2.41
219.475	0.41
219.946	-0.04
220.418	4.76
220.889	3.51
221.36	7.11
221.832	7.11
222.303	3.01
222.774	1.36
223.245	1.96
223.717	1.41
224.188	3.41
224.659	4.81
225.13	4.61
225.601	2.11
226.072	4.61
226.543	8.61
227.014	5.96
227.485	6.31
227.956	4.91
228.427	11.01
228.898	8.66
229.369	6.46
229.839	6.66
230.31	11.96
230.781	7.56
231.252	8.61
231.722	11.86
232.193	8.46
232.664	10.11
233.135	6.16
233.605	5.61
234.076	14.11
234.546	6.16
235.017	12.86
235.487	10.31
235.958	11.01
236.428	15.51
236.899	7.81
237.369	19.21
237.84	11.01
238.31	15.46
238.78	10.21
239.251	13.01
239.721	13.11
240.191	14.11
240.662	21.06
241.132	14.31
241.602	20.46
242.072	15.36
242.542	17.91
243.013	14.01
243.483	24.16
243.953	13.96
244.423	17.36
244.893	18.36
245.363	16.41
245.833	22.26
246.303	21.31
246.773	25.56
247.243	22.61
247.712	21.16
248.182	21.41
248.652	24.06
249.122	24.41
249.592	22.26
250.061	24.01
250.531	22.21
251.001	26.71
251.471	28.46
251.94	27.21
252.41	28.31
252.879	28.16
253.349	32.26
253.818	26.71
254.288	32.51
254.757	32.41
255.227	32.11
255.696	32.06
256.166	37.11
256.635	32.96
257.105	36.01
257.574	37.76
258.043	36.91
258.513	38.36
258.982	34.91
259.451	35.66
259.92	34.01
260.389	41.66
260.859	37.46
261.328	38.36
261.797	38.96
262.266	38.21
262.735	48.51
263.204	36.81
263.673	40.16
264.142	41.86
264.611	45.81
265.08	45.06
265.549	39.61
266.018	45.86
266.487	41.46
266.955	43.71
267.424	48.91
267.893	47.31
268.362	46.21
268.83	43.41
269.299	46.16
269.768	50.91
270.236	51.46
270.705	53.76
271.174	56.46
271.642	51.21
272.111	52.81
272.579	53.86
273.048	52.91
273.516	57.81
273.985	52.21
274.453	53.76
274.922	56.16
275.39	54.31
275.858	59.81
276.327	58.01
276.795	59.86
277.263	60.21
277.731	60.51
278.2	60.96
278.668	61.16
279.136	62.91
279.604	63.16
280.072	60.46
280.54	62.46
281.008	70.16
281.477	65.51
281.945	64.11
282.413	67.46
282.881	71.76
283.348	64.26
283.816	66.91
284.284	71.31
284.752	71.46
285.22	78.51
285.688	73.21
286.156	75.96
286.623	72.86
287.091	76.26
287.559	77.36
288.026	89.96
288.494	80.11
288.962	83.36
289.429	82.91
289.897	77.21
290.364	74.46
290.832	77.56
291.3	82.11
291.767	77.86
292.234	83.46
292.702	85.91
293.169	87.61
293.637	88.56
294.104	92.36
294.571	93.26
295.039	88.26
295.506	93.31
295.973	87.46
296.44	90.11
296.908	96.61
297.375	91.91
297.842	96.41
298.309	93.71
298.776	95.06
299.243	96.61
299.71	99.61
300.177	100.71
300.644	98.36
301.111	98.96
301.578	101.51
302.045	102.56
302.512	97.96
302.979	112.26
303.446	110.21
303.913	111.11
304.379	118.81
304.846	117.31
305.313	119.66
305.78	121.06
306.246	124.76
306.713	123.01
307.18	122.56
307.646	126.06
308.113	125.96
308.579	130.56
309.046	134.01
309.512	130.41
309.979	134.11
310.445	132.81
310.912	132.91
311.378	145.86
311.845	140.26
312.311	144.26
312.777	139.91
313.244	144.56
313.71	147.31
314.176	150.46
314.642	150.36
315.109	149.06
315.575	148.46
316.041	146.96
316.507	153.21
316.973	155.81
317.439	154.31
317.905	158.61
318.371	151.26
318.837	150.86
319.303	155.96
319.769	164.86
320.235	168.41
320.701	161.71
321.167	164.96
321.633	164.21
322.099	165.81
322.564	166.56
323.03	170.61
323.496	170.41
323.962	175.01
324.427	178.86
324.893	171.26
325.359	186.66
325.824	180.16
326.29	186.46
326.755	180.71
327.221	188.31
327.686	192.11
328.152	191.86
328.617	201.66
329.083	197.01
329.548	199.76
330.014	201.16
330.479	202.31
330.944	199.26
331.41	212.31
331.875	199.91
332.34	204.81
332.805	208.61
333.271	207.51
333.736	207.36
334.201	213.11
334.666	226.91
335.131	225.46
335.596	227.31
336.061	220.51
336.526	218.81
336.991	213.96
337.456	215.71
337.921	210.46
338.386	212.66
338.851	218.01
339.316	212.26
339.781	216.21
340.246	222.06
340.711	225.96
341.175	231.36
341.64	234.16
342.105	239.66
342.569	242.91
343.034	245.26
343.499	243.41
343.963	253.11
344.428	253.71
344.893	250.11
345.357	258.36
345.822	265.56
346.286	267.71
346.751	265.86
347.215	268.81
347.679	278.96
348.144	293.71
348.608	298.51
349.073	297.31
349.537	307.41
350.001	305.41
350.465	305.21
350.93	300.21
351.394	318.11
351.858	313.16
352.322	318.46
352.786	319.91
353.25	323.41
353.715	321.06
354.179	337.46
354.643	346.06
355.107	349.06
355.571	345.41
356.035	340.91
356.498	338.06
356.962	341.71
357.426	339.41
357.89	336.06
358.354	328.16
358.818	325.91
359.281	334.61
359.745	344.51
360.209	338.01
360.673	335.81
361.136	338.76
361.6	339.01
362.064	350.71
362.527	356.26
362.991	357.41
363.454	355.36
363.918	361.76
364.381	362.66
364.845	363.26
365.308	364.06
365.772	358.56
366.235	370.56
366.698	376.36
367.162	368.26
367.625	375.01
368.088	385.21
368.552	374.76
369.015	383.51
369.478	379.06
369.941	382.41
370.404	390.81
370.867	388.11
371.331	395.91
371.794	401.86
372.257	399.81
372.72	398.01
373.183	408.06
373.646	407.36
374.109	404.56
374.572	411.46
375.035	414.36
375.497	417.56
375.96	422.46
376.423	429.26
376.886	432.66
377.349	442.21
377.811	437.51
378.274	448.71
378.737	436.66
379.199	442.21
379.662	454.46
380.125	449.46
380.587	467.11
381.05	462.16
381.512	472.21
381.975	480.46
382.437	491.46
382.9	487.01
383.362	490.16
383.825	496.76
384.287	499.71
384.75	494.86
385.212	497.41
385.674	506.86
386.136	504.06
386.599	502.36
387.061	503.71
387.523	508.51
387.985	514.71
388.447	513.71
388.91	511.71
389.372	518.76
389.834	519.96
390.296	514.61
390.758	516.86
391.22	520.66
391.682	521.16
392.144	521.86
392.606	525.21
393.068	538.31
393.529	559.71
393.991	578.91
394.453	553.51
394.915	537.46
395.377	518.36
395.838	531.56
396.3	540.71
396.762	545.56
397.224	536.31
397.685	543.86
398.147	542.26
398.608	552.66
399.07	555.41
399.531	561.91
399.993	572.06
400.454	579.51
400.916	583.76
401.377	592.86
401.839	594.16
402.3	596.26
402.762	620.46
403.223	671.66
403.684	666.71
404.145	635.36
404.607	632.01
405.068	619.41
405.529	625.01
405.99	639.46
406.451	644.11
406.913	633.21
407.374	639.91
407.835	639.51
408.296	652.56
408.757	659.86
409.218	674.11
409.679	680.71
410.14	682.86
410.601	700.16
411.062	701.26
411.522	709.96
411.983	709.91
412.444	717.81
412.905	726.56
413.366	752.61
413.826	781.86
414.287	877.31
414.748	1040.36
415.208	1065.91
415.669	894.36
416.13	811.91
416.59	799.06
417.051	828.46
417.511	863.46
417.972	925.36
418.432	989.41
418.893	1099.51
419.353	1060.41
419.814	820.96
420.274	735.11
420.734	725.86
421.195	736.16
421.655	746.66
422.115	762.56
422.576	755.21
423.036	761.26
423.496	782.71
423.956	817.16
424.416	865.46
424.876	967.11
425.336	967.71
425.797	952.56
426.257	942.11
426.717	896.41
427.177	828.91
427.637	838.41
428.097	872.91
428.556	900.31
429.016	964.91
429.476	967.21
429.936	948.71
430.396	951.96
430.856	977.61
431.315	997.56
431.775	1061.31
432.235	1133.91
432.694	1155.71
433.154	1092.11
433.614	1070.26
434.073	1029.66
434.533	939.16
434.993	905.91
435.452	899.91
435.912	888.01
436.371	885.36
436.83	878.91
437.29	856.26
437.749	838.86
438.209	823.91
438.668	840.41
439.127	860.31
439.587	833.46
440.046	815.26
440.505	834.01
440.964	840.61
441.424	867.11
441.883	885.21
442.342	834.76
442.801	807.11
443.26	810.76
443.719	806.06
444.178	799.46
444.637	809.61
445.096	817.11
445.555	830.36
446.014	828.21
446.473	815.01
446.932	823.31
447.391	829.31
447.849	843.06
448.308	833.71
448.767	830.96
449.226	851.66
449.685	863.91
450.143	898.76
450.602	892.46
451.061	837.11
451.519	854.51
451.978	834.41
452.436	836.86
452.895	839.41
453.353	844.76
453.812	827.91
454.27	832.61
454.729	838.21
455.187	840.61
455.646	842.16
456.104	849.61
456.562	860.16
457.021	866.76
457.479	839.66
457.937	866.01
458.395	884.56
458.854	877.01
459.312	855.01
459.77	872.06
460.228	884.16
460.686	899.86
461.144	899.26
461.602	885.46
462.06	892.81
462.518	909.26
462.976	910.51
463.434	919.21
463.892	929.46
464.35	950.11
464.808	962.16
465.266	972.41
465.724	981.01
466.181	984.01
466.639	977.06
467.097	1018.66
467.555	1053.36
468.012	1051.06
468.47	1054.81
468.928	1098.36
469.385	1116.71
469.843	1133.01
470.3	1124.36
470.758	1154.41
471.215	1173.96
471.673	1196.31
472.13	1236.16
472.588	1267.46
473.045	1262.46
473.503	1279.36
473.96	1329.36
474.417	1354.71
474.875	1403.31
475.332	1455.81
475.789	1474.06
476.246	1519.16
476.704	1574.81
477.161	1624.16
477.618	1671.46
478.075	1758.31
478.532	1883.36
478.989	2021.11
479.446	2229.26
479.903	2331.21
480.36	2529.21
480.817	2665.66
481.274	2832.81
481.731	3077.81
482.188	3306.06
482.645	3534.26
483.102	3731.01
483.558	3966.81
484.015	4125.36
484.472	4101.26
484.929	3992.91
485.385	3829.96
485.842	3743.66
486.299	3615.16
486.755	3332.06
487.212	3029.81
487.668	2739.11
488.125	2536.91
488.582	2365.86
489.038	2288.46
489.494	2219.66
489.951	2151.11
490.407	2096.36
490.864	2069.31
491.32	2009.46
491.776	2015.01
492.233	2015.56
492.689	1990.96
493.145	1943.06
493.602	1923.76
494.058	1945.31
494.514	1937.41
494.97	1935.91
495.426	1964.16
495.882	1963.56
496.338	1965.76
496.794	1986.01
497.251	1961.51
497.707	1991.41
498.163	1996.51
498.618	2003.51
499.074	1981.06
499.53	2018.51
499.986	2020.31
500.442	2003.21
500.898	1997.81
501.354	1998.76
501.809	2019.06
502.265	2004.86
502.721	2021.56
503.177	2021.21
503.632	2023.11
504.088	2040.06
504.543	2056.81
504.999	2083.76
505.455	2072.31
505.91	2055.91
506.366	2050.36
506.821	2061.46
507.277	2049.11
507.732	2058.61
508.187	2063.61
508.643	2082.26
509.098	2085.56
509.553	2101.66
510.009	2139.36
510.464	2167.66
510.919	2186.46
511.375	2204.01
511.83	2223.86
512.285	2259.71
512.74	2304.06
513.195	2335.56
513.65	2357.06
514.105	2400.56
514.56	2396.86
515.015	2443.51
515.47	2446.56
515.925	2422.01
516.38	2429.31
516.835	2424.86
517.29	2419.51
517.745	2417.71
518.2	2381.81
518.655	2335.81
519.109	2308.06
519.564	2276.11
520.019	2260.11
520.474	2239.86
520.928	2239.21
521.383	2200.66
521.838	2208.01
522.292	2191.71
522.747	2171.16
523.201	2159.36
523.656	2148.76
524.11	2143.26
524.565	2141.51
525.019	2137.31
525.474	2136.66
525.928	2120.31
526.382	2113.51
526.837	2125.71
527.291	2135.16
527.745	2115.61
528.2	2116.06
528.654	2102.31
529.108	2089.36
529.562	2092.06
530.016	2096.66
530.47	2106.11
530.925	2095.16
531.379	2095.96
531.833	2119.91
532.287	2104.71
532.741	2099.51
533.195	2110.66
533.649	2097.51
534.103	2105.61
534.556	2087.31
535.01	2112.56
535.464	2089.61
535.918	2099.91
536.372	2118.51
536.826	2109.46
537.279	2082.51
537.733	2095.21
538.187	2099.91
538.64	2088.51
539.094	2115.36
539.548	2139.76
540.001	2138.61
540.455	2137.36
540.908	2161.16
541.362	2179.16
541.815	2191.51
542.269	2226.86
542.722	2233.66
543.175	2251.61
543.629	2264.16
544.082	2282.46
544.536	2308.46
544.989	2304.81
545.442	2325.71
545.895	2316.96
546.349	2314.41
546.802	2318.81
547.255	2320.41
547.708	2336.21
548.161	2347.41
548.614	2357.71
549.067	2373.86
549.52	2352.06
549.973	2334.56
550.426	2314.21
550.879	2313.21
551.332	2320.36
551.785	2338.76
552.238	2363.41
552.691	2357.41
553.144	2388.16
553.596	2421.66
554.049	2456.71
554.502	2510.56
554.955	2530.46
555.407	2569.51
555.86	2562.61
556.313	2506.46
556.765	2499.36
557.218	2465.41
557.67	2462.11
558.123	2434.01
558.576	2415.26
559.028	2418.11
559.48	2445.96
559.933	2432.11
560.385	2361.06
560.838	2286.06
561.29	2222.46
561.742	2207.96
562.195	2151.11
562.647	2141.96
563.099	2126.66
563.551	2118.56
564.004	2138.66
564.456	2113.41
564.908	2067.01
565.36	2029.51
565.812	1984.76
566.264	1976.96
566.716	1943.41
567.168	1922.66
567.62	1914.51
568.072	1912.06
568.524	1893.66
568.976	1889.56
569.428	1876.56
569.88	1861.66
570.332	1879.41
570.784	1873.66
571.235	1870.61
571.687	1891.36
572.139	1891.61
572.59	1901.06
573.042	1913.01
573.494	1920.11
573.945	1890.16
574.397	1842.31
574.849	1834.56
575.3	1860.01
575.752	1811.86
576.203	1796.56
576.655	1817.21
577.106	1781.51
577.557	1770.61
578.009	1762.41
578.46	1770.91
578.912	1756.36
579.363	1773.66
579.814	1762.06
580.265	1768.91
580.717	1759.31
581.168	1769.76
581.619	1761.16
582.07	1792.46
582.521	1783.71
582.972	1772.31
583.423	1784.81
583.875	1800.11
584.326	1804.36
584.777	1835.76
585.227	1854.11
585.678	1884.71
586.129	1907.11
586.58	1920.81
587.031	1943.11
587.482	2002.36
587.933	2027.61
588.384	2027.66
588.834	1999.31
589.285	1981.71
589.736	1977.26
590.186	1989.66
590.637	1970.16
591.088	1920.76
591.538	1878.31
591.989	1858.66
592.439	1847.41
592.89	1811.86
593.34	1820.16
593.791	1803.81
594.241	1786.96
594.692	1781.16
595.142	1796.36
595.593	1775.01
596.043	1793.46
596.493	1803.76
596.943	1816.16
597.394	1860.66
597.844	1876.11
598.294	1921.71
598.744	1988.76
599.195	2078.71
599.645	2190.61
600.095	2303.56
600.545	2409.76
600.995	2503.51
601.445	2599.66
601.895	2708.91
602.345	2780.46
602.795	2750.11
603.245	2652.51
603.695	2493.11
604.145	2358.21
604.594	2241.31
605.044	2144.66
605.494	2019.31
605.944	1905.36
606.393	1873.36
606.843	1825.06
607.293	1827.81
607.743	1807.21
608.192	1824.36
608.642	1831.06
609.091	1825.96
609.541	1820.26
609.99	1815.71
610.44	1778.96
610.889	1763.86
611.339	1737.11
611.788	1706.86
612.238	1728.81
612.687	1732.66
613.136	1745.51
613.586	1761.11
614.035	1754.26
614.484	1759.21
614.933	1758.91
615.383	1733.61
615.832	1696.91
616.281	1669.11
616.73	1636.26
617.179	1604.41
617.628	1567.36
618.077	1544.26
618.526	1518.26
618.975	1518.56
619.424	1486.46
619.873	1487.66
620.322	1471.31
620.771	1462.91
621.22	1450.11
621.669	1415.71
622.118	1404.61
622.567	1394.91
623.015	1361.76
623.464	1361.46
623.913	1359.66
624.361	1346.96
624.81	1340.56
625.259	1359.66
625.707	1333.81
626.156	1350.76
626.604	1370.66
627.053	1369.41
627.501	1372.81
627.95	1374.11
628.398	1395.41
628.847	1368.16
629.295	1370.76
629.744	1362.06
630.192	1339.51
630.64	1314.71
631.089	1289.31
631.537	1267.56
631.985	1252.11
632.433	1249.01
632.881	1232.66
633.33	1256.46
633.778	1255.51
634.226	1258.01
634.674	1275.26
635.122	1276.66
635.57	1305.41
636.018	1319.26
636.466	1300.61
636.914	1313.36
637.362	1346.31
637.81	1360.61
638.258	1402.61
638.705	1417.21
639.153	1466.26
639.601	1476.76
640.049	1506.46
640.497	1547.86
640.944	1579.91
641.392	1519.11
641.84	1440.46
642.287	1368.11
642.735	1337.41
643.182	1330.41
643.63	1333.76
644.078	1335.06
644.525	1355.76
644.973	1397.96
645.42	1425.86
645.867	1451.46
646.315	1481.96
646.762	1539.96
647.21	1569.96
647.657	1656.91
648.104	1722.91
648.551	1758.26
648.999	1897.46
649.446	2064.96
649.893	2301.96
650.34	2695.06
650.787	3300.31
651.234	4227.36
651.682	5790.41
652.129	8137.76
652.576	11512.66
653.023	15000.01
653.47	15532.26
653.917	15532.31
654.363	15532.21
654.81	15529.21
655.257	15529.86
655.704	14607.51
656.151	8898.56
656.598	5892.16
657.044	4229.11
657.491	3332.91
657.938	2731.01
658.385	2315.06
658.831	2053.56
659.278	1847.16
659.724	1697.26
660.171	1583.81
660.618	1476.91
661.064	1393.61
661.511	1349.61
661.957	1314.01
662.404	1278.86
662.85	1275.36
663.296	1259.06
663.743	1232.91
664.189	1204.21
664.635	1200.46
665.082	1170.46
665.528	1163.31
665.974	1125.16
666.42	1101.31
666.867	1095.71
667.313	1046.51
667.759	1031.76
668.205	1031.51
668.651	1028.16
669.097	1037.51
669.543	1038.21
669.989	1045.51
670.435	1051.41
670.881	1065.06
671.327	1111.01
671.773	1177.31
672.219	1255.26
672.665	1339.26
673.11	1388.16
673.556	1399.26
674.002	1422.96
674.448	1445.86
674.893	1240.31
675.339	1080.76
675.785	1003.96
676.23	950.61
676.676	910.96
677.122	887.16
677.567	867.01
678.013	834.86
678.458	834.91
678.904	827.86
679.349	815.51
679.794	819.46
680.24	810.61
680.685	800.31
681.131	808.51
681.576	803.11
682.021	814.26
682.466	824.36
682.912	826.71
683.357	876.31
683.802	935.86
684.247	1025.61
684.692	1100.36
685.137	1149.31
685.583	1161.86
686.028	1212.51
686.473	1165.51
686.918	1007.66
687.363	919.96
687.807	879.56
688.252	837.71
688.697	806.31
689.142	787.71
689.587	784.71
690.032	807.16
690.477	825.51
690.921	869.71
691.366	918.66
691.811	957.81
692.255	1033.96
692.7	1249.96
693.145	1797.56
693.589	2748.76
694.034	3259.36
694.478	3473.26
694.923	3170.51
695.367	4466.06
695.812	2754.71
696.256	1178.31
696.701	851.06
697.145	790.76
697.59	761.16
698.034	755.01
698.478	751.21
698.922	758.06
699.367	771.21
699.811	811.66
700.255	877.86
700.699	951.06
701.143	1037.56
701.588	1089.51
702.032	1144.81
702.476	1180.21
702.92	1269.96
703.364	1646.46
703.808	2510.06
704.252	3125.76
704.696	3297.61
705.14	3108.21
705.584	4229.51
706.027	2377.16
706.471	1203.16
706.915	900.31
707.359	794.91
707.803	751.66
708.246	721.81
708.69	716.46
709.134	710.21
709.577	704.26
710.021	710.66
710.465	706.36
710.908	695.91
711.352	736.46
711.795	807.46
712.239	868.06
712.682	885.81
713.126	874.31
713.569	965.16
714.012	795.31
714.456	692.31
714.899	659.01
715.342	634.11
715.786	608.66
716.229	594.16
716.672	582.61
717.115	582.81
717.558	583.36
718.002	614.81
718.445	618.91
718.888	656.61
719.331	663.11
719.774	684.81
720.217	673.11
720.66	637.11
721.103	597.11
721.546	574.16
721.989	559.91
722.432	550.06
722.874	541.16
723.317	550.01
723.76	596.56
724.203	741.76
724.645	979.16
725.088	1160.51
725.531	1135.36
725.974	1233.01
726.416	1113.36
726.859	694.11
727.301	573.21
727.744	542.06
728.187	543.01
728.629	555.46
729.071	585.66
729.514	607.26
729.956	633.46
730.399	642.91
730.841	645.86
731.283	637.31
731.726	624.01
732.168	626.91
732.61	657.76
733.053	707.26
733.495	777.86
733.937	870.96
734.379	1024.56
734.821	1294.41
735.263	2063.56
735.705	3685.46
736.148	5438.61
736.59	5462.31
737.032	5867.11
737.474	4844.81
737.916	1874.96
738.357	994.91
738.799	756.41
739.241	709.11
739.683	717.46
740.125	737.31
740.567	739.86
741.008	787.76
741.45	830.06
741.892	867.06
742.334	876.16
742.775	879.36
743.217	844.01
743.658	717.01
744.1	729.01
744.542	844.56
744.983	885.51
745.425	919.71
745.866	893.06
746.307	735.36
746.749	778.46
747.19	1121.81
747.632	2165.11
748.073	4017.71
748.514	5573.51
748.956	7371.86
749.397	8651.51
749.838	5987.86
750.279	5687.76
750.72	2947.61
751.162	1263.61
751.603	726.86
752.044	579.76
752.485	510.86
752.926	486.51
753.367	461.61
753.808	451.56
754.249	448.51
754.69	437.11
755.131	435.96
755.572	428.56
756.013	431.31
756.453	433.66
756.894	442.01
757.335	446.96
757.776	452.71
758.216	462.66
758.657	491.86
759.098	540.96
759.538	655.86
759.979	958.41
760.42	1895.31
760.86	4852.96
761.301	10050.86
761.741	11886.01
762.182	13507.96
762.622	8784.41
763.063	3159.36
763.503	1292.46
763.943	759.11
764.384	609.16
764.824	521.31
765.264	484.16
765.705	459.56
766.145	432.71
766.585	410.31
767.025	400.61
767.465	405.56
767.906	414.91
768.346	436.31
768.786	509.11
769.226	739.01
769.666	1493.41
770.106	3340.96
770.546	4780.01
770.986	5374.56
771.426	4082.71
771.866	1710.51
772.306	781.96
772.745	482.61
773.185	407.81
773.625	394.71
774.065	430.36
774.505	621.06
774.944	1114.61
775.384	1605.01
775.824	1798.21
776.263	1490.06
776.703	788.46
777.142	447.66
777.582	332.26
778.021	308.91
778.461	295.21
778.9	288.66
779.34	281.06
779.779	273.41
780.219	267.06
780.658	262.56
781.097	255.26
781.537	250.71
781.976	246.46
782.415	246.81
782.855	247.46
783.294	249.11
783.733	245.81
784.172	248.56
784.611	249.61
785.05	254.06
785.489	265.16
785.928	269.01
786.367	281.86
786.806	297.36
787.245	321.36
787.684	330.31
788.123	324.16
788.562	314.06
789.001	302.66
789.44	296.41
789.879	290.71
790.317	292.16
790.756	308.11
791.195	349.26
791.634	470.86
792.072	869.36
792.511	2097.36
792.95	3904.01
793.388	4700.51
793.827	3066.26
794.265	1404.46
794.704	681.31
795.142	420.86
795.581	346.36
796.019	311.56
796.458	310.51
796.896	316.21
797.334	373.16
797.773	495.56
798.211	938.01
798.649	1945.36
799.087	3273.46
799.526	4634.86
799.964	4779.11
800.402	3298.91
800.84	1498.66
801.278	728.41
801.716	451.91
802.154	362.91
802.592	338.06
803.03	341.96
803.468	348.81
803.906	353.31
804.344	346.91
804.782	335.81
805.22	335.66
805.658	351.66
806.096	366.11
806.533	421.36
806.971	526.81
807.409	768.01
807.847	1536.06
808.284	3906.36
808.722	6880.41
809.16	9601.61
809.597	13006.91
810.035	15461.56
810.472	10580.06
810.91	4502.71
811.347	2024.01
811.785	964.06
812.222	601.36
812.66	460.76
813.097	395.36
813.535	341.61
813.972	309.41
814.409	285.86
814.846	276.96
815.284	258.11
815.721	268.11
816.158	296.91
816.595	402.06
817.032	510.41
817.47	464.21
817.907	336.21
818.344	294.01
818.781	293.91
819.218	356.01
819.655	546.46
820.092	721.06
820.529	647.81
820.966	504.91
821.403	349.41
821.839	295.11
822.276	325.01
822.713	385.16
823.15	361.06
823.587	374.56
824.023	642.91
824.46	1599.46
824.897	2785.81
825.333	2196.31
825.77	1011.31
826.206	531.51
826.643	310.86
827.08	235.36
827.516	203.66
827.953	188.86
828.389	183.86
828.825	176.01
829.262	167.91
829.698	158.36
830.135	153.51
830.571	150.81
831.007	160.41
831.443	153.41
831.88	152.86
832.316	159.11
832.752	161.11
833.188	159.01
833.624	159.61
834.06	165.71
834.497	167.96
834.933	168.41
835.369	183.21
835.805	189.86
836.241	198.46
836.677	220.26
837.112	258.16
837.548	323.86
837.984	473.31
838.42	1004.91
838.856	2794.81
839.292	5520.11
839.727	4157.51
840.163	2784.81
840.599	4201.51
841.034	6414.61
841.47	3260.11
841.906	1570.91
842.341	845.41
842.777	632.86
843.212	653.21
843.648	411.36
844.083	279.86
844.519	208.36
844.954	172.96
845.39	159.21
845.825	153.31
846.261	145.91
846.696	134.61
847.131	130.46
847.566	137.16
848.002	139.56
848.437	147.26
848.872	151.46
849.307	193.41
849.742	346.46
850.177	915.01
850.613	1950.06
851.048	1417.61
851.483	648.86
851.918	362.56
852.353	196.36
852.788	143.96
853.223	126.71
853.657	121.76
854.092	113.86
854.527	112.41
854.962	123.16
855.397	132.61
855.832	114.46
856.266	105.71
856.701	104.21
857.136	108.26
857.57	131.86
858.005	161.61
858.44	131.91
858.874	123.51
859.309	129.61
859.743	120.91
860.178	119.96
860.612	133.41
861.047	184.41
861.481	260.16
861.915	177.36
862.35	132.61
862.784	102.06
863.218	99.51
863.653	111.01
864.087	132.81
864.521	162.81
864.955	267.01
865.39	458.26
865.824	359.01
866.258	476.11
866.692	732.01
867.126	529.06
867.56	284.31
867.994	178.31
868.428	152.76
868.862	192.21
869.296	171.86
869.73	214.71
870.164	180.81
870.598	162.31
871.031	112.76
871.465	98.26
871.899	81.51
872.333	73.36
872.766	74.31
873.2	76.81
873.634	71.76
874.067	77.31
874.501	79.76
874.935	75.01
875.368	79.56
875.802	69.41
876.235	63.66
876.669	66.36
877.102	56.36
877.535	58.96
877.969	57.61
878.402	64.81
878.836	56.76
879.269	57.36
879.702	56.31
880.135	59.51
880.569	65.71
881.002	50.86
881.435	50.56
881.868	52.51
882.301	53.76
882.734	50.16
883.167	57.01
883.601	53.01
884.034	49.66
884.467	46.51
884.899	53.86
885.332	47.11
885.765	43.36
886.198	47.26
886.631	44.21
887.064	48.01
887.497	44.61
887.929	46.96
888.362	44.06
888.795	41.96
889.228	50.11
889.66	49.46
890.093	47.01
890.526	47.36
890.958	45.06
891.391	45.51
891.823	42.86
892.256	46.76
892.688	46.01
893.121	41.21
893.553	47.76
893.985	38.36
894.418	35.11
894.85	46.46
895.282	44.76
895.715	37.66
896.147	42.06
896.579	37.11
897.011	44.21
897.444	40.31
897.876	39.56
898.308	36.81
898.74	41.66
899.172	44.16
899.604	38.61
900.036	41.56
900.468	40.31
900.9	40.31
901.332	58.16
901.764	58.96
902.196	57.46
902.628	54.11
903.06	85.71
903.491	91.56
903.923	81.56
904.355	72.51
904.787	74.21
905.218	63.21
905.65	59.11
906.082	52.56
906.513	48.16
906.945	48.31
907.376	44.26
907.808	52.36
908.239	52.16
908.671	58.41
909.102	63.51
909.534	92.71
909.965	174.76
910.397	457.06
910.828	1302.66
911.259	810.41
911.691	435.81
912.122	253.61
912.553	128.61
912.984	74.01
913.415	64.81
913.847	52.51
914.278	49.81
914.709	46.36
915.14	41.06
915.571	47.01
916.002	44.41
916.433	38.91
916.864	40.16
917.295	47.26
917.726	49.91
918.157	63.56
918.587	63.61
919.018	60.16
919.449	55.11
919.88	66.66
920.311	101.11
920.741	269.31
921.172	476.61
921.603	239.51
922.033	156.06
922.464	101.01
922.895	60.56
923.325	44.71
923.756	42.16
924.186	51.51
924.617	72.16
925.047	113.01
925.478	99.01
925.908	69.26
926.338	55.11
926.769	44.66
927.199	43.06
927.629	34.16
928.06	41.26
928.49	37.61
928.92	31.61
929.35	37.31
929.78	23.61
930.21	26.46
930.641	18.66
931.071	26.66
931.501	19.46
931.931	13.31
932.361	15.86
932.791	26.16
933.221	29.16
933.651	38.36
934.08	64.91
934.51	37.06
934.94	35.21
935.37	23.36
935.8	19.71
936.229	22.61
936.659	21.41
937.089	39.21
937.519	61.31
937.948	83.96
938.378	46.51
938.807	29.51
939.237	20.41
939.666	14.51
940.096	14.41
940.525	3.16
940.955	12.91
941.384	9.86
941.814	12.81
942.243	12.36
942.672	7.61
943.102	8.81
943.531	8.51
943.96	8.06
944.39	13.51
944.819	12.31
945.248	15.26
945.677	13.51
946.106	7.91
946.535	12.81
946.964	11.71
947.393	7.96
947.822	6.11
948.251	13.76
948.68	11.96
949.109	10.36
949.538	10.61
949.967	4.06
950.396	8.91
950.825	9.36
951.254	8.36
951.682	4.26
952.111	2.76
952.54	7.56
952.969	4.56
953.397	4.41
953.826	5.81
954.254	9.21
954.683	10.31
955.112	8.01
955.54	9.16
955.969	8.06
956.397	7.61
956.826	5.81
957.254	9.61
957.682	5.41
958.111	11.86
958.539	13.01
958.967	4.91
959.396	9.96
959.824	7.36
960.252	10.01
960.68	3.36
961.109	10.81
961.537	16.31
961.965	3.16
962.393	11.46
962.821	9.61
963.249	9.26
963.677	17.01
964.105	79.26
964.533	138.01
964.961	69.71
965.389	41.76
965.817	17.01
966.245	10.96
966.672	12.81
967.1	12.11
967.528	1.61
967.956	9.71
968.383	10.71
968.811	2.81
969.239	6.26
969.666	9.61
970.094	7.61
970.522	0.56
970.949	4.96
971.377	-2.09
971.804	1.41
972.232	4.56
972.659	3.06
973.087	10.61
973.514	3.11
973.941	5.21
974.369	-0.44
974.796	2.61
975.223	3.61
975.651	9.81
976.078	2.66
976.505	10.96
976.932	38.01
977.359	42.31
977.786	22.96
978.214	14.21
978.641	9.31
979.068	7.61
979.495	8.31
979.922	6.06
980.349	5.56
980.776	2.21
981.202	0.96
981.629	5.61
982.056	3.21
982.483	1.86
982.91	6.61
983.337	4.66
983.763	-0.04
984.19	3.31
984.617	3.41
985.043	7.76
985.47	11.86
985.897	6.16
986.323	8.96
986.75	-1.59
987.176	5.21
987.603	4.96
988.029	3.96
988.456	10.01
988.882	5.21
989.308	3.91
989.735	0.81
990.161	3.26
990.587	3.06
991.014	4.11
991.44	6.16
991.866	4.06
992.292	0.56
992.719	3.46
993.145	0.96
993.571	-0.39
993.997	10.01
994.423	4.51
994.849	-2.09
995.275	4.31
995.701	4.26
996.127	-3.09
996.553	-0.04
996.979	2.56
997.405	3.16
997.83	3.51
998.256	3.46
998.682	2.96
999.108	5.21
999.534	-2.19
999.959	4.91
1000.385	3.16
1000.811	-5.34
1001.236	0.71
1001.662	2.31
1002.087	6.41
1002.513	2.06
1002.938	1.66
1003.364	2.41
1003.789	1.76
1004.215	0.06
1004.64	2.06
1005.066	5.16
1005.491	8.16
1005.916	5.56
1006.342	4.26
1006.767	7.96
1007.192	3.81
1007.617	5.31
1008.042	2.76
1008.468	0.21
1008.893	5.16
1009.318	8.71
1009.743	17.06
1010.168	31.71
1010.593	26.81
1011.018	14.16
1011.443	11.86
1011.868	9.21
1012.293	7.46
1012.718	3.61
1013.143	2.86
1013.567	2.31
1013.992	2.71
1014.417	4.86
1014.842	3.06
1015.267	-2.74
1015.691	4.56
1016.116	5.41
1016.541	2.56
1016.965	3.91
1017.39	3.26
1017.814	-1.29
1018.239	-1.54
1018.663	-4.59
1019.088	-4.79
1019.512	4.76
1019.937	-0.64
1020.361	1.86
1020.785	2.56
1021.21	-0.09
1021.634	-1.74
1022.058	2.26
1022.483	-8.49
1022.907	0.06
1023.331	-3.14
1023.755	-2.24
1024.179	-0.79
1024.604	3.01
1025.028	2.96
1025.452	1.91
1025.876	4.31
1026.3	0.61
1026.724	1.71
1027.148	0.66
1027.572	0.86
1027.996	3.06
1028.42	0.96
1028.843	-0.84
1029.267	-2.04
1029.691	1.76
1030.115	-1.34
1030.539	-0.44
1030.962	-7.64
1031.386	-0.04
1031.81	-0.54
1032.233	-1.69
1032.657	-3.49
1033.08	-3.24
1033.504	-3.14
1033.927	0.51
1034.351	-3.49
1034.774	-2.09
1035.198	-4.29
1035.621	-2.64
1036.045	-4.99
1036.468	6.36
1036.891	-2.69
1037.315	1.91
1037.738	-3.04
1038.161	0.71
1038.584	0.16
1039.008	-3.34
1039.431	-3.89
1039.854	-5.39
1040.277	4.66
1040.7	-1.19
1041.123	-0.64
1041.546	-3.94
1041.969	4.51
1042.392	0.61
1042.815	-6.59
1043.238	-1.04
1043.661	-0.59
1044.084	-4.14
1044.507	-5.24
1044.93	1.46
1045.352	-0.89
1045.775	1.91
1046.198	2.31
1046.621	1.91
1047.043	-0.74
1047.466	0.51
1047.889	-0.99
1048.311	4.31
1048.734	1.71
1049.156	0.56
1049.579	5.51
1050.001	-4.89
1050.424	2.96
1050.846	-5.84
1051.269	-3.84
1051.691	-1.44
1052.113	4.41
1052.536	0.51
1052.958	-6.59
1053.38	1.41
1053.802	-1.99
1054.225	0.76
1054.647	-1.34
1055.069	-1.74
1055.491	2.66
1055.913	0.11
1056.335	-7.89
1056.757	-6.54
1057.179	-0.89
1057.601	0.46
1058.023	1.16
1058.445	-2.49
1058.867	2.16
1059.289	1.56
1059.711	-5.49
1060.133	-1.89
1060.555	-0.99
1060.976	2.76
1061.398	-0.09
1061.82	-1.29
1062.241	-0.49
1062.663	-2.79
1063.085	-2.64
1063.506	-8.59
1063.928	-3.59
1064.35	-1.44
1064.771	2.31
1065.193	1.86
1065.614	-1.14
1066.035	0.71
1066.457	3.91
1066.878	0.11
1067.3	1.11
1067.721	1.96
1068.142	2.26
1068.564	0.61
1068.985	1.06
1069.406	-5.39
1069.827	-1.79
1070.248	-1.89
1070.67	-4.69
1071.091	-3.99
1071.512	-0.04
1071.933	-1.44
1072.354	-8.89
1072.775	-6.14
1073.196	-2.34
1073.617	-8.19
1074.038	-3.24
1074.459	-5.29
1074.88	0.51
1075.3	-3.49
1075.721	-0.99
1076.142	-1.44
1076.563	-9.34
1076.983	-0.04
1077.404	-4.39
1077.825	-4.64
1078.246	-4.69
1078.666	-4.49
1079.087	-3.39
1079.507	-3.19
1079.928	-6.39
1080.348	-1.94
1080.769	1.86
1081.189	-4.19
1081.61	-4.44
1082.03	1.81
1082.451	0.06
1082.871	-2.69
1083.291	0.11
1083.711	-0.39
1084.132	-3.89
1084.552	-7.29
1084.972	-6.99
1085.392	-7.59
1085.813	-0.09
1086.233	-4.79
1086.653	2.46
1087.073	-6.39
1087.493	-2.09
1087.913	-6.89
1088.333	-3.19
1088.753	4.16
1089.173	2.76
1089.593	1.01
1090.013	-3.39
1090.433	-6.59
1090.852	0.86
1091.272	-7.39
1091.692	-0.89
1092.112	-3.44
1092.531	-4.44
1092.951	-0.74
1093.371	-0.69
1093.79	-4.14
1094.21	-2.89
1094.63	-2.94
1095.049	-6.14
1095.469	-9.24
1095.888	-2.84
1096.308	-0.24
1096.727	-3.59
1097.146	-2.64
1097.566	-1.49
1097.985	-1.54
1098.405	0.41
1098.824	-0.59
1099.243	-3.99
1099.662	-2.54
1100.082	-3.19
1100.501	-0.49
1100.92	9.06
1101.339	0.81
1101.758	1.26
