Data from MSPlasma+Separation6_Subt14_10-13-12-587.txt Node
Date: Fri Jul 21 10:13:12 EDT 2017
User: Ender
Spectrometer: HR+D1039
Trigger mode: 0
Integration Time (sec): 6.430000E-3
Scans to average: 20
Electric dark correction enabled: true
Nonlinearity correction enabled: false
Boxcar width: 0
XAxis mode: Wavelengths
Number of Pixels in Spectrum: 2048
>>>>>Begin Spectral Data<<<<<
187.836	-5.46
188.309	-5.46
188.782	-5.46
189.255	1.04
189.728	3.44
190.201	-0.16
190.674	-1.71
191.147	-1.21
191.619	-0.26
192.092	-3.96
192.565	-3.01
193.038	0.64
193.511	4.69
193.984	2.44
194.456	-0.16
194.929	1.49
195.402	3.44
195.874	-1.21
196.347	0.69
196.82	2.49
197.292	-1.31
197.765	-0.81
198.237	-2.36
198.71	-2.91
199.182	0.89
199.655	5.64
200.127	2.09
200.6	1.24
201.072	2.59
201.544	2.94
202.017	0.04
202.489	3.69
202.961	1.79
203.433	-3.26
203.906	-0.41
204.378	3.94
204.85	2.84
205.322	-1.21
205.794	4.84
206.266	-0.11
206.739	6.04
207.211	4.89
207.683	1.59
208.155	2.09
208.627	-0.26
209.099	7.94
209.57	3.49
210.042	4.39
210.514	4.74
210.986	2.04
211.458	4.94
211.93	2.29
212.402	5.29
212.873	1.39
213.345	0.49
213.817	4.99
214.288	-0.51
214.76	1.84
215.232	4.49
215.703	6.29
216.175	6.34
216.646	10.24
217.118	2.89
217.589	5.39
218.061	1.69
218.532	2.54
219.004	6.99
219.475	4.34
219.946	7.69
220.418	5.74
220.889	7.04
221.36	12.04
221.832	9.84
222.303	12.29
222.774	9.84
223.245	7.64
223.717	6.14
224.188	6.29
224.659	6.69
225.13	3.79
225.601	6.39
226.072	9.29
226.543	9.89
227.014	11.24
227.485	11.99
227.956	11.14
228.427	14.94
228.898	10.44
229.369	11.99
229.839	10.14
230.31	16.64
230.781	15.59
231.252	15.89
231.722	15.94
232.193	14.24
232.664	11.89
233.135	11.54
233.605	17.84
234.076	19.19
234.546	19.39
235.017	23.24
235.487	17.14
235.958	13.09
236.428	21.64
236.899	20.04
237.369	26.59
237.84	27.44
238.31	22.49
238.78	18.29
239.251	20.94
239.721	22.89
240.191	21.44
240.662	28.79
241.132	24.39
241.602	27.44
242.072	24.84
242.542	23.59
243.013	24.24
243.483	30.19
243.953	23.84
244.423	34.69
244.893	25.49
245.363	34.69
245.833	29.99
246.303	30.54
246.773	40.29
247.243	34.24
247.712	43.34
248.182	37.29
248.652	38.64
249.122	34.34
249.592	37.14
250.061	35.09
250.531	37.19
251.001	39.14
251.471	39.94
251.94	43.99
252.41	39.74
252.879	43.34
253.349	46.74
253.818	41.09
254.288	48.14
254.757	43.04
255.227	45.54
255.696	46.89
256.166	52.79
256.635	50.19
257.105	47.64
257.574	49.24
258.043	51.69
258.513	53.59
258.982	50.14
259.451	56.74
259.92	50.04
260.389	56.64
260.859	53.19
261.328	56.39
261.797	57.44
262.266	63.14
262.735	59.04
263.204	53.19
263.673	57.84
264.142	56.09
264.611	61.69
265.08	65.89
265.549	59.84
266.018	60.39
266.487	66.19
266.955	60.44
267.424	72.34
267.893	67.34
268.362	69.44
268.83	67.09
269.299	68.99
269.768	72.09
270.236	73.29
270.705	78.44
271.174	70.44
271.642	70.74
272.111	76.09
272.579	72.79
273.048	77.34
273.516	77.79
273.985	78.09
274.453	79.89
274.922	72.69
275.39	76.99
275.858	80.64
276.327	81.84
276.795	83.69
277.263	86.44
277.731	83.19
278.2	87.29
278.668	86.14
279.136	89.84
279.604	87.69
280.072	88.54
280.54	92.79
281.008	99.54
281.477	94.39
281.945	89.19
282.413	94.39
282.881	92.09
283.348	96.09
283.816	96.04
284.284	98.59
284.752	98.44
285.22	102.94
285.688	103.34
286.156	101.19
286.623	105.24
287.091	105.54
287.559	107.54
288.026	109.79
288.494	112.29
288.962	109.39
289.429	106.59
289.897	111.39
290.364	109.69
290.832	114.29
291.3	110.74
291.767	108.34
292.234	115.84
292.702	114.94
293.169	120.44
293.637	122.14
294.104	120.94
294.571	120.34
295.039	121.89
295.506	119.44
295.973	126.14
296.44	121.79
296.908	126.24
297.375	128.44
297.842	126.54
298.309	131.29
298.776	131.54
299.243	136.49
299.71	138.64
300.177	137.59
300.644	132.54
301.111	135.69
301.578	141.04
302.045	138.99
302.512	138.94
302.979	146.39
303.446	149.29
303.913	150.24
304.379	157.04
304.846	157.29
305.313	154.19
305.78	162.59
306.246	163.94
306.713	161.04
307.18	164.09
307.646	165.59
308.113	166.24
308.579	172.74
309.046	175.74
309.512	173.59
309.979	180.24
310.445	176.79
310.912	184.69
311.378	185.74
311.845	185.34
312.311	181.74
312.777	184.74
313.244	197.04
313.71	194.59
314.176	198.44
314.642	197.39
315.109	199.54
315.575	198.44
316.041	200.54
316.507	201.69
316.973	206.89
317.439	209.14
317.905	204.79
318.371	206.64
318.837	206.54
319.303	210.64
319.769	208.94
320.235	213.79
320.701	217.99
321.167	219.89
321.633	221.64
322.099	217.59
322.564	220.79
323.03	221.99
323.496	226.99
323.962	232.39
324.427	233.24
324.893	223.34
325.359	237.74
325.824	241.04
326.29	246.24
326.755	240.44
327.221	241.34
327.686	252.49
328.152	251.84
328.617	255.39
329.083	259.44
329.548	258.19
330.014	263.49
330.479	263.89
330.944	266.09
331.41	271.09
331.875	261.84
332.34	265.59
332.805	275.89
333.271	272.74
333.736	273.34
334.201	274.94
334.666	292.94
335.131	289.94
335.596	294.09
336.061	285.24
336.526	291.44
336.991	280.64
337.456	280.84
337.921	277.79
338.386	276.24
338.851	282.24
339.316	279.34
339.781	277.39
340.246	284.04
340.711	288.39
341.175	299.79
341.64	305.74
342.105	305.29
342.569	320.74
343.034	313.64
343.499	317.14
343.963	328.19
344.428	328.84
344.893	329.99
345.357	337.39
345.822	340.04
346.286	345.59
346.751	352.64
347.215	358.34
347.679	363.49
348.144	388.59
348.608	385.79
349.073	387.64
349.537	396.59
350.001	394.74
350.465	387.74
350.93	397.44
351.394	402.74
351.858	403.44
352.322	413.09
352.786	409.89
353.25	401.29
353.715	416.69
354.179	433.19
354.643	445.54
355.107	450.34
355.571	439.49
356.035	438.59
356.498	440.39
356.962	437.44
357.426	442.39
357.89	442.64
358.354	438.24
358.818	429.19
359.281	438.74
359.745	441.04
360.209	434.64
360.673	432.14
361.136	439.14
361.6	441.94
362.064	450.14
362.527	459.14
362.991	461.94
363.454	457.99
363.918	464.44
364.381	467.39
364.845	460.99
365.308	465.94
365.772	480.94
366.235	471.09
366.698	474.44
367.162	472.74
367.625	476.99
368.088	490.34
368.552	485.44
369.015	491.09
369.478	490.79
369.941	498.64
370.404	504.84
370.867	493.99
371.331	507.39
371.794	517.34
372.257	513.99
372.72	517.19
373.183	525.69
373.646	526.69
374.109	519.39
374.572	528.74
375.035	533.64
375.497	532.94
375.96	544.19
376.423	552.69
376.886	562.84
377.349	565.24
377.811	565.24
378.274	568.59
378.737	564.74
379.199	574.29
379.662	574.14
380.125	584.74
380.587	588.89
381.05	604.14
381.512	611.04
381.975	624.54
382.437	635.19
382.9	623.59
383.362	629.59
383.825	640.09
384.287	640.84
384.75	626.19
385.212	641.34
385.674	640.44
386.136	652.44
386.599	643.04
387.061	645.94
387.523	656.74
387.985	658.59
388.447	676.64
388.91	666.89
389.372	669.44
389.834	676.69
390.296	664.94
390.758	672.89
391.22	671.94
391.682	681.09
392.144	694.39
392.606	698.49
393.068	697.39
393.529	738.19
393.991	740.19
394.453	710.44
394.915	699.44
395.377	683.04
395.838	699.69
396.3	695.84
396.762	700.89
397.224	701.54
397.685	704.14
398.147	713.84
398.608	715.89
399.07	728.24
399.531	725.64
399.993	744.74
400.454	754.99
400.916	753.09
401.377	777.19
401.839	777.79
402.3	776.49
402.762	804.69
403.223	856.64
403.684	853.99
404.145	824.29
404.607	815.79
405.068	795.54
405.529	813.84
405.99	828.89
406.451	845.54
406.913	821.29
407.374	825.99
407.835	828.09
408.296	857.64
408.757	857.84
409.218	874.74
409.679	880.79
410.14	889.39
410.601	914.64
411.062	915.44
411.522	920.79
411.983	915.69
412.444	928.19
412.905	944.59
413.366	975.49
413.826	1023.09
414.287	1134.29
414.748	1334.54
415.208	1377.79
415.669	1153.24
416.13	1058.04
416.59	1033.64
417.051	1067.44
417.511	1104.99
417.972	1192.19
418.432	1268.74
418.893	1394.39
419.353	1342.49
419.814	1053.64
420.274	948.44
420.734	942.69
421.195	971.29
421.655	965.84
422.115	979.74
422.576	976.99
423.036	986.09
423.496	1018.79
423.956	1055.89
424.416	1132.79
424.876	1258.39
425.336	1254.69
425.797	1234.79
426.257	1223.04
426.717	1160.24
427.177	1082.59
427.637	1107.49
428.097	1144.89
428.556	1196.59
429.016	1275.39
429.476	1273.89
429.936	1253.84
430.396	1250.94
430.856	1294.74
431.315	1312.54
431.775	1392.44
432.235	1495.89
432.694	1503.09
433.154	1423.94
433.614	1395.99
434.073	1352.04
434.533	1217.99
434.993	1187.14
435.452	1182.39
435.912	1163.79
436.371	1160.59
436.83	1144.19
437.29	1128.14
437.749	1089.84
438.209	1074.54
438.668	1089.59
439.127	1120.79
439.587	1095.89
440.046	1074.84
440.505	1088.94
440.964	1098.49
441.424	1139.94
441.883	1160.54
442.342	1093.89
442.801	1043.64
443.26	1051.49
443.719	1039.79
444.178	1033.89
444.637	1057.99
445.096	1071.39
445.555	1075.79
446.014	1066.34
446.473	1060.74
446.932	1060.69
447.391	1069.99
447.849	1089.79
448.308	1076.79
448.767	1088.24
449.226	1100.29
449.685	1120.49
450.143	1156.84
450.602	1150.94
451.061	1098.24
451.519	1112.29
451.978	1086.69
452.436	1089.89
452.895	1101.89
453.353	1087.04
453.812	1081.09
454.27	1092.34
454.729	1090.44
455.187	1096.64
455.646	1108.19
456.104	1107.04
456.562	1117.09
457.021	1136.04
457.479	1095.94
457.937	1133.89
458.395	1165.74
458.854	1146.74
459.312	1132.84
459.77	1138.54
460.228	1160.84
460.686	1178.34
461.144	1173.64
461.602	1156.04
462.06	1159.59
462.518	1195.89
462.976	1194.34
463.434	1208.24
463.892	1222.94
464.35	1242.24
464.808	1274.19
465.266	1278.04
465.724	1291.44
466.181	1299.89
466.639	1290.19
467.097	1342.99
467.555	1388.84
468.012	1380.89
468.47	1403.69
468.928	1445.79
469.385	1467.04
469.843	1494.09
470.3	1478.54
470.758	1532.99
471.215	1549.39
471.673	1587.29
472.13	1628.94
472.588	1667.74
473.045	1647.69
473.503	1693.29
473.96	1759.29
474.417	1785.19
474.875	1854.19
475.332	1933.24
475.789	1975.64
476.246	2021.14
476.704	2122.59
477.161	2192.99
477.618	2248.04
478.075	2370.69
478.532	2564.19
478.989	2757.99
479.446	3049.84
479.903	3207.54
480.36	3511.19
480.817	3712.74
481.274	3958.69
481.731	4327.99
482.188	4620.29
482.645	4987.19
483.102	5235.64
483.558	5554.99
484.015	5782.84
484.472	5716.84
484.929	5525.99
485.385	5296.34
485.842	5201.69
486.299	4997.99
486.755	4587.49
487.212	4139.99
487.668	3746.59
488.125	3487.59
488.582	3230.59
489.038	3107.14
489.494	3010.94
489.951	2919.19
490.407	2838.04
490.864	2783.09
491.32	2715.59
491.776	2703.29
492.233	2703.94
492.689	2662.59
493.145	2615.09
493.602	2556.89
494.058	2590.44
494.514	2596.94
494.97	2594.64
495.426	2642.44
495.882	2636.59
496.338	2637.99
496.794	2667.74
497.251	2652.64
497.707	2677.99
498.163	2694.39
498.618	2685.44
499.074	2659.94
499.53	2696.79
499.986	2709.79
500.442	2684.79
500.898	2659.84
501.354	2682.99
501.809	2686.19
502.265	2690.39
502.721	2705.94
503.177	2709.59
503.632	2701.09
504.088	2715.84
504.543	2739.24
504.999	2787.79
505.455	2780.89
505.91	2745.24
506.366	2751.79
506.821	2757.84
507.277	2744.09
507.732	2756.54
508.187	2751.54
508.643	2782.29
509.098	2781.84
509.553	2821.09
510.009	2858.64
510.464	2894.64
510.919	2924.04
511.375	2955.04
511.83	2979.74
512.285	3030.89
512.74	3093.34
513.195	3139.34
513.65	3180.34
514.105	3219.79
514.56	3230.94
515.015	3280.89
515.47	3295.74
515.925	3251.09
516.38	3265.64
516.835	3264.04
517.29	3254.09
517.745	3255.44
518.2	3204.09
518.655	3132.44
519.109	3119.54
519.564	3065.59
520.019	3057.99
520.474	3027.69
520.928	2993.94
521.383	2970.59
521.838	2964.94
522.292	2945.94
522.747	2926.79
523.201	2915.94
523.656	2879.24
524.11	2882.99
524.565	2866.94
525.019	2878.89
525.474	2868.14
525.928	2858.39
526.382	2853.94
526.837	2868.24
527.291	2875.69
527.745	2858.49
528.2	2854.49
528.654	2829.69
529.108	2830.09
529.562	2832.89
530.016	2845.24
530.47	2841.59
530.925	2831.69
531.379	2840.69
531.833	2870.74
532.287	2860.99
532.741	2839.44
533.195	2852.54
533.649	2865.04
534.103	2876.04
534.556	2852.24
535.01	2866.49
535.464	2833.99
535.918	2854.59
536.372	2878.89
536.826	2845.59
537.279	2824.54
537.733	2829.99
538.187	2850.09
538.64	2825.84
539.094	2853.74
539.548	2901.89
540.001	2895.79
540.455	2905.79
540.908	2931.94
541.362	2956.29
541.815	2959.14
542.269	3015.74
542.722	3012.69
543.175	3056.69
543.629	3067.49
544.082	3077.49
544.536	3118.54
544.989	3105.79
545.442	3135.99
545.895	3138.79
546.349	3131.69
546.802	3140.14
547.255	3132.19
547.708	3164.39
548.161	3189.89
548.614	3195.69
549.067	3202.99
549.52	3198.54
549.973	3158.54
550.426	3143.34
550.879	3146.44
551.332	3148.69
551.785	3164.69
552.238	3199.64
552.691	3225.19
553.144	3258.89
553.596	3307.89
554.049	3334.99
554.502	3398.34
554.955	3442.19
555.407	3496.54
555.86	3470.59
556.313	3411.19
556.765	3387.54
557.218	3350.44
557.67	3350.69
558.123	3312.29
558.576	3293.64
559.028	3282.09
559.48	3301.74
559.933	3272.84
560.385	3192.84
560.838	3087.24
561.29	3004.69
561.742	3002.44
562.195	2928.69
562.647	2903.49
563.099	2891.59
563.551	2854.94
564.004	2899.79
564.456	2866.79
564.908	2801.54
565.36	2753.14
565.812	2699.29
566.264	2674.64
566.716	2634.89
567.168	2593.44
567.62	2597.49
568.072	2591.19
568.524	2567.94
568.976	2551.89
569.428	2525.89
569.88	2526.99
570.332	2550.04
570.784	2550.14
571.235	2552.59
571.687	2576.04
572.139	2571.84
572.59	2588.89
573.042	2607.44
573.494	2612.69
573.945	2573.09
574.397	2521.19
574.849	2517.89
575.3	2518.84
575.752	2482.09
576.203	2452.34
576.655	2484.39
577.106	2445.79
577.557	2419.74
578.009	2412.99
578.46	2421.84
578.912	2387.49
579.363	2410.49
579.814	2405.89
580.265	2415.49
580.717	2411.64
581.168	2414.39
581.619	2417.09
582.07	2429.34
582.521	2425.14
582.972	2421.04
583.423	2422.44
583.875	2437.29
584.326	2464.29
584.777	2517.54
585.227	2576.04
585.678	2608.69
586.129	2642.94
586.58	2651.99
587.031	2701.99
587.482	2772.34
587.933	2837.99
588.384	2806.04
588.834	2737.09
589.285	2695.74
589.736	2708.39
590.186	2698.09
590.637	2670.24
591.088	2608.39
591.538	2566.79
591.989	2541.24
592.439	2504.79
592.89	2469.64
593.34	2467.19
593.791	2467.19
594.241	2441.54
594.692	2434.54
595.142	2440.29
595.593	2432.04
596.043	2455.34
596.493	2465.89
596.943	2461.59
597.394	2537.44
597.844	2560.24
598.294	2622.54
598.744	2717.79
599.195	2837.64
599.645	2993.34
600.095	3145.29
600.545	3269.24
600.995	3400.99
601.445	3537.34
601.895	3677.34
602.345	3771.34
602.795	3734.54
603.245	3586.89
603.695	3395.94
604.145	3223.29
604.594	3059.04
605.044	2919.24
605.494	2741.79
605.944	2616.44
606.393	2563.69
606.843	2498.69
607.293	2489.34
607.743	2474.89
608.192	2487.64
608.642	2485.04
609.091	2479.99
609.541	2471.79
609.99	2477.49
610.44	2424.59
610.889	2403.24
611.339	2379.54
611.788	2351.59
612.238	2370.49
612.687	2378.79
613.136	2401.64
613.586	2431.84
614.035	2415.44
614.484	2439.54
614.933	2431.74
615.383	2381.69
615.832	2326.94
616.281	2296.04
616.73	2238.74
617.179	2183.54
617.628	2139.29
618.077	2107.39
618.526	2078.34
618.975	2067.24
619.424	2033.44
619.873	2030.19
620.322	2003.79
620.771	2002.34
621.22	1976.19
621.669	1932.79
622.118	1920.24
622.567	1904.59
623.015	1865.49
623.464	1869.44
623.913	1838.09
624.361	1839.79
624.81	1841.79
625.259	1848.54
625.707	1835.19
626.156	1838.34
626.604	1863.54
627.053	1867.44
627.501	1872.69
627.95	1878.09
628.398	1901.24
628.847	1869.54
629.295	1864.44
629.744	1849.54
630.192	1818.04
630.64	1794.64
631.089	1770.79
631.537	1729.54
631.985	1700.74
632.433	1710.54
632.881	1704.49
633.33	1709.74
633.778	1712.29
634.226	1713.79
634.674	1737.34
635.122	1753.54
635.57	1779.99
636.018	1799.69
636.466	1795.44
636.914	1804.84
637.362	1830.54
637.81	1859.09
638.258	1929.44
638.705	1948.39
639.153	1996.44
639.601	2030.34
640.049	2064.39
640.497	2105.59
640.944	2156.04
641.392	2091.94
641.84	1970.79
642.287	1895.44
642.735	1861.04
643.182	1855.04
643.63	1861.19
644.078	1870.69
644.525	1904.24
644.973	1959.24
645.42	2001.74
645.867	2054.09
646.315	2106.24
646.762	2185.24
647.21	2241.59
647.657	2363.29
648.104	2450.44
648.551	2531.14
648.999	2728.74
649.446	3000.24
649.893	3381.19
650.34	3950.64
650.787	4873.49
651.234	6282.29
651.682	8569.29
652.129	12089.39
652.576	15528.84
653.023	15528.19
653.47	15531.39
653.917	15531.44
654.363	15531.34
654.81	15528.34
655.257	15528.99
655.704	15532.79
656.151	13040.79
656.598	8608.49
657.044	6221.19
657.491	4884.74
657.938	3942.99
658.385	3344.29
658.831	2943.39
659.278	2624.94
659.724	2404.14
660.171	2225.49
660.618	2070.34
661.064	1971.09
661.511	1892.79
661.957	1840.54
662.404	1804.44
662.85	1774.74
663.296	1761.64
663.743	1702.49
664.189	1691.64
664.635	1680.44
665.082	1639.69
665.528	1611.89
665.974	1563.24
666.42	1534.89
666.867	1519.09
667.313	1437.09
667.759	1432.59
668.205	1425.34
668.651	1427.79
669.097	1426.39
669.543	1438.44
669.989	1447.34
670.435	1458.84
670.881	1472.24
671.327	1528.04
671.773	1616.54
672.219	1739.29
672.665	1838.99
673.11	1895.74
673.556	1903.89
674.002	1934.44
674.448	1963.04
674.893	1695.69
675.339	1479.24
675.785	1372.19
676.23	1298.94
676.676	1247.19
677.122	1220.24
677.567	1180.79
678.013	1145.49
678.458	1136.89
678.904	1136.74
679.349	1128.19
679.794	1108.14
680.24	1105.79
680.685	1096.79
681.131	1103.34
681.576	1113.09
682.021	1108.34
682.466	1124.39
682.912	1138.04
683.357	1195.84
683.802	1286.29
684.247	1403.49
684.692	1494.39
685.137	1554.69
685.583	1567.69
686.028	1640.74
686.473	1569.69
686.918	1370.69
687.363	1245.19
687.807	1191.64
688.252	1138.59
688.697	1098.09
689.142	1068.29
689.587	1079.94
690.032	1096.49
690.477	1141.04
690.921	1179.44
691.366	1248.09
691.811	1311.89
692.255	1408.69
692.7	1705.59
693.145	2442.54
693.589	3750.74
694.034	4484.34
694.478	4700.89
694.923	4281.84
695.367	5924.59
695.812	3666.64
696.256	1572.14
696.701	1170.14
697.145	1080.04
697.59	1043.84
698.034	1020.79
698.478	1019.94
698.922	1030.69
699.367	1053.59
699.811	1104.59
700.255	1187.29
700.699	1289.69
701.143	1404.24
701.588	1476.24
702.032	1528.74
702.476	1584.99
702.92	1707.69
703.364	2230.34
703.808	3427.49
704.252	4269.44
704.696	4466.44
705.14	4146.99
705.584	5611.69
706.027	3171.59
706.471	1619.04
706.915	1209.84
707.359	1088.29
707.803	1013.69
708.246	981.09
708.69	966.84
709.134	963.04
709.577	955.59
710.021	959.14
710.465	958.24
710.908	951.44
711.352	995.34
711.795	1094.54
712.239	1183.74
712.682	1209.69
713.126	1193.14
713.569	1317.99
714.012	1095.89
714.456	960.89
714.899	906.94
715.342	861.84
715.786	826.49
716.229	805.09
716.672	786.24
717.115	778.84
717.558	794.99
718.002	814.49
718.445	845.54
718.888	894.64
719.331	918.24
719.774	917.74
720.217	903.64
720.66	862.49
721.103	816.89
721.546	782.24
721.989	756.39
722.432	748.39
722.874	748.19
723.317	754.74
723.76	813.24
724.203	991.44
724.645	1327.79
725.088	1552.34
725.531	1523.94
725.974	1644.19
726.416	1484.84
726.859	935.29
727.301	768.59
727.744	737.44
728.187	738.84
728.629	751.79
729.071	784.94
729.514	825.99
729.956	862.59
730.399	873.54
730.841	876.74
731.283	853.89
731.726	835.49
732.168	850.29
732.61	891.54
733.053	954.59
733.495	1051.19
733.937	1171.44
734.379	1368.84
734.821	1743.64
735.263	2777.49
735.705	5032.79
736.148	7279.69
736.59	7276.79
737.032	7675.04
737.474	6417.04
737.916	2490.39
738.357	1335.24
738.799	1033.19
739.241	957.89
739.683	980.34
740.125	1026.89
740.567	1033.84
741.008	1097.84
741.45	1178.49
741.892	1236.24
742.334	1242.54
742.775	1232.59
743.217	1188.89
743.658	993.19
744.1	1041.99
744.542	1228.24
744.983	1279.59
745.425	1322.49
745.866	1282.99
746.307	1032.89
746.749	1059.14
747.19	1501.49
747.632	2945.74
748.073	5448.19
748.514	7451.64
748.956	9811.64
749.397	11516.49
749.838	7947.94
750.279	7419.64
750.72	3930.89
751.162	1682.09
751.603	978.74
752.044	784.79
752.485	697.84
752.926	656.89
753.367	631.09
753.808	614.29
754.249	604.54
754.69	595.34
755.131	588.54
755.572	589.29
756.013	591.34
756.453	586.89
756.894	600.59
757.335	602.99
757.776	609.99
758.216	626.84
758.657	667.14
759.098	734.79
759.538	887.69
759.979	1261.54
760.42	2541.94
760.86	6507.09
761.301	13262.24
761.741	15291.59
762.182	15529.59
762.622	11497.79
763.063	4177.04
763.503	1720.44
763.943	1017.54
764.384	825.79
764.824	721.44
765.264	668.29
765.705	625.19
766.145	589.09
766.585	570.79
767.025	538.34
767.465	553.64
767.906	570.69
768.346	600.74
768.786	698.09
769.226	995.19
769.666	2005.84
770.106	4498.04
770.546	6407.24
770.986	7045.49
771.426	5391.99
771.866	2253.69
772.306	1037.24
772.745	652.64
773.185	553.04
773.625	546.59
774.065	605.29
774.505	919.49
774.944	1724.39
775.384	2530.19
775.824	2789.64
776.263	2265.94
776.703	1187.34
777.142	651.04
777.582	476.14
778.021	424.29
778.461	405.94
778.9	400.44
779.34	389.04
779.779	375.69
780.219	366.29
780.658	366.19
781.097	359.84
781.537	351.54
781.976	345.99
782.415	338.09
782.855	337.04
783.294	337.59
783.733	331.79
784.172	342.59
784.611	341.29
785.05	355.09
785.489	358.04
785.928	367.99
786.367	385.09
786.806	399.49
787.245	432.29
787.684	440.84
788.123	439.69
788.562	423.94
789.001	405.69
789.44	405.24
789.879	402.74
790.317	407.79
790.756	433.54
791.195	483.04
791.634	652.69
792.072	1158.24
792.511	2829.79
792.95	5238.09
793.388	6239.14
793.827	4066.64
794.265	1878.74
794.704	916.49
795.142	567.19
795.581	464.34
796.019	425.14
796.458	424.79
796.896	438.49
797.334	497.69
797.773	668.19
798.211	1257.89
798.649	2603.69
799.087	4373.84
799.526	6178.94
799.964	6309.09
800.402	4350.39
800.84	1979.29
801.278	972.79
801.716	601.74
802.154	491.89
802.592	458.54
803.03	460.99
803.468	468.04
803.906	471.54
804.344	457.39
804.782	451.24
805.22	462.34
805.658	471.09
806.096	497.64
806.533	563.89
806.971	718.54
807.409	1036.79
807.847	2045.49
808.284	5212.99
808.722	9000.39
809.16	12512.19
809.597	15525.39
810.035	15533.34
810.472	13510.39
810.91	5901.64
811.347	2643.99
811.785	1269.79
812.222	799.64
812.66	617.39
813.097	526.84
813.535	456.19
813.972	415.94
814.409	386.29
814.846	372.29
815.284	350.19
815.721	371.29
816.158	419.04
816.595	594.44
817.032	766.24
817.47	689.84
817.907	494.34
818.344	422.34
818.781	419.89
819.218	524.79
819.655	823.19
820.092	1097.54
820.529	979.14
820.966	757.39
821.403	506.99
821.839	424.44
822.276	478.54
822.713	571.99
823.15	515.29
823.587	510.24
824.023	865.74
824.46	2127.54
824.897	3690.64
825.333	2881.59
825.77	1335.14
826.206	708.29
826.643	424.79
827.08	314.39
827.516	278.49
827.953	262.49
828.389	244.04
828.825	232.99
829.262	220.29
829.698	213.54
830.135	206.49
830.571	204.19
831.007	204.19
831.443	211.09
831.88	209.54
832.316	218.99
832.752	218.04
833.188	220.09
833.624	223.04
834.06	223.49
834.497	223.69
834.933	230.94
835.369	241.44
835.805	264.54
836.241	268.59
836.677	302.19
837.112	349.09
837.548	421.34
837.984	630.54
838.42	1334.14
838.856	3714.59
839.292	7198.84
839.727	5485.14
840.163	3661.74
840.599	5552.94
841.034	8307.49
841.47	4270.39
841.906	2070.44
842.341	1134.89
842.777	894.24
843.212	956.59
843.648	600.44
844.083	400.19
844.519	292.89
844.954	240.59
845.39	209.14
845.825	198.64
846.261	196.84
846.696	188.29
847.131	178.64
847.566	186.44
848.002	186.49
848.437	196.14
848.872	206.99
849.307	264.84
849.742	466.44
850.177	1211.44
850.613	2561.59
851.048	1870.19
851.483	855.59
851.918	478.64
852.353	267.24
852.788	201.04
853.223	177.69
853.657	159.19
854.092	153.64
854.527	158.89
854.962	170.94
855.397	188.29
855.832	163.54
856.266	147.39
856.701	146.54
857.136	158.79
857.57	193.04
858.005	244.79
858.44	197.14
858.874	179.64
859.309	175.04
859.743	172.54
860.178	169.49
860.612	190.29
861.047	272.79
861.481	389.44
861.915	271.79
862.35	192.19
862.784	154.84
863.218	141.69
863.653	157.34
864.087	192.24
864.521	231.54
864.955	368.59
865.39	623.14
865.824	512.79
866.258	718.89
866.692	1107.54
867.126	822.44
867.56	436.34
867.994	272.84
868.428	222.84
868.862	280.54
869.296	263.69
869.73	326.14
870.164	271.64
870.598	249.74
871.031	167.74
871.465	146.84
871.899	117.34
872.333	101.64
872.766	99.49
873.2	105.14
873.634	99.79
874.067	105.59
874.501	105.44
874.935	107.69
875.368	106.94
875.802	96.74
876.235	88.49
876.669	91.39
877.102	84.79
877.535	84.79
877.969	79.79
878.402	84.54
878.836	81.64
879.269	82.64
879.702	80.04
880.135	84.44
880.569	87.89
881.002	76.14
881.435	80.79
881.868	78.09
882.301	74.59
882.734	74.64
883.167	78.09
883.601	72.14
884.034	73.04
884.467	67.94
884.899	70.34
885.332	66.74
885.765	68.24
886.198	67.74
886.631	69.94
887.064	66.09
887.497	65.39
887.929	65.99
888.362	65.79
888.795	66.74
889.228	73.64
889.66	66.44
890.093	59.94
890.526	62.59
890.958	60.14
891.391	62.39
891.823	62.29
892.256	64.44
892.688	63.84
893.121	56.39
893.553	62.59
893.985	60.74
894.418	55.74
894.85	63.29
895.282	62.44
895.715	55.94
896.147	53.24
896.579	53.29
897.011	59.19
897.444	60.14
897.876	53.14
898.308	56.29
898.74	59.34
899.172	59.79
899.604	56.94
900.036	61.04
900.468	54.79
900.9	63.89
901.332	80.94
901.764	90.39
902.196	86.04
902.628	89.44
903.06	135.94
903.491	149.64
903.923	113.49
904.355	112.74
904.787	113.04
905.218	91.34
905.65	83.89
906.082	76.94
906.513	71.99
906.945	72.54
907.376	71.04
907.808	69.64
908.239	77.39
908.671	82.09
909.102	90.59
909.534	124.19
909.965	230.49
910.397	594.19
910.828	1664.84
911.259	1041.49
911.691	565.84
912.122	334.14
912.553	170.09
912.984	101.94
913.415	87.64
913.847	74.24
914.278	72.99
914.709	63.19
915.14	63.64
915.571	65.29
916.002	65.69
916.433	62.14
916.864	62.29
917.295	62.79
917.726	70.44
918.157	89.84
918.587	90.89
919.018	84.04
919.449	77.29
919.88	96.04
920.311	134.54
920.741	355.19
921.172	624.04
921.603	326.09
922.033	209.34
922.464	134.04
922.895	88.99
923.325	68.29
923.756	58.29
924.186	78.04
924.617	115.84
925.047	166.74
925.478	151.64
925.908	113.54
926.338	87.94
926.769	68.69
927.199	62.54
927.629	57.89
928.06	60.89
928.49	55.79
928.92	49.14
929.35	40.34
929.78	37.74
930.21	36.94
930.641	31.14
931.071	33.19
931.501	30.14
931.931	25.44
932.361	31.84
932.791	36.24
933.221	35.29
933.651	54.44
934.08	88.94
934.51	55.79
934.94	46.84
935.37	36.79
935.8	30.99
936.229	26.39
936.659	32.34
937.089	62.54
937.519	93.64
937.948	121.64
938.378	76.09
938.807	48.24
939.237	33.09
939.666	27.19
940.096	18.94
940.525	12.64
940.955	21.29
941.384	15.74
941.814	14.09
942.243	18.14
942.672	16.29
943.102	11.89
943.531	11.24
943.96	12.84
944.39	17.89
944.819	19.44
945.248	16.09
945.677	17.84
946.106	15.49
946.535	20.89
946.964	14.44
947.393	16.44
947.822	16.34
948.251	16.64
948.68	16.69
949.109	13.14
949.538	13.89
949.967	15.34
950.396	14.84
950.825	16.84
951.254	16.94
951.682	7.04
952.111	7.54
952.54	12.24
952.969	13.44
953.397	10.69
953.826	9.44
954.254	18.09
954.683	13.74
955.112	17.14
955.54	7.39
955.969	11.44
956.397	15.99
956.826	16.39
957.254	11.44
957.682	12.89
958.111	16.94
958.539	11.54
958.967	10.19
959.396	13.39
959.824	13.14
960.252	14.84
960.68	13.09
961.109	18.54
961.537	15.09
961.965	11.49
962.393	10.89
962.821	10.64
963.249	15.64
963.677	26.64
964.105	105.64
964.533	184.49
964.961	95.24
965.389	53.64
965.817	34.24
966.245	19.09
966.672	15.39
967.1	15.04
967.528	8.49
967.956	9.74
968.383	12.39
968.811	10.59
969.239	10.09
969.666	10.64
970.094	9.69
970.522	5.44
970.949	9.79
971.377	3.69
971.804	8.59
972.232	7.09
972.659	9.44
973.087	10.34
973.514	5.49
973.941	5.54
974.369	3.89
974.796	7.44
975.223	7.94
975.651	12.14
976.078	9.49
976.505	20.79
976.932	45.94
977.359	57.24
977.786	38.19
978.214	28.04
978.641	11.19
979.068	12.54
979.495	7.89
979.922	7.49
980.349	9.69
980.776	8.49
981.202	13.09
981.629	12.79
982.056	8.34
982.483	4.44
982.91	13.24
983.337	4.84
983.763	8.09
984.19	8.89
984.617	8.84
985.043	15.29
985.47	13.89
985.897	12.49
986.323	11.64
986.75	7.44
987.176	9.74
987.603	8.29
988.029	8.59
988.456	9.19
988.882	2.84
989.308	3.59
989.735	5.54
990.161	5.74
990.587	2.89
991.014	8.89
991.44	12.74
991.866	8.99
992.292	2.99
992.719	4.54
993.145	8.14
993.571	10.69
993.997	9.04
994.423	10.54
994.849	5.19
995.275	8.89
995.701	5.84
996.127	3.34
996.553	9.94
996.979	7.79
997.405	8.84
997.83	6.14
998.256	6.44
998.682	1.79
999.108	6.89
999.534	2.39
999.959	7.24
1000.385	6.49
1000.811	0.04
1001.236	3.99
1001.662	1.14
1002.087	6.49
1002.513	5.89
1002.938	3.69
1003.364	5.59
1003.789	8.54
1004.215	3.89
1004.64	6.84
1005.066	7.19
1005.491	10.44
1005.916	7.19
1006.342	9.54
1006.767	7.24
1007.192	9.44
1007.617	4.79
1008.042	8.79
1008.468	8.49
1008.893	11.89
1009.318	20.04
1009.743	29.14
1010.168	50.74
1010.593	38.24
1011.018	28.84
1011.443	19.69
1011.868	16.74
1012.293	7.69
1012.718	2.54
1013.143	2.84
1013.567	12.59
1013.992	8.29
1014.417	6.39
1014.842	3.69
1015.267	6.19
1015.691	8.74
1016.116	5.39
1016.541	10.79
1016.965	5.14
1017.39	2.69
1017.814	0.59
1018.239	1.39
1018.663	-3.26
1019.088	3.84
1019.512	5.49
1019.937	-2.46
1020.361	6.39
1020.785	-1.66
1021.21	1.69
1021.634	-0.01
1022.058	4.09
1022.483	-1.91
1022.907	0.54
1023.331	-3.61
1023.755	-1.11
1024.179	2.94
1024.604	2.19
1025.028	5.29
1025.452	9.64
1025.876	5.29
1026.3	3.14
1026.724	-0.46
1027.148	4.89
1027.572	1.29
1027.996	2.94
1028.42	0.24
1028.843	3.79
1029.267	0.24
1029.691	3.09
1030.115	-1.06
1030.539	4.34
1030.962	-1.01
1031.386	0.79
1031.81	-2.06
1032.233	0.74
1032.657	-3.11
1033.08	3.29
1033.504	-0.86
1033.927	2.14
1034.351	1.04
1034.774	0.14
1035.198	-4.71
1035.621	0.54
1036.045	-0.46
1036.468	7.09
1036.891	2.54
1037.315	6.99
1037.738	4.09
1038.161	4.19
1038.584	-1.76
1039.008	-2.51
1039.431	-3.36
1039.854	-7.81
1040.277	0.19
1040.7	1.14
1041.123	3.69
1041.546	3.24
1041.969	-0.01
1042.392	6.29
1042.815	-2.51
1043.238	-1.91
1043.661	-5.01
1044.084	-2.16
1044.507	-0.06
1044.93	-0.71
1045.352	1.79
1045.775	6.34
1046.198	4.44
1046.621	5.84
1047.043	-0.91
1047.466	5.24
1047.889	1.69
1048.311	8.14
1048.734	0.59
1049.156	-1.36
1049.579	1.89
1050.001	-0.26
1050.424	-2.11
1050.846	-3.21
1051.269	-2.56
1051.691	-1.26
1052.113	-1.66
1052.536	-1.91
1052.958	-0.66
1053.38	-0.46
1053.802	2.19
1054.225	4.69
1054.647	2.24
1055.069	1.84
1055.491	3.74
1055.913	1.59
1056.335	-8.16
1056.757	-2.91
1057.179	-0.06
1057.601	-1.61
1058.023	0.04
1058.445	-3.21
1058.867	7.69
1059.289	0.19
1059.711	-1.41
1060.133	2.44
1060.555	-3.21
1060.976	1.34
1061.398	-2.11
1061.82	0.79
1062.241	-3.61
1062.663	-3.71
1063.085	-5.16
1063.506	-2.71
1063.928	1.39
1064.35	2.99
1064.771	-2.71
1065.193	-1.56
1065.614	0.49
1066.035	-0.01
1066.457	6.19
1066.878	2.94
1067.3	-2.36
1067.721	-0.06
1068.142	6.34
1068.564	2.09
1068.985	-0.06
1069.406	-7.16
1069.827	-0.86
1070.248	2.19
1070.67	-0.81
1071.091	-5.31
1071.512	-0.61
1071.933	-2.71
1072.354	-4.06
1072.775	-1.36
1073.196	1.99
1073.617	-4.56
1074.038	0.54
1074.459	-3.06
1074.88	-2.56
1075.3	-1.36
1075.721	0.29
1076.142	-2.16
1076.563	-8.81
1076.983	2.29
1077.404	-6.46
1077.825	2.84
1078.246	-8.21
1078.666	-4.56
1079.087	-2.56
1079.507	-2.86
1079.928	-1.46
1080.348	2.99
1080.769	0.49
1081.189	-4.81
1081.61	-1.91
1082.03	-3.76
1082.451	1.94
1082.871	-7.11
1083.291	-3.76
1083.711	-0.21
1084.132	-0.21
1084.552	-2.86
1084.972	-8.56
1085.392	-4.16
1085.813	3.39
1086.233	-7.01
1086.653	-0.46
1087.073	-0.46
1087.493	-2.31
1087.913	-3.01
1088.333	-3.16
1088.753	0.24
1089.173	2.04
1089.593	1.99
1090.013	-0.96
1090.433	-4.16
1090.852	2.19
1091.272	-3.86
1091.692	-0.61
1092.112	-1.36
1092.531	-4.81
1092.951	0.19
1093.371	-1.21
1093.79	0.54
1094.21	0.04
1094.63	-2.26
1095.049	-1.91
1095.469	-5.16
1095.888	-0.76
1096.308	1.34
1096.727	-2.36
1097.146	-2.21
1097.566	0.99
1097.985	-3.01
1098.405	-0.36
1098.824	1.14
1099.243	-2.56
1099.662	0.04
1100.082	-4.36
1100.501	-3.51
1100.92	2.44
1101.339	0.84
1101.758	4.24
