Data from MSPlasma+Separation6_Subt14_10-13-40-362.txt Node
Date: Fri Jul 21 10:13:40 EDT 2017
User: Ender
Spectrometer: HR+D1039
Trigger mode: 0
Integration Time (sec): 6.430000E-3
Scans to average: 20
Electric dark correction enabled: true
Nonlinearity correction enabled: false
Boxcar width: 0
XAxis mode: Wavelengths
Number of Pixels in Spectrum: 2048
>>>>>Begin Spectral Data<<<<<
187.836	-0.86
188.309	-0.86
188.782	-0.86
189.255	0.29
189.728	3.84
190.201	-3.61
190.674	0.14
191.147	-2.31
191.619	0.04
192.092	-0.36
192.565	-0.81
193.038	4.74
193.511	1.59
193.984	0.39
194.456	-1.66
194.929	0.94
195.402	-2.71
195.874	0.39
196.347	2.04
196.82	0.19
197.292	-0.51
197.765	-2.71
198.237	-1.61
198.71	-2.76
199.182	0.34
199.655	4.19
200.127	1.49
200.6	4.19
201.072	1.19
201.544	-3.61
202.017	2.39
202.489	0.79
202.961	-4.21
203.433	-3.76
203.906	-0.41
204.378	1.74
204.85	-2.11
205.322	0.09
205.794	7.09
206.266	-0.71
206.739	6.54
207.211	0.69
207.683	1.29
208.155	1.84
208.627	6.49
209.099	3.89
209.57	1.04
210.042	2.49
210.514	4.14
210.986	-0.16
211.458	-2.36
211.93	2.04
212.402	1.74
212.873	0.44
213.345	-6.31
213.817	3.54
214.288	-3.16
214.76	3.14
215.232	-0.46
215.703	0.54
216.175	3.44
216.646	4.04
217.118	-0.06
217.589	0.29
218.061	0.09
218.532	-1.66
219.004	6.34
219.475	1.79
219.946	3.79
220.418	9.54
220.889	6.09
221.36	4.39
221.832	5.39
222.303	3.89
222.774	6.74
223.245	3.04
223.717	0.94
224.188	3.69
224.659	4.59
225.13	0.94
225.601	1.99
226.072	2.64
226.543	8.64
227.014	5.89
227.485	7.79
227.956	6.89
228.427	10.99
228.898	8.24
229.369	8.54
229.839	3.79
230.31	10.54
230.781	11.94
231.252	12.44
231.722	10.94
232.193	13.09
232.664	11.54
233.135	12.39
233.605	9.59
234.076	15.94
234.546	8.69
235.017	10.04
235.487	9.59
235.958	11.94
236.428	13.44
236.899	10.74
237.369	21.19
237.84	14.49
238.31	16.29
238.78	13.49
239.251	15.79
239.721	13.64
240.191	15.14
240.662	19.04
241.132	13.64
241.602	16.99
242.072	15.09
242.542	14.39
243.013	18.09
243.483	17.24
243.953	17.44
244.423	16.09
244.893	20.94
245.363	21.34
245.833	19.04
246.303	18.39
246.773	25.04
247.243	20.74
247.712	21.84
248.182	26.79
248.652	26.44
249.122	25.19
249.592	24.99
250.061	24.09
250.531	22.74
251.001	26.79
251.471	25.34
251.94	25.84
252.41	26.24
252.879	28.09
253.349	38.19
253.818	28.04
254.288	33.74
254.757	31.44
255.227	28.89
255.696	33.09
256.166	36.19
256.635	37.14
257.105	35.39
257.574	37.99
258.043	32.14
258.513	33.19
258.982	32.54
259.451	37.69
259.92	33.09
260.389	40.94
260.859	40.64
261.328	38.09
261.797	34.99
262.266	41.74
262.735	40.84
263.204	40.39
263.673	42.84
264.142	38.49
264.611	42.54
265.08	42.34
265.549	41.39
266.018	43.74
266.487	44.54
266.955	39.84
267.424	50.89
267.893	51.69
268.362	48.09
268.83	45.39
269.299	47.04
269.768	47.64
270.236	51.09
270.705	57.69
271.174	49.79
271.642	50.59
272.111	52.89
272.579	49.69
273.048	54.19
273.516	57.89
273.985	57.74
274.453	55.04
274.922	53.29
275.39	55.19
275.858	58.84
276.327	61.44
276.795	59.64
277.263	58.49
277.731	63.39
278.2	60.84
278.668	58.39
279.136	63.69
279.604	67.04
280.072	63.74
280.54	67.79
281.008	72.59
281.477	71.64
281.945	67.74
282.413	65.74
282.881	70.24
283.348	67.69
283.816	69.34
284.284	72.04
284.752	69.09
285.22	73.89
285.688	72.84
286.156	75.09
286.623	75.19
287.091	78.14
287.559	79.19
288.026	83.84
288.494	82.14
288.962	79.49
289.429	76.99
289.897	81.74
290.364	78.79
290.832	84.44
291.3	84.14
291.767	80.69
292.234	87.59
292.702	89.24
293.169	88.99
293.637	92.24
294.104	90.19
294.571	88.89
295.039	89.39
295.506	85.39
295.973	88.34
296.44	90.34
296.908	96.64
297.375	91.79
297.842	94.09
298.309	91.54
298.776	94.19
299.243	100.34
299.71	102.44
300.177	99.14
300.644	101.04
301.111	103.64
301.578	103.34
302.045	101.74
302.512	101.79
302.979	102.19
303.446	110.74
303.913	108.64
304.379	111.89
304.846	111.29
305.313	122.99
305.78	123.19
306.246	122.59
306.713	128.14
307.18	126.74
307.646	125.74
308.113	120.39
308.579	128.19
309.046	130.19
309.512	131.19
309.979	132.54
310.445	129.79
310.912	134.64
311.378	139.59
311.845	141.89
312.311	137.44
312.777	139.19
313.244	146.74
313.71	141.04
314.176	146.84
314.642	144.14
315.109	145.49
315.575	140.69
316.041	147.84
316.507	143.74
316.973	154.09
317.439	155.44
317.905	152.39
318.371	152.84
318.837	158.34
319.303	157.39
319.769	153.09
320.235	163.09
320.701	166.49
321.167	157.34
321.633	162.94
322.099	163.64
322.564	168.94
323.03	167.64
323.496	167.49
323.962	171.09
324.427	171.24
324.893	171.19
325.359	175.89
325.824	176.14
326.29	183.04
326.755	179.74
327.221	182.19
327.686	194.89
328.152	189.24
328.617	190.74
329.083	196.99
329.548	202.54
330.014	200.74
330.479	199.24
330.944	196.29
331.41	209.14
331.875	194.44
332.34	195.59
332.805	207.99
333.271	201.44
333.736	205.64
334.201	210.39
334.666	222.89
335.131	223.24
335.596	223.59
336.061	218.09
336.526	216.49
336.991	208.64
337.456	208.84
337.921	205.49
338.386	215.64
338.851	210.64
339.316	209.49
339.781	211.79
340.246	210.69
340.711	219.04
341.175	225.49
341.64	233.54
342.105	234.49
342.569	240.84
343.034	241.29
343.499	237.74
343.963	247.64
344.428	245.84
344.893	248.94
345.357	253.34
345.822	253.04
346.286	256.14
346.751	265.19
347.215	267.59
347.679	271.54
348.144	287.04
348.608	293.99
349.073	294.89
349.537	299.94
350.001	293.94
350.465	302.24
350.93	298.69
351.394	301.74
351.858	303.59
352.322	314.69
352.786	312.74
353.25	311.39
353.715	320.09
354.179	330.59
354.643	337.19
355.107	340.09
355.571	332.29
356.035	333.69
356.498	335.39
356.962	329.09
357.426	337.59
357.89	334.09
358.354	324.34
358.818	321.59
359.281	330.99
359.745	326.89
360.209	331.79
360.673	328.44
361.136	328.94
361.6	333.04
362.064	339.84
362.527	353.19
362.991	347.79
363.454	342.14
363.918	354.54
364.381	351.19
364.845	355.29
365.308	354.89
365.772	354.79
366.235	355.49
366.698	359.44
367.162	360.14
367.625	366.69
368.088	372.34
368.552	366.74
369.015	369.64
369.478	366.99
369.941	372.54
370.404	380.69
370.867	378.19
371.331	373.44
371.794	387.49
372.257	390.19
372.72	386.49
373.183	392.34
373.646	391.04
374.109	391.69
374.572	396.14
375.035	402.74
375.497	398.04
375.96	412.24
376.423	417.94
376.886	423.34
377.349	424.99
377.811	431.99
378.274	428.09
378.737	427.64
379.199	428.34
379.662	438.84
380.125	442.09
380.587	446.74
381.05	452.69
381.512	460.14
381.975	464.54
382.437	472.44
382.9	468.19
383.362	473.14
383.825	479.84
384.287	479.54
384.75	476.29
385.212	480.99
385.674	487.89
386.136	498.99
386.599	486.24
387.061	479.99
387.523	485.49
387.985	488.49
388.447	497.89
388.91	500.44
389.372	500.24
389.834	502.19
390.296	491.94
390.758	508.89
391.22	499.44
391.682	509.04
392.144	504.89
392.606	507.99
393.068	518.89
393.529	550.29
393.991	556.64
394.453	532.99
394.915	515.79
395.377	509.39
395.838	513.99
396.3	521.09
396.762	523.79
397.224	521.59
397.685	518.84
398.147	525.39
398.608	538.09
399.07	541.09
399.531	539.84
399.993	552.14
400.454	562.79
400.916	566.44
401.377	578.29
401.839	578.79
402.3	582.74
402.762	610.39
403.223	641.49
403.684	643.24
404.145	622.29
404.607	609.64
405.068	600.59
405.529	602.99
405.99	615.54
406.451	620.04
406.913	612.74
407.374	616.04
407.835	616.49
408.296	633.54
408.757	639.39
409.218	650.54
409.679	657.49
410.14	665.04
410.601	677.09
411.062	677.94
411.522	683.49
411.983	682.79
412.444	691.49
412.905	708.54
413.366	724.89
413.826	760.34
414.287	851.79
414.748	1009.14
415.208	1040.24
415.669	869.84
416.13	790.69
416.59	773.69
417.051	799.59
417.511	836.14
417.972	900.59
418.432	958.39
418.893	1054.84
419.353	1009.69
419.814	793.84
420.274	721.44
420.734	704.69
421.195	725.14
421.655	720.39
422.115	741.44
422.576	732.04
423.036	731.84
423.496	766.54
423.956	789.69
424.416	846.64
424.876	948.94
425.336	938.69
425.797	920.24
426.257	909.49
426.717	867.24
427.177	806.44
427.637	815.79
428.097	844.04
428.556	869.24
429.016	935.44
429.476	941.09
429.936	923.29
430.396	913.09
430.856	938.09
431.315	958.39
431.775	1023.19
432.235	1094.64
432.694	1111.29
433.154	1047.59
433.614	1026.89
434.073	998.59
434.533	903.84
434.993	866.39
435.452	878.39
435.912	860.29
436.371	854.34
436.83	847.49
437.29	824.94
437.749	804.54
438.209	806.54
438.668	816.64
439.127	833.09
439.587	813.29
440.046	792.99
440.505	811.44
440.964	813.24
441.424	852.34
441.883	857.74
442.342	811.24
442.801	781.84
443.26	791.69
443.719	780.09
444.178	778.14
444.637	789.29
445.096	792.54
445.555	805.39
446.014	802.09
446.473	794.09
446.932	791.84
447.391	807.24
447.849	819.14
448.308	806.34
448.767	811.04
449.226	827.04
449.685	839.19
450.143	869.39
450.602	879.84
451.061	826.94
451.519	827.09
451.978	810.09
452.436	811.04
452.895	825.34
453.353	818.89
453.812	809.34
454.27	818.34
454.729	817.04
455.187	832.84
455.646	829.54
456.104	826.24
456.562	840.44
457.021	852.44
457.479	812.99
457.937	838.44
458.395	863.84
458.854	858.49
459.312	842.44
459.77	853.59
460.228	858.14
460.686	865.39
461.144	874.49
461.602	863.39
462.06	861.19
462.518	881.14
462.976	890.59
463.434	896.59
463.892	897.49
464.35	925.04
464.808	939.44
465.266	950.54
465.724	956.99
466.181	957.79
466.639	961.39
467.097	987.94
467.555	1027.19
468.012	1027.59
468.47	1038.99
468.928	1064.24
469.385	1089.19
469.843	1105.74
470.3	1097.59
470.758	1129.29
471.215	1143.39
471.673	1171.04
472.13	1198.14
472.588	1228.74
473.045	1230.89
473.503	1245.39
473.96	1297.79
474.417	1314.14
474.875	1364.94
475.332	1418.34
475.789	1438.39
476.246	1482.99
476.704	1535.19
477.161	1580.94
477.618	1624.09
478.075	1707.54
478.532	1832.54
478.989	1961.49
479.446	2150.19
479.903	2246.49
480.36	2435.74
480.817	2574.34
481.274	2736.49
481.731	2976.64
482.188	3169.04
482.645	3397.29
483.102	3577.44
483.558	3815.44
484.015	3949.69
484.472	3935.49
484.929	3829.14
485.385	3667.39
485.842	3607.79
486.299	3472.69
486.755	3206.99
487.212	2892.74
487.668	2629.74
488.125	2459.24
488.582	2295.59
489.038	2220.64
489.494	2169.74
489.951	2095.39
490.407	2037.74
490.864	2009.74
491.32	1969.14
491.776	1946.44
492.233	1961.94
492.689	1926.04
493.145	1901.94
493.602	1880.49
494.058	1897.29
494.514	1909.84
494.97	1902.59
495.426	1931.99
495.882	1925.89
496.338	1916.09
496.794	1935.74
497.251	1926.49
497.707	1945.29
498.163	1956.89
498.618	1958.14
499.074	1954.79
499.53	1972.59
499.986	1986.24
500.442	1971.54
500.898	1947.69
501.354	1969.19
501.809	1968.59
502.265	1960.39
502.721	1968.54
503.177	1983.99
503.632	1986.99
504.088	1990.79
504.543	2025.14
504.999	2048.84
505.455	2040.84
505.91	2017.69
506.366	2018.74
506.821	2019.24
507.277	1997.99
507.732	2016.34
508.187	2016.99
508.643	2025.74
509.098	2033.79
509.553	2064.49
510.009	2091.69
510.464	2120.34
510.919	2142.14
511.375	2168.29
511.83	2185.74
512.285	2215.94
512.74	2263.39
513.195	2294.39
513.65	2334.14
514.105	2351.34
514.56	2359.54
515.015	2385.14
515.47	2409.19
515.925	2379.89
516.38	2385.69
516.835	2389.44
517.29	2375.24
517.745	2370.44
518.2	2345.74
518.655	2294.29
519.109	2275.14
519.564	2234.69
520.019	2222.14
520.474	2208.49
520.928	2202.64
521.383	2174.99
521.838	2166.99
522.292	2160.09
522.747	2128.64
523.201	2140.29
523.656	2110.84
524.11	2108.89
524.565	2099.94
525.019	2108.89
525.474	2091.29
525.928	2085.39
526.382	2091.49
526.837	2103.29
527.291	2103.44
527.745	2084.84
528.2	2078.64
528.654	2067.49
529.108	2065.74
529.562	2068.34
530.016	2070.14
530.47	2059.64
530.925	2060.44
531.379	2058.89
531.833	2091.99
532.287	2085.79
532.741	2070.99
533.195	2078.09
533.649	2082.24
534.103	2080.64
534.556	2064.09
535.01	2092.64
535.464	2064.79
535.918	2069.54
536.372	2074.94
536.826	2068.49
537.279	2050.79
537.733	2063.59
538.187	2067.59
538.64	2061.89
539.094	2086.34
539.548	2118.69
540.001	2103.09
540.455	2119.74
540.908	2124.14
541.362	2147.79
541.815	2150.14
542.269	2200.74
542.722	2192.09
543.175	2222.09
543.629	2233.89
544.082	2251.79
544.536	2267.09
544.989	2266.99
545.442	2290.64
545.895	2297.09
546.349	2294.89
546.802	2292.74
547.255	2278.44
547.708	2299.44
548.161	2328.49
548.614	2316.34
549.067	2340.49
549.52	2324.39
549.973	2298.04
550.426	2288.44
550.879	2284.19
551.332	2294.49
551.785	2305.79
552.238	2321.64
552.691	2323.24
553.144	2358.69
553.596	2400.99
554.049	2430.84
554.502	2474.19
554.955	2498.49
555.407	2536.69
555.86	2522.54
556.313	2488.74
556.765	2468.29
557.218	2437.44
557.67	2423.09
558.123	2385.89
558.576	2385.04
559.028	2396.09
559.48	2401.04
559.933	2392.79
560.385	2319.04
560.838	2257.54
561.29	2186.64
561.742	2175.59
562.195	2128.54
562.647	2117.64
563.099	2102.44
563.551	2084.04
564.004	2109.64
564.456	2077.09
564.908	2040.14
565.36	2004.49
565.812	1965.99
566.264	1937.99
566.716	1924.29
567.168	1890.99
567.62	1891.64
568.072	1877.14
568.524	1859.54
568.976	1857.49
569.428	1838.84
569.88	1838.39
570.332	1858.59
570.784	1855.34
571.235	1848.94
571.687	1860.04
572.139	1851.24
572.59	1876.14
573.042	1890.89
573.494	1902.19
573.945	1867.59
574.397	1815.74
574.849	1821.89
575.3	1827.14
575.752	1790.89
576.203	1787.79
576.655	1788.64
577.106	1766.19
577.557	1750.89
578.009	1746.04
578.46	1748.24
578.912	1724.94
579.363	1741.39
579.814	1742.24
580.265	1733.69
580.717	1747.04
581.168	1744.79
581.619	1749.64
582.07	1766.34
582.521	1756.94
582.972	1748.24
583.423	1759.64
583.875	1768.34
584.326	1775.64
584.777	1805.44
585.227	1837.84
585.678	1854.74
586.129	1880.94
586.58	1885.79
587.031	1935.14
587.482	1979.09
587.933	2003.09
588.384	1990.44
588.834	1969.79
589.285	1960.79
589.736	1954.54
590.186	1962.59
590.637	1943.44
591.088	1895.99
591.538	1865.54
591.989	1841.64
592.439	1819.19
592.89	1792.34
593.34	1793.99
593.791	1787.59
594.241	1777.94
594.692	1766.99
595.142	1762.94
595.593	1767.09
596.043	1774.24
596.493	1790.84
596.943	1782.59
597.394	1841.59
597.844	1847.14
598.294	1902.34
598.744	1961.34
599.195	2047.94
599.645	2167.14
600.095	2275.64
600.545	2373.69
600.995	2477.29
601.445	2562.39
601.895	2676.49
602.345	2762.29
602.795	2714.39
603.245	2610.94
603.695	2483.69
604.145	2339.54
604.594	2229.34
605.044	2113.24
605.494	2005.74
605.944	1889.39
606.393	1840.49
606.843	1809.14
607.293	1804.59
607.743	1794.59
608.192	1809.24
608.642	1801.84
609.091	1796.59
609.541	1794.04
609.99	1793.24
610.44	1758.34
610.889	1741.69
611.339	1704.74
611.788	1693.39
612.238	1711.04
612.687	1710.84
613.136	1726.69
613.586	1733.54
614.035	1740.99
614.484	1750.34
614.933	1754.04
615.383	1712.44
615.832	1661.49
616.281	1648.99
616.73	1608.59
617.179	1580.54
617.628	1549.99
618.077	1526.84
618.526	1503.09
618.975	1488.19
619.424	1465.74
619.873	1473.14
620.322	1444.24
620.771	1447.89
621.22	1430.84
621.669	1405.59
622.118	1379.84
622.567	1373.49
623.015	1346.49
623.464	1354.19
623.913	1338.74
624.361	1335.29
624.81	1331.74
625.259	1334.34
625.707	1320.34
626.156	1331.89
626.604	1354.84
627.053	1355.94
627.501	1351.14
627.95	1364.79
628.398	1380.54
628.847	1357.04
629.295	1353.04
629.744	1342.09
630.192	1318.54
630.64	1306.59
631.089	1289.44
631.537	1257.94
631.985	1243.89
632.433	1241.94
632.881	1226.19
633.33	1226.94
633.778	1229.19
634.226	1252.19
634.674	1256.89
635.122	1264.69
635.57	1286.54
636.018	1307.44
636.466	1297.84
636.914	1302.14
637.362	1326.74
637.81	1350.24
638.258	1387.84
638.705	1404.19
639.153	1453.99
639.601	1452.99
640.049	1482.99
640.497	1525.44
640.944	1559.59
641.392	1494.09
641.84	1412.99
642.287	1358.99
642.735	1327.19
643.182	1323.74
643.63	1321.99
644.078	1325.14
644.525	1340.14
644.973	1371.04
645.42	1404.99
645.867	1429.44
646.315	1449.49
646.762	1515.74
647.21	1551.84
647.657	1625.94
648.104	1676.84
648.551	1715.49
648.999	1847.59
649.446	2021.79
649.893	2237.94
650.34	2599.84
650.787	3178.04
651.234	4068.34
651.682	5565.54
652.129	7809.39
652.576	11025.04
653.023	14482.99
653.47	15533.54
653.917	15533.59
654.363	15533.49
654.81	15530.49
655.257	15531.14
655.704	14099.64
656.151	8570.49
656.598	5660.14
657.044	4094.74
657.491	3219.84
657.938	2646.69
658.385	2260.79
658.831	2001.64
659.278	1795.89
659.724	1657.84
660.171	1550.19
660.618	1451.09
661.064	1373.94
661.511	1332.94
661.957	1290.14
662.404	1271.54
662.85	1252.79
663.296	1232.34
663.743	1201.49
664.189	1198.49
664.635	1179.54
665.082	1159.54
665.528	1148.09
665.974	1110.79
666.42	1091.19
666.867	1080.54
667.313	1033.74
667.759	1020.09
668.205	1018.79
668.651	1021.14
669.097	1015.84
669.543	1030.79
669.989	1027.69
670.435	1038.29
670.881	1049.74
671.327	1090.94
671.773	1163.24
672.219	1248.69
672.665	1333.94
673.11	1372.39
673.556	1391.89
674.002	1411.54
674.448	1421.04
674.893	1227.89
675.339	1076.14
675.785	983.34
676.23	941.74
676.676	907.24
677.122	884.54
677.567	858.34
678.013	830.34
678.458	825.19
678.904	817.39
679.349	811.64
679.794	808.14
680.24	803.84
680.685	801.24
681.131	795.79
681.576	805.19
682.021	812.14
682.466	813.54
682.912	818.24
683.357	860.24
683.802	937.84
684.247	1019.04
684.692	1088.94
685.137	1137.29
685.583	1155.99
686.028	1206.74
686.473	1155.29
686.918	997.79
687.363	913.59
687.807	877.99
688.252	828.49
688.697	805.79
689.142	781.09
689.587	777.29
690.032	785.19
690.477	823.24
690.921	861.39
691.366	910.14
691.811	944.64
692.255	1020.79
692.7	1237.29
693.145	1783.79
693.589	2710.34
694.034	3237.99
694.478	3448.34
694.923	3153.24
695.367	4421.19
695.812	2723.94
696.256	1159.14
696.701	855.24
697.145	780.94
697.59	752.89
698.034	746.09
698.478	744.49
698.922	745.34
699.367	764.64
699.811	802.34
700.255	866.24
700.699	951.59
701.143	1027.89
701.588	1078.04
702.032	1132.39
702.476	1166.49
702.92	1244.39
703.364	1619.39
703.808	2475.14
704.252	3101.54
704.696	3268.29
705.14	3092.44
705.584	4181.49
706.027	2350.59
706.471	1188.94
706.915	892.79
707.359	789.84
707.803	739.39
708.246	714.14
708.69	715.54
709.134	701.09
709.577	693.94
710.021	698.29
710.465	702.69
710.908	691.89
711.352	718.94
711.795	799.39
712.239	858.99
712.682	881.34
713.126	863.54
713.569	961.44
714.012	788.89
714.456	692.54
714.899	662.64
715.342	624.14
715.786	603.49
716.229	587.64
716.672	570.99
717.115	580.14
717.558	577.59
718.002	599.09
718.445	617.34
718.888	650.34
719.331	673.24
719.774	679.59
720.217	656.74
720.66	634.29
721.103	600.84
721.546	565.19
721.989	546.69
722.432	544.99
722.874	542.84
723.317	551.34
723.76	594.39
724.203	726.39
724.645	972.84
725.088	1143.19
725.531	1125.04
725.974	1218.54
726.416	1097.04
726.859	682.74
727.301	563.09
727.744	536.84
728.187	536.59
728.629	552.44
729.071	579.24
729.514	599.49
729.956	628.04
730.399	638.09
730.841	639.39
731.283	631.69
731.726	608.89
732.168	620.54
732.61	651.69
733.053	701.74
733.495	778.09
733.937	852.29
734.379	1017.84
734.821	1285.59
735.263	2043.44
735.705	3658.64
736.148	5384.84
736.59	5402.94
737.032	5824.59
737.474	4815.34
737.916	1868.04
738.357	978.04
738.799	757.14
739.241	703.74
739.683	708.04
740.125	731.84
740.567	736.94
741.008	781.24
741.45	822.39
741.892	868.94
742.334	881.94
742.775	871.59
743.217	841.04
743.658	699.89
744.1	728.64
744.542	842.09
744.983	871.19
745.425	916.59
745.866	882.34
746.307	730.89
746.749	768.19
747.19	1107.44
747.632	2134.54
748.073	3984.09
748.514	5517.74
748.956	7310.99
749.397	8578.89
749.838	5947.94
750.279	5617.69
750.72	2931.94
751.162	1254.34
751.603	722.14
752.044	579.04
752.485	514.49
752.926	487.44
753.367	462.14
753.808	447.19
754.249	447.39
754.69	433.29
755.131	436.64
755.572	433.09
756.013	430.89
756.453	427.04
756.894	436.49
757.335	444.69
757.776	448.84
758.216	459.54
758.657	480.04
759.098	533.79
759.538	652.34
759.979	937.84
760.42	1877.64
760.86	4817.44
761.301	9972.44
761.741	11758.94
762.182	13360.54
762.622	8711.99
763.063	3127.64
763.503	1285.99
763.943	746.94
764.384	601.99
764.824	520.09
765.264	481.29
765.705	447.79
766.145	432.09
766.585	414.09
767.025	402.14
767.465	401.69
767.906	409.74
768.346	444.84
768.786	506.79
769.226	734.69
769.666	1472.89
770.106	3301.39
770.546	4731.74
770.986	5337.19
771.426	4037.39
771.866	1692.19
772.306	764.99
772.745	475.34
773.185	399.19
773.625	395.59
774.065	426.69
774.505	609.69
774.944	1102.44
775.384	1605.04
775.824	1791.44
776.263	1485.04
776.703	778.39
777.142	449.09
777.582	333.24
778.021	304.14
778.461	289.54
778.9	284.04
779.34	282.54
779.779	265.99
780.219	266.69
780.658	258.89
781.097	256.99
781.537	252.24
781.976	247.59
782.415	248.69
782.855	245.14
783.294	249.44
783.733	236.79
784.172	250.44
784.611	245.59
785.05	255.44
785.489	261.24
785.928	264.19
786.367	275.89
786.806	292.99
787.245	312.59
787.684	320.59
788.123	320.04
788.562	313.99
789.001	298.49
789.44	287.64
789.879	292.59
790.317	293.69
790.756	309.94
791.195	352.04
791.634	477.19
792.072	849.79
792.511	2086.19
792.95	3854.74
793.388	4676.99
793.827	3043.49
794.265	1399.69
794.704	684.24
795.142	415.04
795.581	346.69
796.019	316.24
796.458	307.69
796.896	318.64
797.334	368.59
797.773	489.84
798.211	927.14
798.649	1919.84
799.087	3246.64
799.526	4590.64
799.964	4736.74
800.402	3263.69
800.84	1488.94
801.278	732.09
801.716	446.94
802.154	360.59
802.592	334.19
803.03	341.49
803.468	345.49
803.906	351.04
804.344	338.34
804.782	334.24
805.22	337.74
805.658	351.74
806.096	375.44
806.533	410.74
806.971	523.29
807.409	772.69
807.847	1519.54
808.284	3851.09
808.722	6821.09
809.16	9526.69
809.597	12901.94
810.035	15361.39
810.472	10487.39
810.91	4470.54
811.347	2003.89
811.785	954.49
812.222	598.84
812.66	458.44
813.097	393.54
813.535	341.74
813.972	309.74
814.409	282.84
814.846	275.49
815.284	254.04
815.721	267.24
816.158	294.14
816.595	402.74
817.032	512.44
817.47	468.19
817.907	335.44
818.344	293.29
818.781	283.94
819.218	353.69
819.655	544.94
820.092	713.04
820.529	647.74
820.966	507.09
821.403	347.49
821.839	293.74
822.276	326.69
822.713	392.64
823.15	362.84
823.587	376.39
824.023	643.34
824.46	1581.64
824.897	2769.29
825.333	2177.44
825.77	1000.49
826.206	525.79
826.643	310.34
827.08	230.94
827.516	202.09
827.953	190.19
828.389	184.19
828.825	172.34
829.262	161.34
829.698	161.24
830.135	151.34
830.571	148.49
831.007	155.24
831.443	154.09
831.88	154.19
832.316	158.04
832.752	158.89
833.188	156.44
833.624	164.99
834.06	165.44
834.497	165.24
834.933	165.69
835.369	181.84
835.805	194.59
836.241	202.54
836.677	224.69
837.112	254.29
837.548	313.89
837.984	473.39
838.42	998.74
838.856	2767.19
839.292	5483.69
839.727	4135.24
840.163	2753.74
840.599	4158.34
841.034	6368.59
841.47	3249.54
841.906	1549.89
842.341	839.84
842.777	629.84
843.212	655.49
843.648	411.54
844.083	276.94
844.519	210.59
844.954	174.09
845.39	150.79
845.825	146.09
846.261	141.69
846.696	141.39
847.131	134.74
847.566	134.39
848.002	136.94
848.437	148.79
848.872	154.04
849.307	198.04
849.742	349.79
850.177	900.44
850.613	1931.44
851.048	1404.99
851.483	649.64
851.918	359.64
852.353	200.59
852.788	144.39
853.223	125.89
853.657	118.69
854.092	111.49
854.527	110.34
854.962	116.89
855.397	139.19
855.832	115.59
856.266	105.24
856.701	99.49
857.136	107.29
857.57	137.64
858.005	165.79
858.44	141.94
858.874	125.59
859.309	127.54
859.743	122.14
860.178	120.44
860.612	133.19
861.047	183.54
861.481	259.34
861.915	175.74
862.35	130.89
862.784	105.94
863.218	102.84
863.653	109.49
864.087	135.34
864.521	160.29
864.955	265.74
865.39	457.89
865.824	357.69
866.258	477.44
866.692	728.94
867.126	529.89
867.56	286.24
867.994	179.74
868.428	155.04
868.862	192.99
869.296	168.29
869.73	210.84
870.164	186.39
870.598	162.44
871.031	118.49
871.465	99.84
871.899	81.34
872.333	69.89
872.766	76.44
873.2	73.79
873.634	70.34
874.067	77.94
874.501	78.09
874.935	79.94
875.368	74.54
875.802	69.74
876.235	63.29
876.669	66.04
877.102	60.64
877.535	61.29
877.969	58.69
878.402	64.29
878.836	63.69
879.269	61.14
879.702	60.34
880.135	59.19
880.569	59.59
881.002	50.09
881.435	56.29
881.868	53.19
882.301	55.94
882.734	55.59
883.167	57.09
883.601	52.79
884.034	50.14
884.467	48.99
884.899	53.44
885.332	47.04
885.765	46.44
886.198	45.09
886.631	46.19
887.064	46.69
887.497	43.89
887.929	49.79
888.362	44.39
888.795	46.09
889.228	46.44
889.66	45.89
890.093	41.59
890.526	46.59
890.958	49.64
891.391	47.04
891.823	42.09
892.256	46.84
892.688	44.39
893.121	37.29
893.553	46.94
893.985	42.74
894.418	40.69
894.85	46.19
895.282	43.69
895.715	38.89
896.147	35.04
896.579	36.14
897.011	43.84
897.444	40.14
897.876	33.69
898.308	37.89
898.74	41.09
899.172	42.19
899.604	42.89
900.036	43.99
900.468	38.24
900.9	53.39
901.332	59.79
901.764	57.54
902.196	59.14
902.628	60.19
903.06	91.54
903.491	94.34
903.923	72.34
904.355	72.59
904.787	82.04
905.218	62.34
905.65	53.49
906.082	52.49
906.513	51.29
906.945	51.69
907.376	51.34
907.808	49.34
908.239	50.39
908.671	60.49
909.102	65.24
909.534	91.09
909.965	180.09
910.397	451.64
910.828	1289.49
911.259	798.29
911.691	432.34
912.122	252.84
912.553	126.69
912.984	69.44
913.415	61.24
913.847	57.89
914.278	53.89
914.709	46.99
915.14	41.44
915.571	49.39
916.002	50.09
916.433	41.19
916.864	38.54
917.295	45.49
917.726	51.04
918.157	64.09
918.587	65.19
919.018	60.34
919.449	57.39
919.88	71.14
920.311	97.79
920.741	268.34
921.172	471.64
921.603	243.69
922.033	155.64
922.464	98.39
922.895	60.94
923.325	47.34
923.756	43.19
924.186	51.84
924.617	78.94
925.047	107.89
925.478	97.24
925.908	73.74
926.338	53.89
926.769	44.29
927.199	41.84
927.629	36.84
928.06	42.09
928.49	40.89
928.92	37.19
929.35	31.29
929.78	27.14
930.21	27.19
930.641	24.34
931.071	23.89
931.501	24.09
931.931	20.14
932.361	25.79
932.791	29.14
933.221	31.04
933.651	36.79
934.08	68.04
934.51	40.09
934.94	33.54
935.37	25.84
935.8	21.34
936.229	19.64
936.659	19.39
937.089	40.29
937.519	63.59
937.948	81.94
938.378	50.29
938.807	31.04
939.237	18.24
939.666	16.54
940.096	15.59
940.525	10.34
940.955	15.99
941.384	10.54
941.814	15.14
942.243	18.29
942.672	10.64
943.102	7.09
943.531	11.94
943.96	11.19
944.39	12.79
944.819	15.79
945.248	9.44
945.677	11.44
946.106	13.79
946.535	11.84
946.964	8.44
947.393	5.19
947.822	6.24
948.251	13.59
948.68	14.29
949.109	10.64
949.538	9.69
949.967	11.54
950.396	9.39
950.825	11.54
951.254	4.84
951.682	5.09
952.111	6.34
952.54	10.54
952.969	4.74
953.397	4.29
953.826	3.99
954.254	11.44
954.683	11.59
955.112	7.89
955.54	9.04
955.969	9.54
956.397	13.74
956.826	6.59
957.254	7.84
957.682	6.29
958.111	10.34
958.539	10.74
958.967	9.69
959.396	13.09
959.824	8.49
960.252	11.04
960.68	7.79
961.109	10.74
961.537	10.79
961.965	4.19
962.393	2.64
962.821	9.24
963.249	12.34
963.677	15.29
964.105	80.39
964.533	135.59
964.961	67.29
965.389	40.99
965.817	22.19
966.245	16.74
966.672	7.69
967.1	7.99
967.528	1.59
967.956	4.39
968.383	9.74
968.811	8.14
969.239	4.84
969.666	5.79
970.094	4.34
970.522	3.59
970.949	5.49
971.377	4.34
971.804	4.89
972.232	5.09
972.659	3.64
973.087	7.34
973.514	5.49
973.941	8.04
974.369	3.89
974.796	5.99
975.223	2.59
975.651	3.99
976.078	8.79
976.505	14.74
976.932	32.34
977.359	41.89
977.786	26.34
978.214	19.29
978.641	5.64
979.068	6.34
979.495	3.59
979.922	3.14
980.349	6.39
980.776	4.64
981.202	4.89
981.629	8.69
982.056	5.39
982.483	-2.46
982.91	8.39
983.337	1.54
983.763	3.64
984.19	4.89
984.617	5.44
985.043	5.94
985.47	8.79
985.897	5.99
986.323	10.39
986.75	4.29
987.176	1.54
987.603	4.69
988.029	1.64
988.456	8.34
988.882	7.04
989.308	0.14
989.735	0.74
990.161	3.94
990.587	0.19
991.014	3.99
991.44	-0.31
991.866	3.54
992.292	3.64
992.719	6.29
993.145	5.59
993.571	4.49
993.997	7.89
994.423	8.99
994.849	-2.01
995.275	4.64
995.701	4.44
996.127	-0.26
996.553	1.14
996.979	-5.01
997.405	4.29
997.83	2.44
998.256	4.59
998.682	2.69
999.108	4.99
999.534	-4.56
999.959	-2.86
1000.385	1.94
1000.811	2.04
1001.236	-1.71
1001.662	-1.96
1002.087	6.79
1002.513	4.59
1002.938	3.04
1003.364	1.14
1003.789	4.09
1004.215	-3.76
1004.64	-0.51
1005.066	4.59
1005.491	8.94
1005.916	5.34
1006.342	4.19
1006.767	4.44
1007.192	7.74
1007.617	6.74
1008.042	3.64
1008.468	3.34
1008.893	10.79
1009.318	9.89
1009.743	17.34
1010.168	31.54
1010.593	26.79
1011.018	17.74
1011.443	10.49
1011.868	8.94
1012.293	7.94
1012.718	2.29
1013.143	6.29
1013.567	5.04
1013.992	3.84
1014.417	9.59
1014.842	1.44
1015.267	1.34
1015.691	2.29
1016.116	0.79
1016.541	5.09
1016.965	2.79
1017.39	2.04
1017.814	-2.11
1018.239	-1.66
1018.663	-5.46
1019.088	-0.96
1019.512	7.64
1019.937	-4.81
1020.361	1.09
1020.785	-1.76
1021.21	0.14
1021.634	2.94
1022.058	-0.66
1022.483	-0.51
1022.907	0.49
1023.331	0.24
1023.755	-0.51
1024.179	0.34
1024.604	-0.06
1025.028	-1.31
1025.452	1.49
1025.876	4.09
1026.3	0.49
1026.724	-2.86
1027.148	5.89
1027.572	0.24
1027.996	5.84
1028.42	1.99
1028.843	5.99
1029.267	-0.86
1029.691	2.69
1030.115	-1.21
1030.539	-3.11
1030.962	-2.21
1031.386	0.54
1031.81	0.49
1032.233	-0.61
1032.657	-9.56
1033.08	-2.56
1033.504	-2.71
1033.927	-2.06
1034.351	-0.51
1034.774	-0.96
1035.198	-0.76
1035.621	-0.26
1036.045	-2.11
1036.468	4.49
1036.891	0.84
1037.315	6.14
1037.738	2.39
1038.161	2.84
1038.584	-2.76
1039.008	-5.21
1039.431	-2.91
1039.854	-4.21
1040.277	5.64
1040.7	-1.16
1041.123	1.04
1041.546	0.34
1041.969	2.74
1042.392	6.84
1042.815	-5.16
1043.238	-2.11
1043.661	2.49
1044.084	-1.96
1044.507	0.09
1044.93	-0.41
1045.352	-1.31
1045.775	0.39
1046.198	4.19
1046.621	3.89
1047.043	-2.01
1047.466	1.29
1047.889	1.94
1048.311	0.74
1048.734	-1.61
1049.156	0.09
1049.579	2.39
1050.001	-1.01
1050.424	3.59
1050.846	-1.86
1051.269	-0.96
1051.691	1.84
1052.113	2.24
1052.536	0.94
1052.958	-4.41
1053.38	0.04
1053.802	4.09
1054.225	0.69
1054.647	2.54
1055.069	-0.36
1055.491	0.04
1055.913	0.79
1056.335	-6.06
1056.757	-1.46
1057.179	-2.16
1057.601	-4.16
1058.023	-0.51
1058.445	-8.46
1058.867	3.14
1059.289	0.59
1059.711	-0.71
1060.133	0.64
1060.555	-1.81
1060.976	-1.61
1061.398	-0.71
1061.82	-0.96
1062.241	-2.16
1062.663	-1.81
1063.085	-6.11
1063.506	-2.96
1063.928	-5.21
1064.35	-0.46
1064.771	-2.31
1065.193	-2.41
1065.614	-4.76
1066.035	2.84
1066.457	0.34
1066.878	4.04
1067.3	2.64
1067.721	1.19
1068.142	2.59
1068.564	0.14
1068.985	-0.01
1069.406	-3.11
1069.827	4.24
1070.248	-3.46
1070.67	-4.01
1071.091	-6.96
1071.512	-3.36
1071.933	0.19
1072.354	-6.86
1072.775	-2.91
1073.196	-0.71
1073.617	-8.21
1074.038	2.34
1074.459	-3.11
1074.88	-2.86
1075.3	-2.56
1075.721	-0.16
1076.142	-3.01
1076.563	-9.26
1076.983	2.39
1077.404	-3.46
1077.825	1.14
1078.246	-1.86
1078.666	-4.36
1079.087	-2.36
1079.507	-2.61
1079.928	0.99
1080.348	-4.61
1080.769	-4.36
1081.189	-2.46
1081.61	-7.01
1082.03	3.14
1082.451	-1.96
1082.871	-5.76
1083.291	-2.06
1083.711	0.04
1084.132	-4.01
1084.552	-4.26
1084.972	-5.51
1085.392	-3.51
1085.813	-2.71
1086.233	-0.26
1086.653	-0.21
1087.073	0.54
1087.493	-3.91
1087.913	-2.56
1088.333	-1.86
1088.753	0.34
1089.173	-0.96
1089.593	0.69
1090.013	-0.36
1090.433	-1.26
1090.852	0.79
1091.272	-9.56
1091.692	3.69
1092.112	-2.01
1092.531	-5.41
1092.951	-4.16
1093.371	-2.21
1093.79	-3.21
1094.21	-1.86
1094.63	-2.01
1095.049	-0.96
1095.469	-5.21
1095.888	-1.06
1096.308	2.29
1096.727	-0.71
1097.146	-1.76
1097.566	-7.11
1097.985	-1.91
1098.405	0.29
1098.824	-1.26
1099.243	0.09
1099.662	-2.01
1100.082	-0.31
1100.501	-2.36
1100.92	3.39
1101.339	2.99
1101.758	0.04
