Data from MSPlasma+Separation6_Subt14_10-14-27-868.txt Node
Date: Fri Jul 21 10:14:27 EDT 2017
User: Ender
Spectrometer: HR+D1039
Trigger mode: 0
Integration Time (sec): 6.430000E-3
Scans to average: 20
Electric dark correction enabled: true
Nonlinearity correction enabled: false
Boxcar width: 0
XAxis mode: Wavelengths
Number of Pixels in Spectrum: 2048
>>>>>Begin Spectral Data<<<<<
187.836	-1.62
188.309	-1.62
188.782	-1.62
189.255	3.28
189.728	1.63
190.201	1.48
190.674	0.08
191.147	-2.57
191.619	-0.42
192.092	-1.87
192.565	-4.27
193.038	7.98
193.511	-0.52
193.984	1.53
194.456	0.33
194.929	-2.57
195.402	-4.72
195.874	2.33
196.347	-1.82
196.82	0.53
197.292	-2.92
197.765	2.33
198.237	-0.22
198.71	-3.12
199.182	0.03
199.655	7.53
200.127	2.23
200.6	4.43
201.072	3.98
201.544	0.68
202.017	2.68
202.489	2.98
202.961	-1.62
203.433	-4.32
203.906	-2.27
204.378	0.23
204.85	-0.77
205.322	1.03
205.794	6.63
206.266	-3.17
206.739	6.03
207.211	-0.27
207.683	-0.62
208.155	3.53
208.627	3.63
209.099	6.63
209.57	2.63
210.042	2.78
210.514	2.63
210.986	-0.32
211.458	-0.77
211.93	2.63
212.402	6.83
212.873	3.38
213.345	-2.27
213.817	5.68
214.288	0.13
214.76	-3.72
215.232	-0.12
215.703	-1.72
216.175	3.18
216.646	3.08
217.118	1.48
217.589	-2.87
218.061	0.38
218.532	2.03
219.004	5.93
219.475	3.98
219.946	0.73
220.418	3.33
220.889	1.18
221.36	5.08
221.832	4.78
222.303	5.23
222.774	6.53
223.245	1.88
223.717	1.88
224.188	0.58
224.659	5.48
225.13	3.68
225.601	2.78
226.072	4.93
226.543	6.13
227.014	4.13
227.485	8.13
227.956	6.03
228.427	12.03
228.898	8.83
229.369	9.18
229.839	7.83
230.31	8.18
230.781	3.73
231.252	10.08
231.722	10.73
232.193	8.58
232.664	13.43
233.135	5.78
233.605	6.48
234.076	10.48
234.546	7.93
235.017	8.53
235.487	11.98
235.958	10.73
236.428	16.93
236.899	9.13
237.369	12.73
237.84	14.13
238.31	15.28
238.78	13.03
239.251	10.83
239.721	13.78
240.191	14.43
240.662	14.88
241.132	12.13
241.602	16.48
242.072	12.93
242.542	13.88
243.013	13.78
243.483	18.38
243.953	12.13
244.423	14.03
244.893	19.73
245.363	17.38
245.833	19.63
246.303	16.93
246.773	21.33
247.243	19.43
247.712	17.48
248.182	22.73
248.652	21.98
249.122	21.53
249.592	21.68
250.061	20.93
250.531	18.28
251.001	24.28
251.471	26.33
251.94	20.73
252.41	26.88
252.879	23.33
253.349	32.08
253.818	24.13
254.288	30.83
254.757	23.78
255.227	27.38
255.696	30.58
256.166	33.28
256.635	29.68
257.105	29.18
257.574	28.88
258.043	33.18
258.513	36.33
258.982	27.78
259.451	31.53
259.92	29.08
260.389	36.18
260.859	28.08
261.328	35.23
261.797	28.63
262.266	36.63
262.735	37.73
263.204	31.38
263.673	35.98
264.142	33.78
264.611	34.93
265.08	36.23
265.549	36.33
266.018	39.43
266.487	39.63
266.955	40.08
267.424	40.53
267.893	41.43
268.362	41.58
268.83	35.28
269.299	36.68
269.768	41.18
270.236	41.08
270.705	47.88
271.174	41.48
271.642	42.78
272.111	44.73
272.579	43.58
273.048	42.68
273.516	53.13
273.985	52.13
274.453	51.28
274.922	44.53
275.39	46.68
275.858	52.68
276.327	50.83
276.795	49.33
277.263	52.43
277.731	52.48
278.2	52.23
278.668	56.83
279.136	53.73
279.604	54.03
280.072	53.13
280.54	54.78
281.008	59.98
281.477	55.18
281.945	56.08
282.413	56.43
282.881	59.33
283.348	60.28
283.816	60.58
284.284	64.83
284.752	60.78
285.22	65.28
285.688	58.43
286.156	66.38
286.623	68.63
287.091	66.78
287.559	68.78
288.026	68.98
288.494	66.33
288.962	69.08
289.429	70.48
289.897	65.63
290.364	65.18
290.832	71.48
291.3	70.48
291.767	71.68
292.234	78.68
292.702	78.03
293.169	73.33
293.637	76.58
294.104	74.03
294.571	79.53
295.039	77.68
295.506	73.88
295.973	80.68
296.44	78.58
296.908	83.38
297.375	76.38
297.842	82.58
298.309	77.48
298.776	84.13
299.243	87.88
299.71	78.43
300.177	88.28
300.644	85.98
301.111	87.83
301.578	88.48
302.045	84.88
302.512	86.98
302.979	90.93
303.446	96.58
303.913	94.88
304.379	101.13
304.846	99.08
305.313	106.38
305.78	105.88
306.246	105.03
306.713	104.63
307.18	107.28
307.646	109.68
308.113	102.78
308.579	110.43
309.046	110.88
309.512	113.03
309.979	115.63
310.445	112.43
310.912	116.63
311.378	119.78
311.845	124.38
312.311	118.78
312.777	119.43
313.244	120.33
313.71	124.13
314.176	130.78
314.642	127.13
315.109	127.08
315.575	122.78
316.041	125.13
316.507	125.78
316.973	139.58
317.439	129.08
317.905	131.78
318.371	135.28
318.837	132.48
319.303	137.73
319.769	126.83
320.235	141.73
320.701	140.73
321.167	139.18
321.633	137.93
322.099	137.98
322.564	142.88
323.03	141.38
323.496	142.53
323.962	145.23
324.427	146.98
324.893	149.78
325.359	153.03
325.824	154.33
326.29	156.68
326.755	149.88
327.221	155.08
327.686	162.78
328.152	160.08
328.617	170.23
329.083	167.43
329.548	170.03
330.014	166.28
330.479	176.58
330.944	173.68
331.41	177.03
331.875	167.68
332.34	175.13
332.805	184.23
333.271	175.68
333.736	179.28
334.201	176.03
334.666	194.98
335.131	192.33
335.596	192.98
336.061	183.38
336.526	183.88
336.991	178.73
337.456	178.98
337.921	183.73
338.386	184.18
338.851	183.23
339.316	182.18
339.781	183.23
340.246	187.43
340.711	193.23
341.175	190.83
341.64	198.83
342.105	199.63
342.569	207.93
343.034	203.28
343.499	200.62
343.963	214.28
344.428	205.08
344.893	211.43
345.357	220.03
345.822	217.83
346.286	223.68
346.751	222.33
347.215	227.98
347.679	237.53
348.144	250.58
348.608	248.78
349.073	251.18
349.537	256.93
350.001	255.58
350.465	259.38
350.93	253.08
351.394	260.53
351.858	262.08
352.322	267.03
352.786	265.03
353.25	267.08
353.715	276.03
354.179	285.18
354.643	288.78
355.107	292.93
355.571	285.08
356.035	282.03
356.498	284.98
356.962	284.03
357.426	278.33
357.89	287.63
358.354	276.98
358.818	282.13
359.281	280.78
359.745	278.33
360.209	285.28
360.673	280.78
361.136	284.28
361.6	283.38
362.064	293.33
362.527	301.73
362.991	297.98
363.454	294.18
363.918	302.08
364.381	305.68
364.845	303.53
365.308	298.58
365.772	307.38
366.235	304.53
366.698	310.53
367.162	307.23
367.625	314.08
368.088	322.03
368.552	319.53
369.015	318.28
369.478	323.43
369.941	325.08
370.404	332.93
370.867	325.23
371.331	333.28
371.794	337.33
372.257	332.43
372.72	341.23
373.183	342.38
373.646	341.88
374.109	342.68
374.572	343.33
375.035	343.38
375.497	349.68
375.96	351.48
376.423	360.43
376.886	366.68
377.349	369.38
377.811	370.13
378.274	376.03
378.737	369.83
379.199	373.18
379.662	377.93
380.125	386.03
380.587	384.73
381.05	393.58
381.512	399.18
381.975	410.03
382.437	414.78
382.9	406.08
383.362	407.53
383.825	415.08
384.287	414.08
384.75	423.93
385.212	418.18
385.674	426.38
386.136	429.23
386.599	424.73
387.061	424.63
387.523	419.83
387.985	430.63
388.447	437.13
388.91	435.18
389.372	438.58
389.834	441.03
390.296	433.93
390.758	450.78
391.22	443.78
391.682	442.43
392.144	445.18
392.606	447.68
393.068	460.38
393.529	478.98
393.991	481.53
394.453	467.18
394.915	455.93
395.377	443.38
395.838	450.13
396.3	451.13
396.762	452.58
397.224	455.28
397.685	459.63
398.147	471.38
398.608	466.63
399.07	480.03
399.531	477.73
399.993	487.78
400.454	490.43
400.916	491.13
401.377	501.88
401.839	503.23
402.3	505.63
402.762	534.33
403.223	562.73
403.684	562.68
404.145	537.33
404.607	532.28
405.068	522.53
405.529	530.48
405.99	538.63
406.451	546.73
406.913	536.18
407.374	543.98
407.835	545.53
408.296	558.13
408.757	558.58
409.218	567.93
409.679	580.18
410.14	584.98
410.601	604.83
411.062	602.78
411.522	608.18
411.983	613.08
412.444	612.68
412.905	630.48
413.366	644.88
413.826	677.53
414.287	756.13
414.748	884.03
415.208	914.93
415.669	768.28
416.13	705.53
416.59	689.68
417.051	712.18
417.511	733.48
417.972	783.93
418.432	842.48
418.893	924.08
419.353	887.08
419.814	700.28
420.274	629.93
420.734	619.73
421.195	645.98
421.655	639.33
422.115	655.28
422.576	652.43
423.036	657.28
423.496	684.08
423.956	698.23
424.416	746.18
424.876	841.58
425.336	830.13
425.797	814.08
426.257	807.83
426.717	770.68
427.177	722.23
427.637	726.53
428.097	751.88
428.556	781.88
429.016	839.43
429.476	840.68
429.936	821.68
430.396	822.08
430.856	841.83
431.315	860.93
431.775	919.28
432.235	975.38
432.694	995.88
433.154	932.73
433.614	911.98
434.073	889.33
434.533	789.83
434.993	770.63
435.452	770.83
435.912	756.18
436.371	759.58
436.83	748.43
437.29	738.53
437.749	722.08
438.209	716.23
438.668	725.73
439.127	734.63
439.587	727.03
440.046	713.18
440.505	724.58
440.964	728.28
441.424	743.38
441.883	756.73
442.342	723.53
442.801	698.28
443.26	702.73
443.719	694.58
444.178	696.23
444.637	706.48
445.096	711.88
445.555	718.88
446.014	720.33
446.473	706.43
446.932	707.13
447.391	724.23
447.849	726.48
448.308	719.08
448.767	725.12
449.226	734.33
449.685	751.53
450.143	777.78
450.602	769.08
451.061	734.38
451.519	738.03
451.978	737.18
452.436	729.03
452.895	741.03
453.353	731.88
453.812	724.48
454.27	727.93
454.729	728.83
455.187	734.88
455.646	742.43
456.104	739.38
456.562	749.83
457.021	758.33
457.479	726.78
457.937	758.58
458.395	777.83
458.854	765.68
459.312	754.13
459.77	762.88
460.228	783.23
460.686	785.63
461.144	791.18
461.602	774.88
462.06	778.93
462.518	801.03
462.976	799.53
463.434	807.43
463.892	812.88
464.35	833.78
464.808	835.98
465.266	854.68
465.724	866.28
466.181	873.83
466.639	857.63
467.097	903.68
467.555	936.08
468.012	923.43
468.47	935.73
468.928	970.03
469.385	990.93
469.843	999.08
470.3	993.93
470.758	1022.13
471.215	1036.83
471.673	1059.53
472.13	1088.93
472.588	1111.88
473.045	1111.62
473.503	1132.93
473.96	1181.38
474.417	1193.93
474.875	1232.73
475.332	1285.38
475.789	1319.83
476.246	1350.88
476.704	1413.13
477.161	1447.92
477.618	1478.33
478.075	1550.47
478.532	1682.78
478.989	1805.78
479.446	1979.22
479.903	2091.78
480.36	2291.58
480.817	2426.38
481.274	2559.43
481.731	2785.73
482.188	2980.83
482.645	3183.78
483.102	3331.83
483.558	3525.23
484.015	3681.33
484.472	3659.08
484.929	3517.63
485.385	3385.38
485.842	3306.43
486.299	3178.78
486.755	2918.78
487.212	2651.48
487.668	2406.88
488.125	2248.13
488.582	2088.32
489.038	2005.98
489.494	1965.57
489.951	1905.12
490.407	1851.78
490.864	1831.58
491.32	1794.23
491.776	1783.53
492.233	1782.47
492.689	1761.73
493.145	1727.18
493.602	1703.98
494.058	1728.38
494.514	1723.18
494.97	1738.68
495.426	1756.93
495.882	1748.47
496.338	1751.78
496.794	1768.78
497.251	1756.88
497.707	1779.22
498.163	1785.78
498.618	1790.33
499.074	1783.83
499.53	1794.43
499.986	1816.13
500.442	1805.67
500.898	1785.88
501.354	1795.18
501.809	1793.93
502.265	1797.48
502.721	1805.23
503.177	1806.93
503.632	1812.78
504.088	1821.93
504.543	1843.38
504.999	1856.12
505.455	1851.62
505.91	1846.42
506.366	1846.33
506.821	1856.43
507.277	1836.82
507.732	1842.08
508.187	1845.53
508.643	1855.47
509.098	1869.03
509.553	1882.93
510.009	1908.88
510.464	1946.83
510.919	1968.78
511.375	1977.63
511.83	2008.08
512.285	2037.53
512.74	2081.18
513.195	2097.38
513.65	2143.32
514.105	2157.23
514.56	2159.13
515.015	2206.88
515.47	2205.77
515.925	2178.33
516.38	2188.07
516.835	2193.93
517.29	2174.78
517.745	2177.03
518.2	2143.82
518.655	2109.93
519.109	2084.28
519.564	2046.48
520.019	2041.53
520.474	2020.08
520.928	2014.52
521.383	1999.18
521.838	1984.72
522.292	1979.97
522.747	1959.93
523.201	1966.68
523.656	1942.93
524.11	1928.22
524.565	1919.68
525.019	1934.93
525.474	1929.97
525.928	1909.93
526.382	1921.53
526.837	1912.68
527.291	1921.28
527.745	1919.68
528.2	1907.88
528.654	1890.18
529.108	1895.43
529.562	1899.98
530.016	1902.92
530.47	1898.18
530.925	1897.03
531.379	1890.07
531.833	1917.58
532.287	1904.58
532.741	1895.83
533.195	1919.83
533.649	1902.83
534.103	1909.12
534.556	1903.12
535.01	1912.13
535.464	1906.08
535.918	1909.53
536.372	1915.72
536.826	1923.18
537.279	1894.78
537.733	1897.58
538.187	1907.33
538.64	1916.98
539.094	1925.13
539.548	1946.53
540.001	1941.33
540.455	1955.67
540.908	1959.88
541.362	1981.87
541.815	2008.68
542.269	2032.08
542.722	2020.08
543.175	2055.22
543.629	2057.88
544.082	2072.93
544.536	2091.68
544.989	2105.12
545.442	2118.53
545.895	2120.07
546.349	2122.18
546.802	2124.38
547.255	2117.47
547.708	2131.18
548.161	2140.33
548.614	2154.12
549.067	2165.42
549.52	2161.82
549.973	2115.62
550.426	2118.92
550.879	2109.08
551.332	2126.88
551.785	2142.53
552.238	2158.68
552.691	2164.32
553.144	2188.07
553.596	2234.17
554.049	2252.03
554.502	2286.78
554.955	2322.32
555.407	2344.53
555.86	2334.33
556.313	2299.52
556.765	2281.18
557.218	2250.48
557.67	2258.68
558.123	2229.72
558.576	2216.93
559.028	2212.58
559.48	2237.43
559.933	2226.08
560.385	2151.33
560.838	2074.22
561.29	2029.18
561.742	2016.93
562.195	1979.78
562.647	1953.58
563.099	1941.73
563.551	1941.23
564.004	1953.73
564.456	1925.03
564.908	1901.38
565.36	1866.28
565.812	1822.73
566.264	1795.92
566.716	1776.18
567.168	1755.42
567.62	1768.78
568.072	1736.48
568.524	1722.53
568.976	1729.13
569.428	1713.83
569.88	1715.68
570.332	1720.17
570.784	1731.97
571.235	1722.28
571.687	1739.53
572.139	1740.08
572.59	1757.38
573.042	1753.47
573.494	1764.48
573.945	1737.78
574.397	1694.53
574.849	1689.33
575.3	1699.03
575.752	1675.83
576.203	1657.58
576.655	1665.58
577.106	1631.83
577.557	1633.47
578.009	1626.08
578.46	1637.57
578.912	1616.88
579.363	1636.62
579.814	1630.83
580.265	1621.03
580.717	1625.58
581.168	1625.03
581.619	1635.63
582.07	1648.13
582.521	1633.78
582.972	1627.43
583.423	1636.93
583.875	1647.93
584.326	1663.33
584.777	1690.43
585.227	1718.38
585.678	1745.43
586.129	1751.33
586.58	1772.67
587.031	1796.28
587.482	1838.33
587.933	1865.08
588.384	1867.13
588.834	1836.48
589.285	1833.13
589.736	1825.47
590.186	1828.03
590.637	1811.68
591.088	1764.28
591.538	1738.78
591.989	1714.58
592.439	1693.33
592.89	1676.38
593.34	1679.03
593.791	1662.62
594.241	1656.03
594.692	1642.68
595.142	1653.43
595.593	1650.22
596.043	1649.03
596.493	1682.62
596.943	1671.38
597.394	1725.28
597.844	1745.13
598.294	1775.28
598.744	1844.38
599.195	1938.88
599.645	2039.63
600.095	2132.07
600.545	2247.28
600.995	2348.18
601.445	2405.18
601.895	2510.62
602.345	2590.93
602.795	2550.03
603.245	2450.07
603.695	2296.22
604.145	2181.18
604.594	2091.07
605.044	1969.33
605.494	1862.13
605.944	1770.23
606.393	1727.88
606.843	1693.68
607.293	1697.43
607.743	1680.17
608.192	1684.93
608.642	1691.33
609.091	1677.83
609.541	1683.82
609.99	1686.73
610.44	1642.28
610.889	1635.82
611.339	1605.98
611.788	1590.03
612.238	1598.08
612.687	1595.62
613.136	1603.18
613.586	1634.08
614.035	1619.63
614.484	1628.83
614.933	1625.33
615.383	1588.28
615.832	1551.63
616.281	1537.12
616.73	1502.48
617.179	1473.38
617.628	1443.67
618.077	1421.28
618.526	1398.38
618.975	1400.33
619.424	1380.33
619.873	1376.83
620.322	1356.03
620.771	1362.53
621.22	1343.12
621.669	1320.33
622.118	1304.42
622.567	1292.98
623.015	1268.68
623.464	1265.18
623.913	1239.18
624.361	1245.93
624.81	1240.38
625.259	1253.48
625.707	1243.63
626.156	1256.68
626.604	1263.47
627.053	1269.82
627.501	1273.13
627.95	1276.43
628.398	1286.43
628.847	1264.08
629.295	1268.58
629.744	1264.78
630.192	1239.93
630.64	1228.67
631.089	1205.38
631.537	1172.33
631.985	1160.98
632.433	1165.58
632.881	1149.53
633.33	1167.03
633.778	1163.62
634.226	1169.83
634.674	1179.88
635.122	1188.88
635.57	1203.23
636.018	1220.38
636.466	1217.42
636.914	1225.38
637.362	1244.72
637.81	1273.47
638.258	1303.13
638.705	1319.78
639.153	1362.48
639.601	1372.03
640.049	1390.38
640.497	1426.23
640.944	1459.88
641.392	1398.73
641.84	1326.08
642.287	1275.83
642.735	1241.08
643.182	1238.12
643.63	1232.03
644.078	1236.12
644.525	1249.38
644.973	1289.98
645.42	1312.18
645.867	1341.88
646.315	1375.43
646.762	1422.93
647.21	1456.28
647.657	1526.88
648.104	1595.93
648.551	1642.63
648.999	1782.93
649.446	1948.92
649.893	2184.38
650.34	2545.78
650.787	3141.48
651.234	4050.93
651.682	5604.33
652.129	7916.27
652.576	11217.97
653.023	14636.97
653.47	15538.27
653.917	15538.32
654.363	15538.22
654.81	15535.22
655.257	15535.88
655.704	13513.17
656.151	8213.12
656.598	5427.98
657.044	3888.98
657.491	3082.22
657.938	2515.82
658.385	2134.47
658.831	1909.73
659.278	1710.18
659.724	1590.28
660.171	1473.78
660.618	1374.83
661.064	1296.18
661.511	1260.78
661.957	1217.48
662.404	1191.18
662.85	1173.78
663.296	1161.33
663.743	1135.68
664.189	1130.88
664.635	1106.08
665.082	1090.43
665.528	1076.68
665.974	1046.63
666.42	1027.43
666.867	1017.48
667.313	974.88
667.759	968.53
668.205	959.33
668.651	964.68
669.097	959.38
669.543	968.48
669.989	974.78
670.435	967.43
670.881	985.43
671.327	1024.13
671.773	1103.47
672.219	1184.08
672.665	1255.83
673.11	1295.53
673.556	1305.78
674.002	1311.03
674.448	1334.18
674.893	1138.83
675.339	1005.98
675.785	931.13
676.23	875.63
676.676	849.13
677.122	821.23
677.567	797.68
678.013	780.93
678.458	777.28
678.904	767.78
679.349	756.83
679.794	755.48
680.24	757.93
680.685	745.58
681.131	751.48
681.576	753.88
682.021	759.58
682.466	764.63
682.912	771.62
683.357	816.38
683.802	895.23
684.247	975.58
684.692	1026.98
685.137	1074.88
685.583	1081.73
686.028	1130.48
686.473	1076.83
686.918	941.13
687.363	851.43
687.807	809.53
688.252	777.33
688.697	755.73
689.142	728.88
689.587	733.58
690.032	742.33
690.477	772.43
690.921	816.78
691.366	861.58
691.811	887.08
692.255	968.68
692.7	1188.33
693.145	1734.92
693.589	2665.43
694.034	3126.48
694.478	3267.03
694.923	2933.28
695.367	4045.08
695.812	2535.68
696.256	1088.22
696.701	804.73
697.145	738.93
697.59	708.08
698.034	694.58
698.478	702.63
698.922	703.43
699.367	723.68
699.811	759.03
700.255	818.73
700.699	902.58
701.143	973.03
701.588	1029.38
702.032	1063.53
702.476	1106.68
702.92	1191.88
703.364	1582.18
703.808	2435.07
704.252	2994.98
704.696	3099.18
705.14	2866.72
705.584	3839.88
706.027	2201.33
706.471	1119.68
706.915	837.83
707.359	748.48
707.803	697.12
708.246	677.03
708.69	667.78
709.134	657.13
709.577	657.28
710.021	663.58
710.465	660.83
710.908	653.73
711.352	684.88
711.795	765.63
712.239	815.68
712.682	821.98
713.126	806.03
713.569	887.63
714.012	741.28
714.456	642.83
714.899	617.58
715.342	585.63
715.786	566.58
716.229	553.98
716.672	530.28
717.115	536.73
717.558	549.58
718.002	554.83
718.445	582.83
718.888	614.93
719.331	625.38
719.774	636.68
720.217	624.38
720.66	591.83
721.103	562.58
721.546	528.38
721.989	520.23
722.432	514.08
722.874	513.48
723.317	518.08
723.76	566.13
724.203	702.33
724.645	936.98
725.088	1096.43
725.531	1051.93
725.974	1129.83
726.416	1028.08
726.859	647.48
727.301	527.18
727.744	501.83
728.187	507.58
728.629	524.43
729.071	541.68
729.514	578.73
729.956	591.08
730.399	600.58
730.841	595.03
731.283	586.53
731.726	572.93
732.168	587.83
732.61	613.83
733.053	665.13
733.495	734.28
733.937	811.38
734.379	958.13
734.821	1235.13
735.263	1992.48
735.705	3578.43
736.148	5161.73
736.59	5067.38
737.032	5298.12
737.474	4418.73
737.916	1750.62
738.357	927.53
738.799	704.33
739.241	659.43
739.683	663.53
740.125	680.58
740.567	675.33
741.008	717.63
741.45	763.98
741.892	796.23
742.334	794.63
742.775	778.88
743.217	752.43
743.658	645.03
744.1	668.48
744.542	759.93
744.983	783.78
745.425	800.18
745.866	789.73
746.307	684.43
746.749	728.48
747.19	1071.23
747.632	2107.62
748.073	3890.33
748.514	5305.48
748.956	6926.18
749.397	8018.88
749.838	5540.18
750.279	5113.28
750.72	2742.68
751.162	1180.78
751.603	679.28
752.044	544.88
752.485	480.68
752.926	457.73
753.367	430.23
753.808	419.78
754.249	414.83
754.69	413.68
755.131	407.33
755.572	401.68
756.013	406.33
756.453	408.03
756.894	414.28
757.335	418.53
757.776	422.68
758.216	432.08
758.657	462.58
759.098	511.48
759.538	623.48
759.979	912.88
760.42	1859.33
760.86	4755.53
761.301	9655.42
761.741	11064.12
762.182	12208.62
762.622	8017.18
763.063	2955.43
763.503	1213.88
763.943	704.73
764.384	561.23
764.824	485.28
765.264	443.38
765.705	418.98
766.145	399.28
766.585	388.93
767.025	378.73
767.465	376.78
767.906	388.38
768.346	417.93
768.786	480.83
769.226	712.28
769.666	1451.88
770.106	3214.57
770.546	4484.38
770.986	4870.78
771.426	3694.22
771.866	1599.58
772.306	725.08
772.745	455.38
773.185	384.23
773.625	366.28
774.065	391.28
774.505	560.93
774.944	994.28
775.384	1403.67
775.824	1519.12
776.263	1246.53
776.703	695.18
777.142	409.13
777.582	308.08
778.021	282.83
778.461	275.28
778.9	268.38
779.34	261.08
779.779	256.08
780.219	244.38
780.658	247.83
781.097	242.53
781.537	235.18
781.976	234.78
782.415	228.78
782.855	222.73
783.294	233.08
783.733	225.28
784.172	227.58
784.611	229.28
785.05	237.23
785.489	248.33
785.928	251.28
786.367	263.68
786.806	275.33
787.245	296.03
787.684	300.28
788.123	299.28
788.562	287.48
789.001	274.13
789.44	266.88
789.879	272.33
790.317	278.68
790.756	288.53
791.195	333.23
791.634	455.98
792.072	834.93
792.511	2026.67
792.95	3664.12
793.388	4270.23
793.827	2794.97
794.265	1315.23
794.704	637.63
795.142	395.93
795.581	327.23
796.019	292.33
796.458	292.48
796.896	291.68
797.334	348.98
797.773	469.93
798.211	905.33
798.649	1864.88
799.087	3076.22
799.526	4333.98
799.964	4369.52
800.402	3005.18
800.84	1397.53
801.278	695.43
801.716	421.38
802.154	342.63
802.592	320.63
803.03	324.58
803.468	326.78
803.906	330.13
804.344	326.33
804.782	311.13
805.22	316.88
805.658	327.88
806.096	352.83
806.533	392.12
806.971	504.23
807.409	740.63
807.847	1480.23
808.284	3715.13
808.722	6427.03
809.16	8925.23
809.597	12243.27
810.035	14505.77
810.472	9534.27
810.91	4194.93
811.347	1891.43
811.785	902.43
812.222	561.28
812.66	431.38
813.097	366.08
813.535	319.03
813.972	284.83
814.409	267.38
814.846	256.18
815.284	241.73
815.721	247.12
816.158	268.43
816.595	361.73
817.032	445.48
817.47	405.63
817.907	296.53
818.344	264.53
818.781	258.53
819.218	320.48
819.655	471.83
820.092	605.88
820.529	548.03
820.966	432.98
821.403	306.73
821.839	265.93
822.276	293.98
822.713	340.98
823.15	327.38
823.587	345.03
824.023	618.73
824.46	1518.28
824.897	2572.03
825.333	1982.12
825.77	939.23
826.206	495.68
826.643	290.88
827.08	221.48
827.516	191.73
827.953	183.48
828.389	168.03
828.825	163.03
829.262	151.18
829.698	148.73
830.135	142.63
830.571	142.53
831.007	149.53
831.443	142.23
831.88	141.13
832.316	151.33
832.752	146.48
833.188	151.08
833.624	158.23
834.06	155.83
834.497	152.93
834.933	161.08
835.369	173.08
835.805	183.88
836.241	185.33
836.677	207.28
837.112	239.78
837.548	310.48
837.984	454.93
838.42	972.23
838.856	2665.82
839.292	5085.58
839.727	3785.33
840.163	2615.57
840.599	3948.07
841.034	5850.18
841.47	2962.43
841.906	1466.92
842.341	783.48
842.777	572.88
843.212	572.33
843.648	361.28
844.083	250.68
844.519	190.78
844.954	162.88
845.39	146.73
845.825	136.28
846.261	136.58
846.696	131.88
847.131	124.53
847.566	126.28
848.002	128.33
848.437	138.53
848.872	140.23
849.307	183.73
849.742	332.88
850.177	861.12
850.613	1785.73
851.048	1290.92
851.483	605.08
851.918	336.18
852.353	184.98
852.788	138.43
853.223	123.58
853.657	108.58
854.092	105.93
854.527	107.93
854.962	109.78
855.397	123.13
855.832	104.93
856.266	95.08
856.701	90.28
857.136	97.63
857.57	118.78
858.005	143.88
858.44	124.03
858.874	116.28
859.309	117.53
859.743	115.88
860.178	112.48
860.612	120.38
861.047	166.28
861.481	217.68
861.915	160.33
862.35	119.23
862.784	93.43
863.218	91.78
863.653	101.48
864.087	117.23
864.521	150.98
864.955	245.23
865.39	419.53
865.824	325.83
866.258	412.08
866.692	606.23
867.126	437.13
867.56	243.63
867.994	155.43
868.428	130.33
868.862	162.18
869.296	150.13
869.73	175.73
870.164	156.83
870.598	143.23
871.031	106.48
871.465	86.68
871.899	71.68
872.333	65.43
872.766	70.63
873.2	68.63
873.634	67.63
874.067	69.43
874.501	72.23
874.935	68.13
875.368	68.48
875.802	67.13
876.235	60.28
876.669	64.68
877.102	51.98
877.535	58.33
877.969	58.48
878.402	57.13
878.836	51.73
879.269	54.18
879.702	52.83
880.135	59.18
880.569	57.68
881.002	51.78
881.435	52.43
881.868	49.88
882.301	46.78
882.734	48.23
883.167	52.88
883.601	50.98
884.034	52.18
884.467	42.28
884.899	45.93
885.332	44.23
885.765	44.33
886.198	45.68
886.631	45.53
887.064	43.93
887.497	42.98
887.929	41.63
888.362	37.13
888.795	43.03
889.228	45.28
889.66	44.88
890.093	41.58
890.526	40.58
890.958	42.03
891.391	41.18
891.823	43.43
892.256	44.18
892.688	43.08
893.121	39.73
893.553	46.98
893.985	42.08
894.418	37.78
894.85	42.28
895.282	42.78
895.715	34.93
896.147	32.88
896.579	34.58
897.011	39.08
897.444	36.73
897.876	31.38
898.308	37.13
898.74	35.13
899.172	43.03
899.604	40.13
900.036	34.08
900.468	34.23
900.9	41.48
901.332	49.18
901.764	54.73
902.196	50.78
902.628	51.53
903.06	72.08
903.491	79.63
903.923	68.23
904.355	65.78
904.787	65.23
905.218	55.78
905.65	56.68
906.082	47.58
906.513	46.63
906.945	46.43
907.376	48.03
907.808	52.43
908.239	51.73
908.671	58.28
909.102	64.53
909.534	87.88
909.965	164.63
910.397	428.03
910.828	1179.68
911.259	733.98
911.691	409.98
912.122	241.18
912.553	120.38
912.984	69.68
913.415	59.28
913.847	53.98
914.278	49.63
914.709	41.73
915.14	41.68
915.571	40.08
916.002	41.93
916.433	36.23
916.864	37.38
917.295	40.18
917.726	46.68
918.157	59.58
918.587	55.48
919.018	57.88
919.449	51.03
919.88	60.23
920.311	92.18
920.741	254.13
921.172	432.93
921.603	224.43
922.033	144.38
922.464	90.83
922.895	58.33
923.325	39.58
923.756	39.63
924.186	47.38
924.617	66.78
925.047	96.08
925.478	87.08
925.908	61.83
926.338	50.08
926.769	38.88
927.199	38.33
927.629	33.48
928.06	40.88
928.49	39.23
928.92	29.83
929.35	28.33
929.78	25.93
930.21	21.63
930.641	22.48
931.071	22.68
931.501	20.93
931.931	17.23
932.361	24.08
932.791	29.13
933.221	26.33
933.651	33.78
934.08	51.43
934.51	36.03
934.94	32.58
935.37	22.08
935.8	17.68
936.229	15.38
936.659	21.53
937.089	39.58
937.519	51.93
937.948	65.18
938.378	39.53
938.807	28.38
939.237	20.18
939.666	22.73
940.096	12.53
940.525	9.63
940.955	11.93
941.384	10.33
941.814	10.23
942.243	12.08
942.672	9.88
943.102	6.18
943.531	10.98
943.96	11.33
944.39	11.18
944.819	17.48
945.248	12.98
945.677	13.73
946.106	11.43
946.535	13.08
946.964	13.03
947.393	9.03
947.822	8.53
948.251	12.18
948.68	14.98
949.109	10.58
949.538	4.73
949.967	9.48
950.396	10.08
950.825	10.93
951.254	11.38
951.682	4.98
952.111	3.98
952.54	8.38
952.969	5.93
953.397	4.28
953.826	7.93
954.254	10.68
954.683	10.93
955.112	14.78
955.54	4.38
955.969	10.13
956.397	4.53
956.826	7.63
957.254	6.78
957.682	11.58
958.111	9.18
958.539	8.08
958.967	8.23
959.396	9.08
959.824	11.78
960.252	9.88
960.68	4.08
961.109	7.53
961.537	12.23
961.965	3.48
962.393	9.23
962.821	8.43
963.249	6.38
963.677	11.73
964.105	68.73
964.533	125.08
964.961	69.83
965.389	39.18
965.817	26.43
966.245	10.53
966.672	10.28
967.1	9.23
967.528	5.63
967.956	9.58
968.383	8.08
968.811	7.28
969.239	10.18
969.666	7.73
970.094	6.08
970.522	7.63
970.949	6.38
971.377	2.23
971.804	4.83
972.232	3.88
972.659	6.28
973.087	6.18
973.514	-0.22
973.941	2.83
974.369	4.98
974.796	0.13
975.223	5.18
975.651	8.33
976.078	6.38
976.505	9.08
976.932	34.38
977.359	39.33
977.786	23.28
978.214	18.13
978.641	8.43
979.068	9.68
979.495	3.58
979.922	8.13
980.349	4.73
980.776	6.23
981.202	2.13
981.629	5.93
982.056	9.08
982.483	3.13
982.91	8.13
983.337	2.73
983.763	3.48
984.19	8.63
984.617	2.43
985.043	7.53
985.47	5.18
985.897	5.53
986.323	8.38
986.75	6.48
987.176	3.93
987.603	9.08
988.029	3.13
988.456	9.23
988.882	5.23
989.308	3.33
989.735	3.53
990.161	3.08
990.587	6.18
991.014	1.58
991.44	7.98
991.866	10.08
992.292	2.13
992.719	3.38
993.145	6.93
993.571	4.73
993.997	7.98
994.423	6.33
994.849	3.73
995.275	7.83
995.701	2.73
996.127	-0.52
996.553	5.18
996.979	0.48
997.405	4.28
997.83	2.13
998.256	3.38
998.682	3.93
999.108	4.93
999.534	2.08
999.959	4.13
1000.385	1.78
1000.811	-1.67
1001.236	0.03
1001.662	-1.87
1002.087	10.68
1002.513	3.13
1002.938	2.53
1003.364	4.48
1003.789	4.53
1004.215	1.68
1004.64	3.23
1005.066	6.48
1005.491	5.13
1005.916	2.38
1006.342	3.43
1006.767	7.63
1007.192	8.28
1007.617	2.68
1008.042	3.03
1008.468	4.88
1008.893	5.68
1009.318	7.63
1009.743	16.48
1010.168	26.33
1010.593	25.43
1011.018	15.98
1011.443	10.33
1011.868	9.88
1012.293	1.88
1012.718	3.58
1013.143	4.83
1013.567	8.43
1013.992	6.53
1014.417	0.88
1014.842	4.23
1015.267	3.33
1015.691	5.98
1016.116	2.33
1016.541	7.18
1016.965	1.43
1017.39	3.33
1017.814	-1.22
1018.239	0.78
1018.663	-0.92
1019.088	-1.82
1019.512	5.68
1019.937	1.23
1020.361	2.93
1020.785	0.18
1021.21	-0.82
1021.634	4.88
1022.058	4.48
1022.483	-0.32
1022.907	-3.37
1023.331	-2.87
1023.755	-1.87
1024.179	2.53
1024.604	1.68
1025.028	4.48
1025.452	7.68
1025.876	2.53
1026.3	1.58
1026.724	-2.82
1027.148	4.53
1027.572	0.23
1027.996	3.83
1028.42	3.28
1028.843	0.33
1029.267	3.63
1029.691	1.48
1030.115	1.53
1030.539	-1.17
1030.962	-2.77
1031.386	0.18
1031.81	-1.27
1032.233	-2.37
1032.657	-8.27
1033.08	2.83
1033.504	-1.27
1033.927	2.38
1034.351	-0.67
1034.774	-0.67
1035.198	-4.42
1035.621	2.93
1036.045	2.28
1036.468	7.03
1036.891	1.18
1037.315	3.33
1037.738	5.43
1038.161	0.43
1038.584	-1.57
1039.008	-3.92
1039.431	-2.02
1039.854	-4.32
1040.277	4.73
1040.7	2.78
1041.123	-0.72
1041.546	0.03
1041.969	3.68
1042.392	3.38
1042.815	-1.12
1043.238	-0.52
1043.661	4.68
1044.084	-3.32
1044.507	0.78
1044.93	0.13
1045.352	2.38
1045.775	1.58
1046.198	7.43
1046.621	3.28
1047.043	1.78
1047.466	3.58
1047.889	-0.52
1048.311	5.68
1048.734	-1.17
1049.156	2.08
1049.579	-0.22
1050.001	-1.42
1050.424	1.23
1050.846	1.58
1051.269	-1.77
1051.691	-1.82
1052.113	4.28
1052.536	-3.67
1052.958	-3.22
1053.38	0.43
1053.802	5.03
1054.225	1.23
1054.647	3.88
1055.069	0.73
1055.491	4.48
1055.913	6.73
1056.335	-4.82
1056.757	-0.82
1057.179	-3.77
1057.601	-3.92
1058.023	-0.57
1058.445	-0.97
1058.867	-0.07
1059.289	-3.47
1059.711	-1.82
1060.133	0.23
1060.555	-1.22
1060.976	3.58
1061.398	-2.17
1061.82	-0.82
1062.241	0.18
1062.663	0.58
1063.085	-3.47
1063.506	-4.57
1063.928	-5.42
1064.35	-0.87
1064.771	1.03
1065.193	0.33
1065.614	-3.32
1066.035	4.08
1066.457	7.53
1066.878	-0.17
1067.3	-2.57
1067.721	3.33
1068.142	4.58
1068.564	3.23
1068.985	-2.62
1069.406	-4.52
1069.827	-3.22
1070.248	-3.07
1070.67	-6.07
1071.091	-2.97
1071.512	3.78
1071.933	-1.72
1072.354	-9.82
1072.775	-2.32
1073.196	-3.47
1073.617	-3.17
1074.038	3.93
1074.459	-2.22
1074.88	-3.37
1075.3	-2.12
1075.721	2.73
1076.142	-5.07
1076.563	-3.22
1076.983	-0.52
1077.404	-5.62
1077.825	0.83
1078.246	-8.92
1078.666	-4.47
1079.087	0.38
1079.507	-6.02
1079.928	1.38
1080.348	-4.37
1080.769	2.23
1081.189	-2.52
1081.61	-4.07
1082.03	3.78
1082.451	2.93
1082.871	-4.47
1083.291	2.58
1083.711	0.63
1084.132	-5.02
1084.552	-7.17
1084.972	-5.02
1085.392	-0.12
1085.813	-1.77
1086.233	-2.07
1086.653	-0.17
1087.073	-0.87
1087.493	-6.47
1087.913	-7.57
1088.333	1.43
1088.753	0.38
1089.173	1.63
1089.593	-1.77
1090.013	-0.27
1090.433	-6.32
1090.852	0.98
1091.272	-8.22
1091.692	0.48
1092.112	-4.82
1092.531	-2.77
1092.951	1.23
1093.371	-2.32
1093.79	1.73
1094.21	-0.22
1094.63	1.38
1095.049	-1.77
1095.469	-0.62
1095.888	1.33
1096.308	-2.17
1096.727	-0.67
1097.146	-1.12
1097.566	-0.22
1097.985	-0.77
1098.405	-2.92
1098.824	0.88
1099.243	-1.97
1099.662	2.68
1100.082	-2.32
1100.501	0.63
1100.92	2.68
1101.339	3.58
1101.758	2.43
