Data from MSPlasma+Separation6_Subt14_10-13-45-506.txt Node
Date: Fri Jul 21 10:13:45 EDT 2017
User: Ender
Spectrometer: HR+D1039
Trigger mode: 0
Integration Time (sec): 6.430000E-3
Scans to average: 20
Electric dark correction enabled: true
Nonlinearity correction enabled: false
Boxcar width: 0
XAxis mode: Wavelengths
Number of Pixels in Spectrum: 2048
>>>>>Begin Spectral Data<<<<<
187.836	4.23
188.309	4.23
188.782	4.23
189.255	4.43
189.728	-0.17
190.201	-3.87
190.674	-0.97
191.147	-4.27
191.619	-0.62
192.092	-1.62
192.565	3.58
193.038	1.73
193.511	0.03
193.984	2.48
194.456	1.53
194.929	-2.57
195.402	-3.67
195.874	-0.22
196.347	3.73
196.82	4.73
197.292	0.88
197.765	-1.12
198.237	-0.62
198.71	-0.72
199.182	0.48
199.655	2.58
200.127	0.93
200.6	0.83
201.072	1.33
201.544	0.33
202.017	1.08
202.489	4.48
202.961	1.63
203.433	0.13
203.906	-1.22
204.378	4.23
204.85	-0.47
205.322	-1.67
205.794	6.23
206.266	-0.67
206.739	4.98
207.211	4.78
207.683	-1.92
208.155	2.73
208.627	0.53
209.099	10.93
209.57	7.28
210.042	3.68
210.514	0.98
210.986	0.88
211.458	-0.52
211.93	0.78
212.402	3.83
212.873	-0.77
213.345	-0.37
213.817	4.83
214.288	-0.52
214.76	6.33
215.232	1.18
215.703	2.78
216.175	2.08
216.646	6.53
217.118	2.38
217.589	1.48
218.061	0.63
218.532	-1.07
219.004	3.58
219.475	4.53
219.946	7.83
220.418	11.98
220.889	5.03
221.36	7.98
221.832	9.28
222.303	6.33
222.774	6.58
223.245	4.68
223.717	2.93
224.188	8.03
224.659	3.63
225.13	6.73
225.601	0.98
226.072	3.43
226.543	6.53
227.014	7.33
227.485	7.08
227.956	9.98
228.427	14.48
228.898	8.38
229.369	8.28
229.839	9.38
230.31	11.63
230.781	12.13
231.252	12.78
231.722	12.93
232.193	11.38
232.664	14.88
233.135	8.43
233.605	10.48
234.076	14.83
234.546	16.13
235.017	14.58
235.487	15.33
235.958	15.58
236.428	22.73
236.899	17.48
237.369	20.83
237.84	21.68
238.31	18.88
238.78	11.58
239.251	14.68
239.721	15.33
240.191	19.08
240.662	19.43
241.132	20.38
241.602	20.73
242.072	19.83
242.542	17.58
243.013	19.68
243.483	22.58
243.953	23.13
244.423	19.53
244.893	21.58
245.363	24.58
245.833	22.28
246.303	22.38
246.773	28.68
247.243	23.03
247.712	28.03
248.182	26.93
248.652	24.83
249.122	27.03
249.592	33.33
250.061	26.68
250.531	30.43
251.001	29.48
251.471	33.78
251.94	32.78
252.41	33.63
252.879	33.68
253.349	38.48
253.818	32.13
254.288	39.13
254.757	36.38
255.227	40.68
255.696	34.68
256.166	41.48
256.635	39.13
257.105	38.43
257.574	37.88
258.043	36.23
258.513	40.08
258.982	34.38
259.451	42.88
259.92	35.93
260.389	44.48
260.859	44.48
261.328	43.93
261.797	43.33
262.266	43.73
262.735	49.88
263.204	42.38
263.673	49.88
264.142	44.98
264.611	45.18
265.08	47.18
265.549	48.98
266.018	51.13
266.487	52.43
266.955	45.88
267.424	51.83
267.893	56.38
268.362	55.98
268.83	56.23
269.299	55.48
269.768	57.18
270.236	58.58
270.705	60.43
271.174	59.33
271.642	60.23
272.111	64.08
272.579	57.33
273.048	60.03
273.516	64.33
273.985	62.43
274.453	59.38
274.922	61.08
275.39	59.98
275.858	66.68
276.327	65.13
276.795	61.28
277.263	70.78
277.731	69.48
278.2	72.28
278.668	71.53
279.136	74.13
279.604	74.13
280.072	72.43
280.54	73.68
281.008	80.48
281.477	75.78
281.945	75.48
282.413	76.18
282.881	78.53
283.348	75.78
283.816	79.48
284.284	76.28
284.752	79.83
285.22	88.98
285.688	82.33
286.156	84.08
286.623	86.18
287.091	88.03
287.559	87.63
288.026	91.33
288.494	89.48
288.962	93.78
289.429	88.63
289.897	93.58
290.364	86.78
290.832	90.73
291.3	92.33
291.767	91.33
292.234	91.93
292.702	94.73
293.169	97.63
293.637	97.03
294.104	101.78
294.571	93.48
295.039	107.38
295.506	98.48
295.973	103.98
296.44	99.48
296.908	102.73
297.375	102.58
297.842	108.03
298.309	109.88
298.776	105.03
299.243	110.43
299.71	111.23
300.177	116.18
300.644	111.78
301.111	115.23
301.578	116.73
302.045	113.73
302.512	115.53
302.979	118.93
303.446	125.68
303.913	124.33
304.379	130.53
304.846	125.08
305.313	135.88
305.78	134.48
306.246	132.88
306.713	134.33
307.18	138.78
307.646	138.48
308.113	136.08
308.579	143.83
309.046	148.18
309.512	146.83
309.979	147.18
310.445	148.48
310.912	150.33
311.378	151.73
311.845	150.68
312.311	155.73
312.777	155.03
313.244	159.53
313.71	159.43
314.176	164.18
314.642	161.38
315.109	162.33
315.575	156.58
316.041	161.63
316.507	162.53
316.973	172.33
317.439	170.63
317.905	171.73
318.371	169.38
318.837	172.83
319.303	173.28
319.769	166.43
320.235	177.33
320.701	182.18
321.167	175.88
321.633	178.63
322.099	180.18
322.564	186.48
323.03	186.63
323.496	184.63
323.962	188.28
324.427	193.18
324.893	181.03
325.359	196.88
325.824	195.48
326.29	198.63
326.755	198.38
327.221	195.78
327.686	204.78
328.152	205.18
328.617	213.28
329.083	207.48
329.548	214.63
330.014	218.03
330.479	213.88
330.944	215.18
331.41	226.68
331.875	217.13
332.34	212.18
332.805	222.28
333.271	221.38
333.736	222.48
334.201	225.03
334.666	239.53
335.131	242.38
335.596	243.33
336.061	241.73
336.526	234.33
336.991	231.58
337.456	228.08
337.921	227.93
338.386	227.03
338.851	225.58
339.316	232.83
339.781	231.53
340.246	239.78
340.711	240.28
341.175	240.38
341.64	251.73
342.105	253.38
342.569	265.28
343.034	258.68
343.499	260.08
343.963	272.43
344.428	264.88
344.893	266.48
345.357	272.03
345.822	273.33
346.286	278.18
346.751	282.28
347.215	285.98
347.679	300.88
348.144	318.93
348.608	312.53
349.073	313.38
349.537	317.78
350.001	319.48
350.465	321.58
350.93	322.08
351.394	331.13
351.858	330.98
352.322	334.93
352.786	332.83
353.25	335.98
353.715	346.18
354.179	358.08
354.643	359.78
355.107	370.43
355.571	364.63
356.035	361.63
356.498	362.73
356.962	356.88
357.426	353.88
357.89	359.83
358.354	353.43
358.818	347.23
359.281	352.98
359.745	360.13
360.209	351.13
360.673	353.23
361.136	352.63
361.6	358.48
362.064	366.58
362.527	380.28
362.991	377.63
363.454	366.33
363.918	380.53
364.381	382.18
364.845	375.88
365.308	376.68
365.772	385.28
366.235	386.13
366.698	383.58
367.162	381.83
367.625	387.73
368.088	402.18
368.552	390.48
369.015	390.28
369.478	394.63
369.941	403.63
370.404	402.08
370.867	403.38
371.331	406.88
371.794	414.68
372.257	418.08
372.72	415.13
373.183	421.63
373.646	420.73
374.109	420.68
374.572	423.13
375.035	430.63
375.497	429.93
375.96	440.38
376.423	448.13
376.886	450.28
377.349	449.73
377.811	452.53
378.274	461.98
378.737	451.58
379.199	466.48
379.662	467.48
380.125	465.93
380.587	475.48
381.05	482.88
381.512	481.38
381.975	500.78
382.437	502.63
382.9	499.93
383.362	505.38
383.825	504.93
384.287	510.28
384.75	507.93
385.212	518.08
385.674	518.38
386.136	521.43
386.599	517.23
387.061	522.63
387.523	526.53
387.985	526.03
388.447	536.83
388.91	534.93
389.372	535.28
389.834	539.28
390.296	527.63
390.758	542.43
391.22	533.48
391.682	534.58
392.144	539.83
392.606	544.38
393.068	555.73
393.529	585.13
393.991	597.68
394.453	567.98
394.915	557.83
395.377	543.93
395.838	545.63
396.3	551.03
396.762	556.48
397.224	551.93
397.685	558.78
398.147	566.03
398.608	570.93
399.07	566.53
399.531	575.48
399.993	592.13
400.454	595.38
400.916	596.73
401.377	611.23
401.839	611.08
402.3	618.38
402.762	646.93
403.223	680.63
403.684	682.13
404.145	650.13
404.607	641.13
405.068	634.63
405.529	646.03
405.99	658.13
406.451	662.03
406.913	649.38
407.374	653.28
407.835	653.48
408.296	672.08
408.757	674.93
409.218	688.63
409.679	695.03
410.14	697.43
410.601	719.23
411.062	717.83
411.522	723.68
411.983	714.18
412.444	734.03
412.905	746.38
413.366	775.13
413.826	807.58
414.287	904.08
414.748	1078.48
415.208	1113.78
415.669	914.58
416.13	836.98
416.59	824.08
417.051	843.23
417.511	888.28
417.972	950.38
418.432	1022.83
418.893	1134.13
419.353	1081.78
419.814	834.28
420.274	751.53
420.734	741.08
421.195	770.43
421.655	757.28
422.115	774.83
422.576	776.83
423.036	784.28
423.496	802.68
423.956	843.28
424.416	898.68
424.876	1006.18
425.336	993.43
425.797	982.58
426.257	965.48
426.717	912.58
427.177	851.48
427.637	858.83
428.097	896.03
428.556	920.68
429.016	981.33
429.476	988.13
429.936	963.58
430.396	968.88
430.856	988.03
431.315	1007.23
431.775	1079.68
432.235	1162.48
432.694	1182.88
433.154	1111.83
433.614	1086.53
434.073	1055.38
434.533	949.33
434.993	918.13
435.452	926.03
435.912	908.78
436.371	909.03
436.83	892.03
437.29	874.78
437.749	847.98
438.209	852.43
438.668	864.78
439.127	881.08
439.587	864.28
440.046	833.63
440.505	859.28
440.964	866.08
441.424	900.78
441.883	918.78
442.342	861.23
442.801	822.98
443.26	824.88
443.719	830.23
444.178	820.83
444.637	835.13
445.096	849.98
445.555	847.48
446.014	849.78
446.473	833.43
446.932	842.08
447.391	851.13
447.849	870.08
448.308	856.28
448.767	858.28
449.226	879.53
449.685	893.53
450.143	922.43
450.602	923.03
451.061	873.93
451.519	878.13
451.978	863.93
452.436	861.23
452.895	874.98
453.353	871.28
453.812	858.18
454.27	862.33
454.729	862.08
455.187	872.53
455.646	876.88
456.104	872.68
456.562	885.33
457.021	904.78
457.479	870.38
457.937	893.28
458.395	918.38
458.854	904.38
459.312	895.18
459.77	896.88
460.228	914.73
460.686	924.68
461.144	919.63
461.602	912.58
462.06	916.23
462.518	939.93
462.976	939.58
463.434	944.83
463.892	961.53
464.35	984.33
464.808	998.08
465.266	1005.88
465.724	1014.98
466.181	1019.73
466.639	1014.08
467.097	1056.48
467.555	1088.83
468.012	1080.58
468.47	1090.13
468.928	1122.43
469.385	1148.73
469.843	1172.38
470.3	1159.43
470.758	1198.83
471.215	1217.68
471.673	1236.03
472.13	1267.83
472.588	1298.18
473.045	1283.98
473.503	1310.68
473.96	1373.98
474.417	1385.48
474.875	1438.98
475.332	1502.13
475.789	1508.93
476.246	1557.03
476.704	1624.68
477.161	1669.48
477.618	1709.83
478.075	1800.03
478.532	1914.88
478.989	2075.13
479.446	2257.93
479.903	2369.78
480.36	2548.43
480.817	2699.68
481.274	2865.68
481.731	3112.88
482.188	3334.03
482.645	3586.33
483.102	3757.73
483.558	4023.68
484.015	4192.23
484.472	4168.23
484.929	4043.28
485.385	3886.73
485.842	3826.83
486.299	3683.98
486.755	3401.33
487.212	3085.63
487.668	2787.53
488.125	2605.73
488.582	2426.18
489.038	2348.53
489.494	2290.88
489.951	2221.38
490.407	2160.58
490.864	2130.38
491.32	2079.38
491.776	2071.93
492.233	2086.23
492.689	2047.18
493.145	1998.68
493.602	1970.28
494.058	2008.68
494.514	2012.68
494.97	2011.23
495.426	2052.93
495.882	2053.38
496.338	2043.28
496.794	2054.98
497.251	2043.68
497.707	2064.93
498.163	2085.63
498.618	2084.68
499.074	2072.18
499.53	2098.43
499.986	2107.88
500.442	2084.13
500.898	2066.33
501.354	2085.43
501.809	2080.38
502.265	2080.33
502.721	2091.48
503.177	2095.53
503.632	2099.88
504.088	2113.23
504.543	2145.93
504.999	2164.68
505.455	2146.18
505.91	2149.28
506.366	2137.68
506.821	2152.28
507.277	2130.18
507.732	2148.18
508.187	2144.73
508.643	2162.98
509.098	2154.68
509.553	2181.43
510.009	2214.48
510.464	2256.08
510.919	2266.08
511.375	2280.88
511.83	2294.18
512.285	2340.08
512.74	2404.78
513.195	2425.43
513.65	2471.43
514.105	2496.48
514.56	2498.18
515.015	2538.08
515.47	2551.33
515.925	2524.28
516.38	2524.33
516.835	2544.63
517.29	2519.63
517.745	2516.98
518.2	2482.53
518.655	2443.18
519.109	2405.48
519.564	2381.13
520.019	2367.28
520.474	2335.88
520.928	2321.03
521.383	2309.88
521.838	2289.38
522.292	2280.98
522.747	2264.38
523.201	2255.08
523.656	2230.63
524.11	2218.98
524.565	2221.03
525.019	2224.78
525.474	2214.93
525.928	2215.73
526.382	2216.58
526.837	2212.73
527.291	2212.98
527.745	2200.13
528.2	2209.38
528.654	2177.73
529.108	2181.58
529.562	2192.78
530.016	2187.83
530.47	2199.08
530.925	2182.53
531.379	2179.78
531.833	2205.78
532.287	2200.98
532.741	2182.98
533.195	2184.03
533.649	2199.73
534.103	2207.23
534.556	2188.08
535.01	2204.88
535.464	2193.23
535.918	2197.53
536.372	2204.63
536.826	2198.38
537.279	2189.93
537.733	2182.88
538.187	2189.88
538.64	2182.83
539.094	2213.23
539.548	2238.13
540.001	2235.78
540.455	2238.33
540.908	2252.08
541.362	2265.63
541.815	2286.43
542.269	2331.68
542.722	2324.43
543.175	2346.43
543.629	2358.98
544.082	2369.68
544.536	2402.28
544.989	2408.38
545.442	2422.88
545.895	2417.63
546.349	2411.98
546.802	2420.18
547.255	2440.18
547.708	2440.23
548.161	2468.03
548.614	2457.28
549.067	2479.93
549.52	2464.88
549.973	2432.23
550.426	2432.13
550.879	2416.33
551.332	2421.18
551.785	2440.43
552.238	2450.53
552.691	2460.38
553.144	2493.73
553.596	2530.58
554.049	2558.73
554.502	2621.28
554.955	2652.63
555.407	2676.93
555.86	2672.08
556.313	2631.58
556.765	2618.33
557.218	2592.18
557.67	2576.98
558.123	2541.08
558.576	2529.23
559.028	2518.58
559.48	2560.58
559.933	2522.53
560.385	2461.83
560.838	2382.23
561.29	2328.23
561.742	2306.93
562.195	2257.88
562.647	2240.08
563.099	2210.73
563.551	2207.93
564.004	2230.63
564.456	2205.78
564.908	2163.78
565.36	2125.13
565.812	2072.08
566.264	2057.98
566.716	2031.63
567.168	1995.88
567.62	2010.13
568.072	1982.98
568.524	1972.73
568.976	1964.73
569.428	1944.33
569.88	1947.33
570.332	1958.68
570.784	1955.93
571.235	1946.43
571.687	1964.93
572.139	1977.73
572.59	1979.33
573.042	1993.93
573.494	2000.98
573.945	1975.58
574.397	1932.93
574.849	1929.53
575.3	1935.53
575.752	1896.53
576.203	1875.98
576.655	1889.23
577.106	1868.78
577.557	1859.58
578.009	1844.33
578.46	1857.03
578.912	1843.08
579.363	1842.73
579.814	1840.18
580.265	1850.48
580.717	1851.38
581.168	1843.68
581.619	1850.68
582.07	1866.88
582.521	1862.78
582.972	1844.38
583.423	1860.13
583.875	1869.98
584.326	1880.43
584.777	1919.83
585.227	1937.03
585.678	1970.88
586.129	1981.63
586.58	1994.78
587.031	2032.23
587.482	2079.48
587.933	2106.28
588.384	2099.28
588.834	2086.48
589.285	2076.28
589.736	2075.33
590.186	2068.63
590.637	2050.03
591.088	1998.08
591.538	1969.43
591.989	1937.33
592.439	1928.53
592.89	1906.03
593.34	1901.18
593.791	1890.63
594.241	1877.28
594.692	1866.73
595.142	1869.78
595.593	1858.08
596.043	1866.78
596.493	1881.73
596.943	1881.83
597.394	1934.28
597.844	1956.73
598.294	1998.78
598.744	2063.43
599.195	2170.18
599.645	2288.73
600.095	2398.13
600.545	2490.53
600.995	2613.53
601.445	2702.38
601.895	2830.48
602.345	2894.23
602.795	2878.43
603.245	2765.68
603.695	2626.73
604.145	2491.08
604.594	2381.23
605.044	2247.63
605.494	2112.58
605.944	2002.78
606.393	1944.68
606.843	1923.38
607.293	1906.13
607.743	1900.18
608.192	1900.43
608.642	1910.68
609.091	1904.18
609.541	1899.48
609.99	1890.23
610.44	1852.43
610.889	1842.33
611.339	1813.53
611.788	1782.53
612.238	1806.83
612.687	1809.78
613.136	1826.98
613.586	1839.58
614.035	1834.13
614.484	1848.18
614.933	1843.53
615.383	1813.53
615.832	1766.23
616.281	1742.93
616.73	1696.03
617.179	1670.58
617.628	1640.28
618.077	1619.88
618.526	1585.93
618.975	1574.08
619.424	1552.63
619.873	1549.68
620.322	1533.83
620.771	1536.48
621.22	1511.73
621.669	1481.03
622.118	1477.38
622.567	1449.73
623.015	1432.73
623.464	1429.13
623.913	1402.53
624.361	1412.58
624.81	1406.53
625.259	1406.63
625.707	1405.03
626.156	1419.78
626.604	1424.18
627.053	1436.58
627.501	1426.48
627.95	1444.08
628.398	1453.18
628.847	1430.63
629.295	1433.03
629.744	1420.93
630.192	1393.18
630.64	1382.03
631.089	1355.23
631.537	1328.38
631.985	1303.58
632.433	1314.23
632.881	1289.78
633.33	1303.18
633.778	1304.13
634.226	1311.83
634.674	1324.58
635.122	1333.88
635.57	1355.38
636.018	1373.83
636.466	1374.33
636.914	1372.78
637.362	1388.53
637.81	1420.83
638.258	1452.63
638.705	1475.18
639.153	1528.08
639.601	1534.13
640.049	1564.43
640.497	1607.78
640.944	1643.88
641.392	1589.78
641.84	1497.03
642.287	1429.88
642.735	1394.88
643.182	1389.08
643.63	1377.68
644.078	1381.28
644.525	1407.58
644.973	1439.53
645.42	1477.98
645.867	1505.13
646.315	1541.28
646.762	1587.53
647.21	1626.98
647.657	1703.73
648.104	1769.58
648.551	1813.68
648.999	1934.23
649.446	2121.73
649.893	2331.43
650.34	2722.98
650.787	3319.18
651.234	4219.53
651.682	5761.33
652.129	8071.63
652.576	11421.78
653.023	14908.93
653.47	15534.63
653.917	15534.68
654.363	15534.58
654.81	15531.58
655.257	15532.23
655.704	14857.63
656.151	9071.28
656.598	5994.43
657.044	4323.73
657.491	3406.08
657.938	2782.38
658.385	2381.63
658.831	2107.93
659.278	1904.23
659.724	1750.13
660.171	1627.93
660.618	1514.18
661.064	1438.58
661.511	1397.78
661.957	1355.33
662.404	1327.33
662.85	1322.88
663.296	1307.68
663.743	1280.83
664.189	1247.28
664.635	1245.23
665.082	1221.73
665.528	1205.18
665.974	1180.68
666.42	1155.38
666.867	1142.23
667.313	1090.28
667.759	1076.98
668.205	1073.58
668.651	1074.13
669.097	1071.43
669.543	1076.63
669.989	1083.93
670.435	1086.18
670.881	1098.53
671.327	1152.53
671.773	1228.73
672.219	1310.33
672.665	1384.98
673.11	1442.83
673.556	1463.53
674.002	1492.78
674.448	1506.78
674.893	1308.93
675.339	1125.98
675.785	1051.18
676.23	996.83
676.676	956.18
677.122	929.68
677.567	899.13
678.013	879.58
678.458	873.88
678.904	859.43
679.349	850.43
679.794	851.08
680.24	847.98
680.685	837.93
681.131	834.88
681.576	838.48
682.021	851.13
682.466	857.23
682.912	867.93
683.357	904.13
683.802	985.23
684.247	1067.23
684.692	1135.18
685.137	1189.18
685.583	1213.03
686.028	1271.33
686.473	1214.18
686.918	1063.98
687.363	968.03
687.807	916.68
688.252	877.23
688.697	844.03
689.142	811.43
689.587	822.83
690.032	838.83
690.477	864.48
690.921	905.03
691.366	951.43
691.811	991.93
692.255	1074.43
692.7	1290.88
693.145	1852.33
693.589	2819.53
694.034	3384.58
694.478	3637.68
694.923	3326.58
695.367	4762.08
695.812	2905.13
696.256	1233.23
696.701	902.43
697.145	830.23
697.59	802.18
698.034	785.58
698.478	786.13
698.922	792.43
699.367	805.08
699.811	839.18
700.255	917.03
700.699	991.63
701.143	1075.03
701.588	1139.28
702.032	1196.13
702.476	1228.13
702.92	1318.28
703.364	1703.78
703.808	2591.03
704.252	3246.63
704.696	3450.58
705.14	3278.78
705.584	4490.53
706.027	2503.48
706.471	1251.73
706.915	937.18
707.359	838.13
707.803	783.23
708.246	746.33
708.69	746.63
709.134	736.33
709.577	739.03
710.021	743.73
710.465	741.53
710.908	731.13
711.352	762.98
711.795	844.68
712.239	907.83
712.682	923.73
713.126	915.33
713.569	1023.23
714.012	836.28
714.456	728.98
714.899	688.83
715.342	662.48
715.786	633.38
716.229	624.58
716.672	606.68
717.115	607.33
717.558	611.83
718.002	630.68
718.445	650.98
718.888	686.98
719.331	697.18
719.774	714.63
720.217	700.53
720.66	672.68
721.103	637.33
721.546	599.53
721.989	584.63
722.432	574.53
722.874	574.88
723.317	580.28
723.76	623.68
724.203	763.38
724.645	1013.88
725.088	1209.43
725.531	1182.58
725.974	1296.88
726.416	1168.38
726.859	727.13
727.301	590.08
727.744	566.53
728.187	573.78
728.629	575.18
729.071	609.88
729.514	636.43
729.956	658.68
730.399	675.63
730.841	679.58
731.283	668.68
731.726	645.03
732.168	661.33
732.61	681.68
733.053	729.98
733.495	812.93
733.937	914.18
734.379	1065.53
734.821	1355.68
735.263	2131.13
735.705	3828.18
736.148	5646.98
736.59	5714.43
737.032	6225.13
737.474	5141.93
737.916	1968.53
738.357	1041.13
738.799	793.03
739.241	739.63
739.683	753.98
740.125	758.08
740.567	765.98
741.008	833.28
741.45	875.23
741.892	905.58
742.334	918.18
742.775	917.98
743.217	886.03
743.658	746.63
744.1	769.58
744.542	887.13
744.983	923.18
745.425	971.43
745.866	945.78
746.307	769.08
746.749	809.23
747.19	1159.38
747.632	2239.13
748.073	4179.53
748.514	5829.43
748.956	7741.13
749.397	9093.28
749.838	6323.78
750.279	6029.88
750.72	3116.38
751.162	1319.73
751.603	759.03
752.044	612.83
752.485	538.48
752.926	506.33
753.367	485.63
753.808	469.13
754.249	466.33
754.69	463.33
755.131	453.23
755.572	447.13
756.013	446.58
756.453	452.93
756.894	463.63
757.335	460.43
757.776	468.28
758.216	486.63
758.657	509.13
759.098	575.23
759.538	682.83
759.979	980.98
760.42	1963.33
760.86	5025.73
761.301	10437.63
761.741	12434.58
762.182	14260.63
762.622	9325.03
763.063	3311.23
763.503	1366.03
763.943	799.48
764.384	634.03
764.824	551.68
765.264	503.83
765.705	478.53
766.145	451.38
766.585	441.93
767.025	425.58
767.465	422.63
767.906	428.83
768.346	463.28
768.786	523.43
769.226	765.68
769.666	1536.83
770.106	3449.58
770.546	5004.68
770.986	5698.33
771.426	4324.93
771.866	1784.48
772.306	816.83
772.745	507.43
773.185	426.33
773.625	417.23
774.065	444.33
774.505	639.53
774.944	1162.08
775.384	1684.73
775.824	1926.13
776.263	1588.43
776.703	830.58
777.142	473.58
777.582	356.53
778.021	322.73
778.461	312.78
778.9	304.13
779.34	292.78
779.779	287.73
780.219	282.33
780.658	278.13
781.097	274.18
781.537	265.83
781.976	268.38
782.415	263.33
782.855	257.73
783.294	262.68
783.733	260.78
784.172	258.83
784.611	259.88
785.05	270.53
785.489	270.48
785.928	284.78
786.367	298.98
786.806	310.98
787.245	334.08
787.684	341.78
788.123	339.98
788.562	322.13
789.001	318.03
789.44	311.43
789.879	306.18
790.317	314.28
790.756	328.38
791.195	372.78
791.634	498.83
792.072	896.18
792.511	2187.28
792.95	4096.83
793.388	5004.68
793.827	3267.83
794.265	1474.13
794.704	716.93
795.142	440.03
795.581	360.73
796.019	334.28
796.458	326.23
796.896	332.98
797.334	389.68
797.773	516.53
798.211	975.28
798.649	2032.33
799.087	3432.88
799.526	4887.63
799.964	5064.68
800.402	3509.63
800.84	1569.68
801.278	775.43
801.716	476.13
802.154	379.53
802.592	360.38
803.03	354.68
803.468	362.73
803.906	368.68
804.344	364.48
804.782	348.73
805.22	357.63
805.658	368.43
806.096	391.03
806.533	436.88
806.971	555.93
807.409	802.13
807.847	1595.38
808.284	4075.53
808.722	7190.03
809.16	10116.28
809.597	13562.23
810.035	15532.83
810.472	11202.68
810.91	4740.83
811.347	2115.18
811.785	1001.68
812.222	634.98
812.66	488.58
813.097	416.93
813.535	358.38
813.972	324.63
814.409	301.23
814.846	284.73
815.284	276.18
815.721	281.03
816.158	312.93
816.595	426.08
817.032	550.73
817.47	497.83
817.907	358.23
818.344	308.53
818.781	307.93
819.218	370.48
819.655	574.38
820.092	766.13
820.529	683.63
820.966	532.28
821.403	360.78
821.839	306.93
822.276	340.63
822.713	411.93
823.15	382.23
823.587	386.88
824.023	676.18
824.46	1664.88
824.897	2947.83
825.333	2325.83
825.77	1053.78
826.206	554.08
826.643	323.83
827.08	248.83
827.516	215.33
827.953	205.43
828.389	192.83
828.825	181.38
829.262	174.03
829.698	171.23
830.135	158.18
830.571	163.68
831.007	164.78
831.443	165.23
831.88	168.73
832.316	166.88
832.752	169.78
833.188	167.68
833.624	170.53
834.06	177.23
834.497	175.03
834.933	177.03
835.369	194.28
835.805	201.68
836.241	210.53
836.677	231.13
837.112	271.73
837.548	333.28
837.984	496.58
838.42	1051.48
838.856	2921.73
839.292	5866.13
839.727	4414.43
840.163	2919.38
840.599	4406.13
841.034	6801.93
841.47	3447.88
841.906	1641.73
842.341	881.58
842.777	666.63
843.212	699.03
843.648	435.58
844.083	291.68
844.519	224.23
844.954	191.18
845.39	163.83
845.825	158.88
846.261	153.23
846.696	144.53
847.131	138.68
847.566	141.33
848.002	139.88
848.437	153.83
848.872	159.33
849.307	204.88
849.742	365.93
850.177	952.13
850.613	2054.78
851.048	1500.38
851.483	680.23
851.918	379.08
852.353	209.78
852.788	155.28
853.223	133.08
853.657	126.43
854.092	123.68
854.527	118.53
854.962	126.93
855.397	143.38
855.832	124.33
856.266	112.98
856.701	113.63
857.136	115.38
857.57	141.73
858.005	177.78
858.44	144.78
858.874	133.78
859.309	138.68
859.743	133.08
860.178	130.58
860.612	140.53
861.047	196.58
861.481	276.93
861.915	191.88
862.35	139.93
862.784	113.03
863.218	104.83
863.653	114.68
864.087	145.13
864.521	177.03
864.955	283.73
865.39	486.63
865.824	381.63
866.258	507.28
866.692	779.38
867.126	570.68
867.56	304.48
867.994	189.08
868.428	160.68
868.862	200.68
869.296	183.73
869.73	225.93
870.164	196.28
870.598	170.93
871.031	124.73
871.465	110.93
871.899	91.08
872.333	75.98
872.766	76.53
873.2	78.58
873.634	78.93
874.067	84.73
874.501	81.43
874.935	82.58
875.368	85.23
875.802	77.58
876.235	72.73
876.669	72.58
877.102	64.43
877.535	64.28
877.969	60.48
878.402	64.08
878.836	66.18
879.269	64.98
879.702	63.93
880.135	64.33
880.569	64.53
881.002	57.33
881.435	67.83
881.868	61.48
882.301	60.23
882.734	56.88
883.167	61.08
883.601	55.98
884.034	58.23
884.467	48.88
884.899	57.88
885.332	51.03
885.765	53.18
886.198	53.33
886.631	51.83
887.064	55.18
887.497	51.78
887.929	52.78
888.362	51.28
888.795	49.18
889.228	51.88
889.66	49.83
890.093	49.53
890.526	46.33
890.958	49.53
891.391	49.28
891.823	46.38
892.256	51.78
892.688	44.93
893.121	43.58
893.553	51.23
893.985	44.98
894.418	41.88
894.85	49.63
895.282	45.78
895.715	44.28
896.147	43.33
896.579	39.83
897.011	48.78
897.444	45.88
897.876	39.98
898.308	36.48
898.74	45.38
899.172	50.98
899.604	47.03
900.036	43.08
900.468	46.58
900.9	49.63
901.332	61.53
901.764	68.03
902.196	59.48
902.628	66.78
903.06	95.73
903.491	103.58
903.923	76.88
904.355	81.88
904.787	82.13
905.218	67.48
905.65	64.63
906.082	56.18
906.513	56.53
906.945	57.08
907.376	49.73
907.808	58.13
908.239	60.53
908.671	67.48
909.102	78.03
909.534	103.63
909.965	187.73
910.397	476.08
910.828	1386.53
911.259	851.63
911.691	454.93
912.122	267.83
912.553	137.53
912.984	75.73
913.415	70.43
913.847	59.88
914.278	54.98
914.709	50.88
915.14	48.68
915.571	51.28
916.002	47.43
916.433	46.93
916.864	42.18
917.295	50.38
917.726	54.38
918.157	68.33
918.587	64.63
919.018	63.73
919.449	57.73
919.88	73.88
920.311	108.78
920.741	283.68
921.172	509.38
921.603	256.68
922.033	161.48
922.464	103.23
922.895	69.88
923.325	50.83
923.756	42.18
924.186	56.78
924.617	79.28
925.047	124.48
925.478	103.33
925.908	81.68
926.338	57.93
926.769	49.13
927.199	47.08
927.629	39.08
928.06	43.68
928.49	39.58
928.92	37.43
929.35	36.48
929.78	25.63
930.21	24.08
930.641	24.68
931.071	23.58
931.501	21.28
931.931	19.53
932.361	26.33
932.791	30.43
933.221	31.48
933.651	39.93
934.08	67.53
934.51	45.73
934.94	35.43
935.37	30.38
935.8	26.58
936.229	23.68
936.659	25.58
937.089	43.48
937.519	68.13
937.948	91.58
938.378	48.03
938.807	34.63
939.237	21.43
939.666	19.68
940.096	14.33
940.525	11.18
940.955	15.98
941.384	14.78
941.814	13.68
942.243	10.83
942.672	13.58
943.102	9.63
943.531	10.63
943.96	9.58
944.39	10.93
944.819	14.58
945.248	11.03
945.677	11.28
946.106	17.28
946.535	14.53
946.964	10.98
947.393	10.73
947.822	9.78
948.251	16.18
948.68	13.68
949.109	12.73
949.538	11.48
949.967	13.43
950.396	11.23
950.825	15.63
951.254	12.28
951.682	8.48
952.111	7.38
952.54	4.48
952.969	11.13
953.397	9.78
953.826	5.73
954.254	10.08
954.683	9.68
955.112	12.08
955.54	5.73
955.969	8.78
956.397	9.98
956.826	9.23
957.254	5.63
957.682	6.28
958.111	7.23
958.539	12.28
958.967	12.33
959.396	15.03
959.824	9.98
960.252	9.83
960.68	7.68
961.109	12.13
961.537	15.43
961.965	5.68
962.393	14.38
962.821	11.13
963.249	11.48
963.677	16.53
964.105	88.48
964.533	148.03
964.961	69.23
965.389	42.38
965.817	26.83
966.245	17.13
966.672	14.83
967.1	9.98
967.528	4.38
967.956	6.98
968.383	11.23
968.811	4.73
969.239	7.58
969.666	8.43
970.094	6.78
970.522	6.03
970.949	8.93
971.377	4.63
971.804	4.68
972.232	4.88
972.659	6.93
973.087	6.58
973.514	4.38
973.941	5.33
974.369	3.83
974.796	5.13
975.223	3.48
975.651	10.03
976.078	9.08
976.505	11.73
976.932	37.88
977.359	44.48
977.786	29.48
978.214	21.03
978.641	8.98
979.068	8.58
979.495	4.33
979.922	10.73
980.349	7.28
980.776	7.43
981.202	5.08
981.629	11.63
982.056	10.58
982.483	1.93
982.91	10.38
983.337	2.78
983.763	5.48
984.19	8.68
984.617	6.18
985.043	8.68
985.47	9.08
985.897	6.53
986.323	10.33
986.75	3.48
987.176	6.23
987.603	5.13
988.029	8.03
988.456	6.83
988.882	0.13
989.308	1.73
989.735	4.33
990.161	4.93
990.587	5.43
991.014	4.93
991.44	6.78
991.866	8.43
992.292	7.23
992.719	2.58
993.145	6.58
993.571	6.73
993.997	5.33
994.423	12.03
994.849	1.48
995.275	7.23
995.701	3.78
996.127	1.58
996.553	5.23
996.979	1.73
997.405	9.03
997.83	8.08
998.256	8.93
998.682	6.98
999.108	8.08
999.534	0.98
999.959	3.23
1000.385	8.78
1000.811	-1.67
1001.236	-2.32
1001.662	5.38
1002.087	13.83
1002.513	3.03
1002.938	0.53
1003.364	0.93
1003.789	9.08
1004.215	5.93
1004.64	2.58
1005.066	5.58
1005.491	7.98
1005.916	7.53
1006.342	8.03
1006.767	5.78
1007.192	8.13
1007.617	4.63
1008.042	5.63
1008.468	4.33
1008.893	10.18
1009.318	13.98
1009.743	22.23
1010.168	35.08
1010.593	33.23
1011.018	21.03
1011.443	11.03
1011.868	12.28
1012.293	5.63
1012.718	2.13
1013.143	8.03
1013.567	10.48
1013.992	3.73
1014.417	4.68
1014.842	0.83
1015.267	2.53
1015.691	5.73
1016.116	-1.07
1016.541	6.58
1016.965	2.78
1017.39	5.38
1017.814	-0.97
1018.239	1.83
1018.663	0.18
1019.088	-0.57
1019.512	6.23
1019.937	-1.12
1020.361	-0.47
1020.785	0.88
1021.21	0.33
1021.634	3.38
1022.058	5.93
1022.483	-3.42
1022.907	-0.37
1023.331	2.38
1023.755	0.68
1024.179	2.78
1024.604	-1.72
1025.028	4.03
1025.452	4.03
1025.876	5.28
1026.3	5.03
1026.724	-1.22
1027.148	4.03
1027.572	3.18
1027.996	5.73
1028.42	4.23
1028.843	-1.57
1029.267	2.63
1029.691	2.68
1030.115	0.63
1030.539	-0.27
1030.962	2.48
1031.386	-1.92
1031.81	-0.82
1032.233	-0.12
1032.657	-5.47
1033.08	2.23
1033.504	2.53
1033.927	0.73
1034.351	-0.22
1034.774	1.18
1035.198	0.13
1035.621	4.38
1036.045	3.43
1036.468	8.63
1036.891	2.33
1037.315	5.28
1037.738	0.28
1038.161	3.18
1038.584	0.98
1039.008	0.43
1039.431	-0.27
1039.854	-2.82
1040.277	6.68
1040.7	0.48
1041.123	4.18
1041.546	0.48
1041.969	1.13
1042.392	3.08
1042.815	-4.47
1043.238	-3.07
1043.661	1.23
1044.084	-2.22
1044.507	0.13
1044.93	3.13
1045.352	-1.27
1045.775	5.68
1046.198	1.73
1046.621	3.23
1047.043	0.83
1047.466	3.73
1047.889	-1.97
1048.311	6.03
1048.734	-1.42
1049.156	0.48
1049.579	0.33
1050.001	1.63
1050.424	2.73
1050.846	-1.22
1051.269	-0.62
1051.691	-0.57
1052.113	2.28
1052.536	2.48
1052.958	-3.02
1053.38	-0.72
1053.802	3.58
1054.225	3.23
1054.647	1.28
1055.069	1.13
1055.491	6.73
1055.913	4.23
1056.335	-5.97
1056.757	-3.32
1057.179	-1.17
1057.601	0.98
1058.023	1.28
1058.445	-4.42
1058.867	3.13
1059.289	0.43
1059.711	-0.82
1060.133	-0.32
1060.555	-0.27
1060.976	4.03
1061.398	1.93
1061.82	0.38
1062.241	-3.32
1062.663	0.23
1063.085	-2.37
1063.506	-7.97
1063.928	-3.47
1064.35	2.43
1064.771	1.38
1065.193	-0.27
1065.614	-0.72
1066.035	7.68
1066.457	5.68
1066.878	2.73
1067.3	4.93
1067.721	5.03
1068.142	2.93
1068.564	5.53
1068.985	-1.87
1069.406	-2.62
1069.827	1.48
1070.248	-0.12
1070.67	-0.67
1071.091	-6.97
1071.512	1.93
1071.933	-3.52
1072.354	-8.07
1072.775	-0.52
1073.196	-0.02
1073.617	-2.87
1074.038	1.68
1074.459	-1.42
1074.88	1.38
1075.3	-1.57
1075.721	-0.52
1076.142	-2.27
1076.563	-3.97
1076.983	3.53
1077.404	-9.27
1077.825	-1.37
1078.246	-1.92
1078.666	-1.27
1079.087	0.08
1079.507	-2.67
1079.928	-3.17
1080.348	-1.72
1080.769	1.93
1081.189	-3.02
1081.61	-3.97
1082.03	2.38
1082.451	2.83
1082.871	-2.87
1083.291	-4.37
1083.711	-1.97
1084.132	-0.92
1084.552	-1.42
1084.972	-2.22
1085.392	-4.17
1085.813	1.38
1086.233	-0.42
1086.653	-0.32
1087.073	-6.87
1087.493	-1.92
1087.913	-0.97
1088.333	-1.17
1088.753	-2.07
1089.173	1.23
1089.593	-3.47
1090.013	0.88
1090.433	-2.02
1090.852	1.08
1091.272	-3.92
1091.692	2.93
1092.112	-2.92
1092.531	-5.77
1092.951	-3.47
1093.371	-1.27
1093.79	-3.67
1094.21	-1.62
1094.63	-0.92
1095.049	-1.12
1095.469	-7.32
1095.888	2.78
1096.308	-0.52
1096.727	-0.47
1097.146	-4.32
1097.566	2.48
1097.985	-5.07
1098.405	2.93
1098.824	-0.97
1099.243	-3.62
1099.662	-2.52
1100.082	-4.57
1100.501	0.63
1100.92	3.08
1101.339	2.28
1101.758	6.73
