Data from MSPlasma+Separation6_Subt14_10-13-43-448.txt Node
Date: Fri Jul 21 10:13:43 EDT 2017
User: Ender
Spectrometer: HR+D1039
Trigger mode: 0
Integration Time (sec): 6.430000E-3
Scans to average: 20
Electric dark correction enabled: true
Nonlinearity correction enabled: false
Boxcar width: 0
XAxis mode: Wavelengths
Number of Pixels in Spectrum: 2048
>>>>>Begin Spectral Data<<<<<
187.836	1.86
188.309	1.86
188.782	1.86
189.255	0.56
189.728	0.71
190.201	-0.94
190.674	-1.39
191.147	-0.24
191.619	-0.14
192.092	2.71
192.565	-2.04
193.038	5.51
193.511	0.51
193.984	-1.64
194.456	-0.79
194.929	-4.29
195.402	-3.09
195.874	2.66
196.347	0.91
196.82	0.26
197.292	-7.09
197.765	-4.59
198.237	-1.99
198.71	-2.49
199.182	0.21
199.655	0.46
200.127	4.16
200.6	1.86
201.072	1.51
201.544	-3.64
202.017	2.01
202.489	-1.39
202.961	1.16
203.433	-5.64
203.906	-5.29
204.378	-1.59
204.85	0.91
205.322	1.61
205.794	1.71
206.266	-2.49
206.739	3.66
207.211	1.96
207.683	3.61
208.155	-0.49
208.627	-1.69
209.099	5.26
209.57	2.86
210.042	4.76
210.514	2.21
210.986	-2.94
211.458	0.41
211.93	2.06
212.402	0.91
212.873	-0.24
213.345	-0.04
213.817	2.76
214.288	-3.09
214.76	2.71
215.232	0.86
215.703	-0.49
216.175	3.41
216.646	2.86
217.118	6.56
217.589	-2.39
218.061	0.76
218.532	-2.24
219.004	3.91
219.475	4.61
219.946	2.66
220.418	5.41
220.889	1.66
221.36	4.41
221.832	4.16
222.303	2.26
222.774	4.36
223.245	2.86
223.717	1.36
224.188	6.66
224.659	1.06
225.13	0.46
225.601	-3.09
226.072	4.81
226.543	8.06
227.014	1.91
227.485	5.91
227.956	4.16
228.427	10.71
228.898	5.01
229.369	7.31
229.839	9.01
230.31	7.66
230.781	7.56
231.252	5.86
231.722	9.21
232.193	7.41
232.664	9.16
233.135	9.61
233.605	11.06
234.076	11.61
234.546	11.71
235.017	12.01
235.487	10.61
235.958	6.16
236.428	16.06
236.899	10.46
237.369	16.06
237.84	12.41
238.31	19.71
238.78	11.71
239.251	8.21
239.721	9.61
240.191	11.46
240.662	21.16
241.132	15.41
241.602	16.31
242.072	12.86
242.542	15.46
243.013	20.71
243.483	19.36
243.953	16.71
244.423	22.16
244.893	19.76
245.363	22.76
245.833	22.41
246.303	18.66
246.773	23.96
247.243	23.51
247.712	20.66
248.182	20.41
248.652	23.01
249.122	21.16
249.592	22.86
250.061	25.76
250.531	23.61
251.001	27.56
251.471	29.56
251.94	27.91
252.41	27.06
252.879	26.76
253.349	32.16
253.818	24.76
254.288	33.71
254.757	31.66
255.227	30.31
255.696	29.76
256.166	33.66
256.635	33.76
257.105	33.76
257.574	35.21
258.043	33.41
258.513	34.81
258.982	30.46
259.451	34.11
259.92	28.06
260.389	35.11
260.859	35.06
261.328	37.56
261.797	37.11
262.266	40.61
262.735	41.51
263.204	34.51
263.673	42.91
264.142	39.01
264.611	39.86
265.08	42.01
265.549	37.86
266.018	41.06
266.487	43.01
266.955	40.11
267.424	48.06
267.893	45.81
268.362	44.96
268.83	45.76
269.299	43.36
269.768	48.61
270.236	52.31
270.705	50.86
271.174	50.81
271.642	52.61
272.111	51.96
272.579	53.61
273.048	52.31
273.516	52.86
273.985	55.66
274.453	48.86
274.922	50.76
275.39	51.91
275.858	54.61
276.327	57.61
276.795	56.76
277.263	61.76
277.731	61.26
278.2	60.01
278.668	58.26
279.136	68.31
279.604	65.06
280.072	59.51
280.54	59.41
281.008	68.61
281.477	68.06
281.945	61.76
282.413	64.16
282.881	70.61
283.348	70.31
283.816	67.46
284.284	68.71
284.752	70.31
285.22	74.56
285.688	71.01
286.156	70.91
286.623	77.56
287.091	76.51
287.559	76.11
288.026	77.61
288.494	78.31
288.962	82.61
289.429	80.76
289.897	79.26
290.364	73.46
290.832	84.36
291.3	80.66
291.767	80.21
292.234	88.51
292.702	83.31
293.169	84.66
293.637	83.81
294.104	88.96
294.571	85.81
295.039	86.66
295.506	81.66
295.973	83.46
296.44	86.71
296.908	88.36
297.375	91.21
297.842	93.01
298.309	89.36
298.776	90.41
299.243	96.51
299.71	101.46
300.177	96.81
300.644	100.81
301.111	105.01
301.578	98.81
302.045	96.01
302.512	103.01
302.979	105.21
303.446	107.46
303.913	104.06
304.379	112.26
304.846	113.21
305.313	115.86
305.78	115.96
306.246	110.41
306.713	114.11
307.18	121.26
307.646	123.86
308.113	121.36
308.579	125.16
309.046	131.01
309.512	121.21
309.979	130.66
310.445	129.31
310.912	133.81
311.378	136.31
311.845	136.91
312.311	134.16
312.777	132.76
313.244	141.66
313.71	140.86
314.176	143.51
314.642	142.01
315.109	143.76
315.575	142.31
316.041	144.56
316.507	146.51
316.973	153.31
317.439	150.16
317.905	150.81
318.371	147.66
318.837	148.11
319.303	153.01
319.769	150.11
320.235	159.16
320.701	158.61
321.167	155.81
321.633	157.06
322.099	153.66
322.564	160.96
323.03	158.56
323.496	166.01
323.962	162.26
324.427	170.61
324.893	165.11
325.359	178.21
325.824	171.21
326.29	180.56
326.755	170.61
327.221	173.66
327.686	186.16
328.152	184.71
328.617	190.36
329.083	187.31
329.548	191.71
330.014	192.06
330.479	201.91
330.944	196.36
331.41	202.21
331.875	189.66
332.34	192.41
332.805	199.86
333.271	200.06
333.736	203.46
334.201	204.16
334.666	221.41
335.131	215.86
335.596	217.76
336.061	212.61
336.526	207.11
336.991	208.56
337.456	204.26
337.921	210.76
338.386	202.81
338.851	200.56
339.316	211.51
339.781	206.01
340.246	211.66
340.711	215.21
341.175	217.51
341.64	224.86
342.105	228.61
342.569	232.16
343.034	228.56
343.499	228.81
343.963	241.16
344.428	243.06
344.893	241.66
345.357	246.86
345.822	244.46
346.286	251.76
346.751	254.71
347.215	259.76
347.679	268.06
348.144	285.51
348.608	282.46
349.073	283.71
349.537	295.46
350.001	290.31
350.465	293.01
350.93	297.46
351.394	300.71
351.858	296.61
352.322	301.31
352.786	300.81
353.25	306.51
353.715	304.46
354.179	325.86
354.643	334.66
355.107	340.91
355.571	324.86
356.035	332.66
356.498	330.41
356.962	322.71
357.426	322.26
357.89	320.01
358.354	313.61
358.818	315.16
359.281	322.11
359.745	328.51
360.209	323.01
360.673	319.61
361.136	319.36
361.6	326.06
362.064	332.76
362.527	336.96
362.991	338.71
363.454	336.46
363.918	347.36
364.381	343.96
364.845	344.86
365.308	343.21
365.772	348.46
366.235	350.61
366.698	353.01
367.162	346.16
367.625	357.86
368.088	366.86
368.552	354.41
369.015	354.76
369.478	362.66
369.941	363.96
370.404	373.76
370.867	367.06
371.331	374.81
371.794	378.36
372.257	377.01
372.72	379.86
373.183	380.71
373.646	383.91
374.109	386.56
374.572	389.21
375.035	386.96
375.497	392.16
375.96	399.76
376.423	408.91
376.886	413.11
377.349	414.86
377.811	420.81
378.274	421.36
378.737	411.11
379.199	422.96
379.662	432.11
380.125	433.91
380.587	440.16
381.05	445.51
381.512	448.01
381.975	452.41
382.437	470.86
382.9	456.11
383.362	460.96
383.825	467.86
384.287	475.71
384.75	469.11
385.212	468.46
385.674	472.86
386.136	486.26
386.599	477.76
387.061	473.21
387.523	479.96
387.985	484.96
388.447	491.46
388.91	486.46
389.372	493.31
389.834	490.06
390.296	484.16
390.758	495.91
391.22	491.61
391.682	498.21
392.144	493.76
392.606	502.81
393.068	509.26
393.529	536.11
393.991	544.96
394.453	524.46
394.915	514.21
395.377	500.36
395.838	503.26
396.3	506.91
396.762	506.46
397.224	512.16
397.685	510.51
398.147	515.01
398.608	517.96
399.07	532.21
399.531	526.31
399.993	546.21
400.454	544.86
400.916	549.21
401.377	562.71
401.839	558.86
402.3	567.56
402.762	594.71
403.223	629.21
403.684	622.81
404.145	600.26
404.607	590.36
405.068	586.56
405.529	591.46
405.99	607.96
406.451	611.86
406.913	595.61
407.374	602.56
407.835	601.56
408.296	621.26
408.757	620.81
409.218	644.26
409.679	648.01
410.14	644.21
410.601	666.16
411.062	668.26
411.522	668.56
411.983	677.61
412.444	678.91
412.905	686.51
413.366	718.86
413.826	741.61
414.287	839.41
414.748	992.61
415.208	1016.91
415.669	846.36
416.13	777.61
416.59	761.36
417.051	788.36
417.511	825.31
417.972	882.86
418.432	941.56
418.893	1035.11
419.353	998.21
419.814	774.16
420.274	695.91
420.734	682.61
421.195	707.16
421.655	711.16
422.115	716.51
422.576	719.41
423.036	725.06
423.496	747.21
423.956	778.41
424.416	825.21
424.876	923.81
425.336	916.71
425.797	906.36
426.257	892.46
426.717	852.06
427.177	780.61
427.637	788.26
428.097	820.06
428.556	853.26
429.016	907.61
429.476	909.81
429.936	897.71
430.396	898.41
430.856	922.21
431.315	937.26
431.775	999.26
432.235	1063.16
432.694	1078.11
433.154	1023.01
433.614	1003.51
434.073	973.51
434.533	876.76
434.993	852.66
435.452	851.71
435.912	838.21
436.371	832.31
436.83	822.51
437.29	805.61
437.749	790.56
438.209	784.86
438.668	799.11
439.127	811.06
439.587	802.01
440.046	778.06
440.505	794.56
440.964	799.51
441.424	829.41
441.883	846.51
442.342	798.06
442.801	761.21
443.26	769.46
443.719	762.91
444.178	758.86
444.637	776.01
445.096	781.36
445.555	790.76
446.014	788.66
446.473	780.81
446.932	779.86
447.391	789.21
447.849	801.76
448.308	784.56
448.767	798.61
449.226	813.36
449.685	822.76
450.143	849.31
450.602	857.61
451.061	808.76
451.519	815.51
451.978	805.26
452.436	796.91
452.895	805.66
453.353	801.56
453.812	792.81
454.27	796.16
454.729	795.36
455.187	815.16
455.646	817.71
456.104	814.46
456.562	826.96
457.021	829.96
457.479	806.36
457.937	827.31
458.395	842.91
458.854	844.11
459.312	830.36
459.77	839.51
460.228	855.41
460.686	863.51
461.144	867.01
461.602	851.81
462.06	860.41
462.518	866.36
462.976	872.56
463.434	884.46
463.892	898.46
464.35	916.16
464.808	924.56
465.266	930.41
465.724	938.86
466.181	944.66
466.639	940.06
467.097	979.21
467.555	1012.66
468.012	1000.46
468.47	1021.71
468.928	1053.46
469.385	1075.96
469.843	1087.16
470.3	1084.61
470.758	1114.16
471.215	1123.91
471.673	1149.76
472.13	1188.71
472.588	1208.91
473.045	1197.51
473.503	1219.31
473.96	1285.46
474.417	1296.16
474.875	1346.76
475.332	1396.06
475.789	1422.21
476.246	1443.31
476.704	1506.91
477.161	1549.36
477.618	1581.26
478.075	1673.21
478.532	1785.06
478.989	1923.51
479.446	2097.21
479.903	2191.46
480.36	2369.61
480.817	2496.26
481.274	2652.01
481.731	2886.71
482.188	3082.76
482.645	3291.31
483.102	3457.16
483.558	3679.71
484.015	3818.06
484.472	3784.01
484.929	3690.16
485.385	3557.16
485.842	3486.71
486.299	3353.11
486.755	3108.91
487.212	2830.56
487.668	2564.61
488.125	2395.66
488.582	2233.81
489.038	2170.11
489.494	2114.26
489.951	2057.06
490.407	2000.91
490.864	1965.06
491.32	1930.56
491.776	1912.81
492.233	1930.81
492.689	1904.41
493.145	1862.81
493.602	1843.86
494.058	1867.21
494.514	1873.46
494.97	1863.66
495.426	1902.76
495.882	1899.76
496.338	1889.51
496.794	1915.46
497.251	1900.51
497.707	1925.56
498.163	1922.81
498.618	1919.86
499.074	1924.96
499.53	1941.96
499.986	1954.86
500.442	1948.51
500.898	1919.36
501.354	1942.56
501.809	1930.46
502.265	1946.71
502.721	1959.71
503.177	1959.01
503.632	1958.61
504.088	1974.36
504.543	1988.56
504.999	2015.01
505.455	2002.86
505.91	1976.51
506.366	1994.36
506.821	1985.41
507.277	1985.86
507.732	1997.06
508.187	1988.91
508.643	2008.71
509.098	2010.91
509.553	2042.21
510.009	2065.81
510.464	2093.26
510.919	2126.36
511.375	2132.26
511.83	2155.76
512.285	2190.01
512.74	2235.51
513.195	2257.86
513.65	2285.91
514.105	2321.51
514.56	2315.36
515.015	2369.21
515.47	2370.71
515.925	2350.91
516.38	2356.66
516.835	2360.31
517.29	2344.26
517.745	2341.76
518.2	2294.26
518.655	2265.86
519.109	2241.01
519.564	2214.11
520.019	2200.06
520.474	2166.96
520.928	2172.06
521.383	2152.06
521.838	2134.96
522.292	2121.71
522.747	2102.21
523.201	2101.31
523.656	2067.81
524.11	2071.81
524.565	2068.56
525.019	2080.36
525.474	2066.56
525.928	2062.46
526.382	2060.61
526.837	2060.16
527.291	2069.26
527.745	2046.81
528.2	2053.36
528.654	2023.41
529.108	2042.01
529.562	2042.81
530.016	2036.96
530.47	2040.36
530.925	2025.16
531.379	2026.46
531.833	2062.31
532.287	2058.21
532.741	2047.56
533.195	2043.76
533.649	2048.76
534.103	2057.51
534.556	2025.61
535.01	2041.36
535.464	2038.56
535.918	2043.01
536.372	2060.71
536.826	2031.51
537.279	2032.31
537.733	2021.51
538.187	2044.06
538.64	2042.36
539.094	2061.51
539.548	2089.31
540.001	2074.26
540.455	2094.11
540.908	2098.36
541.362	2115.91
541.815	2136.01
542.269	2177.16
542.722	2163.06
543.175	2191.71
543.629	2192.31
544.082	2219.21
544.536	2237.06
544.989	2238.61
545.442	2266.16
545.895	2252.56
546.349	2264.16
546.802	2252.16
547.255	2259.66
547.708	2282.76
548.161	2295.51
548.614	2292.51
549.067	2301.86
549.52	2289.91
549.973	2277.16
550.426	2268.96
550.879	2252.86
551.332	2254.91
551.785	2286.46
552.238	2297.56
552.691	2297.16
553.144	2343.96
553.596	2372.01
554.049	2397.36
554.502	2440.96
554.955	2471.86
555.407	2493.11
555.86	2491.16
556.313	2452.51
556.765	2434.16
557.218	2412.31
557.67	2401.16
558.123	2367.11
558.576	2361.66
559.028	2344.91
559.48	2375.56
559.933	2362.41
560.385	2296.56
560.838	2217.86
561.29	2169.66
561.742	2151.41
562.195	2100.86
562.647	2084.21
563.099	2082.11
563.551	2067.66
564.004	2076.06
564.456	2060.31
564.908	2018.16
565.36	1977.96
565.812	1945.71
566.264	1918.76
566.716	1899.86
567.168	1864.86
567.62	1866.61
568.072	1850.71
568.524	1841.96
568.976	1835.41
569.428	1815.11
569.88	1810.01
570.332	1832.91
570.784	1830.81
571.235	1817.51
571.687	1840.81
572.139	1843.26
572.59	1857.21
573.042	1873.71
573.494	1862.66
573.945	1832.16
574.397	1802.41
574.849	1788.61
575.3	1801.61
575.752	1771.46
576.203	1755.26
576.655	1764.16
577.106	1736.76
577.557	1728.91
578.009	1714.36
578.46	1730.16
578.912	1717.71
579.363	1721.31
579.814	1725.11
580.265	1718.56
580.717	1730.01
581.168	1718.71
581.619	1731.11
582.07	1753.31
582.521	1732.71
582.972	1735.01
583.423	1749.56
583.875	1743.26
584.326	1755.66
584.777	1787.86
585.227	1821.01
585.678	1831.96
586.129	1861.91
586.58	1876.01
587.031	1901.26
587.482	1947.06
587.933	1974.21
588.384	1968.21
588.834	1937.91
589.285	1938.81
589.736	1939.51
590.186	1933.16
590.637	1924.36
591.088	1876.81
591.538	1840.51
591.989	1815.41
592.439	1801.21
592.89	1782.96
593.34	1767.31
593.791	1761.71
594.241	1757.91
594.692	1749.46
595.142	1757.51
595.593	1747.41
596.043	1747.11
596.493	1775.41
596.943	1762.66
597.394	1816.51
597.844	1837.21
598.294	1876.36
598.744	1942.06
599.195	2019.06
599.645	2147.41
600.095	2244.41
600.545	2357.61
600.995	2455.36
601.445	2528.76
601.895	2643.71
602.345	2713.71
602.795	2695.71
603.245	2583.21
603.695	2439.81
604.145	2322.06
604.594	2211.06
605.044	2088.46
605.494	1964.61
605.944	1868.91
606.393	1820.71
606.843	1789.01
607.293	1784.36
607.743	1771.51
608.192	1787.06
608.642	1786.16
609.091	1786.16
609.541	1767.01
609.99	1769.81
610.44	1748.66
610.889	1719.26
611.339	1704.81
611.788	1679.16
612.238	1691.46
612.687	1702.61
613.136	1708.21
613.586	1723.76
614.035	1719.76
614.484	1728.51
614.933	1724.41
615.383	1682.81
615.832	1660.46
616.281	1633.01
616.73	1594.76
617.179	1549.81
617.628	1531.01
618.077	1512.46
618.526	1486.71
618.975	1482.96
619.424	1448.76
619.873	1452.46
620.322	1440.41
620.771	1442.11
621.22	1415.81
621.669	1388.46
622.118	1373.11
622.567	1362.36
623.015	1330.91
623.464	1334.11
623.913	1319.21
624.361	1329.21
624.81	1309.51
625.259	1319.11
625.707	1309.61
626.156	1327.61
626.604	1336.66
627.053	1337.56
627.501	1333.86
627.95	1347.61
628.398	1361.06
628.847	1337.51
629.295	1341.76
629.744	1332.91
630.192	1303.61
630.64	1283.66
631.089	1266.26
631.537	1244.31
631.985	1222.81
632.433	1223.61
632.881	1211.56
633.33	1223.51
633.778	1213.36
634.226	1233.96
634.674	1242.16
635.122	1248.91
635.57	1267.46
636.018	1282.16
636.466	1289.06
636.914	1278.16
637.362	1304.81
637.81	1331.66
638.258	1373.36
638.705	1383.16
639.153	1430.31
639.601	1447.46
640.049	1472.61
640.497	1505.76
640.944	1535.46
641.392	1478.46
641.84	1401.11
642.287	1338.61
642.735	1303.21
643.182	1288.61
643.63	1291.91
644.078	1302.21
644.525	1316.86
644.973	1348.56
645.42	1380.86
645.867	1413.11
646.315	1436.01
646.762	1487.61
647.21	1524.11
647.657	1588.36
648.104	1653.11
648.551	1676.06
648.999	1808.16
649.446	1967.31
649.893	2178.51
650.34	2534.61
650.787	3085.16
651.234	3931.66
651.682	5374.46
652.129	7511.91
652.576	10646.16
653.023	13995.01
653.47	15533.01
653.917	15533.06
654.363	15532.96
654.81	15529.96
655.257	15530.61
655.704	13563.01
656.151	8247.51
656.598	5461.31
657.044	3945.66
657.491	3109.16
657.938	2556.76
658.385	2187.61
658.831	1948.21
659.278	1748.61
659.724	1617.91
660.171	1512.61
660.618	1418.46
661.064	1339.41
661.511	1304.66
661.957	1266.71
662.404	1241.91
662.85	1226.66
663.296	1217.81
663.743	1186.91
664.189	1174.21
664.635	1159.91
665.082	1141.66
665.528	1141.11
665.974	1094.81
666.42	1083.31
666.867	1065.26
667.313	1021.91
667.759	1014.26
668.205	997.16
668.651	1001.71
669.097	1009.91
669.543	1011.46
669.989	1024.36
670.435	1024.36
670.881	1029.86
671.327	1073.46
671.773	1154.66
672.219	1225.81
672.665	1304.71
673.11	1351.81
673.556	1368.16
674.002	1401.86
674.448	1408.51
674.893	1209.86
675.339	1061.11
675.785	966.66
676.23	930.96
676.676	895.01
677.122	863.41
677.567	846.86
678.013	813.66
678.458	817.46
678.904	809.26
679.349	792.16
679.794	797.86
680.24	797.76
680.685	792.26
681.131	794.56
681.576	787.71
682.021	798.26
682.466	799.51
682.912	809.96
683.357	850.26
683.802	930.56
684.247	1007.46
684.692	1072.11
685.137	1116.61
685.583	1140.26
686.028	1194.41
686.473	1138.01
686.918	984.06
687.363	903.41
687.807	855.81
688.252	814.41
688.697	791.56
689.142	766.66
689.587	769.91
690.032	786.76
690.477	812.01
690.921	854.76
691.366	899.01
691.811	931.76
692.255	1005.36
692.7	1229.46
693.145	1761.66
693.589	2690.51
694.034	3223.06
694.478	3404.36
694.923	3094.91
695.367	4378.31
695.812	2695.11
696.256	1152.36
696.701	842.31
697.145	778.91
697.59	749.41
698.034	729.41
698.478	728.96
698.922	737.71
699.367	760.66
699.811	790.11
700.255	855.56
700.699	930.01
701.143	1011.21
701.588	1078.41
702.032	1116.91
702.476	1145.06
702.92	1227.01
703.364	1610.81
703.808	2458.66
704.252	3069.71
704.696	3227.41
705.14	3027.21
705.584	4127.71
706.027	2320.01
706.471	1180.41
706.915	885.76
707.359	783.06
707.803	734.06
708.246	699.36
708.69	698.76
709.134	696.96
709.577	686.66
710.021	699.16
710.465	688.51
710.908	690.31
711.352	718.96
711.795	790.81
712.239	855.31
712.682	866.21
713.126	852.76
713.569	943.31
714.012	787.61
714.456	689.56
714.899	647.56
715.342	617.31
715.786	596.31
716.229	584.71
716.672	564.56
717.115	563.41
717.558	567.61
718.002	586.01
718.445	609.36
718.888	641.01
719.331	657.81
719.774	667.21
720.217	653.41
720.66	624.46
721.103	596.86
721.546	563.01
721.989	547.86
722.432	532.51
722.874	537.06
723.317	537.61
723.76	590.41
724.203	722.01
724.645	973.16
725.088	1131.21
725.531	1108.56
725.974	1214.01
726.416	1084.61
726.859	678.76
727.301	552.31
727.744	530.81
728.187	534.91
728.629	544.71
729.071	571.76
729.514	591.26
729.956	618.91
730.399	632.81
730.841	638.91
731.283	615.11
731.726	607.11
732.168	614.36
732.61	644.26
733.053	693.11
733.495	763.96
733.937	846.61
734.379	994.76
734.821	1276.56
735.263	2019.01
735.705	3634.41
736.148	5315.31
736.59	5331.46
737.032	5713.51
737.474	4724.86
737.916	1837.11
738.357	971.11
738.799	748.06
739.241	691.51
739.683	698.66
740.125	719.11
740.567	726.61
741.008	772.31
741.45	812.91
741.892	845.86
742.334	862.86
742.775	855.26
743.217	823.61
743.658	694.21
744.1	711.51
744.542	834.06
744.983	861.66
745.425	896.91
745.866	875.76
746.307	721.61
746.749	760.76
747.19	1091.66
747.632	2124.66
748.073	3954.01
748.514	5463.66
748.956	7210.71
749.397	8453.21
749.838	5876.11
750.279	5521.01
750.72	2907.01
751.162	1231.31
751.603	711.56
752.044	570.01
752.485	513.66
752.926	476.31
753.367	453.86
753.808	441.81
754.249	435.71
754.69	431.91
755.131	426.41
755.572	421.11
756.013	425.51
756.453	423.81
756.894	438.36
757.335	435.86
757.776	442.36
758.216	455.31
758.657	481.21
759.098	533.96
759.538	645.16
759.979	926.56
760.42	1869.66
760.86	4761.31
761.301	9834.16
761.741	11626.96
762.182	13220.06
762.622	8613.61
763.063	3106.56
763.503	1265.86
763.943	749.36
764.384	589.46
764.824	512.91
765.264	471.11
765.705	445.96
766.145	421.96
766.585	407.76
767.025	397.46
767.465	397.36
767.906	405.01
768.346	432.16
768.786	493.01
769.226	727.01
769.666	1458.91
770.106	3254.16
770.546	4671.36
770.986	5240.86
771.426	3992.21
771.866	1669.06
772.306	755.31
772.745	471.61
773.185	398.81
773.625	387.11
774.065	422.51
774.505	606.51
774.944	1091.21
775.384	1585.51
775.824	1768.16
776.263	1459.61
776.703	774.06
777.142	444.96
777.582	325.86
778.021	299.51
778.461	291.21
778.9	287.16
779.34	276.11
779.779	264.21
780.219	265.41
780.658	254.11
781.097	254.51
781.537	243.41
781.976	248.06
782.415	244.66
782.855	245.31
783.294	247.36
783.733	239.46
784.172	241.81
784.611	247.51
785.05	248.21
785.489	252.96
785.928	266.46
786.367	272.01
786.806	286.46
787.245	303.56
787.684	319.26
788.123	319.51
788.562	300.31
789.001	302.41
789.44	287.56
789.879	281.36
790.317	287.31
790.756	308.71
791.195	351.16
791.634	471.26
792.072	841.16
792.511	2067.16
792.95	3816.71
793.388	4595.46
793.827	3002.91
794.265	1386.66
794.704	667.06
795.142	414.96
795.581	341.41
796.019	309.21
796.458	303.36
796.896	316.41
797.334	357.16
797.773	483.21
798.211	917.71
798.649	1918.26
799.087	3194.36
799.526	4522.51
799.964	4669.61
800.402	3226.91
800.84	1465.81
801.278	719.56
801.716	436.76
802.154	358.41
802.592	334.46
803.03	331.56
803.468	343.36
803.906	347.51
804.344	334.26
804.782	326.46
805.22	331.91
805.658	346.36
806.096	361.81
806.533	409.71
806.971	524.31
807.409	762.41
807.847	1503.21
808.284	3802.61
808.722	6732.41
809.16	9413.51
809.597	12717.01
810.035	15330.11
810.472	10362.96
810.91	4413.41
811.347	1974.56
811.785	936.16
812.222	594.11
812.66	453.11
813.097	389.51
813.535	337.46
813.972	308.61
814.409	278.81
814.846	267.16
815.284	249.91
815.721	267.96
816.158	290.46
816.595	399.61
817.032	503.06
817.47	463.46
817.907	329.61
818.344	292.46
818.781	284.91
819.218	348.76
819.655	538.06
820.092	707.66
820.529	632.01
820.966	490.61
821.403	342.21
821.839	288.81
822.276	316.56
822.713	382.91
823.15	353.71
823.587	370.36
824.023	629.76
824.46	1564.76
824.897	2733.41
825.333	2146.26
825.77	995.91
826.206	518.16
826.643	304.91
827.08	229.71
827.516	202.21
827.953	181.41
828.389	184.21
828.825	169.36
829.262	158.36
829.698	158.26
830.135	152.01
830.571	145.06
831.007	151.81
831.443	150.56
831.88	151.26
832.316	156.71
832.752	151.26
833.188	157.56
833.624	157.61
834.06	159.66
834.497	162.36
834.933	166.06
835.369	179.56
835.805	190.61
836.241	192.96
836.677	217.81
837.112	247.51
837.548	313.56
837.984	463.26
838.42	991.16
838.856	2733.56
839.292	5411.91
839.727	4076.86
840.163	2714.51
840.599	4115.16
841.034	6290.56
841.47	3189.56
841.906	1550.01
842.341	840.16
842.777	624.96
843.212	642.91
843.648	406.06
844.083	270.01
844.519	204.71
844.954	175.76
845.39	154.21
845.825	145.51
846.261	140.41
846.696	131.76
847.131	128.91
847.566	134.61
848.002	132.66
848.437	141.61
848.872	146.86
849.307	190.66
849.742	348.56
850.177	893.66
850.613	1902.41
851.048	1383.36
851.483	642.31
851.918	353.71
852.353	196.26
852.788	137.61
853.223	127.11
853.657	110.86
854.092	111.46
854.527	113.01
854.962	117.86
855.397	127.51
855.832	114.51
856.266	102.71
856.701	99.41
857.136	106.06
857.57	127.96
858.005	155.46
858.44	134.81
858.874	122.91
859.309	126.91
859.743	125.26
860.178	119.61
860.612	135.16
861.047	178.81
861.481	255.21
861.915	181.11
862.35	130.01
862.784	105.86
863.218	98.11
863.653	109.46
864.087	131.36
864.521	163.01
864.955	265.56
865.39	452.76
865.824	355.86
866.258	462.76
866.692	719.21
867.126	526.71
867.56	277.36
867.994	174.81
868.428	144.21
868.862	187.56
869.296	176.31
869.73	213.26
870.164	180.56
870.598	162.61
871.031	115.26
871.465	98.06
871.899	83.01
872.333	70.46
872.766	67.81
873.2	69.66
873.634	65.86
874.067	75.26
874.501	72.01
874.935	73.36
875.368	74.96
875.802	66.36
876.235	64.26
876.669	63.61
877.102	58.96
877.535	56.76
877.969	57.51
878.402	56.36
878.836	57.31
879.269	60.11
879.702	54.51
880.135	61.91
880.569	61.96
881.002	56.06
881.435	54.16
881.868	54.01
882.301	52.36
882.734	52.71
883.167	58.46
883.601	52.36
884.034	47.76
884.467	48.66
884.899	54.51
885.332	44.71
885.765	50.91
886.198	45.76
886.631	47.91
887.064	48.21
887.497	44.46
887.929	43.71
888.362	45.61
888.795	43.86
889.228	52.46
889.66	41.96
890.093	45.61
890.526	44.36
890.958	43.21
891.391	43.16
891.823	42.46
892.256	43.51
892.688	47.46
893.121	39.36
893.553	44.96
893.985	41.01
894.418	39.01
894.85	40.31
895.282	44.86
895.715	36.66
896.147	35.11
896.579	36.86
897.011	43.81
897.444	40.81
897.876	34.36
898.308	36.76
898.74	38.21
899.172	43.81
899.604	45.91
900.036	39.76
900.468	41.91
900.9	44.56
901.332	52.96
901.764	55.61
902.196	49.51
902.628	56.31
903.06	86.41
903.491	88.06
903.923	79.11
904.355	75.56
904.787	75.71
905.218	63.06
905.65	55.06
906.082	53.31
906.513	49.66
906.945	50.91
907.376	49.66
907.808	48.31
908.239	49.16
908.671	61.31
909.102	61.06
909.534	93.66
909.965	174.46
910.397	443.11
910.828	1265.76
911.259	787.21
911.691	425.66
912.122	253.71
912.553	128.91
912.984	69.21
913.415	60.16
913.847	49.86
914.278	52.81
914.709	44.01
915.14	42.01
915.571	44.86
916.002	41.01
916.433	38.16
916.864	45.76
917.295	46.21
917.726	50.86
918.157	58.66
918.587	64.41
919.018	58.71
919.449	52.71
919.88	63.21
920.311	99.06
920.741	260.91
921.172	465.81
921.603	238.91
922.033	150.86
922.464	98.21
922.895	60.41
923.325	45.41
923.756	38.86
924.186	49.46
924.617	72.81
925.047	109.46
925.478	98.61
925.908	72.26
926.338	51.91
926.769	43.86
927.199	37.11
927.629	35.16
928.06	36.31
928.49	36.11
928.92	33.96
929.35	27.41
929.78	25.36
930.21	27.56
930.641	20.01
931.071	23.26
931.501	23.36
931.931	22.96
932.361	21.66
932.791	28.16
933.221	28.16
933.651	35.51
934.08	61.36
934.51	44.06
934.94	33.21
935.37	28.06
935.8	25.26
936.229	20.11
936.659	23.26
937.089	37.06
937.519	61.11
937.948	78.31
938.378	45.06
938.807	25.51
939.237	15.46
939.666	16.26
940.096	13.26
940.525	5.76
940.955	12.21
941.384	4.31
941.814	10.16
942.243	15.41
942.672	8.96
943.102	10.91
943.531	8.81
943.96	10.11
944.39	13.11
944.819	13.91
945.248	11.16
945.677	10.71
946.106	10.56
946.535	5.86
946.964	9.96
947.393	7.31
947.822	6.81
948.251	7.26
948.68	11.86
949.109	6.81
949.538	8.51
949.967	11.56
950.396	11.26
950.825	11.76
951.254	11.71
951.682	6.96
952.111	0.11
952.54	6.06
952.969	8.11
953.397	-0.09
953.826	1.41
954.254	8.66
954.683	5.71
955.112	6.51
955.54	3.01
955.969	6.46
956.397	8.06
956.826	6.56
957.254	3.36
957.682	7.51
958.111	7.96
958.539	10.61
958.967	7.56
959.396	13.46
959.824	9.31
960.252	7.26
960.68	6.81
961.109	11.41
961.537	13.71
961.965	1.46
962.393	5.16
962.821	9.51
963.249	8.71
963.677	19.76
964.105	77.96
964.533	131.81
964.961	65.01
965.389	36.46
965.817	23.81
966.245	11.81
966.672	3.11
967.1	7.51
967.528	4.36
967.956	7.51
968.383	12.11
968.811	2.16
969.239	5.41
969.666	5.66
970.094	6.66
970.522	-0.24
970.949	6.76
971.377	-1.44
971.804	0.16
972.232	2.36
972.659	1.96
973.087	6.56
973.514	3.06
973.941	6.76
974.369	1.76
974.796	1.71
975.223	2.41
975.651	8.76
976.078	2.46
976.505	11.61
976.932	31.36
977.359	37.26
977.786	21.91
978.214	18.31
978.641	2.71
979.068	3.76
979.495	0.11
979.922	4.01
980.349	6.11
980.776	6.86
981.202	3.26
981.629	7.66
982.056	4.91
982.483	-1.04
982.91	9.11
983.337	3.61
983.763	4.26
984.19	5.71
984.617	2.61
985.043	5.26
985.47	5.16
985.897	2.41
986.323	9.01
986.75	2.16
987.176	0.31
987.603	5.71
988.029	2.76
988.456	7.91
988.882	-3.24
989.308	-3.34
989.735	-0.99
990.161	4.31
990.587	1.76
991.014	2.76
991.44	5.61
991.866	1.06
992.292	-0.09
992.719	1.16
993.145	7.36
993.571	5.56
993.997	3.41
994.423	3.31
994.849	1.31
995.275	2.96
995.701	3.61
996.127	-0.54
996.553	0.51
996.979	0.51
997.405	3.06
997.83	5.46
998.256	6.91
998.682	3.06
999.108	5.26
999.534	-3.99
999.959	-0.64
1000.385	7.81
1000.811	-1.44
1001.236	-4.64
1001.662	1.31
1002.087	6.91
1002.513	1.81
1002.938	-1.09
1003.364	-2.04
1003.789	3.61
1004.215	4.66
1004.64	4.51
1005.066	5.11
1005.491	4.11
1005.916	1.46
1006.342	1.36
1006.767	2.71
1007.192	3.11
1007.617	1.96
1008.042	1.96
1008.468	1.01
1008.893	7.21
1009.318	7.41
1009.743	18.06
1010.168	31.41
1010.593	27.31
1011.018	16.86
1011.443	10.66
1011.868	10.36
1012.293	4.26
1012.718	4.11
1013.143	1.41
1013.567	7.36
1013.992	2.21
1014.417	3.21
1014.842	3.81
1015.267	0.21
1015.691	4.46
1016.116	3.06
1016.541	3.46
1016.965	0.61
1017.39	-1.14
1017.814	-3.04
1018.239	-2.69
1018.663	-5.84
1019.088	-1.44
1019.512	2.06
1019.937	-7.69
1020.361	1.31
1020.785	-0.54
1021.21	-4.14
1021.634	-1.44
1022.058	0.56
1022.483	0.76
1022.907	-6.04
1023.331	-3.14
1023.755	-1.84
1024.179	3.06
1024.604	-2.04
1025.028	2.01
1025.452	1.41
1025.876	7.11
1026.3	1.66
1026.724	-0.94
1027.148	2.71
1027.572	0.31
1027.996	-2.24
1028.42	1.46
1028.843	-1.24
1029.267	2.36
1029.691	-1.59
1030.115	-1.14
1030.539	-2.44
1030.962	-0.29
1031.386	1.56
1031.81	-2.69
1032.233	-1.14
1032.657	-6.94
1033.08	-1.09
1033.504	-0.94
1033.927	-0.44
1034.351	-4.39
1034.774	-4.89
1035.198	-4.89
1035.621	4.81
1036.045	-4.84
1036.468	7.21
1036.891	1.86
1037.315	3.46
1037.738	0.41
1038.161	-0.74
1038.584	1.21
1039.008	-0.74
1039.431	-0.89
1039.854	-2.19
1040.277	0.26
1040.7	-0.44
1041.123	-1.09
1041.546	-2.29
1041.969	3.71
1042.392	3.16
1042.815	-7.89
1043.238	0.46
1043.661	-1.24
1044.084	-4.89
1044.507	-2.79
1044.93	0.81
1045.352	-2.39
1045.775	0.26
1046.198	0.31
1046.621	1.06
1047.043	1.76
1047.466	0.76
1047.889	2.81
1048.311	4.46
1048.734	-4.04
1049.156	2.21
1049.579	-0.84
1050.001	-3.44
1050.424	0.16
1050.846	-0.54
1051.269	-3.09
1051.691	-3.94
1052.113	3.11
1052.536	2.71
1052.958	-2.69
1053.38	-1.94
1053.802	-0.44
1054.225	2.21
1054.647	1.21
1055.069	-1.79
1055.491	2.76
1055.913	2.11
1056.335	-7.29
1056.757	-7.04
1057.179	-4.84
1057.601	-3.84
1058.023	-1.49
1058.445	-1.09
1058.867	1.01
1059.289	0.86
1059.711	-0.49
1060.133	-1.84
1060.555	-2.39
1060.976	3.86
1061.398	-0.09
1061.82	-0.39
1062.241	-3.39
1062.663	-3.09
1063.085	-4.99
1063.506	-5.39
1063.928	-1.79
1064.35	-0.59
1064.771	-5.99
1065.193	-4.39
1065.614	-3.99
1066.035	3.41
1066.457	4.51
1066.878	0.36
1067.3	-1.09
1067.721	2.06
1068.142	1.26
1068.564	0.31
1068.985	-1.44
1069.406	-7.79
1069.827	-2.89
1070.248	-7.84
1070.67	-3.79
1071.091	-7.09
1071.512	-6.59
1071.933	-1.74
1072.354	-6.14
1072.775	-1.84
1073.196	-2.49
1073.617	-3.94
1074.038	-3.09
1074.459	-1.79
1074.88	-0.69
1075.3	-3.39
1075.721	-2.69
1076.142	-2.94
1076.563	-9.19
1076.983	-3.49
1077.404	-7.24
1077.825	-2.14
1078.246	-8.89
1078.666	-1.44
1079.087	-3.14
1079.507	-3.69
1079.928	-2.49
1080.348	-1.94
1080.769	-2.74
1081.189	-5.29
1081.61	-5.49
1082.03	0.61
1082.451	-1.09
1082.871	-3.59
1083.291	-3.74
1083.711	-2.89
1084.132	-5.34
1084.552	-9.59
1084.972	-10.69
1085.392	-5.04
1085.813	-0.09
1086.233	-5.54
1086.653	-3.29
1087.073	-0.09
1087.493	-5.69
1087.913	-4.94
1088.333	-1.89
1088.753	-0.54
1089.173	3.11
1089.593	1.61
1090.013	-0.44
1090.433	-2.54
1090.852	0.76
1091.272	-9.39
1091.692	1.66
1092.112	-2.64
1092.531	-6.19
1092.951	-0.89
1093.371	-3.19
1093.79	-0.94
1094.21	-4.84
1094.63	1.21
1095.049	0.21
1095.469	-8.54
1095.888	-1.49
1096.308	-1.59
1096.727	-3.84
1097.146	-6.34
1097.566	-1.94
1097.985	-1.24
1098.405	1.56
1098.824	2.91
1099.243	-1.74
1099.662	-0.74
1100.082	-3.64
1100.501	2.51
1100.92	1.41
1101.339	4.11
1101.758	2.06
