Data from MSPlasma+Separation6_Subt14_10-13-59-907.txt Node
Date: Fri Jul 21 10:13:59 EDT 2017
User: Ender
Spectrometer: HR+D1039
Trigger mode: 0
Integration Time (sec): 6.430000E-3
Scans to average: 20
Electric dark correction enabled: true
Nonlinearity correction enabled: false
Boxcar width: 0
XAxis mode: Wavelengths
Number of Pixels in Spectrum: 2048
>>>>>Begin Spectral Data<<<<<
187.836	-0.52
188.309	-0.52
188.782	-0.52
189.255	0.73
189.728	1.33
190.201	-0.32
190.674	-2.82
191.147	-0.82
191.619	0.33
192.092	-0.77
192.565	-3.27
193.038	2.43
193.511	3.73
193.984	1.13
194.456	0.23
194.929	-0.27
195.402	-0.22
195.874	-0.97
196.347	1.63
196.82	1.68
197.292	-5.62
197.765	0.13
198.237	-0.47
198.71	-2.37
199.182	-2.17
199.655	0.33
200.127	2.43
200.6	1.18
201.072	-1.97
201.544	0.93
202.017	-2.97
202.489	-0.87
202.961	-1.97
203.433	-3.82
203.906	-1.07
204.378	-0.17
204.85	-1.27
205.322	1.18
205.794	3.33
206.266	-1.37
206.739	4.63
207.211	-4.07
207.683	2.93
208.155	5.53
208.627	-2.42
209.099	5.78
209.57	-0.77
210.042	5.03
210.514	1.78
210.986	0.48
211.458	-0.57
211.93	2.28
212.402	-0.32
212.873	0.48
213.345	-1.27
213.817	2.73
214.288	-4.62
214.76	-1.47
215.232	3.68
215.703	1.78
216.175	4.33
216.646	2.33
217.118	0.63
217.589	-1.22
218.061	2.28
218.532	-4.32
219.004	2.38
219.475	1.88
219.946	5.73
220.418	4.03
220.889	9.13
221.36	7.03
221.832	11.48
222.303	2.08
222.774	1.78
223.245	-0.92
223.717	5.68
224.188	0.03
224.659	3.53
225.13	2.78
225.601	3.88
226.072	5.08
226.543	9.33
227.014	6.58
227.485	5.03
227.956	8.33
228.427	14.53
228.898	5.43
229.369	6.48
229.839	6.93
230.31	9.98
230.781	7.68
231.252	10.83
231.722	10.08
232.193	10.33
232.664	8.38
233.135	8.68
233.605	10.58
234.076	9.38
234.546	10.63
235.017	10.88
235.487	13.88
235.958	11.53
236.428	15.73
236.899	13.08
237.369	19.83
237.84	17.58
238.31	16.28
238.78	11.38
239.251	13.88
239.721	11.13
240.191	18.63
240.662	16.68
241.132	13.08
241.602	18.68
242.072	20.98
242.542	17.98
243.013	18.38
243.483	22.13
243.953	18.23
244.423	21.28
244.893	17.83
245.363	27.08
245.833	18.53
246.303	21.18
246.773	21.93
247.243	24.23
247.712	27.68
248.182	27.43
248.652	27.48
249.122	22.88
249.592	25.08
250.061	21.33
250.531	23.43
251.001	26.68
251.471	30.73
251.94	28.83
252.41	27.43
252.879	24.98
253.349	32.03
253.818	29.28
254.288	37.43
254.757	32.63
255.227	31.28
255.696	32.53
256.166	35.58
256.635	36.03
257.105	33.53
257.574	38.13
258.043	40.28
258.513	36.83
258.982	34.38
259.451	39.33
259.92	32.28
260.389	39.08
260.859	38.88
261.328	43.73
261.797	38.48
262.266	48.93
262.735	42.03
263.204	42.93
263.673	44.83
264.142	39.93
264.611	41.78
265.08	45.03
265.549	39.83
266.018	43.98
266.487	47.33
266.955	40.83
267.424	48.08
267.893	52.08
268.362	49.83
268.83	48.38
269.299	47.23
269.768	51.73
270.236	51.28
270.705	54.38
271.174	53.13
271.642	54.43
272.111	55.08
272.579	53.38
273.048	54.33
273.516	59.98
273.985	57.93
274.453	55.03
274.922	55.68
275.39	51.28
275.858	65.33
276.327	55.63
276.795	63.43
277.263	58.08
277.731	61.33
278.2	64.98
278.668	65.48
279.136	69.28
279.604	69.03
280.072	66.13
280.54	66.78
281.008	73.38
281.477	74.03
281.945	67.78
282.413	71.23
282.881	74.23
283.348	70.68
283.816	70.68
284.284	74.33
284.752	73.43
285.22	79.48
285.688	79.28
286.156	79.48
286.623	79.23
287.091	78.98
287.559	79.13
288.026	84.68
288.494	85.43
288.962	82.43
289.429	84.83
289.897	80.18
290.364	79.68
290.832	84.48
291.3	88.08
291.767	90.13
292.234	89.68
292.702	90.73
293.169	88.18
293.637	97.68
294.104	92.93
294.571	96.28
295.039	94.63
295.506	85.63
295.973	94.48
296.44	93.28
296.908	102.93
297.375	94.73
297.842	99.53
298.309	95.63
298.776	98.08
299.243	103.63
299.71	102.68
300.177	103.23
300.644	103.78
301.111	105.48
301.578	108.08
302.045	103.13
302.512	106.43
302.979	107.18
303.446	114.33
303.913	114.53
304.379	121.08
304.846	113.93
305.313	124.28
305.78	124.68
306.246	126.28
306.713	126.13
307.18	127.38
307.646	130.08
308.113	126.73
308.579	134.58
309.046	137.38
309.512	139.98
309.979	139.18
310.445	138.03
310.912	137.83
311.378	141.38
311.845	139.38
312.311	135.83
312.777	145.83
313.244	149.68
313.71	147.78
314.176	148.93
314.642	148.28
315.109	148.23
315.575	149.58
316.041	156.23
316.507	149.83
316.973	160.68
317.439	157.58
317.905	158.93
318.371	156.03
318.837	157.28
319.303	156.38
319.769	152.98
320.235	167.63
320.701	169.28
321.167	167.98
321.633	167.98
322.099	162.63
322.564	165.68
323.03	173.13
323.496	173.88
323.962	172.33
324.427	180.13
324.893	171.28
325.359	177.28
325.824	179.08
326.29	187.83
326.755	182.08
327.221	181.63
327.686	191.08
328.152	192.18
328.617	195.93
329.083	195.88
329.548	201.58
330.014	200.13
330.479	199.08
330.944	201.93
331.41	211.53
331.875	199.08
332.34	202.23
332.805	206.03
333.271	206.23
333.736	206.73
334.201	208.63
334.666	221.33
335.131	230.93
335.596	225.18
336.061	222.13
336.526	222.03
336.991	215.43
337.456	212.98
337.921	208.78
338.386	213.48
338.851	206.98
339.316	210.78
339.781	212.13
340.246	216.83
340.711	213.28
341.175	227.63
341.64	226.43
342.105	227.08
342.569	245.33
343.034	232.08
343.499	240.08
343.963	250.88
344.428	240.03
344.893	243.23
345.357	252.88
345.822	253.88
346.286	258.83
346.751	265.68
347.215	267.03
347.679	273.98
348.144	286.73
348.608	293.98
349.073	287.28
349.537	297.98
350.001	295.48
350.465	300.73
350.93	298.48
351.394	304.68
351.858	307.08
352.322	311.13
352.786	312.63
353.25	311.03
353.715	320.13
354.179	333.03
354.643	340.88
355.107	345.13
355.571	328.23
356.035	329.33
356.498	330.63
356.962	329.58
357.426	330.23
357.89	326.28
358.354	324.93
358.818	322.78
359.281	327.93
359.745	322.23
360.209	329.98
360.673	326.28
361.136	332.63
361.6	331.03
362.064	339.53
362.527	349.23
362.991	339.43
363.454	342.98
363.918	347.43
364.381	358.93
364.845	350.23
365.308	350.33
365.772	357.13
366.235	355.98
366.698	357.18
367.162	352.88
367.625	357.08
368.088	367.63
368.552	364.38
369.015	363.98
369.478	370.98
369.941	374.03
370.404	373.98
370.867	370.28
371.331	372.68
371.794	382.93
372.257	382.08
372.72	387.78
373.183	388.03
373.646	388.58
374.109	384.83
374.572	388.78
375.035	398.73
375.497	399.13
375.96	404.73
376.423	411.03
376.886	422.33
377.349	422.38
377.811	419.48
378.274	426.58
378.737	419.73
379.199	427.88
379.662	423.13
380.125	437.33
380.587	439.78
381.05	445.68
381.512	453.18
381.975	459.58
382.437	472.33
382.9	467.28
383.362	464.68
383.825	470.13
384.287	475.08
384.75	466.78
385.212	477.13
385.674	476.43
386.136	488.28
386.599	481.88
387.061	471.98
387.523	483.63
387.985	486.58
388.447	494.03
388.91	488.63
389.372	496.93
389.834	499.38
390.296	489.38
390.758	499.53
391.22	492.53
391.682	493.33
392.144	498.43
392.606	503.98
393.068	511.38
393.529	541.58
393.991	550.08
394.453	532.08
394.915	515.78
395.377	501.48
395.838	504.33
396.3	507.98
396.762	517.18
397.224	510.78
397.685	512.08
398.147	524.48
398.608	523.88
399.07	533.63
399.531	534.73
399.993	550.93
400.454	556.18
400.916	551.88
401.377	560.78
401.839	573.23
402.3	572.58
402.762	595.28
403.223	633.38
403.684	628.58
404.145	609.48
404.607	602.68
405.068	589.88
405.529	594.83
405.99	610.98
406.451	613.68
406.913	602.73
407.374	609.08
407.835	609.53
408.296	627.38
408.757	624.03
409.218	641.08
409.679	653.53
410.14	649.93
410.601	668.68
411.062	672.98
411.522	671.48
411.983	672.43
412.444	673.43
412.905	690.93
413.366	719.83
413.826	744.18
414.287	844.58
414.748	1004.08
415.208	1024.93
415.669	856.48
416.13	778.68
416.59	756.18
417.051	788.28
417.511	821.53
417.972	885.08
418.432	951.53
418.893	1043.28
419.353	1008.23
419.814	784.63
420.274	698.63
420.734	689.48
421.195	708.98
421.655	697.33
422.115	717.98
422.576	714.38
423.036	721.23
423.496	745.28
423.956	777.53
424.416	835.38
424.876	931.58
425.336	924.03
425.797	916.98
426.257	899.78
426.717	850.33
427.177	794.13
427.637	799.13
428.097	830.73
428.556	862.98
429.016	929.88
429.476	926.88
429.936	902.08
430.396	901.28
430.856	931.08
431.315	948.78
431.775	1014.53
432.235	1079.33
432.694	1106.18
433.154	1042.23
433.614	1011.53
434.073	985.58
434.533	885.68
434.993	857.68
435.452	863.28
435.912	852.38
436.371	841.88
436.83	831.23
437.29	816.93
437.749	795.78
438.209	790.88
438.668	807.98
439.127	820.43
439.587	804.48
440.046	781.33
440.505	802.78
440.964	807.53
441.424	826.43
441.883	844.83
442.342	799.78
442.801	762.43
443.26	775.83
443.719	772.98
444.178	762.78
444.637	774.18
445.096	786.73
445.555	793.98
446.014	787.83
446.473	778.93
446.932	777.18
447.391	793.28
447.849	807.28
448.308	800.83
448.767	804.78
449.226	812.58
449.685	823.08
450.143	858.68
450.602	861.13
451.061	817.68
451.519	817.63
451.978	802.03
452.436	800.48
452.895	814.88
453.353	806.48
453.812	798.73
454.27	803.73
454.729	798.88
455.187	815.23
455.646	817.78
456.104	813.28
456.562	824.48
457.021	834.98
457.479	800.73
457.937	828.23
458.395	853.38
458.854	839.18
459.312	832.08
459.77	847.48
460.228	854.28
460.686	863.98
461.144	865.73
461.602	857.58
462.06	862.23
462.518	878.23
462.976	875.93
463.434	892.23
463.892	898.18
464.35	920.43
464.808	931.53
465.266	933.48
465.724	936.83
466.181	951.58
466.639	941.58
467.097	981.28
467.555	1020.08
468.012	1010.38
468.47	1015.38
468.928	1054.18
469.385	1078.43
469.843	1095.63
470.3	1080.53
470.758	1125.58
471.215	1135.28
471.673	1161.13
472.13	1194.73
472.588	1221.68
473.045	1210.98
473.503	1234.18
473.96	1285.93
474.417	1293.83
474.875	1349.03
475.332	1405.93
475.789	1431.78
476.246	1469.93
476.704	1524.23
477.161	1570.78
477.618	1613.88
478.075	1699.53
478.532	1810.98
478.989	1962.48
479.446	2143.03
479.903	2250.88
480.36	2447.28
480.817	2573.63
481.274	2749.78
481.731	2995.53
482.188	3195.83
482.645	3429.93
483.102	3612.88
483.558	3849.88
484.015	4019.63
484.472	3977.93
484.929	3877.68
485.385	3707.83
485.842	3642.53
486.299	3507.73
486.755	3238.58
487.212	2922.68
487.668	2639.18
488.125	2473.13
488.582	2301.23
489.038	2219.18
489.494	2151.83
489.951	2095.43
490.407	2041.23
490.864	2009.73
491.32	1972.88
491.776	1958.63
492.233	1954.43
492.689	1932.08
493.145	1887.28
493.602	1859.98
494.058	1890.03
494.514	1895.78
494.97	1894.08
495.426	1922.08
495.882	1926.83
496.338	1924.68
496.794	1937.68
497.251	1936.73
497.707	1946.73
498.163	1954.13
498.618	1960.88
499.074	1952.13
499.53	1968.98
499.986	1986.53
500.442	1957.78
500.898	1940.83
501.354	1964.23
501.809	1965.53
502.265	1956.78
502.721	1968.03
503.177	1965.63
503.632	1976.13
504.088	1988.23
504.543	2001.03
504.999	2023.63
505.455	2016.33
505.91	2006.33
506.366	2013.58
506.821	2013.78
507.277	2010.93
507.732	2011.58
508.187	2009.48
508.643	2025.18
509.098	2029.18
509.553	2046.73
510.009	2078.58
510.464	2117.63
510.919	2127.98
511.375	2148.33
511.83	2170.63
512.285	2219.68
512.74	2262.58
513.195	2293.68
513.65	2326.33
514.105	2354.73
514.56	2354.48
515.015	2394.23
515.47	2410.78
515.925	2387.73
516.38	2396.53
516.835	2396.28
517.29	2374.63
517.745	2382.28
518.2	2339.98
518.655	2293.88
519.109	2266.88
519.564	2248.43
520.019	2226.93
520.474	2202.08
520.928	2187.08
521.383	2181.43
521.838	2177.58
522.292	2161.78
522.747	2128.13
523.201	2128.88
523.656	2106.78
524.11	2099.68
524.565	2087.78
525.019	2104.48
525.474	2096.08
525.928	2088.88
526.382	2083.68
526.837	2087.43
527.291	2086.33
527.745	2074.93
528.2	2084.48
528.654	2056.73
529.108	2055.78
529.562	2055.08
530.016	2064.43
530.47	2068.58
530.925	2069.08
531.379	2069.03
531.833	2085.08
532.287	2089.33
532.741	2066.23
533.195	2075.58
533.649	2087.18
534.103	2089.13
534.556	2070.88
535.01	2086.33
535.464	2073.23
535.918	2068.58
536.372	2090.78
536.826	2090.03
537.279	2058.58
537.733	2066.53
538.187	2065.28
538.64	2066.88
539.094	2090.68
539.548	2108.98
540.001	2119.68
540.455	2118.88
540.908	2129.68
541.362	2139.88
541.815	2165.08
542.269	2210.83
542.722	2212.98
543.175	2233.83
543.629	2239.93
544.082	2248.33
544.536	2273.73
544.989	2284.88
545.442	2297.08
545.895	2294.13
546.349	2279.88
546.802	2299.73
547.255	2297.43
547.708	2308.78
548.161	2328.23
548.614	2322.08
549.067	2342.08
549.52	2336.83
549.973	2315.83
550.426	2308.63
550.879	2291.08
551.332	2292.08
551.785	2310.53
552.238	2334.83
552.691	2334.53
553.144	2363.63
553.596	2414.73
554.049	2427.98
554.502	2486.73
554.955	2517.28
555.407	2558.18
555.86	2522.18
556.313	2494.38
556.765	2492.33
557.218	2454.28
557.67	2441.53
558.123	2421.53
558.576	2399.68
559.028	2392.63
559.48	2415.28
559.933	2398.58
560.385	2330.73
560.838	2248.78
561.29	2196.83
561.742	2182.78
562.195	2136.13
562.647	2116.98
563.099	2102.48
563.551	2079.93
564.004	2108.88
564.456	2079.63
564.908	2056.48
565.36	2011.58
565.812	1980.28
566.264	1950.33
566.716	1932.68
567.168	1894.53
567.62	1903.18
568.072	1882.58
568.524	1877.68
568.976	1862.73
569.428	1842.48
569.88	1848.63
570.332	1859.68
570.784	1863.33
571.235	1863.78
571.687	1877.88
572.139	1875.53
572.59	1901.88
573.042	1904.78
573.494	1905.43
573.945	1876.48
574.397	1848.03
574.849	1834.68
575.3	1835.18
575.752	1805.88
576.203	1783.28
576.655	1801.43
577.106	1776.53
577.557	1769.48
578.009	1756.63
578.46	1767.18
578.912	1741.13
579.363	1756.03
579.814	1750.33
580.265	1764.98
580.717	1763.03
581.168	1758.38
581.619	1758.08
582.07	1782.93
582.521	1781.73
582.972	1760.68
583.423	1780.58
583.875	1780.73
584.326	1788.93
584.777	1807.08
585.227	1834.23
585.678	1862.53
586.129	1879.93
586.58	1904.73
587.031	1928.63
587.482	1984.03
587.933	2000.13
588.384	1991.58
588.834	1976.43
589.285	1978.23
589.736	1975.78
590.186	1971.73
590.637	1960.08
591.088	1908.73
591.538	1883.63
591.989	1841.93
592.439	1827.53
592.89	1815.63
593.34	1814.03
593.791	1790.73
594.241	1790.93
594.692	1778.73
595.142	1775.38
595.593	1774.13
596.043	1784.73
596.493	1807.63
596.943	1800.98
597.394	1844.48
597.844	1863.43
598.294	1903.03
598.744	1974.53
599.195	2065.28
599.645	2178.88
600.095	2278.93
600.545	2394.53
600.995	2490.13
601.445	2575.23
601.895	2696.13
602.345	2771.83
602.795	2744.83
603.245	2630.33
603.695	2497.23
604.145	2376.53
604.594	2243.18
605.044	2140.53
605.494	2003.98
605.944	1899.03
606.393	1859.78
606.843	1826.33
607.293	1831.53
607.743	1804.13
608.192	1826.68
608.642	1821.13
609.091	1817.63
609.541	1804.23
609.99	1804.38
610.44	1771.03
610.889	1761.78
611.339	1725.33
611.788	1711.83
612.238	1717.98
612.687	1724.58
613.136	1726.58
613.586	1743.93
614.035	1745.73
614.484	1765.78
614.933	1765.13
615.383	1719.63
615.832	1690.03
616.281	1672.23
616.73	1624.28
617.179	1591.18
617.628	1563.43
618.077	1537.93
618.526	1519.03
618.975	1506.18
619.424	1475.58
619.873	1490.38
620.322	1467.43
620.771	1460.38
621.22	1440.98
621.669	1415.33
622.118	1401.03
622.567	1383.88
623.015	1366.48
623.464	1368.53
623.913	1338.63
624.361	1350.43
624.81	1346.93
625.259	1340.63
625.707	1338.13
626.156	1343.28
626.604	1361.98
627.053	1360.98
627.501	1356.88
627.95	1374.98
628.398	1384.48
628.847	1367.83
629.295	1363.83
629.744	1349.03
630.192	1335.68
630.64	1311.18
631.089	1293.53
631.537	1257.43
631.985	1254.48
632.433	1243.38
632.881	1237.08
633.33	1246.23
633.778	1249.28
634.226	1253.83
634.674	1260.28
635.122	1269.43
635.57	1295.18
636.018	1316.48
636.466	1315.98
636.914	1311.43
637.362	1328.73
637.81	1357.93
638.258	1403.58
638.705	1409.38
639.153	1466.93
639.601	1471.93
640.049	1492.28
640.497	1537.93
640.944	1579.33
641.392	1510.88
641.84	1434.73
642.287	1372.53
642.735	1340.98
643.182	1324.68
643.63	1331.18
644.078	1334.83
644.525	1354.78
644.973	1386.98
645.42	1414.33
645.867	1442.48
646.315	1477.13
646.762	1528.33
647.21	1564.48
647.657	1647.93
648.104	1703.43
648.551	1741.08
648.999	1887.23
649.446	2050.08
649.893	2275.88
650.34	2655.93
650.787	3255.78
651.234	4169.38
651.682	5723.38
652.129	8012.88
652.576	11349.08
653.023	14839.68
653.47	15534.53
653.917	15534.58
654.363	15534.48
654.81	15531.48
655.257	15532.13
655.704	14607.08
656.151	8899.58
656.598	5860.08
657.044	4221.43
657.491	3331.03
657.938	2719.63
658.385	2312.08
658.831	2041.73
659.278	1834.38
659.724	1690.08
660.171	1576.33
660.618	1471.38
661.064	1395.68
661.511	1340.63
661.957	1312.23
662.404	1279.03
662.85	1266.48
663.296	1254.63
663.743	1223.78
664.189	1211.58
664.635	1205.63
665.082	1171.38
665.528	1160.38
665.974	1121.68
666.42	1102.63
666.867	1091.88
667.313	1048.68
667.759	1031.83
668.205	1027.98
668.651	1027.73
669.097	1032.28
669.543	1035.38
669.989	1037.38
670.435	1046.28
670.881	1059.23
671.327	1091.33
671.773	1182.58
672.219	1256.43
672.665	1332.93
673.11	1373.78
673.556	1392.18
674.002	1420.18
674.448	1449.03
674.893	1241.78
675.339	1085.88
675.785	990.23
676.23	941.73
676.676	912.83
677.122	886.88
677.567	863.38
678.013	835.48
678.458	827.98
678.904	826.18
679.349	822.08
679.794	810.58
680.24	809.23
680.685	803.03
681.131	801.08
681.576	803.83
682.021	815.83
682.466	818.18
682.912	825.18
683.357	866.33
683.802	940.33
684.247	1023.38
684.692	1101.58
685.137	1144.28
685.583	1162.73
686.028	1220.28
686.473	1161.03
686.918	1015.93
687.363	925.48
687.807	877.08
688.252	832.68
688.697	801.68
689.142	783.58
689.587	781.43
690.032	803.73
690.477	827.33
690.921	867.53
691.366	919.58
691.811	954.78
692.255	1028.48
692.7	1253.58
693.145	1794.48
693.589	2728.28
694.034	3250.43
694.478	3475.73
694.923	3191.13
695.367	4508.78
695.812	2774.13
696.256	1179.78
696.701	860.53
697.145	784.78
697.59	764.78
698.034	749.58
698.478	748.58
698.922	752.98
699.367	775.73
699.811	808.93
700.255	875.28
700.699	947.73
701.143	1029.58
701.588	1098.83
702.032	1143.53
702.476	1180.08
702.92	1259.83
703.364	1643.98
703.808	2495.23
704.252	3123.93
704.696	3284.88
705.14	3115.63
705.584	4273.48
706.027	2376.38
706.471	1206.23
706.915	893.68
707.359	806.68
707.803	749.63
708.246	715.63
708.69	721.18
709.134	701.83
709.577	706.28
710.021	713.13
710.465	706.03
710.908	701.18
711.352	730.78
711.795	807.58
712.239	869.48
712.682	884.73
713.126	872.68
713.569	971.53
714.012	800.33
714.456	700.08
714.899	666.93
715.342	636.13
715.786	607.18
716.229	589.43
716.672	579.48
717.115	571.68
717.558	581.38
718.002	596.48
718.445	620.78
718.888	659.18
719.331	665.18
719.774	681.93
720.217	673.48
720.66	640.53
721.103	608.83
721.546	568.33
721.989	554.43
722.432	547.43
722.874	546.73
723.317	554.68
723.76	599.23
724.203	736.23
724.645	975.48
725.088	1159.68
725.531	1130.23
725.974	1239.63
726.416	1119.18
726.859	694.28
727.301	572.18
727.744	535.43
728.187	540.23
728.629	560.28
729.071	573.48
729.514	606.33
729.956	633.93
730.399	643.88
730.841	646.28
731.283	633.03
731.726	611.33
732.168	624.53
732.61	655.73
733.053	704.53
733.495	780.73
733.937	879.83
734.379	1021.53
734.821	1292.18
735.263	2054.03
735.705	3685.48
736.148	5417.13
736.59	5448.88
737.032	5930.58
737.474	4883.78
737.916	1887.88
738.357	994.18
738.799	755.78
739.241	705.88
739.683	715.28
740.125	734.98
740.567	737.08
741.008	788.58
741.45	832.23
741.892	867.98
742.334	876.88
742.775	869.23
743.217	848.73
743.658	705.73
744.1	729.88
744.542	843.33
744.983	883.58
745.425	916.88
745.866	894.83
746.307	729.13
746.749	773.48
747.19	1118.08
747.632	2157.63
748.073	4031.98
748.514	5573.13
748.956	7375.23
749.397	8688.93
749.838	6013.13
750.279	5721.03
750.72	2983.83
751.162	1259.83
751.603	731.68
752.044	583.03
752.485	512.28
752.926	483.18
753.367	461.48
753.808	454.58
754.249	443.08
754.69	444.73
755.131	429.38
755.572	435.33
756.013	439.23
756.453	433.63
756.894	444.38
757.335	444.58
757.776	453.93
758.216	462.18
758.657	488.93
759.098	541.63
759.538	665.03
759.979	953.28
760.42	1891.23
760.86	4827.18
761.301	10020.28
761.741	11908.58
762.182	13644.23
762.622	8897.93
763.063	3155.03
763.503	1301.88
763.943	762.88
764.384	607.13
764.824	521.23
765.264	482.93
765.705	460.43
766.145	424.33
766.585	415.43
767.025	404.38
767.465	406.43
767.906	411.38
768.346	433.48
768.786	509.18
769.226	733.08
769.666	1484.73
770.106	3324.23
770.546	4789.23
770.986	5415.03
771.426	4116.43
771.866	1708.88
772.306	770.88
772.745	479.18
773.185	410.78
773.625	397.88
774.065	428.08
774.505	621.38
774.944	1118.13
775.384	1610.18
775.824	1818.98
776.263	1507.13
776.703	787.28
777.142	450.88
777.582	336.73
778.021	308.98
778.461	291.98
778.9	291.23
779.34	277.88
779.779	272.03
780.219	262.73
780.658	261.68
781.097	256.68
781.537	252.58
781.976	251.73
782.415	254.08
782.855	247.48
783.294	247.33
783.733	242.73
784.172	249.93
784.611	247.58
785.05	254.83
785.489	262.33
785.928	263.08
786.367	285.38
786.806	293.38
787.245	313.58
787.684	325.68
788.123	327.38
788.562	320.28
789.001	298.43
789.44	295.33
789.879	289.78
790.317	298.23
790.756	315.63
791.195	357.73
791.634	480.08
792.072	862.98
792.511	2113.13
792.95	3919.63
793.388	4749.63
793.827	3101.13
794.265	1412.63
794.704	679.13
795.142	421.33
795.581	349.33
796.019	316.43
796.458	309.18
796.896	317.38
797.334	370.23
797.773	491.68
798.211	944.18
798.649	1953.38
799.087	3304.58
799.526	4660.53
799.964	4809.63
800.402	3326.43
800.84	1505.28
801.278	741.03
801.716	446.58
802.154	365.78
802.592	343.28
803.03	341.83
803.468	350.33
803.906	349.33
804.344	345.08
804.782	340.18
805.22	337.13
805.658	355.63
806.096	377.63
806.533	417.88
806.971	526.48
807.409	770.93
807.847	1539.28
808.284	3914.88
808.722	6889.23
809.16	9670.13
809.597	13038.33
810.035	15523.33
810.472	10663.98
810.91	4530.68
811.347	2025.83
811.785	956.48
812.222	612.23
812.66	463.83
813.097	395.83
813.535	340.28
813.972	310.58
814.409	284.98
814.846	272.83
815.284	258.43
815.721	267.73
816.158	300.88
816.595	404.13
817.032	516.83
817.47	477.68
817.907	339.03
818.344	290.58
818.781	289.48
819.218	364.88
819.655	550.93
820.092	720.63
820.529	648.68
820.966	511.48
821.403	344.38
821.839	298.73
822.276	330.13
822.713	392.28
823.15	362.48
823.587	375.93
824.023	643.78
824.46	1599.43
824.897	2813.68
825.333	2208.88
825.77	1018.43
826.206	536.68
826.643	314.63
827.08	232.38
827.516	206.68
827.953	193.43
828.389	180.68
828.825	174.63
829.262	162.98
829.698	162.48
830.135	157.03
830.571	154.58
831.007	153.48
831.443	154.43
831.88	156.93
832.316	165.78
832.752	160.73
833.188	153.63
833.624	164.98
834.06	167.48
834.497	164.73
834.933	172.38
835.369	182.88
835.805	194.53
836.241	195.93
836.677	221.48
837.112	254.33
837.548	317.18
837.984	477.68
838.42	1011.28
838.856	2808.08
839.292	5563.73
839.727	4216.93
840.163	2791.73
840.599	4217.93
841.034	6495.63
841.47	3284.03
841.906	1576.98
842.341	844.38
842.777	631.43
843.212	661.33
843.648	416.73
844.083	276.18
844.519	206.53
844.954	177.23
845.39	155.38
845.825	154.98
846.261	144.43
846.696	141.38
847.131	135.28
847.566	134.83
848.002	137.43
848.437	155.83
848.872	152.98
849.307	192.58
849.742	351.23
850.177	911.23
850.613	1948.28
851.048	1436.33
851.483	653.23
851.918	364.53
852.353	197.88
852.788	143.58
853.223	128.73
853.657	118.88
854.092	113.03
854.527	113.48
854.962	120.23
855.397	138.73
855.832	114.03
856.266	102.63
856.701	108.83
857.136	109.63
857.57	135.88
858.005	163.63
858.44	137.78
858.874	125.38
859.309	130.63
859.743	124.58
860.178	122.28
860.612	136.28
861.047	186.43
861.481	269.43
861.915	184.53
862.35	136.48
862.784	107.48
863.218	100.08
863.653	106.98
864.087	134.98
864.521	167.68
864.955	270.48
865.39	463.48
865.824	365.53
866.258	476.93
866.692	732.23
867.126	534.23
867.56	289.08
867.994	184.08
868.428	154.78
868.862	192.13
869.296	172.68
869.73	215.18
870.164	185.98
870.598	167.03
871.031	113.83
871.465	107.33
871.899	82.43
872.333	72.53
872.766	75.18
873.2	81.08
873.634	74.58
874.067	80.98
874.501	71.58
874.935	78.58
875.368	78.18
875.802	75.03
876.235	69.98
876.669	65.63
877.102	60.63
877.535	63.63
877.969	59.18
878.402	58.38
878.836	63.58
879.269	59.43
879.702	54.08
880.135	64.08
880.569	63.83
881.002	56.83
881.435	50.38
881.868	59.13
882.301	51.23
882.734	48.88
883.167	57.78
883.601	55.58
884.034	53.18
884.467	49.83
884.899	49.28
885.332	45.48
885.765	47.88
886.198	47.83
886.631	48.18
887.064	47.48
887.497	46.68
887.929	53.18
888.362	47.73
888.795	47.33
889.228	52.38
889.66	46.98
890.093	46.18
890.526	47.63
890.958	40.48
891.391	48.13
891.823	43.23
892.256	50.73
892.688	45.83
893.121	40.03
893.553	46.68
893.985	37.78
894.418	41.38
894.85	46.88
895.282	44.68
895.715	40.33
896.147	40.03
896.579	36.83
897.011	46.58
897.444	43.38
897.876	35.78
898.308	34.68
898.74	43.18
899.172	41.28
899.604	47.43
900.036	41.33
900.468	38.33
900.9	46.78
901.332	62.88
901.764	64.23
902.196	59.03
902.628	56.58
903.06	88.73
903.491	94.43
903.923	73.53
904.355	75.33
904.787	78.53
905.218	61.28
905.65	57.68
906.082	56.08
906.513	50.03
906.945	51.83
907.376	48.48
907.808	48.08
908.239	52.78
908.671	58.43
909.102	68.58
909.534	97.38
909.965	180.83
910.397	458.98
910.828	1309.03
911.259	804.73
911.691	432.83
912.122	254.03
912.553	129.73
912.984	73.38
913.415	67.03
913.847	54.33
914.278	53.13
914.709	45.38
915.14	46.33
915.571	47.58
916.002	43.63
916.433	40.83
916.864	37.88
917.295	46.78
917.726	56.13
918.157	65.53
918.587	60.78
919.018	63.63
919.449	54.33
919.88	67.78
920.311	101.73
920.741	274.58
921.172	481.18
921.603	244.73
922.033	158.78
922.464	97.78
922.895	68.18
923.325	42.43
923.756	39.43
924.186	52.43
924.617	76.68
925.047	113.93
925.478	100.38
925.908	72.23
926.338	53.28
926.769	41.03
927.199	41.68
927.629	35.93
928.06	44.63
928.49	44.03
928.92	34.48
929.35	33.53
929.78	23.73
930.21	21.88
930.641	17.58
931.071	21.93
931.501	23.48
931.931	20.33
932.361	24.23
932.791	28.73
933.221	24.43
933.651	39.53
934.08	62.98
934.51	41.03
934.94	33.28
935.37	29.08
935.8	23.88
936.229	18.88
936.659	24.18
937.089	38.13
937.519	63.78
937.948	79.68
938.378	47.38
938.807	28.88
939.237	19.28
939.666	20.08
940.096	9.88
940.525	5.93
940.955	12.78
941.384	11.93
941.814	11.03
942.243	10.48
942.672	9.18
943.102	8.83
943.531	9.48
943.96	9.48
944.39	11.63
944.819	14.53
945.248	15.23
945.677	13.83
946.106	12.58
946.535	11.48
946.964	9.23
947.393	6.13
947.822	9.38
948.251	14.08
948.68	13.83
949.109	9.78
949.538	9.33
949.967	14.03
950.396	10.08
950.825	12.53
951.254	13.83
951.682	7.53
952.111	5.83
952.54	5.43
952.969	8.58
953.397	3.13
953.826	5.88
954.254	10.28
954.683	12.33
955.112	12.53
955.54	4.13
955.969	6.13
956.397	13.88
956.826	6.98
957.254	8.83
957.682	8.93
958.111	8.73
958.539	10.63
958.967	5.93
959.396	15.03
959.824	10.18
960.252	8.38
960.68	6.43
961.109	10.73
961.537	15.73
961.965	4.03
962.393	10.33
962.821	9.93
963.249	9.88
963.677	15.48
964.105	84.68
964.533	140.48
964.961	69.08
965.389	37.78
965.817	21.83
966.245	9.88
966.672	9.83
967.1	9.43
967.528	3.83
967.956	5.48
968.383	10.48
968.811	5.33
969.239	4.83
969.666	4.78
970.094	5.73
970.522	4.38
970.949	5.33
971.377	-0.67
971.804	0.03
972.232	2.48
972.659	4.08
973.087	5.08
973.514	5.78
973.941	2.98
974.369	2.73
974.796	4.73
975.223	3.03
975.651	5.23
976.078	8.28
976.505	13.53
976.932	29.03
977.359	44.33
977.786	25.68
978.214	19.38
978.641	8.33
979.068	7.33
979.495	5.28
979.922	7.53
980.349	11.33
980.776	8.78
981.202	5.38
981.629	10.18
982.056	9.18
982.483	2.88
982.91	8.33
983.337	3.23
983.763	6.48
984.19	9.08
984.617	5.38
985.043	6.93
985.47	5.53
985.897	7.08
986.323	7.68
986.75	2.18
987.176	1.68
987.603	9.18
988.029	7.78
988.456	8.63
988.882	4.93
989.308	0.68
989.735	3.43
990.161	4.58
990.587	1.33
991.014	4.88
991.44	6.08
991.866	7.48
992.292	5.33
992.719	2.93
993.145	6.68
993.571	3.58
993.997	7.48
994.423	7.83
994.849	-1.02
995.275	5.33
995.701	3.78
996.127	-2.62
996.553	0.33
996.979	2.23
997.405	2.33
997.83	2.43
998.256	3.68
998.682	4.53
999.108	3.78
999.534	-4.12
999.959	-0.67
1000.385	6.03
1000.811	-3.42
1001.236	1.73
1001.662	1.38
1002.087	5.83
1002.513	1.08
1002.938	-1.92
1003.364	6.83
1003.789	1.63
1004.215	0.43
1004.64	-0.57
1005.066	5.18
1005.491	4.43
1005.916	5.48
1006.342	7.33
1006.767	7.33
1007.192	4.28
1007.617	5.78
1008.042	2.83
1008.468	2.68
1008.893	6.08
1009.318	13.53
1009.743	16.63
1010.168	26.73
1010.593	23.78
1011.018	17.73
1011.443	11.13
1011.868	11.53
1012.293	10.93
1012.718	6.38
1013.143	2.53
1013.567	9.78
1013.992	4.93
1014.417	2.28
1014.842	1.28
1015.267	7.18
1015.691	2.23
1016.116	3.68
1016.541	6.38
1016.965	0.78
1017.39	-0.37
1017.814	-1.07
1018.239	0.58
1018.663	-6.12
1019.088	-1.47
1019.512	5.23
1019.937	-1.72
1020.361	2.13
1020.785	0.28
1021.21	-7.07
1021.634	-0.72
1022.058	0.38
1022.483	-4.87
1022.907	-4.42
1023.331	1.63
1023.755	-4.52
1024.179	0.28
1024.604	-1.87
1025.028	-0.37
1025.452	1.88
1025.876	3.38
1026.3	-1.17
1026.724	-2.97
1027.148	4.13
1027.572	1.33
1027.996	3.63
1028.42	5.18
1028.843	2.68
1029.267	0.73
1029.691	-0.77
1030.115	-3.67
1030.539	-1.37
1030.962	-3.77
1031.386	-4.37
1031.81	-4.37
1032.233	-0.92
1032.657	-4.57
1033.08	2.18
1033.504	1.48
1033.927	2.58
1034.351	-3.52
1034.774	-0.42
1035.198	1.23
1035.621	-3.82
1036.045	-1.27
1036.468	3.38
1036.891	4.33
1037.315	4.78
1037.738	-1.62
1038.161	3.58
1038.584	-0.17
1039.008	-4.97
1039.431	-2.07
1039.854	-4.12
1040.277	2.03
1040.7	0.93
1041.123	-0.77
1041.546	-1.07
1041.969	-0.52
1042.392	2.48
1042.815	-5.72
1043.238	-4.72
1043.661	3.38
1044.084	-2.42
1044.507	-3.42
1044.93	-4.02
1045.352	0.73
1045.775	-0.92
1046.198	6.43
1046.621	2.98
1047.043	-1.02
1047.466	0.38
1047.889	-3.57
1048.311	5.03
1048.734	-0.67
1049.156	-1.27
1049.579	-3.07
1050.001	-3.27
1050.424	0.78
1050.846	-2.52
1051.269	-1.72
1051.691	-4.87
1052.113	1.13
1052.536	-2.47
1052.958	-0.37
1053.38	-1.57
1053.802	2.63
1054.225	1.88
1054.647	-0.37
1055.069	-1.42
1055.491	4.68
1055.913	2.93
1056.335	-10.77
1056.757	-6.57
1057.179	-0.07
1057.601	-2.37
1058.023	1.23
1058.445	-5.17
1058.867	1.13
1059.289	-3.92
1059.711	-5.57
1060.133	1.13
1060.555	-0.57
1060.976	5.98
1061.398	-5.62
1061.82	0.68
1062.241	-3.82
1062.663	-4.17
1063.085	-3.57
1063.506	-4.17
1063.928	-1.17
1064.35	1.38
1064.771	-2.07
1065.193	-4.32
1065.614	-0.77
1066.035	4.03
1066.457	8.73
1066.878	3.08
1067.3	-1.47
1067.721	-1.52
1068.142	3.33
1068.564	-1.42
1068.985	-3.52
1069.406	-5.32
1069.827	2.13
1070.248	-1.47
1070.67	-5.57
1071.091	-5.92
1071.512	-2.72
1071.933	-1.97
1072.354	-5.77
1072.775	0.48
1073.196	2.58
1073.617	-7.42
1074.038	-2.02
1074.459	-4.37
1074.88	-1.52
1075.3	-2.22
1075.721	-5.52
1076.142	-5.87
1076.563	-5.02
1076.983	-0.57
1077.404	-6.02
1077.825	1.13
1078.246	-5.32
1078.666	1.28
1079.087	0.53
1079.507	-2.72
1079.928	-1.62
1080.348	-2.72
1080.769	1.93
1081.189	-3.17
1081.61	-4.87
1082.03	-0.02
1082.451	-1.97
1082.871	-5.82
1083.291	-2.22
1083.711	-1.52
1084.132	-1.42
1084.552	-6.97
1084.972	-5.07
1085.392	-2.52
1085.813	-0.97
1086.233	-4.67
1086.653	0.73
1087.073	-1.87
1087.493	1.08
1087.913	-6.97
1088.333	-3.12
1088.753	-0.22
1089.173	1.23
1089.593	0.38
1090.013	-4.77
1090.433	-8.67
1090.852	1.98
1091.272	-3.07
1091.692	-2.02
1092.112	-1.42
1092.531	-6.92
1092.951	-2.72
1093.371	-6.02
1093.79	-4.62
1094.21	-7.27
1094.63	1.13
1095.049	-0.97
1095.469	-7.27
1095.888	-0.62
1096.308	0.23
1096.727	-4.97
1097.146	-2.47
1097.566	2.23
1097.985	-4.97
1098.405	-2.67
1098.824	0.03
1099.243	-2.07
1099.662	0.13
1100.082	-6.27
1100.501	-0.07
1100.92	3.68
1101.339	2.28
1101.758	3.23
