Data from MSPlasma+Separation6_Subt14_10-14-10-381.txt Node
Date: Fri Jul 21 10:14:10 EDT 2017
User: Ender
Spectrometer: HR+D1039
Trigger mode: 0
Integration Time (sec): 6.430000E-3
Scans to average: 20
Electric dark correction enabled: true
Nonlinearity correction enabled: false
Boxcar width: 0
XAxis mode: Wavelengths
Number of Pixels in Spectrum: 2048
>>>>>Begin Spectral Data<<<<<
187.836	-0.78
188.309	-0.78
188.782	-0.78
189.255	1.17
189.728	1.32
190.201	-0.63
190.674	0.87
191.147	-2.88
191.619	0.17
192.092	-2.28
192.565	-3.08
193.038	3.62
193.511	0.82
193.984	-1.23
194.456	0.67
194.929	2.17
195.402	-1.83
195.874	1.87
196.347	5.07
196.82	2.67
197.292	-1.78
197.765	1.42
198.237	-4.93
198.71	-0.88
199.182	2.57
199.655	4.17
200.127	0.32
200.6	4.82
201.072	2.82
201.544	-2.23
202.017	3.67
202.489	5.07
202.961	2.07
203.433	-3.93
203.906	0.52
204.378	0.82
204.85	4.32
205.322	3.07
205.794	2.77
206.266	-0.23
206.739	2.07
207.211	0.97
207.683	0.12
208.155	0.47
208.627	1.62
209.099	10.27
209.57	1.97
210.042	1.07
210.514	5.42
210.986	1.72
211.458	-3.68
211.93	2.32
212.402	1.47
212.873	-1.18
213.345	-0.63
213.817	4.82
214.288	1.87
214.76	6.82
215.232	-1.78
215.703	2.67
216.175	4.37
216.646	3.67
217.118	2.32
217.589	-4.53
218.061	3.32
218.532	-1.43
219.004	6.17
219.475	5.37
219.946	6.17
220.418	6.12
220.889	4.47
221.36	8.22
221.832	4.67
222.303	4.27
222.774	7.27
223.245	6.67
223.717	2.17
224.188	6.12
224.659	6.02
225.13	6.12
225.601	4.42
226.072	5.52
226.543	8.92
227.014	4.87
227.485	6.72
227.956	9.17
228.427	13.27
228.898	11.62
229.369	7.32
229.839	6.12
230.31	10.32
230.781	6.47
231.252	9.22
231.722	9.47
232.193	9.37
232.664	9.07
233.135	14.32
233.605	6.82
234.076	14.17
234.546	11.47
235.017	11.37
235.487	13.72
235.958	15.57
236.428	15.72
236.899	12.62
237.369	18.57
237.84	14.97
238.31	20.27
238.78	10.67
239.251	20.12
239.721	13.22
240.191	17.27
240.662	20.72
241.132	18.62
241.602	18.62
242.072	15.77
242.542	16.52
243.013	16.92
243.483	22.72
243.953	19.67
244.423	22.17
244.893	18.62
245.363	24.27
245.833	22.82
246.303	19.47
246.773	29.07
247.243	20.77
247.712	26.62
248.182	25.32
248.652	30.27
249.122	24.47
249.592	25.02
250.061	24.42
250.531	29.62
251.001	28.27
251.471	31.47
251.94	32.17
252.41	27.57
252.879	28.97
253.349	33.77
253.818	31.22
254.288	33.12
254.757	28.37
255.227	36.02
255.696	36.72
256.166	35.42
256.635	39.22
257.105	36.32
257.574	38.02
258.043	36.67
258.513	39.77
258.982	36.87
259.451	39.87
259.92	35.07
260.389	40.22
260.859	35.97
261.328	43.72
261.797	38.02
262.266	41.47
262.735	47.12
263.204	38.72
263.673	43.47
264.142	36.37
264.611	41.82
265.08	43.32
265.549	46.72
266.018	45.67
266.487	46.97
266.955	46.22
267.424	52.72
267.893	50.57
268.362	51.67
268.83	49.37
269.299	52.52
269.768	52.07
270.236	48.02
270.705	51.82
271.174	48.97
271.642	49.92
272.111	52.77
272.579	50.52
273.048	51.92
273.516	57.87
273.985	58.32
274.453	52.57
274.922	53.57
275.39	56.37
275.858	57.22
276.327	61.27
276.795	55.92
277.263	60.37
277.731	57.42
278.2	64.62
278.668	59.87
279.136	66.17
279.604	65.82
280.072	59.82
280.54	64.07
281.008	72.97
281.477	67.17
281.945	70.12
282.413	67.82
282.881	71.12
283.348	69.97
283.816	72.02
284.284	74.57
284.752	72.27
285.22	77.32
285.688	72.07
286.156	74.87
286.623	77.77
287.091	74.87
287.559	81.52
288.026	86.07
288.494	83.72
288.962	83.87
289.429	81.67
289.897	80.57
290.364	80.12
290.832	82.57
291.3	81.12
291.767	81.82
292.234	89.47
292.702	87.92
293.169	86.22
293.637	87.87
294.104	88.87
294.571	87.27
295.039	93.02
295.506	88.32
295.973	91.72
296.44	93.82
296.908	93.07
297.375	92.87
297.842	94.37
298.309	93.57
298.776	98.87
299.243	101.52
299.71	99.72
300.177	97.57
300.644	100.42
301.111	101.42
301.578	104.92
302.045	104.87
302.512	103.47
302.979	107.97
303.446	111.52
303.913	107.17
304.379	114.87
304.846	116.82
305.313	122.62
305.78	123.02
306.246	122.72
306.713	121.37
307.18	127.27
307.646	125.12
308.113	121.67
308.579	133.32
309.046	130.97
309.512	130.57
309.979	136.82
310.445	126.67
310.912	135.82
311.378	141.12
311.845	141.97
312.311	136.72
312.777	136.37
313.244	139.77
313.71	144.72
314.176	144.82
314.642	145.07
315.109	147.67
315.575	149.47
316.041	150.52
316.507	147.97
316.973	155.07
317.439	157.37
317.905	155.17
318.371	154.92
318.837	153.97
319.303	158.12
319.769	149.52
320.235	161.82
320.701	164.77
321.167	155.57
321.633	163.77
322.099	156.87
322.564	166.77
323.03	166.27
323.496	163.47
323.962	168.02
324.427	180.37
324.893	169.87
325.359	175.52
325.824	175.82
326.29	181.57
326.755	182.12
327.221	178.72
327.686	190.57
328.152	186.17
328.617	193.27
329.083	192.82
329.548	194.92
330.014	195.52
330.479	197.32
330.944	204.82
331.41	209.22
331.875	198.92
332.34	197.22
332.805	202.42
333.271	208.67
333.736	206.87
334.201	207.57
334.666	223.67
335.131	218.42
335.596	222.72
336.061	220.52
336.526	213.47
336.991	209.77
337.456	212.07
337.921	208.42
338.386	210.32
338.851	206.37
339.316	206.92
339.781	210.57
340.246	216.27
340.711	216.32
341.175	221.62
341.64	228.02
342.105	227.82
342.569	238.87
343.034	236.62
343.499	235.67
343.963	239.17
344.428	239.97
344.893	244.22
345.357	251.47
345.822	247.37
346.286	258.02
346.751	259.17
347.215	268.02
347.679	274.62
348.144	282.72
348.608	287.47
349.073	287.42
349.537	297.52
350.001	299.17
350.465	295.52
350.93	295.82
351.394	299.62
351.858	299.57
352.322	309.92
352.786	304.17
353.25	306.12
353.715	317.92
354.179	324.22
354.643	333.47
355.107	338.32
355.571	326.02
356.035	326.87
356.498	325.67
356.962	320.17
357.426	330.27
357.89	325.72
358.354	319.82
358.818	321.02
359.281	323.02
359.745	329.37
360.209	316.47
360.673	325.12
361.136	325.37
361.6	326.27
362.064	338.37
362.527	346.42
362.991	344.97
363.454	332.32
363.918	345.77
364.381	348.67
364.845	350.92
365.308	350.47
365.772	352.22
366.235	354.97
366.698	352.17
367.162	345.82
367.625	357.97
368.088	365.77
368.552	362.17
369.015	359.42
369.478	368.42
369.941	364.67
370.404	369.72
370.867	370.32
371.331	374.62
371.794	381.47
372.257	384.97
372.72	382.47
373.183	390.12
373.646	388.47
374.109	385.87
374.572	394.57
375.035	398.62
375.497	393.92
375.96	403.77
376.423	412.02
376.886	414.52
377.349	424.72
377.811	420.52
378.274	422.62
378.737	416.02
379.199	428.17
379.662	429.97
380.125	434.47
380.587	441.27
381.05	439.77
381.512	449.22
381.975	465.57
382.437	465.37
382.9	455.77
383.362	461.22
383.825	465.27
384.287	464.92
384.75	468.77
385.212	473.17
385.674	474.87
386.136	482.32
386.599	476.67
387.061	474.27
387.523	480.42
387.985	480.87
388.447	492.02
388.91	488.77
389.372	492.07
389.834	497.07
390.296	485.42
390.758	494.67
391.22	492.97
391.682	493.47
392.144	493.62
392.606	507.57
393.068	515.07
393.529	540.17
393.991	546.62
394.453	527.87
394.915	507.12
395.377	505.42
395.838	507.22
396.3	512.27
396.762	510.97
397.224	515.22
397.685	511.47
398.147	518.12
398.608	522.37
399.07	528.87
399.531	530.22
399.993	548.12
400.454	549.97
400.916	552.67
401.377	561.87
401.839	564.42
402.3	565.62
402.762	596.52
403.223	637.92
403.684	635.07
404.145	602.92
404.607	593.92
405.068	582.47
405.529	593.92
405.99	607.47
406.451	614.07
406.913	606.17
407.374	609.92
407.835	606.12
408.296	628.22
408.757	630.22
409.218	638.17
409.679	645.87
410.14	648.52
410.601	664.67
411.062	671.22
411.522	673.07
411.983	672.52
412.444	683.77
412.905	685.72
413.366	711.07
413.826	743.52
414.287	833.42
414.748	986.27
415.208	1013.17
415.669	846.82
416.13	769.52
416.59	758.02
417.051	779.57
417.511	816.37
417.972	872.37
418.432	936.47
418.893	1034.47
419.353	989.27
419.814	775.92
420.274	694.57
420.734	690.17
421.195	709.07
421.655	702.42
422.115	721.27
422.576	713.62
423.036	719.27
423.496	743.02
423.956	771.52
424.416	827.02
424.876	926.42
425.336	924.57
425.797	910.02
426.257	897.57
426.717	852.27
427.177	791.77
427.637	799.62
428.097	833.32
428.556	866.97
429.016	926.77
429.476	923.27
429.936	914.97
430.396	916.22
430.856	927.52
431.315	954.77
431.775	1017.52
432.235	1090.37
432.694	1103.37
433.154	1042.87
433.614	1026.12
434.073	988.07
434.533	895.57
434.993	861.82
435.452	864.92
435.912	848.12
436.371	844.82
436.83	829.37
437.29	816.52
437.749	798.37
438.209	792.37
438.668	795.82
439.127	807.92
439.587	800.72
440.046	777.07
440.505	790.07
440.964	800.72
441.424	833.92
441.883	839.52
442.342	793.27
442.801	763.17
443.26	771.92
443.719	763.52
444.178	765.97
444.637	774.22
445.096	772.42
445.555	783.67
446.014	782.52
446.473	771.87
446.932	777.57
447.391	780.62
447.849	794.67
448.308	786.17
448.767	794.07
449.226	808.42
449.685	820.12
450.143	848.62
450.602	848.52
451.061	806.82
451.519	811.22
451.978	796.22
452.436	802.27
452.895	806.27
453.353	797.67
453.812	784.67
454.27	792.12
454.729	794.07
455.187	808.22
455.646	801.72
456.104	807.37
456.562	822.52
457.021	829.32
457.479	790.42
457.937	819.47
458.395	839.62
458.854	831.42
459.312	820.92
459.77	835.12
460.228	840.72
460.686	850.67
461.144	862.12
461.602	847.52
462.06	850.62
462.518	870.92
462.976	867.82
463.434	882.22
463.892	886.77
464.35	904.77
464.808	924.82
465.266	925.17
465.724	937.67
466.181	944.47
466.639	933.92
467.097	969.32
467.555	1003.92
468.012	997.92
468.47	1013.67
468.928	1044.82
469.385	1062.52
469.843	1088.02
470.3	1068.42
470.758	1108.72
471.215	1125.67
471.673	1150.37
472.13	1186.02
472.588	1205.17
473.045	1202.07
473.503	1218.47
473.96	1269.12
474.417	1288.87
474.875	1347.72
475.332	1398.57
475.789	1412.52
476.246	1466.07
476.704	1523.67
477.161	1562.72
477.618	1610.17
478.075	1698.92
478.532	1832.22
478.989	1968.17
479.446	2163.52
479.903	2271.42
480.36	2489.52
480.817	2622.57
481.274	2796.72
481.731	3050.67
482.188	3267.02
482.645	3504.17
483.102	3703.82
483.558	3955.57
484.015	4122.67
484.472	4091.12
484.929	3967.82
485.385	3791.72
485.842	3717.67
486.299	3575.87
486.755	3290.47
487.212	2966.57
487.668	2671.12
488.125	2485.22
488.582	2316.32
489.038	2217.57
489.494	2159.37
489.951	2087.42
490.407	2040.12
490.864	1998.37
491.32	1941.07
491.776	1936.87
492.233	1936.57
492.689	1918.77
493.145	1866.07
493.602	1849.37
494.058	1869.72
494.514	1872.82
494.97	1884.32
495.426	1903.97
495.882	1887.32
496.338	1890.52
496.794	1905.37
497.251	1897.52
497.707	1917.97
498.163	1933.12
498.618	1922.52
499.074	1915.27
499.53	1939.92
499.986	1951.27
500.442	1937.82
500.898	1915.47
501.354	1935.97
501.809	1941.17
502.265	1937.37
502.721	1946.77
503.177	1946.12
503.632	1951.92
504.088	1961.32
504.543	1995.37
504.999	2011.32
505.455	1996.27
505.91	1981.52
506.366	1991.87
506.821	1978.97
507.277	1977.37
507.732	1993.02
508.187	1994.07
508.643	1995.42
509.098	2007.92
509.553	2030.87
510.009	2045.62
510.464	2088.37
510.919	2113.32
511.375	2120.42
511.83	2152.57
512.285	2187.52
512.74	2221.52
513.195	2243.57
513.65	2286.12
514.105	2313.12
514.56	2318.42
515.015	2346.07
515.47	2370.87
515.925	2345.37
516.38	2348.22
516.835	2352.17
517.29	2336.57
517.745	2325.47
518.2	2301.07
518.655	2266.87
519.109	2236.47
519.564	2216.67
520.019	2191.22
520.474	2165.12
520.928	2164.27
521.383	2142.72
521.838	2129.92
522.292	2120.07
522.747	2105.87
523.201	2101.67
523.656	2069.47
524.11	2066.82
524.565	2060.92
525.019	2068.67
525.474	2064.32
525.928	2049.77
526.382	2049.17
526.837	2056.17
527.291	2070.22
527.745	2046.87
528.2	2044.07
528.654	2024.67
529.108	2030.87
529.562	2027.57
530.016	2034.17
530.47	2034.77
530.925	2024.37
531.379	2033.07
531.833	2056.72
532.287	2039.82
532.741	2036.52
533.195	2030.87
533.649	2036.47
534.103	2051.32
534.556	2040.92
535.01	2043.67
535.464	2033.37
535.918	2032.87
536.372	2053.37
536.826	2044.37
537.279	2027.47
537.733	2031.72
538.187	2037.82
538.64	2036.82
539.094	2052.67
539.548	2085.57
540.001	2065.97
540.455	2076.52
540.908	2100.97
541.362	2112.87
541.815	2133.07
542.269	2173.67
542.722	2164.82
543.175	2179.07
543.629	2192.52
544.082	2205.57
544.536	2230.17
544.989	2242.67
545.442	2248.27
545.895	2250.02
546.349	2254.97
546.802	2258.32
547.255	2244.27
547.708	2268.67
548.161	2279.32
548.614	2293.22
549.067	2307.72
549.52	2284.52
549.973	2281.07
550.426	2264.47
550.879	2255.97
551.332	2258.42
551.785	2280.62
552.238	2296.27
552.691	2295.92
553.144	2326.57
553.596	2370.92
554.049	2382.22
554.502	2437.87
554.955	2460.82
555.407	2506.02
555.86	2485.62
556.313	2454.57
556.765	2442.57
557.218	2405.37
557.67	2397.87
558.123	2365.77
558.576	2355.62
559.028	2362.87
559.48	2375.92
559.933	2361.62
560.385	2287.57
560.838	2225.97
561.29	2173.47
561.742	2150.87
562.195	2100.82
562.647	2083.02
563.099	2069.92
563.551	2060.02
564.004	2077.82
564.456	2060.27
564.908	2024.87
565.36	1980.67
565.812	1942.27
566.264	1911.97
566.716	1909.57
567.168	1863.62
567.62	1860.77
568.072	1854.42
568.524	1842.62
568.976	1837.52
569.428	1826.17
569.88	1818.77
570.332	1832.72
570.784	1830.67
571.235	1827.27
571.687	1851.87
572.139	1846.82
572.59	1864.17
573.042	1867.42
573.494	1869.97
573.945	1831.07
574.397	1816.17
574.849	1805.87
575.3	1809.17
575.752	1775.27
576.203	1762.57
576.655	1767.67
577.106	1741.07
577.557	1731.72
578.009	1730.37
578.46	1735.17
578.912	1718.72
579.363	1737.47
579.814	1726.47
580.265	1733.07
580.717	1730.22
581.168	1727.77
581.619	1738.42
582.07	1747.52
582.521	1744.87
582.972	1725.82
583.423	1745.17
583.875	1745.27
584.326	1754.87
584.777	1781.67
585.227	1811.12
585.678	1836.22
586.129	1852.92
586.58	1873.52
587.031	1888.97
587.482	1943.77
587.933	1971.27
588.384	1965.82
588.834	1948.17
589.285	1931.42
589.736	1949.92
590.186	1950.22
590.637	1917.47
591.088	1876.52
591.538	1844.87
591.989	1820.72
592.439	1805.52
592.89	1793.32
593.34	1772.32
593.791	1767.67
594.241	1743.22
594.692	1747.52
595.142	1744.22
595.593	1739.52
596.043	1743.67
596.493	1779.67
596.943	1765.02
597.394	1816.97
597.844	1844.37
598.294	1876.42
598.744	1950.97
599.195	2038.02
599.645	2127.67
600.095	2247.72
600.545	2340.77
600.995	2447.42
601.445	2539.97
601.895	2651.97
602.345	2720.57
602.795	2688.17
603.245	2593.22
603.695	2451.67
604.145	2323.32
604.594	2219.67
605.044	2097.62
605.494	1974.12
605.944	1879.57
606.393	1822.82
606.843	1787.77
607.293	1785.42
607.743	1779.72
608.192	1787.67
608.642	1790.27
609.091	1774.02
609.541	1772.22
609.99	1775.67
610.44	1743.32
610.889	1727.37
611.339	1704.07
611.788	1680.22
612.238	1694.87
612.687	1697.67
613.136	1706.32
613.586	1726.87
614.035	1717.72
614.484	1728.52
614.933	1734.47
615.383	1700.37
615.832	1660.07
616.281	1633.72
616.73	1593.02
617.179	1559.47
617.628	1530.12
618.077	1507.62
618.526	1484.82
618.975	1474.77
619.424	1458.57
619.873	1462.47
620.322	1436.82
620.771	1442.82
621.22	1423.17
621.669	1399.82
622.118	1382.47
622.567	1368.67
623.015	1337.27
623.464	1342.52
623.913	1323.42
624.361	1328.47
624.81	1312.27
625.259	1327.27
625.707	1316.07
626.156	1335.37
626.604	1330.07
627.053	1344.82
627.501	1338.47
627.95	1346.87
628.398	1363.62
628.847	1339.82
629.295	1345.17
629.744	1337.62
630.192	1308.62
630.64	1296.87
631.089	1274.52
631.537	1244.52
631.985	1234.82
632.433	1229.27
632.881	1215.92
633.33	1231.17
633.778	1227.77
634.226	1233.72
634.674	1240.57
635.122	1259.12
635.57	1268.37
636.018	1283.77
636.466	1292.37
636.914	1294.77
637.362	1312.42
637.81	1332.32
638.258	1383.17
638.705	1389.22
639.153	1435.82
639.601	1449.32
640.049	1485.12
640.497	1522.57
640.944	1550.17
641.392	1491.87
641.84	1417.27
642.287	1355.02
642.735	1320.67
643.182	1311.52
643.63	1321.12
644.078	1320.92
644.525	1340.42
644.973	1376.92
645.42	1410.57
645.867	1451.32
646.315	1475.02
646.762	1522.77
647.21	1568.57
647.657	1652.62
648.104	1717.02
648.551	1765.87
648.999	1902.37
649.446	2093.32
649.893	2349.27
650.34	2747.57
650.787	3392.07
651.234	4346.32
651.682	5985.12
652.129	8468.32
652.576	11942.37
653.023	15461.57
653.47	15536.87
653.917	15536.92
654.363	15536.82
654.81	15533.82
655.257	15534.47
655.704	15212.82
656.151	9288.97
656.598	6108.87
657.044	4388.07
657.491	3434.42
657.938	2788.62
658.385	2352.77
658.831	2082.57
659.278	1865.72
659.724	1694.02
660.171	1597.77
660.618	1477.82
661.064	1393.22
661.511	1350.47
661.957	1300.97
662.404	1274.07
662.85	1263.02
663.296	1248.82
663.743	1216.22
664.189	1187.67
664.635	1188.37
665.082	1164.07
665.528	1149.32
665.974	1110.62
666.42	1094.02
666.867	1086.32
667.313	1029.02
667.759	1028.57
668.205	1018.87
668.651	1023.37
669.097	1017.57
669.543	1021.27
669.989	1031.97
670.435	1033.52
670.881	1041.07
671.327	1085.67
671.773	1163.52
672.219	1240.37
672.665	1320.82
673.11	1373.17
673.556	1385.62
674.002	1405.57
674.448	1417.12
674.893	1221.42
675.339	1066.57
675.785	979.12
676.23	933.37
676.676	897.02
677.122	874.12
677.567	847.42
678.013	822.92
678.458	822.07
678.904	811.32
679.349	806.62
679.794	795.62
680.24	797.77
680.685	789.22
681.131	790.72
681.576	792.97
682.021	800.57
682.466	804.67
682.912	810.47
683.357	857.42
683.802	928.47
684.247	1010.87
684.692	1081.87
685.137	1125.57
685.583	1135.67
686.028	1200.17
686.473	1145.87
686.918	987.22
687.363	904.57
687.807	863.97
688.252	828.67
688.697	794.12
689.142	765.07
689.587	775.82
690.032	793.57
690.477	812.32
690.921	857.87
691.366	905.67
691.811	940.77
692.255	1009.62
692.7	1224.57
693.145	1771.27
693.589	2692.72
694.034	3227.02
694.478	3399.37
694.923	3123.87
695.367	4385.47
695.812	2708.02
696.256	1160.07
696.701	845.22
697.145	783.92
697.59	755.52
698.034	741.52
698.478	735.67
698.922	736.37
699.367	754.57
699.811	792.67
700.255	864.57
700.699	934.12
701.143	1010.97
701.588	1071.37
702.032	1123.07
702.476	1164.02
702.92	1241.37
703.364	1617.87
703.808	2453.87
704.252	3073.32
704.696	3234.07
705.14	3045.12
705.584	4148.57
706.027	2348.82
706.471	1176.42
706.915	887.92
707.359	792.72
707.803	738.42
708.246	709.92
708.69	706.47
709.134	692.82
709.577	691.02
710.021	691.37
710.465	696.07
710.908	694.72
711.352	718.32
711.795	790.87
712.239	860.42
712.682	876.32
713.126	859.27
713.569	952.02
714.012	789.57
714.456	691.62
714.899	657.97
715.342	620.57
715.786	599.67
716.229	588.52
716.672	577.02
717.115	565.37
717.558	570.52
718.002	587.97
718.445	617.02
718.888	651.32
719.331	659.82
719.774	670.57
720.217	656.27
720.66	629.47
721.103	594.77
721.546	560.82
721.989	550.32
722.432	541.97
722.874	545.22
723.317	545.57
723.76	590.92
724.203	724.22
724.645	963.92
725.088	1140.27
725.531	1115.07
725.974	1205.02
726.416	1097.52
726.859	682.02
727.301	561.27
727.744	536.82
728.187	540.97
728.629	550.12
729.071	574.82
729.514	596.47
729.956	624.02
730.399	633.82
730.841	637.17
731.283	623.92
731.726	603.82
732.168	610.77
732.61	647.47
733.053	699.17
733.495	768.47
733.937	860.87
734.379	1005.07
734.821	1289.82
735.263	2023.82
735.705	3649.62
736.148	5324.37
736.59	5349.07
737.032	5756.97
737.474	4773.42
737.916	1850.12
738.357	978.67
738.799	750.22
739.241	697.22
739.683	708.37
740.125	719.37
740.567	729.42
741.008	775.07
741.45	820.82
741.892	852.17
742.334	870.62
742.775	859.47
743.217	829.12
743.658	693.97
744.1	718.67
744.542	832.57
744.983	866.47
745.425	908.57
745.866	870.62
746.307	719.32
746.749	769.37
747.19	1100.12
747.632	2138.42
748.073	3951.87
748.514	5479.87
748.956	7271.07
749.397	8495.52
749.838	5889.52
750.279	5558.72
750.72	2921.42
751.162	1240.42
751.603	715.82
752.044	576.37
752.485	505.62
752.926	475.02
753.367	458.87
753.808	446.47
754.249	440.97
754.69	430.12
755.131	430.67
755.572	429.27
756.013	420.82
756.453	429.02
756.894	438.72
757.335	435.57
757.776	442.12
758.216	455.97
758.657	479.97
759.098	529.72
759.538	646.57
759.979	934.92
760.42	1883.82
760.86	4803.72
761.301	9888.87
761.741	11673.22
762.182	13299.02
762.622	8676.12
763.063	3114.97
763.503	1276.67
763.943	754.37
764.384	593.62
764.824	513.07
765.264	476.87
765.705	453.92
766.145	429.22
766.585	415.77
767.025	400.52
767.465	402.87
767.906	406.22
768.346	432.07
768.786	499.92
769.226	733.22
769.666	1473.32
770.106	3282.27
770.546	4687.52
770.986	5292.37
771.426	3999.92
771.866	1679.27
772.306	766.52
772.745	473.32
773.185	405.87
773.625	391.22
774.065	428.02
774.505	607.22
774.944	1095.62
775.384	1574.97
775.824	1776.22
776.263	1453.77
776.703	770.37
777.142	439.22
777.582	330.52
778.021	302.87
778.461	288.87
778.9	284.72
779.34	275.62
779.779	269.97
780.219	261.47
780.658	258.32
781.097	251.47
781.537	249.87
781.976	246.37
782.415	246.62
782.855	252.52
783.294	244.77
783.733	241.02
784.172	247.02
784.611	242.37
785.05	252.77
785.489	257.12
785.928	265.02
786.367	275.82
786.806	287.57
787.245	311.02
787.684	325.57
788.123	318.82
788.562	310.32
789.001	299.07
789.44	287.92
789.879	292.97
790.317	291.67
790.756	307.82
791.195	354.07
791.634	476.42
792.072	845.82
792.511	2081.87
792.95	3843.82
793.388	4631.27
793.827	3020.17
794.265	1392.62
794.704	666.47
795.142	407.77
795.581	345.52
796.019	311.87
796.458	308.62
796.896	311.37
797.334	363.97
797.773	491.52
798.211	928.17
798.649	1921.22
799.087	3231.62
799.526	4552.27
799.964	4684.07
800.402	3240.67
800.84	1474.07
801.278	720.17
801.716	445.47
802.154	360.97
802.592	339.82
803.03	338.12
803.468	346.52
803.906	351.52
804.344	340.82
804.782	337.12
805.22	332.07
805.658	348.07
806.096	370.77
806.533	413.97
806.971	526.32
807.409	766.62
807.847	1524.02
808.284	3850.22
808.722	6770.72
809.16	9462.92
809.597	12809.37
810.035	15373.37
810.472	10390.62
810.91	4420.67
811.347	1994.47
811.785	945.47
812.222	599.87
812.66	455.92
813.097	389.02
813.535	342.62
813.972	304.77
814.409	284.92
814.846	272.07
815.284	255.02
815.721	259.47
816.158	292.32
816.595	402.92
817.032	502.77
817.47	461.62
817.907	333.82
818.344	293.77
818.781	283.82
819.218	349.07
819.655	538.57
820.092	704.37
820.529	631.37
820.966	498.92
821.403	338.97
821.839	282.77
822.276	320.77
822.713	385.62
823.15	354.22
823.587	365.87
824.023	639.87
824.46	1583.82
824.897	2742.07
825.333	2158.07
825.77	996.27
826.206	526.87
826.643	310.87
827.08	230.92
827.516	200.32
827.953	191.77
828.389	177.97
828.825	173.27
829.262	168.67
829.698	158.27
830.135	148.82
830.571	147.77
831.007	153.82
831.443	151.72
831.88	155.72
832.316	160.37
832.752	157.67
833.188	164.42
833.624	162.92
834.06	167.77
834.497	163.62
834.933	167.07
835.369	182.92
835.805	190.07
836.241	200.12
836.677	215.42
837.112	253.72
837.548	318.67
837.984	468.17
838.42	1007.32
838.856	2771.82
839.292	5467.07
839.727	4092.12
840.163	2742.42
840.599	4156.52
841.034	6356.07
841.47	3206.72
841.906	1545.12
842.341	839.42
842.777	618.27
843.212	650.57
843.648	407.67
844.083	273.47
844.519	205.32
844.954	174.27
845.39	153.17
845.825	150.97
846.261	145.22
846.696	139.87
847.131	131.12
847.566	135.07
848.002	134.57
848.437	144.47
848.872	147.17
849.307	195.42
849.742	347.87
850.177	900.87
850.613	1909.92
851.048	1394.97
851.483	640.22
851.918	362.52
852.353	199.07
852.788	140.82
853.223	128.22
853.657	115.22
854.092	112.97
854.527	114.57
854.962	123.17
855.397	133.87
855.832	116.37
856.266	104.17
856.701	101.77
857.136	105.32
857.57	130.77
858.005	161.62
858.44	135.72
858.874	123.57
859.309	126.47
859.743	130.07
860.178	117.67
860.612	134.92
861.047	180.47
861.481	258.87
861.915	177.22
862.35	130.17
862.784	108.67
863.218	103.12
863.653	111.42
864.087	134.62
864.521	160.37
864.955	270.17
865.39	458.42
865.824	356.67
866.258	462.22
866.692	720.72
867.126	522.32
867.56	279.07
867.994	182.57
868.428	151.62
868.862	190.77
869.296	170.17
869.73	209.12
870.164	179.27
870.598	158.02
871.031	118.47
871.465	102.67
871.899	79.72
872.333	68.22
872.766	71.27
873.2	73.67
873.634	74.12
874.067	79.52
874.501	76.97
874.935	74.52
875.368	78.42
875.802	66.97
876.235	65.17
876.669	67.02
877.102	60.62
877.535	57.87
877.969	59.12
878.402	60.67
878.836	60.62
879.269	61.12
879.702	57.07
880.135	63.07
880.569	66.07
881.002	54.82
881.435	57.32
881.868	56.27
882.301	54.12
882.734	51.17
883.167	53.27
883.601	49.57
884.034	52.52
884.467	45.77
884.899	47.12
885.332	47.32
885.765	47.77
886.198	50.07
886.631	46.92
887.064	47.12
887.497	45.42
887.929	47.47
888.362	45.87
888.795	44.12
889.228	52.02
889.66	44.42
890.093	41.97
890.526	46.37
890.958	48.32
891.391	49.02
891.823	44.32
892.256	45.62
892.688	46.97
893.121	45.02
893.553	45.07
893.985	46.37
894.418	40.32
894.85	43.02
895.282	43.37
895.715	43.17
896.147	39.12
896.579	35.37
897.011	45.42
897.444	42.77
897.876	39.77
898.308	36.57
898.74	41.32
899.172	47.87
899.604	43.42
900.036	45.32
900.468	40.32
900.9	46.62
901.332	60.07
901.764	55.22
902.196	53.07
902.628	60.77
903.06	87.47
903.491	98.32
903.923	79.07
904.355	69.87
904.787	78.12
905.218	66.37
905.65	59.27
906.082	54.87
906.513	52.57
906.945	50.27
907.376	50.27
907.808	50.77
908.239	50.72
908.671	62.37
909.102	65.77
909.534	95.37
909.965	178.92
910.397	446.97
910.828	1283.87
911.259	791.02
911.691	435.87
912.122	247.37
912.553	129.07
912.984	76.02
913.415	64.32
913.847	57.27
914.278	55.92
914.709	47.52
915.14	43.17
915.571	48.82
916.002	43.92
916.433	38.77
916.864	40.87
917.295	45.72
917.726	48.77
918.157	63.17
918.587	62.82
919.018	59.12
919.449	56.22
919.88	64.77
920.311	98.82
920.741	272.47
921.172	478.72
921.603	242.22
922.033	153.27
922.464	98.32
922.895	64.87
923.325	47.77
923.756	42.07
924.186	52.77
924.617	73.82
925.047	115.37
925.478	97.37
925.908	70.02
926.338	55.32
926.769	44.47
927.199	40.92
927.629	33.87
928.06	43.72
928.49	38.32
928.92	33.67
929.35	35.27
929.78	28.32
930.21	25.57
930.641	19.67
931.071	22.42
931.501	21.37
931.931	20.32
932.361	22.67
932.791	27.07
933.221	26.62
933.651	37.37
934.08	65.32
934.51	37.82
934.94	34.17
935.37	26.72
935.8	21.77
936.229	19.97
936.659	26.92
937.089	41.32
937.519	64.07
937.948	82.42
938.378	49.42
938.807	29.77
939.237	19.87
939.666	22.22
940.096	12.92
940.525	12.82
940.955	13.42
941.384	11.47
941.814	13.07
942.243	11.52
942.672	7.52
943.102	10.22
943.531	11.07
943.96	13.52
944.39	13.87
944.819	16.02
945.248	9.67
945.677	13.22
946.106	12.52
946.535	9.12
946.964	10.32
947.393	5.57
947.822	8.72
948.251	13.97
948.68	12.92
949.109	9.67
949.538	8.22
949.967	12.77
950.396	10.22
950.825	12.72
951.254	8.82
951.682	4.57
952.111	5.12
952.54	10.37
952.969	5.37
953.397	2.57
953.826	6.32
954.254	14.52
954.683	8.42
955.112	13.07
955.54	13.77
955.969	7.42
956.397	6.57
956.826	5.67
957.254	9.87
957.682	7.47
958.111	9.77
958.539	7.62
958.967	9.72
959.396	9.77
959.824	7.17
960.252	9.77
960.68	8.12
961.109	14.17
961.537	8.87
961.965	5.82
962.393	5.42
962.821	11.57
963.249	9.27
963.677	17.02
964.105	80.32
964.533	141.42
964.961	68.72
965.389	43.92
965.817	20.82
966.245	13.62
966.672	11.12
967.1	11.07
967.528	4.82
967.956	6.32
968.383	8.32
968.811	6.57
969.239	8.92
969.666	12.27
970.094	8.97
970.522	4.37
970.949	8.27
971.377	1.07
971.804	5.12
972.232	3.22
972.659	3.97
973.087	8.22
973.514	3.27
973.941	2.62
974.369	8.72
974.796	2.77
975.223	-0.08
975.651	10.92
976.078	7.22
976.505	14.67
976.932	32.12
977.359	41.77
977.786	26.92
978.214	17.37
978.641	6.47
979.068	9.57
979.495	4.47
979.922	8.52
980.349	11.62
980.776	7.12
981.202	8.07
981.629	11.57
982.056	12.67
982.483	1.02
982.91	9.12
983.337	0.72
983.763	5.72
984.19	7.97
984.617	5.62
985.043	10.57
985.47	8.37
985.897	6.02
986.323	10.52
986.75	4.32
987.176	6.42
987.603	5.02
988.029	5.92
988.456	7.87
988.882	5.57
989.308	2.92
989.735	5.27
990.161	7.77
990.587	2.82
991.014	1.82
991.44	6.37
991.866	4.42
992.292	7.42
992.719	7.52
993.145	7.62
993.571	7.92
993.997	10.37
994.423	6.27
994.849	-1.88
995.275	5.87
995.701	5.42
996.127	-0.93
996.553	-0.63
996.979	-0.03
997.405	7.97
997.83	8.47
998.256	8.52
998.682	4.77
999.108	6.77
999.534	-5.83
999.959	3.07
1000.385	6.02
1000.811	1.17
1001.236	-0.28
1001.662	2.97
1002.087	11.12
1002.513	6.32
1002.938	2.62
1003.364	6.72
1003.789	7.02
1004.215	2.02
1004.64	0.92
1005.066	4.47
1005.491	7.72
1005.916	6.17
1006.342	5.32
1006.767	1.77
1007.192	9.97
1007.617	6.12
1008.042	2.12
1008.468	4.17
1008.893	6.22
1009.318	5.22
1009.743	16.97
1010.168	29.42
1010.593	31.12
1011.018	15.72
1011.443	8.47
1011.868	11.97
1012.293	6.47
1012.718	1.07
1013.143	2.57
1013.567	6.17
1013.992	3.52
1014.417	5.77
1014.842	8.52
1015.267	1.22
1015.691	3.62
1016.116	3.22
1016.541	5.42
1016.965	8.07
1017.39	5.17
1017.814	-0.78
1018.239	2.32
1018.663	-1.63
1019.088	0.07
1019.512	6.92
1019.937	-3.18
1020.361	4.77
1020.785	0.62
1021.21	-0.58
1021.634	-0.53
1022.058	3.77
1022.483	-0.53
1022.907	1.47
1023.331	1.82
1023.755	2.12
1024.179	0.37
1024.604	0.17
1025.028	1.67
1025.452	5.97
1025.876	4.97
1026.3	2.32
1026.724	-2.33
1027.148	5.77
1027.572	2.77
1027.996	1.72
1028.42	4.07
1028.843	2.82
1029.267	-0.53
1029.691	4.77
1030.115	3.92
1030.539	0.62
1030.962	0.17
1031.386	4.32
1031.81	-1.53
1032.233	-0.58
1032.657	-3.88
1033.08	1.97
1033.504	0.92
1033.927	-2.08
1034.351	-0.13
1034.774	-2.58
1035.198	-1.98
1035.621	-1.98
1036.045	1.47
1036.468	6.42
1036.891	3.37
1037.315	1.07
1037.738	1.42
1038.161	2.67
1038.584	-1.73
1039.008	2.02
1039.431	-4.33
1039.854	-2.68
1040.277	3.17
1040.7	-3.03
1041.123	2.12
1041.546	-1.53
1041.969	5.07
1042.392	1.72
1042.815	-8.43
1043.238	-2.13
1043.661	-2.13
1044.084	0.12
1044.507	3.17
1044.93	5.27
1045.352	-1.13
1045.775	3.12
1046.198	2.27
1046.621	3.82
1047.043	-1.08
1047.466	2.02
1047.889	-2.08
1048.311	2.57
1048.734	0.52
1049.156	1.72
1049.579	-0.58
1050.001	-2.98
1050.424	1.67
1050.846	-2.08
1051.269	0.07
1051.691	-1.43
1052.113	0.67
1052.536	0.32
1052.958	-9.18
1053.38	0.82
1053.802	2.67
1054.225	1.52
1054.647	6.82
1055.069	1.17
1055.491	-0.28
1055.913	2.17
1056.335	-6.38
1056.757	0.37
1057.179	-0.18
1057.601	-1.18
1058.023	3.27
1058.445	-3.83
1058.867	3.02
1059.289	0.62
1059.711	-2.38
1060.133	2.52
1060.555	-0.58
1060.976	1.67
1061.398	-0.08
1061.82	3.67
1062.241	0.07
1062.663	1.77
1063.085	-0.93
1063.506	-5.83
1063.928	-5.83
1064.35	-1.83
1064.771	1.42
1065.193	-1.63
1065.614	-1.78
1066.035	6.62
1066.457	5.92
1066.878	5.02
1067.3	0.87
1067.721	5.62
1068.142	4.87
1068.564	-0.68
1068.985	-1.98
1069.406	-3.93
1069.827	1.92
1070.248	0.27
1070.67	-1.03
1071.091	-4.63
1071.512	-3.03
1071.933	-4.43
1072.354	-3.23
1072.775	-0.68
1073.196	2.02
1073.617	-3.23
1074.038	-2.93
1074.459	-4.58
1074.88	-0.68
1075.3	-1.48
1075.721	-0.93
1076.142	-2.98
1076.563	-5.23
1076.983	2.17
1077.404	-5.33
1077.825	2.32
1078.246	-3.88
1078.666	-3.88
1079.087	-2.28
1079.507	-2.78
1079.928	-1.13
1080.348	-2.18
1080.769	1.97
1081.189	-1.68
1081.61	-8.08
1082.03	2.12
1082.451	0.92
1082.871	-5.93
1083.291	-3.68
1083.711	1.07
1084.132	-0.93
1084.552	-2.28
1084.972	-5.88
1085.392	-3.63
1085.813	3.17
1086.233	-1.08
1086.653	-1.28
1087.073	-3.33
1087.493	-4.58
1087.913	-1.93
1088.333	-1.93
1088.753	-3.93
1089.173	2.42
1089.593	4.32
1090.013	-2.83
1090.433	-4.08
1090.852	0.87
1091.272	-2.98
1091.692	1.77
1092.112	-1.53
1092.531	-3.38
1092.951	1.17
1093.371	0.17
1093.79	-1.28
1094.21	-3.88
1094.63	-0.23
1095.049	-3.38
1095.469	-7.93
1095.888	0.22
1096.308	2.67
1096.727	-0.58
1097.146	-2.68
1097.566	0.52
1097.985	-2.58
1098.405	-0.28
1098.824	-1.23
1099.243	-0.53
1099.662	-5.33
1100.082	-3.43
1100.501	-1.63
1100.92	5.97
1101.339	3.57
1101.758	4.37
