Data from MSPlasma+Separation6_Subt14_10-14-07-108.txt Node
Date: Fri Jul 21 10:14:07 EDT 2017
User: Ender
Spectrometer: HR+D1039
Trigger mode: 0
Integration Time (sec): 6.430000E-3
Scans to average: 20
Electric dark correction enabled: true
Nonlinearity correction enabled: false
Boxcar width: 0
XAxis mode: Wavelengths
Number of Pixels in Spectrum: 2048
>>>>>Begin Spectral Data<<<<<
187.836	-3.72
188.309	-3.72
188.782	-3.72
189.255	0.33
189.728	1.73
190.201	-0.87
190.674	-1.82
191.147	-1.72
191.619	3.53
192.092	3.73
192.565	-4.12
193.038	4.78
193.511	2.68
193.984	-2.77
194.456	2.53
194.929	-2.27
195.402	-1.77
195.874	-0.17
196.347	2.83
196.82	1.83
197.292	-1.12
197.765	-1.17
198.237	-1.47
198.71	-1.72
199.182	0.43
199.655	4.63
200.127	0.68
200.6	2.98
201.072	4.08
201.544	1.58
202.017	1.18
202.489	0.98
202.961	-2.12
203.433	-0.02
203.906	3.33
204.378	1.03
204.85	1.78
205.322	0.23
205.794	-1.17
206.266	-4.87
206.739	2.53
207.211	0.83
207.683	-0.72
208.155	3.93
208.627	2.33
209.099	1.33
209.57	0.63
210.042	3.78
210.514	1.58
210.986	1.58
211.458	0.68
211.93	3.73
212.402	3.83
212.873	1.48
213.345	0.63
213.817	0.88
214.288	-3.47
214.76	-0.22
215.232	-2.87
215.703	-1.17
216.175	1.83
216.646	3.38
217.118	5.53
217.589	0.63
218.061	3.53
218.532	2.03
219.004	9.43
219.475	3.48
219.946	4.48
220.418	4.23
220.889	6.28
221.36	6.98
221.832	6.83
222.303	4.43
222.774	4.23
223.245	1.53
223.717	0.43
224.188	4.03
224.659	4.58
225.13	-1.17
225.601	2.23
226.072	5.78
226.543	7.93
227.014	3.33
227.485	10.88
227.956	7.03
228.427	16.28
228.898	9.18
229.369	7.68
229.839	7.73
230.31	12.83
230.781	9.08
231.252	11.98
231.722	9.13
232.193	10.18
232.664	9.48
233.135	5.28
233.605	10.93
234.076	15.13
234.546	7.73
235.017	14.93
235.487	14.33
235.958	13.43
236.428	16.13
236.899	10.58
237.369	18.58
237.84	17.88
238.31	12.83
238.78	13.68
239.251	15.03
239.721	19.03
240.191	15.53
240.662	20.38
241.132	17.03
241.602	21.23
242.072	18.43
242.542	18.13
243.013	18.93
243.483	24.48
243.953	16.28
244.423	25.83
244.893	17.93
245.363	26.38
245.833	21.43
246.303	24.53
246.773	27.78
247.243	26.63
247.712	23.08
248.182	24.08
248.652	28.98
249.122	25.48
249.592	29.43
250.061	23.83
250.531	27.58
251.001	25.13
251.471	30.18
251.94	29.53
252.41	32.03
252.879	33.48
253.349	29.98
253.818	30.18
254.288	37.43
254.757	36.38
255.227	36.68
255.696	35.93
256.166	39.08
256.635	35.98
257.105	39.23
257.574	39.28
258.043	35.83
258.513	37.98
258.982	36.83
259.451	44.63
259.92	38.48
260.389	41.93
260.859	37.03
261.328	42.13
261.797	35.43
262.266	44.18
262.735	46.88
263.204	38.98
263.673	48.98
264.142	43.43
264.611	44.98
265.08	43.78
265.549	43.08
266.018	43.53
266.487	54.78
266.955	45.68
267.424	51.08
267.893	54.63
268.362	51.73
268.83	48.58
269.299	54.53
269.768	53.23
270.236	57.08
270.705	59.18
271.174	53.73
271.642	54.13
272.111	59.28
272.579	59.18
273.048	56.83
273.516	57.28
273.985	62.18
274.453	58.03
274.922	56.53
275.39	62.08
275.858	63.08
276.327	66.28
276.795	63.83
277.263	65.63
277.731	66.63
278.2	68.98
278.668	66.03
279.136	71.03
279.604	69.18
280.072	66.88
280.54	72.23
281.008	78.23
281.477	74.93
281.945	73.23
282.413	73.83
282.881	75.58
283.348	75.33
283.816	71.03
284.284	76.83
284.752	82.88
285.22	78.88
285.688	80.83
286.156	78.83
286.623	80.03
287.091	79.38
287.559	84.78
288.026	85.43
288.494	87.88
288.962	89.43
289.429	86.33
289.897	88.48
290.364	85.93
290.832	90.28
291.3	90.53
291.767	82.73
292.234	94.88
292.702	93.33
293.169	93.08
293.637	94.08
294.104	97.63
294.571	91.78
295.039	100.18
295.506	89.13
295.973	95.88
296.44	93.63
296.908	100.23
297.375	101.83
297.842	105.48
298.309	100.93
298.776	107.63
299.243	102.48
299.71	110.18
300.177	106.78
300.644	107.13
301.111	104.13
301.578	113.88
302.045	109.83
302.512	111.48
302.979	116.98
303.446	118.78
303.913	114.18
304.379	122.18
304.846	121.88
305.313	124.88
305.78	130.98
306.246	130.13
306.713	131.48
307.18	134.53
307.646	135.58
308.113	134.43
308.579	137.68
309.046	142.38
309.512	141.28
309.979	145.28
310.445	141.78
310.912	143.78
311.378	150.38
311.845	146.68
312.311	144.33
312.777	146.18
313.244	157.78
313.71	151.03
314.176	155.58
314.642	155.08
315.109	161.78
315.575	152.73
316.041	162.38
316.507	157.98
316.973	168.88
317.439	169.73
317.905	166.48
318.371	166.63
318.837	163.63
319.303	167.28
319.769	169.73
320.235	173.28
320.701	178.73
321.167	173.03
321.633	178.38
322.099	171.58
322.564	178.38
323.03	174.18
323.496	183.28
323.962	178.63
324.427	185.98
324.893	182.63
325.359	184.38
325.824	191.03
326.29	190.43
326.755	189.23
327.221	189.58
327.686	200.43
328.152	201.88
328.617	210.63
329.083	207.38
329.548	207.58
330.014	209.63
330.479	213.08
330.944	208.83
331.41	222.43
331.875	207.93
332.34	208.78
332.805	208.63
333.271	209.73
333.736	216.63
334.201	218.18
334.666	236.13
335.131	234.33
335.596	229.53
336.061	230.18
336.526	226.13
336.991	223.38
337.456	225.43
337.921	217.23
338.386	221.43
338.851	225.68
339.316	223.23
339.781	221.23
340.246	228.43
340.711	225.13
341.175	236.53
341.64	242.08
342.105	246.98
342.569	252.28
343.034	246.48
343.499	253.53
343.963	258.43
344.428	258.08
344.893	258.78
345.357	264.73
345.822	268.08
346.286	267.13
346.751	274.03
347.215	277.83
347.679	292.38
348.144	306.13
348.608	300.48
349.073	307.63
349.537	307.73
350.001	317.08
350.465	314.33
350.93	319.23
351.394	320.63
351.858	317.38
352.322	324.38
352.786	321.18
353.25	328.98
353.715	328.13
354.179	344.48
354.643	355.18
355.107	357.18
355.571	352.13
356.035	346.78
356.498	347.28
356.962	347.73
357.426	347.93
357.89	344.83
358.354	341.48
358.818	338.43
359.281	341.33
359.745	347.78
360.209	348.68
360.673	343.08
361.136	346.18
361.6	350.53
362.064	356.63
362.527	364.53
362.991	360.98
363.454	360.08
363.918	364.48
364.381	368.63
364.845	368.18
365.308	367.53
365.772	373.33
366.235	370.18
366.698	367.48
367.162	370.43
367.625	381.58
368.088	391.08
368.552	380.28
369.015	381.53
369.478	385.43
369.941	391.18
370.404	392.93
370.867	392.03
371.331	399.43
371.794	407.48
372.257	403.58
372.72	402.68
373.183	406.08
373.646	411.18
374.109	405.93
374.572	401.18
375.035	411.28
375.497	415.58
375.96	426.93
376.423	432.73
376.886	437.88
377.349	442.33
377.811	441.18
378.274	448.43
378.737	441.28
379.199	448.73
379.662	451.93
380.125	456.98
380.587	460.98
381.05	462.33
381.512	476.83
381.975	479.68
382.437	492.98
382.9	486.58
383.362	491.73
383.825	495.03
384.287	503.08
384.75	491.03
385.212	498.23
385.674	498.78
386.136	506.23
386.599	505.48
387.061	498.08
387.523	510.18
387.985	511.73
388.447	510.83
388.91	515.13
389.372	517.73
389.834	520.48
390.296	511.93
390.758	522.28
391.22	518.73
391.682	532.13
392.144	520.23
392.606	522.53
393.068	542.43
393.529	568.73
393.991	574.08
394.453	549.63
394.915	533.83
395.377	529.68
395.838	531.33
396.3	527.88
396.762	545.43
397.224	533.98
397.685	538.08
398.147	552.18
398.608	544.68
399.07	561.53
399.531	554.63
399.993	570.53
400.454	583.98
400.916	574.53
401.377	589.38
401.839	597.13
402.3	602.63
402.762	622.73
403.223	656.48
403.684	655.98
404.145	635.68
404.607	629.93
405.068	616.48
405.529	629.23
405.99	634.98
406.451	641.68
406.913	633.18
407.374	638.83
407.835	633.33
408.296	650.93
408.757	647.78
409.218	674.23
409.679	678.93
410.14	680.23
410.601	694.78
411.062	701.78
411.522	702.58
411.983	699.78
412.444	713.43
412.905	722.53
413.366	754.03
413.826	780.88
414.287	880.83
414.748	1042.08
415.208	1063.13
415.669	892.78
416.13	807.93
416.59	788.58
417.051	825.38
417.511	866.48
417.972	925.78
418.432	999.98
418.893	1096.58
419.353	1059.83
419.814	819.78
420.274	731.68
420.734	727.48
421.195	738.83
421.655	735.78
422.115	754.08
422.576	743.73
423.036	757.48
423.496	779.18
423.956	811.28
424.416	864.98
424.876	973.18
425.336	964.53
425.797	949.43
426.257	945.88
426.717	892.68
427.177	828.73
427.637	831.38
428.097	871.58
428.556	897.18
429.016	960.23
429.476	963.52
429.936	942.48
430.396	937.13
430.856	963.88
431.315	980.92
431.775	1046.48
432.235	1134.63
432.694	1150.58
433.154	1079.23
433.614	1059.38
434.073	1029.03
434.533	929.73
434.993	888.73
435.452	900.88
435.912	875.73
436.371	876.13
436.83	864.58
437.29	854.68
437.749	827.68
438.209	826.83
438.668	839.63
439.127	848.68
439.587	837.18
440.046	813.08
440.505	831.03
440.964	835.13
441.424	876.03
441.883	889.93
442.342	840.98
442.801	795.28
443.26	810.28
443.719	804.78
444.178	799.43
444.637	816.08
445.096	820.43
445.555	817.03
446.014	823.23
446.473	815.83
446.932	816.33
447.391	827.93
447.849	849.63
448.308	823.78
448.767	834.18
449.226	849.43
449.685	865.68
450.143	896.43
450.602	896.13
451.061	851.38
451.519	854.98
451.978	839.43
452.436	833.53
452.895	846.78
453.353	837.23
453.812	833.13
454.27	832.53
454.729	838.33
455.187	847.88
455.646	844.33
456.104	852.38
456.562	860.18
457.021	874.08
457.479	836.78
457.937	862.38
458.395	896.53
458.854	877.53
459.312	863.68
459.77	875.28
460.228	876.98
460.686	890.48
461.144	904.78
461.602	890.38
462.06	889.18
462.518	907.18
462.976	907.83
463.434	926.03
463.892	924.38
464.35	948.28
464.808	959.58
465.266	969.58
465.724	989.63
466.181	982.33
466.639	984.27
467.097	1020.18
467.555	1057.62
468.012	1047.53
468.47	1060.58
468.928	1103.22
469.385	1117.18
469.843	1140.78
470.3	1131.83
470.758	1163.12
471.215	1183.88
471.673	1211.23
472.13	1238.58
472.588	1267.78
473.045	1258.42
473.503	1275.88
473.96	1332.53
474.417	1349.33
474.875	1408.98
475.332	1442.88
475.789	1473.63
476.246	1518.03
476.704	1570.83
477.161	1619.47
477.618	1667.43
478.075	1759.58
478.532	1886.68
478.989	2020.88
479.446	2211.32
479.903	2315.08
480.36	2502.07
480.817	2646.93
481.274	2808.53
481.731	3055.68
482.188	3271.68
482.645	3530.22
483.102	3720.28
483.558	3939.18
484.015	4123.58
484.472	4095.03
484.929	3971.18
485.385	3811.63
485.842	3757.13
486.299	3614.22
486.755	3350.02
487.212	3034.03
487.668	2732.88
488.125	2562.57
488.582	2378.93
489.038	2299.18
489.494	2231.33
489.951	2174.78
490.407	2116.82
490.864	2074.23
491.32	2028.47
491.776	2017.62
492.233	2026.12
492.689	1996.17
493.145	1959.33
493.602	1934.43
494.058	1948.97
494.514	1964.83
494.97	1957.33
495.426	1993.17
495.882	1980.63
496.338	1979.33
496.794	2002.42
497.251	1981.12
497.707	2012.88
498.163	2021.42
498.618	2009.78
499.074	2007.93
499.53	2039.28
499.986	2036.57
500.442	2024.47
500.898	2008.62
501.354	2018.18
501.809	2019.23
502.265	2027.67
502.721	2040.78
503.177	2048.78
503.632	2046.68
504.088	2065.18
504.543	2082.68
504.999	2100.78
505.455	2091.33
505.91	2072.97
506.366	2086.43
506.821	2084.98
507.277	2074.08
507.732	2082.97
508.187	2086.98
508.643	2101.18
509.098	2089.18
509.553	2137.62
510.009	2162.18
510.464	2186.78
510.919	2199.57
511.375	2219.98
511.83	2250.03
512.285	2292.27
512.74	2320.73
513.195	2358.33
513.65	2389.82
514.105	2430.07
514.56	2421.73
515.015	2473.43
515.47	2482.03
515.925	2468.08
516.38	2468.53
516.835	2467.58
517.29	2442.43
517.745	2451.68
518.2	2423.93
518.655	2369.03
519.109	2342.93
519.564	2309.12
520.019	2289.53
520.474	2277.12
520.928	2256.57
521.383	2246.22
521.838	2232.12
522.292	2232.62
522.747	2196.73
523.201	2188.47
523.656	2167.32
524.11	2159.33
524.565	2154.62
525.019	2160.43
525.474	2175.12
525.928	2155.47
526.382	2156.62
526.837	2146.23
527.291	2174.93
527.745	2152.98
528.2	2139.68
528.654	2119.02
529.108	2129.08
529.562	2128.38
530.016	2117.93
530.47	2133.48
530.925	2129.12
531.379	2128.78
531.833	2154.07
532.287	2152.18
532.741	2137.93
533.195	2144.88
533.649	2146.33
534.103	2146.38
534.556	2129.43
535.01	2144.47
535.464	2134.83
535.918	2138.12
536.372	2145.73
536.826	2134.93
537.279	2125.62
537.733	2136.07
538.187	2137.12
538.64	2134.22
539.094	2155.47
539.548	2177.48
540.001	2170.32
540.455	2191.33
540.908	2194.48
541.362	2221.18
541.815	2232.12
542.269	2278.97
542.722	2262.43
543.175	2286.33
543.629	2299.43
544.082	2321.28
544.536	2329.58
544.989	2349.48
545.442	2376.27
545.895	2365.03
546.349	2359.93
546.802	2361.57
547.255	2369.43
547.708	2382.93
548.161	2396.52
548.614	2395.62
549.067	2417.72
549.52	2403.12
549.973	2383.62
550.426	2379.18
550.879	2353.07
551.332	2358.73
551.785	2375.43
552.238	2403.83
552.691	2411.88
553.144	2430.28
553.596	2486.47
554.049	2503.72
554.502	2556.98
554.955	2588.83
555.407	2618.07
555.86	2598.22
556.313	2574.68
556.765	2537.18
557.218	2511.53
557.67	2522.83
558.123	2482.78
558.576	2474.53
559.028	2463.28
559.48	2496.48
559.933	2485.53
560.385	2393.93
560.838	2328.78
561.29	2265.33
561.742	2252.78
562.195	2191.08
562.647	2183.52
563.099	2174.28
563.551	2156.07
564.004	2174.68
564.456	2167.57
564.908	2113.57
565.36	2068.38
565.812	2035.03
566.264	2023.47
566.716	1992.08
567.168	1962.68
567.62	1952.97
568.072	1935.33
568.524	1942.27
568.976	1927.72
569.428	1904.32
569.88	1899.03
570.332	1909.08
570.784	1908.48
571.235	1910.28
571.687	1926.93
572.139	1931.48
572.59	1946.38
573.042	1958.63
573.494	1968.97
573.945	1935.13
574.397	1886.33
574.849	1884.13
575.3	1894.77
575.752	1854.18
576.203	1839.28
576.655	1853.83
577.106	1826.58
577.557	1821.48
578.009	1803.62
578.46	1808.18
578.912	1788.83
579.363	1810.17
579.814	1799.82
580.265	1804.23
580.717	1812.48
581.168	1794.03
581.619	1813.43
582.07	1829.53
582.521	1814.13
582.972	1808.12
583.423	1808.27
583.875	1815.02
584.326	1837.22
584.777	1869.08
585.227	1883.83
585.678	1922.98
586.129	1932.18
586.58	1956.58
587.031	1983.63
587.482	2032.48
587.933	2054.18
588.384	2051.72
588.834	2039.53
589.285	2023.47
589.736	2014.08
590.186	2026.28
590.637	2000.97
591.088	1965.38
591.538	1935.67
591.989	1903.58
592.439	1878.18
592.89	1861.47
593.34	1851.72
593.791	1847.77
594.241	1826.73
594.692	1829.53
595.142	1823.28
595.593	1819.33
596.043	1828.42
596.493	1852.18
596.943	1848.88
597.394	1900.33
597.844	1923.43
598.294	1970.67
598.744	2020.42
599.195	2112.88
599.645	2231.98
600.095	2344.78
600.545	2453.68
600.995	2550.03
601.445	2642.12
601.895	2775.82
602.345	2855.83
602.795	2826.83
603.245	2715.53
603.695	2560.93
604.145	2438.23
604.594	2319.68
605.044	2190.77
605.494	2062.28
605.944	1953.18
606.393	1911.38
606.843	1872.18
607.293	1870.92
607.743	1857.72
608.192	1862.92
608.642	1866.68
609.091	1857.93
609.541	1854.98
609.99	1858.78
610.44	1825.08
610.889	1805.48
611.339	1774.78
611.788	1748.33
612.238	1776.23
612.687	1764.63
613.136	1781.93
613.586	1794.88
614.035	1787.12
614.484	1806.73
614.933	1806.33
615.383	1782.83
615.832	1719.93
616.281	1707.93
616.73	1666.03
617.179	1641.82
617.628	1601.22
618.077	1576.93
618.526	1550.42
618.975	1544.27
619.424	1511.28
619.873	1526.22
620.322	1513.08
620.771	1502.88
621.22	1477.27
621.669	1436.42
622.118	1444.58
622.567	1423.12
623.015	1403.93
623.464	1395.13
623.913	1388.83
624.361	1391.28
624.81	1372.33
625.259	1380.08
625.707	1362.08
626.156	1391.27
626.604	1407.73
627.053	1400.93
627.501	1400.38
627.95	1405.17
628.398	1423.78
628.847	1406.22
629.295	1407.73
629.744	1394.53
630.192	1365.72
630.64	1354.88
631.089	1332.03
631.537	1295.98
631.985	1278.08
632.433	1285.77
632.881	1275.63
633.33	1276.82
633.778	1273.53
634.226	1289.72
634.674	1308.02
635.122	1306.53
635.57	1324.08
636.018	1345.83
636.466	1343.47
636.914	1341.02
637.362	1369.33
637.81	1391.53
638.258	1436.22
638.705	1446.53
639.153	1495.78
639.601	1509.47
640.049	1531.48
640.497	1581.18
640.944	1611.63
641.392	1549.93
641.84	1466.88
642.287	1406.68
642.735	1375.38
643.182	1357.92
643.63	1365.92
644.078	1366.73
644.525	1377.52
644.973	1416.53
645.42	1451.73
645.867	1475.73
646.315	1509.98
646.762	1561.18
647.21	1611.03
647.657	1686.92
648.104	1749.93
648.551	1778.88
648.999	1916.42
649.446	2089.12
649.893	2322.53
650.34	2704.07
650.787	3312.33
651.234	4225.12
651.682	5787.38
652.129	8074.43
652.576	11421.62
653.023	14961.77
653.47	15535.33
653.917	15535.38
654.363	15535.28
654.81	15532.28
655.257	15532.93
655.704	14835.52
656.151	9048.23
656.598	5991.07
657.044	4295.98
657.491	3364.18
657.938	2753.57
658.385	2340.93
658.831	2090.47
659.278	1874.28
659.724	1717.73
660.171	1612.13
660.618	1500.78
661.064	1424.28
661.511	1381.58
661.957	1334.43
662.404	1311.97
662.85	1297.47
663.296	1279.62
663.743	1249.53
664.189	1229.93
664.635	1221.53
665.082	1202.12
665.528	1190.33
665.974	1157.93
666.42	1128.53
666.867	1126.73
667.313	1072.97
667.759	1059.98
668.205	1051.08
668.651	1067.58
669.097	1051.18
669.543	1060.78
669.989	1069.12
670.435	1066.13
670.881	1079.63
671.327	1127.12
671.773	1205.78
672.219	1282.78
672.665	1370.03
673.11	1418.28
673.556	1431.03
674.002	1470.08
674.448	1487.28
674.893	1278.77
675.339	1109.73
675.785	1024.93
676.23	969.03
676.676	936.33
677.122	912.28
677.567	895.03
678.013	862.28
678.458	860.38
678.904	848.08
679.349	832.98
679.794	833.53
680.24	830.43
680.685	823.88
681.131	825.33
681.576	824.48
682.021	832.88
682.466	841.98
682.912	853.83
683.357	890.53
683.802	970.73
684.247	1053.17
684.692	1120.12
685.137	1162.98
685.583	1190.03
686.028	1258.57
686.473	1195.63
686.918	1029.03
687.363	947.43
687.807	893.88
688.252	855.38
688.697	831.38
689.142	803.48
689.587	804.68
690.032	822.38
690.477	856.03
690.921	896.53
691.366	936.63
691.811	982.18
692.255	1052.63
692.7	1280.58
693.145	1838.12
693.589	2788.33
694.034	3322.22
694.478	3553.97
694.923	3263.48
695.367	4660.68
695.812	2857.88
696.256	1209.12
696.701	883.13
697.145	812.63
697.59	784.08
698.034	768.53
698.478	766.13
698.922	776.78
699.367	790.18
699.811	826.78
700.255	891.48
700.699	974.58
701.143	1056.23
701.588	1118.28
702.032	1170.53
702.476	1210.38
702.92	1292.28
703.364	1678.92
703.808	2553.62
704.252	3189.03
704.696	3382.72
705.14	3193.38
705.584	4400.33
706.027	2467.33
706.471	1238.03
706.915	923.48
707.359	817.18
707.803	764.03
708.246	742.08
708.69	729.73
709.134	724.03
709.577	718.88
710.021	725.88
710.465	721.93
710.908	720.48
711.352	755.38
711.795	832.73
712.239	886.18
712.682	911.08
713.126	900.08
713.569	996.18
714.012	819.73
714.456	717.68
714.899	679.83
715.342	641.43
715.786	626.58
716.229	611.68
716.672	596.73
717.115	590.98
717.558	597.03
718.002	613.63
718.445	639.53
718.888	668.38
719.331	689.23
719.774	701.33
720.217	691.03
720.66	659.78
721.103	621.23
721.546	586.63
721.989	569.63
722.432	572.08
722.874	560.33
723.317	565.73
723.76	622.63
724.203	751.88
724.645	1003.77
725.088	1189.73
725.531	1170.18
725.974	1288.03
726.416	1151.38
726.859	719.13
727.301	590.93
727.744	552.68
728.187	554.23
728.629	571.23
729.071	597.73
729.514	626.98
729.956	648.98
730.399	659.03
730.841	665.28
731.283	654.78
731.726	630.83
732.168	642.48
732.61	673.68
733.053	724.23
733.495	788.43
733.937	893.48
734.379	1048.78
734.821	1324.93
735.263	2108.47
735.705	3759.97
736.148	5572.18
736.59	5606.83
737.032	6106.03
737.474	5065.13
737.916	1944.92
738.357	1016.43
738.799	784.48
739.241	725.63
739.683	732.03
740.125	756.53
740.567	762.03
741.008	818.53
741.45	864.43
741.892	886.03
742.334	899.83
742.775	897.83
743.217	868.18
743.658	733.43
744.1	760.38
744.542	865.88
744.983	910.48
745.425	944.83
745.866	923.63
746.307	758.38
746.749	786.53
747.19	1144.12
747.632	2216.73
748.073	4121.03
748.514	5708.88
748.956	7567.68
749.397	8912.23
749.838	6206.53
750.279	5900.38
750.72	3056.12
751.162	1290.58
751.603	742.53
752.044	605.53
752.485	527.48
752.926	500.73
753.367	472.58
753.808	466.13
754.249	458.98
754.69	448.58
755.131	442.23
755.572	446.03
756.013	445.63
756.453	449.58
756.894	451.48
757.335	453.98
757.776	460.78
758.216	470.33
758.657	498.78
759.098	550.88
759.538	676.33
759.979	969.08
760.42	1942.72
760.86	4959.88
761.301	10286.08
761.741	12214.48
762.182	14040.03
762.622	9161.03
763.063	3261.12
763.503	1337.43
763.943	786.83
764.384	620.28
764.824	537.78
765.264	491.58
765.705	466.38
766.145	440.23
766.585	434.88
767.025	409.53
767.465	417.43
767.906	421.28
768.346	455.98
768.786	519.93
769.226	755.18
769.666	1518.72
770.106	3403.03
770.546	4925.43
770.986	5595.53
771.426	4244.58
771.866	1760.78
772.306	793.48
772.745	500.28
773.185	417.83
773.625	404.98
774.065	445.73
774.505	631.58
774.944	1140.92
775.384	1661.53
775.824	1873.63
776.263	1554.63
776.703	810.18
777.142	459.33
777.582	344.48
778.021	316.83
778.461	300.08
778.9	302.13
779.34	288.88
779.779	280.83
780.219	278.18
780.658	268.18
781.097	270.13
781.537	263.88
781.976	258.43
782.415	251.93
782.855	259.23
783.294	261.03
783.733	250.48
784.172	260.58
784.611	262.23
785.05	269.73
785.489	271.78
785.928	275.18
786.367	289.33
786.806	299.18
787.245	325.73
787.684	336.88
788.123	338.98
788.562	324.08
789.001	307.48
789.44	298.93
789.879	298.23
790.317	309.43
790.756	327.18
791.195	366.83
791.634	495.18
792.072	882.93
792.511	2158.07
792.95	4006.33
793.388	4914.03
793.827	3203.07
794.265	1449.43
794.704	701.28
795.142	432.18
795.581	350.68
796.019	326.33
796.458	322.38
796.896	330.73
797.334	380.23
797.773	508.58
798.211	962.68
798.649	1996.28
799.087	3394.38
799.526	4794.62
799.964	4950.98
800.402	3421.62
800.84	1544.62
801.278	753.13
801.716	459.28
802.154	375.83
802.592	353.13
803.03	352.13
803.468	360.73
803.906	354.33
804.344	352.68
804.782	342.83
805.22	346.38
805.658	361.98
806.096	386.08
806.533	429.78
806.971	552.48
807.409	802.38
807.847	1587.57
808.284	4027.13
808.722	7070.48
809.16	9957.83
809.597	13368.98
810.035	15537.28
810.472	11003.88
810.91	4647.53
811.347	2076.98
811.785	988.48
812.222	623.43
812.66	474.73
813.097	409.23
813.535	349.73
813.972	318.38
814.409	298.33
814.846	280.13
815.284	267.68
815.721	274.33
816.158	299.58
816.595	416.83
817.032	533.83
817.47	481.43
817.907	352.53
818.344	297.18
818.781	302.93
819.218	370.18
819.655	567.18
820.092	745.73
820.529	667.48
820.966	526.53
821.403	354.78
821.839	297.08
822.276	335.43
822.713	404.08
823.15	375.33
823.587	382.88
824.023	662.63
824.46	1642.58
824.897	2904.22
825.333	2291.78
825.77	1040.53
826.206	539.58
826.643	318.03
827.08	241.23
827.516	208.23
827.953	193.58
828.389	189.83
828.825	176.83
829.262	172.83
829.698	163.53
830.135	154.43
830.571	151.33
831.007	159.13
831.443	155.98
831.88	157.78
832.316	168.78
832.752	164.33
833.188	168.13
833.624	169.58
834.06	174.73
834.497	171.58
834.933	182.53
835.369	186.43
835.805	196.68
836.241	209.28
836.677	232.18
837.112	269.08
837.548	329.78
837.984	485.03
838.42	1045.33
838.856	2907.88
839.292	5778.73
839.727	4337.68
840.163	2871.03
840.599	4340.68
841.034	6695.88
841.47	3380.73
841.906	1611.38
842.341	869.28
842.777	647.68
843.212	681.48
843.648	423.18
844.083	284.58
844.519	216.48
844.954	179.93
845.39	159.88
845.825	153.78
846.261	147.98
846.696	143.73
847.131	136.98
847.566	138.63
848.002	141.93
848.437	149.83
848.872	153.43
849.307	203.33
849.742	363.78
850.177	940.28
850.613	2020.48
851.048	1471.72
851.483	667.68
851.918	374.73
852.353	205.73
852.788	151.98
853.223	132.83
853.657	119.03
854.092	117.28
854.527	116.53
854.962	124.78
855.397	144.98
855.832	120.83
856.266	109.73
856.701	109.78
857.136	110.48
857.57	137.68
858.005	168.73
858.44	142.03
858.874	126.98
859.309	130.48
859.743	126.08
860.178	128.48
860.612	141.48
861.047	190.08
861.481	272.48
861.915	189.63
862.35	141.58
862.784	113.23
863.218	104.08
863.653	110.73
864.087	137.83
864.521	170.13
864.955	274.83
865.39	480.53
865.824	369.73
866.258	494.08
866.692	757.63
867.126	552.23
867.56	291.98
867.994	179.58
868.428	155.58
868.862	200.68
869.296	181.58
869.73	218.23
870.164	186.58
870.598	172.83
871.031	117.28
871.465	101.33
871.899	84.53
872.333	78.58
872.766	73.83
873.2	84.68
873.634	74.63
874.067	78.53
874.501	79.28
874.935	79.43
875.368	81.28
875.802	79.63
876.235	72.53
876.669	67.43
877.102	59.43
877.535	57.83
877.969	60.68
878.402	65.53
878.836	62.98
879.269	62.88
879.702	60.78
880.135	63.43
880.569	66.18
881.002	60.13
881.435	57.83
881.868	59.23
882.301	54.38
882.734	52.43
883.167	57.38
883.601	56.38
884.034	59.18
884.467	51.63
884.899	47.93
885.332	50.23
885.765	51.23
886.198	47.13
886.631	49.08
887.064	52.23
887.497	42.13
887.929	47.28
888.362	44.48
888.795	46.93
889.228	51.08
889.66	47.93
890.093	45.63
890.526	45.88
890.958	44.28
891.391	51.38
891.823	45.73
892.256	49.28
892.688	52.63
893.121	46.23
893.553	49.53
893.985	45.83
894.418	40.48
894.85	46.98
895.282	44.78
895.715	36.53
896.147	40.78
896.579	40.83
897.011	49.23
897.444	43.13
897.876	40.98
898.308	39.98
898.74	45.53
899.172	46.58
899.604	43.33
900.036	44.13
900.468	40.78
900.9	47.58
901.332	59.38
901.764	61.33
902.196	60.38
902.628	61.43
903.06	95.03
903.491	102.53
903.923	75.73
904.355	79.38
904.787	86.68
905.218	64.98
905.65	61.88
906.082	50.88
906.513	54.33
906.945	55.98
907.376	49.53
907.808	52.73
908.239	59.43
908.671	63.48
909.102	70.28
909.534	93.03
909.965	185.33
910.397	474.88
910.828	1359.13
911.259	837.38
911.691	452.93
912.122	262.88
912.553	134.73
912.984	76.18
913.415	65.88
913.847	56.08
914.278	55.43
914.709	44.88
915.14	48.43
915.571	49.78
916.002	46.18
916.433	45.48
916.864	40.03
917.295	46.23
917.726	51.43
918.157	69.78
918.587	68.18
919.018	62.48
919.449	60.18
919.88	74.73
920.311	105.43
920.741	274.23
921.172	498.98
921.603	254.18
922.033	161.18
922.464	105.88
922.895	65.63
923.325	49.53
923.756	44.68
924.186	55.58
924.617	80.08
925.047	118.43
925.478	100.63
925.908	75.48
926.338	59.53
926.769	45.58
927.199	40.38
927.629	41.33
928.06	43.93
928.49	39.73
928.92	34.08
929.35	33.18
929.78	27.13
930.21	24.98
930.641	22.78
931.071	28.13
931.501	20.73
931.931	25.53
932.361	26.43
932.791	26.53
933.221	31.78
933.651	39.38
934.08	66.33
934.51	40.08
934.94	35.73
935.37	30.43
935.8	25.68
936.229	17.33
936.659	27.23
937.089	43.18
937.519	61.23
937.948	85.28
938.378	47.18
938.807	33.83
939.237	19.38
939.666	18.58
940.096	16.48
940.525	12.58
940.955	12.93
941.384	9.33
941.814	10.18
942.243	11.48
942.672	5.18
943.102	10.08
943.531	8.83
943.96	11.38
944.39	10.03
944.819	14.08
945.248	11.63
945.677	8.13
946.106	11.98
946.535	10.53
946.964	8.33
947.393	12.63
947.822	12.38
948.251	14.03
948.68	15.33
949.109	12.58
949.538	7.18
949.967	10.53
950.396	12.03
950.825	8.63
951.254	10.03
951.682	2.38
952.111	7.78
952.54	9.33
952.969	4.68
953.397	2.58
953.826	5.43
954.254	11.58
954.683	8.53
955.112	8.78
955.54	8.48
955.969	2.43
956.397	7.38
956.826	6.43
957.254	6.23
957.682	2.08
958.111	10.53
958.539	12.53
958.967	10.58
959.396	10.78
959.824	7.53
960.252	6.23
960.68	4.38
961.109	12.73
961.537	14.88
961.965	7.73
962.393	5.03
962.821	8.88
963.249	7.03
963.677	15.38
964.105	82.43
964.533	151.83
964.961	75.88
965.389	43.38
965.817	21.73
966.245	12.23
966.672	11.18
967.1	9.58
967.528	6.98
967.956	8.98
968.383	8.38
968.811	4.48
969.239	9.03
969.666	6.78
970.094	7.88
970.522	5.93
970.949	5.23
971.377	-0.57
971.804	5.83
972.232	1.93
972.659	5.48
973.087	2.48
973.514	3.68
973.941	2.98
974.369	-0.42
974.796	4.48
975.223	0.38
975.651	6.63
976.078	9.38
976.505	15.33
976.932	29.08
977.359	42.98
977.786	26.08
978.214	21.53
978.641	10.38
979.068	9.53
979.495	7.53
979.922	7.08
980.349	6.13
980.776	6.58
981.202	6.68
981.629	6.18
982.056	7.23
982.483	-0.17
982.91	7.98
983.337	2.93
983.763	7.73
984.19	9.88
984.617	1.23
985.043	7.73
985.47	9.08
985.897	10.33
986.323	7.23
986.75	2.63
987.176	2.08
987.603	3.23
988.029	4.38
988.456	6.83
988.882	3.28
989.308	-0.62
989.735	0.53
990.161	4.03
990.587	0.48
991.014	5.03
991.44	6.88
991.866	6.43
992.292	2.23
992.719	5.73
993.145	2.33
993.571	1.88
993.997	8.48
994.423	6.28
994.849	-1.92
995.275	1.33
995.701	8.33
996.127	-3.72
996.553	5.18
996.979	0.33
997.405	4.63
997.83	0.73
998.256	2.23
998.682	3.23
999.108	-2.07
999.534	-1.87
999.959	-0.02
1000.385	3.53
1000.811	2.48
1001.236	-3.32
1001.662	0.98
1002.087	7.38
1002.513	4.73
1002.938	-2.02
1003.364	5.43
1003.789	3.18
1004.215	1.88
1004.64	1.58
1005.066	3.63
1005.491	8.73
1005.916	1.08
1006.342	0.38
1006.767	2.73
1007.192	5.83
1007.617	4.73
1008.042	4.83
1008.468	3.03
1008.893	7.58
1009.318	13.58
1009.743	16.18
1010.168	34.63
1010.593	26.03
1011.018	13.33
1011.443	12.18
1011.868	12.98
1012.293	9.73
1012.718	0.08
1013.143	2.98
1013.567	7.53
1013.992	3.98
1014.417	3.33
1014.842	3.18
1015.267	5.93
1015.691	2.43
1016.116	-1.92
1016.541	3.03
1016.965	2.33
1017.39	4.73
1017.814	-0.12
1018.239	-2.82
1018.663	-3.17
1019.088	-0.97
1019.512	5.48
1019.937	0.43
1020.361	5.28
1020.785	1.78
1021.21	-2.42
1021.634	3.28
1022.058	5.98
1022.483	0.03
1022.907	-3.22
1023.331	3.88
1023.755	-0.92
1024.179	0.08
1024.604	-2.82
1025.028	-1.77
1025.452	6.63
1025.876	5.23
1026.3	0.93
1026.724	-1.22
1027.148	2.18
1027.572	0.58
1027.996	1.78
1028.42	4.38
1028.843	0.78
1029.267	-0.32
1029.691	2.88
1030.115	1.23
1030.539	3.38
1030.962	3.03
1031.386	2.88
1031.81	-0.87
1032.233	-2.37
1032.657	-7.87
1033.08	1.48
1033.504	2.58
1033.927	4.43
1034.351	-2.02
1034.774	3.38
1035.198	-1.07
1035.621	-1.87
1036.045	-0.37
1036.468	3.73
1036.891	3.48
1037.315	6.93
1037.738	0.63
1038.161	2.43
1038.584	3.13
1039.008	-2.67
1039.431	-3.07
1039.854	-2.47
1040.277	3.08
1040.7	3.38
1041.123	-2.12
1041.546	0.88
1041.969	2.23
1042.392	4.93
1042.815	1.63
1043.238	0.28
1043.661	1.18
1044.084	-3.67
1044.507	0.58
1044.93	-3.52
1045.352	6.73
1045.775	4.98
1046.198	5.83
1046.621	5.83
1047.043	-0.32
1047.466	3.38
1047.889	2.68
1048.311	8.33
1048.734	-1.47
1049.156	1.43
1049.579	0.53
1050.001	-0.17
1050.424	-1.07
1050.846	-6.27
1051.269	-0.97
1051.691	1.08
1052.113	-2.32
1052.536	1.38
1052.958	-0.02
1053.38	-0.27
1053.802	0.68
1054.225	0.13
1054.647	-1.82
1055.069	-3.77
1055.491	0.33
1055.913	6.63
1056.335	-7.42
1056.757	-5.52
1057.179	-2.72
1057.601	-1.17
1058.023	5.08
1058.445	-4.47
1058.867	3.08
1059.289	0.48
1059.711	-2.07
1060.133	1.13
1060.555	-2.32
1060.976	1.78
1061.398	-0.67
1061.82	1.58
1062.241	-2.57
1062.663	-2.12
1063.085	-0.52
1063.506	-4.57
1063.928	-4.77
1064.35	0.93
1064.771	0.58
1065.193	-4.12
1065.614	-0.92
1066.035	-0.47
1066.457	6.18
1066.878	0.68
1067.3	1.43
1067.721	-0.02
1068.142	3.58
1068.564	2.13
1068.985	-3.67
1069.406	-5.22
1069.827	0.78
1070.248	-4.42
1070.67	-6.87
1071.091	-5.27
1071.512	-3.02
1071.933	-1.22
1072.354	-7.17
1072.775	4.18
1073.196	-0.27
1073.617	-5.87
1074.038	-0.92
1074.459	-5.12
1074.88	-4.27
1075.3	-0.12
1075.721	-0.92
1076.142	1.13
1076.563	-6.62
1076.983	1.63
1077.404	-6.12
1077.825	-2.67
1078.246	-5.37
1078.666	-2.02
1079.087	-2.32
1079.507	-4.97
1079.928	-0.27
1080.348	-5.22
1080.769	0.13
1081.189	-3.57
1081.61	-5.92
1082.03	0.08
1082.451	-3.82
1082.871	-1.47
1083.291	2.58
1083.711	-5.07
1084.132	-8.22
1084.552	-5.92
1084.972	-6.22
1085.392	-3.07
1085.813	-1.02
1086.233	-4.77
1086.653	-0.07
1087.073	-1.57
1087.493	-0.52
1087.913	-7.12
1088.333	0.63
1088.753	0.28
1089.173	0.78
1089.593	1.28
1090.013	-5.77
1090.433	-7.27
1090.852	1.18
1091.272	-1.57
1091.692	-5.77
1092.112	-1.07
1092.531	-4.07
1092.951	-0.27
1093.371	-0.47
1093.79	-2.57
1094.21	-4.02
1094.63	-1.97
1095.049	1.38
1095.469	-8.22
1095.888	1.13
1096.308	-4.77
1096.727	-5.17
1097.146	-4.02
1097.566	1.98
1097.985	-1.77
1098.405	-0.92
1098.824	-4.47
1099.243	-4.42
1099.662	-0.72
1100.082	-2.12
1100.501	-4.27
1100.92	5.68
1101.339	-0.87
1101.758	2.08
