Data from MSPlasma+Separation6_Subt14_10-14-25-810.txt Node
Date: Fri Jul 21 10:14:25 EDT 2017
User: Ender
Spectrometer: HR+D1039
Trigger mode: 0
Integration Time (sec): 6.430000E-3
Scans to average: 20
Electric dark correction enabled: true
Nonlinearity correction enabled: false
Boxcar width: 0
XAxis mode: Wavelengths
Number of Pixels in Spectrum: 2048
>>>>>Begin Spectral Data<<<<<
187.836	-0.59
188.309	-0.59
188.782	-0.59
189.255	2.36
189.728	1.21
190.201	0.16
190.674	-2.59
191.147	-1.69
191.619	1.06
192.092	-0.29
192.565	-0.54
193.038	4.11
193.511	0.61
193.984	1.41
194.456	-3.04
194.929	-2.59
195.402	-2.79
195.874	3.26
196.347	3.46
196.82	4.01
197.292	-0.54
197.765	1.91
198.237	-2.54
198.71	0.86
199.182	-1.99
199.655	4.26
200.127	1.91
200.6	1.96
201.072	5.26
201.544	-1.29
202.017	4.01
202.489	-0.29
202.961	0.86
203.433	-5.69
203.906	-1.24
204.378	2.01
204.85	0.31
205.322	-1.39
205.794	5.91
206.266	-2.84
206.739	6.16
207.211	1.71
207.683	0.86
208.155	3.41
208.627	1.96
209.099	5.26
209.57	5.11
210.042	2.21
210.514	2.71
210.986	-0.24
211.458	-2.04
211.93	4.61
212.402	4.36
212.873	1.61
213.345	-0.29
213.817	5.41
214.288	-3.74
214.76	3.01
215.232	-3.39
215.703	1.31
216.175	-0.19
216.646	6.06
217.118	4.16
217.589	-0.59
218.061	5.11
218.532	4.66
219.004	7.71
219.475	3.41
219.946	8.56
220.418	6.81
220.889	3.96
221.36	2.51
221.832	5.61
222.303	1.91
222.774	1.76
223.245	5.31
223.717	2.11
224.188	4.31
224.659	1.26
225.13	4.41
225.601	7.31
226.072	5.31
226.543	8.11
227.014	3.66
227.485	10.06
227.956	7.01
228.427	11.31
228.898	10.76
229.369	7.61
229.839	12.16
230.31	9.36
230.781	5.16
231.252	10.56
231.722	14.26
232.193	11.21
232.664	14.06
233.135	10.06
233.605	8.81
234.076	15.21
234.546	9.61
235.017	15.91
235.487	15.66
235.958	12.61
236.428	20.46
236.899	15.21
237.369	21.01
237.84	17.81
238.31	21.81
238.78	9.76
239.251	18.11
239.721	12.36
240.191	16.46
240.662	20.21
241.132	17.86
241.602	21.26
242.072	21.01
242.542	20.26
243.013	16.31
243.483	24.61
243.953	20.71
244.423	23.36
244.893	20.61
245.363	28.41
245.833	23.61
246.303	29.16
246.773	27.06
247.243	25.31
247.712	27.26
248.182	26.11
248.652	30.26
249.122	27.81
249.592	26.81
250.061	26.76
250.531	26.61
251.001	29.71
251.471	30.21
251.94	34.06
252.41	32.06
252.879	27.36
253.349	37.11
253.818	33.81
254.288	41.16
254.757	36.21
255.227	38.56
255.696	33.56
256.166	39.11
256.635	39.86
257.105	38.16
257.574	38.51
258.043	40.71
258.513	40.76
258.982	36.46
259.451	41.01
259.92	37.56
260.389	39.51
260.859	37.16
261.328	42.46
261.797	39.46
262.266	42.31
262.735	43.36
263.204	37.46
263.673	46.46
264.142	45.46
264.611	45.86
265.08	49.11
265.549	45.21
266.018	51.16
266.487	51.56
266.955	47.81
267.424	53.26
267.893	53.91
268.362	45.51
268.83	48.06
269.299	54.26
269.768	54.21
270.236	53.01
270.705	59.16
271.174	57.41
271.642	57.06
272.111	56.71
272.579	58.11
273.048	59.16
273.516	62.21
273.985	64.96
274.453	60.01
274.922	60.16
275.39	60.61
275.858	66.56
276.327	71.76
276.795	62.51
277.263	64.91
277.731	63.71
278.2	73.51
278.668	71.81
279.136	69.86
279.604	71.51
280.072	68.26
280.54	76.16
281.008	80.66
281.477	76.66
281.945	71.26
282.413	74.06
282.881	73.96
283.348	75.31
283.816	77.06
284.284	79.46
284.752	82.41
285.22	83.16
285.688	80.51
286.156	81.21
286.623	83.36
287.091	82.31
287.559	81.96
288.026	86.91
288.494	87.26
288.962	87.21
289.429	84.06
289.897	83.41
290.364	84.81
290.832	89.41
291.3	89.46
291.767	87.56
292.234	94.16
292.702	93.96
293.169	95.86
293.637	98.16
294.104	97.01
294.571	98.41
295.039	97.21
295.506	92.31
295.973	97.36
296.44	96.41
296.908	99.36
297.375	103.66
297.842	103.01
298.309	103.76
298.776	107.06
299.243	110.71
299.71	106.86
300.177	107.11
300.644	109.41
301.111	113.16
301.578	115.56
302.045	109.46
302.512	117.66
302.979	115.81
303.446	122.51
303.913	120.26
304.379	123.71
304.846	126.01
305.313	129.86
305.78	131.76
306.246	129.16
306.713	129.11
307.18	129.66
307.646	131.71
308.113	130.66
308.579	138.11
309.046	138.56
309.512	139.71
309.979	150.11
310.445	140.96
310.912	148.46
311.378	151.36
311.845	150.56
312.311	149.81
312.777	150.61
313.244	153.56
313.71	153.36
314.176	161.56
314.642	163.66
315.109	162.61
315.575	159.96
316.041	153.86
316.507	162.61
316.973	169.91
317.439	167.41
317.905	165.01
318.371	168.46
318.837	163.81
319.303	168.31
319.769	166.31
320.235	174.31
320.701	173.26
321.167	173.21
321.633	176.96
322.099	174.86
322.564	177.86
323.03	181.56
323.496	183.16
323.962	183.31
324.427	186.26
324.893	185.26
325.359	190.66
325.824	190.21
326.29	192.91
326.755	193.31
327.221	193.46
327.686	205.11
328.152	207.41
328.617	206.41
329.083	203.71
329.548	212.26
330.014	215.31
330.479	212.31
330.944	214.71
331.41	220.56
331.875	210.01
332.34	211.71
332.805	213.71
333.271	218.31
333.736	216.31
334.201	218.36
334.666	240.26
335.131	242.21
335.596	239.36
336.061	231.56
336.526	226.81
336.991	218.46
337.456	226.71
337.921	220.41
338.386	219.61
338.851	225.96
339.316	224.21
339.781	228.36
340.246	228.91
340.711	237.51
341.175	234.96
341.64	247.31
342.105	243.41
342.569	254.11
343.034	245.86
343.499	256.46
343.963	258.91
344.428	257.81
344.893	260.26
345.357	268.31
345.822	270.51
346.286	277.66
346.751	277.56
347.215	282.26
347.679	292.51
348.144	308.36
348.608	304.51
349.073	309.96
349.537	314.21
350.001	313.31
350.465	315.81
350.93	316.86
351.394	324.01
351.858	319.51
352.322	323.61
352.786	327.76
353.25	327.96
353.715	328.51
354.179	343.51
354.643	351.56
355.107	365.11
355.571	354.56
356.035	350.91
356.498	349.51
356.962	350.16
357.426	350.21
357.89	349.56
358.354	341.41
358.818	337.41
359.281	348.91
359.745	349.81
360.209	349.26
360.673	345.86
361.136	347.31
361.6	353.06
362.064	358.61
362.527	371.26
362.991	364.76
363.454	362.01
363.918	371.11
364.381	373.66
364.845	371.01
365.308	372.56
365.772	376.71
366.235	374.36
366.698	372.61
367.162	371.91
367.625	383.21
368.088	388.26
368.552	376.31
369.015	391.01
369.478	387.61
369.941	391.46
370.404	401.71
370.867	395.81
371.331	397.26
371.794	405.76
372.257	404.26
372.72	404.81
373.183	409.11
373.646	416.61
374.109	414.76
374.572	414.26
375.035	420.81
375.497	426.51
375.96	430.91
376.423	438.71
376.886	443.96
377.349	444.86
377.811	443.26
378.274	446.91
378.737	445.26
379.199	453.66
379.662	456.71
380.125	455.71
380.587	467.21
381.05	472.76
381.512	478.96
381.975	489.16
382.437	497.26
382.9	494.01
383.362	492.86
383.825	500.71
384.287	501.56
384.75	497.11
385.212	499.81
385.674	511.01
386.136	511.76
386.599	506.06
387.061	513.11
387.523	508.41
387.985	511.96
388.447	527.26
388.91	525.96
389.372	522.81
389.834	528.36
390.296	514.16
390.758	527.06
391.22	522.16
391.682	527.31
392.144	524.16
392.606	532.81
393.068	539.31
393.529	568.96
393.991	586.91
394.453	560.01
394.915	542.51
395.377	530.91
395.838	539.96
396.3	539.61
396.762	544.96
397.224	550.61
397.685	545.61
398.147	547.56
398.608	561.91
399.07	571.31
399.531	566.81
399.993	580.26
400.454	588.21
400.916	585.81
401.377	600.71
401.839	597.31
402.3	603.11
402.762	634.06
403.223	671.96
403.684	672.86
404.145	642.76
404.607	638.06
405.068	631.11
405.529	637.71
405.99	645.76
406.451	655.06
406.913	637.26
407.374	648.96
407.835	641.81
408.296	663.81
408.757	660.36
409.218	681.36
409.679	688.41
410.14	691.26
410.601	712.71
411.062	709.01
411.522	714.61
411.983	709.71
412.444	713.71
412.905	733.51
413.366	751.36
413.826	790.71
414.287	889.26
414.748	1059.31
415.208	1077.61
415.669	903.86
416.13	816.56
416.59	806.96
417.051	827.21
417.511	865.21
417.972	934.61
418.432	1001.06
418.893	1109.06
419.353	1065.11
419.814	825.86
420.274	737.21
420.734	726.01
421.195	747.16
421.655	739.86
422.115	761.71
422.576	754.31
423.036	755.66
423.496	788.61
423.956	820.26
424.416	877.31
424.876	974.81
425.336	986.36
425.797	957.86
426.257	950.21
426.717	899.56
427.177	838.66
427.637	851.26
428.097	884.06
428.556	904.26
429.016	980.86
429.476	978.41
429.936	957.16
430.396	957.81
430.856	982.56
431.315	1003.51
431.775	1074.86
432.235	1154.01
432.694	1163.66
433.154	1105.16
433.614	1078.36
434.073	1039.71
434.533	939.66
434.993	907.06
435.452	912.41
435.912	894.66
436.371	894.36
436.83	877.46
437.29	860.46
437.749	834.36
438.209	831.56
438.668	839.21
439.127	858.81
439.587	845.41
440.046	817.81
440.505	836.96
440.964	841.51
441.424	870.66
441.883	893.06
442.342	841.16
442.801	801.41
443.26	812.71
443.719	809.21
444.178	805.86
444.637	825.66
445.096	823.11
445.555	833.26
446.014	833.91
446.473	822.21
446.932	828.06
447.391	843.31
447.849	851.06
448.308	827.46
448.767	843.81
449.226	855.36
449.685	871.06
450.143	903.06
450.602	903.31
451.061	853.91
451.519	862.66
451.978	844.56
452.436	843.06
452.895	855.26
453.353	847.31
453.812	837.66
454.27	835.61
454.729	841.26
455.187	846.46
455.646	845.61
456.104	854.31
456.562	866.36
457.021	874.61
457.479	846.61
457.937	869.41
458.395	892.46
458.854	878.46
459.312	869.01
459.77	881.21
460.228	891.51
460.686	904.91
461.144	905.41
461.602	891.71
462.06	897.71
462.518	917.91
462.976	914.96
463.434	929.41
463.892	940.86
464.35	956.16
464.808	970.91
465.266	984.31
465.724	986.76
466.181	991.81
466.639	993.46
467.097	1029.96
467.555	1060.91
468.012	1058.01
468.47	1066.21
468.928	1101.51
469.385	1132.16
469.843	1143.86
470.3	1127.91
470.758	1176.26
471.215	1188.56
471.673	1213.51
472.13	1241.76
472.588	1272.31
473.045	1270.91
473.503	1284.76
473.96	1349.36
474.417	1353.86
474.875	1413.16
475.332	1469.16
475.789	1496.21
476.246	1536.51
476.704	1597.81
477.161	1644.61
477.618	1684.61
478.075	1775.01
478.532	1905.66
478.989	2054.66
479.446	2245.11
479.903	2357.66
480.36	2570.96
480.817	2715.21
481.274	2893.31
481.731	3166.56
482.188	3390.76
482.645	3656.71
483.102	3841.06
483.558	4108.16
484.015	4278.71
484.472	4260.26
484.929	4149.36
485.385	3966.21
485.842	3887.06
486.299	3723.11
486.755	3442.31
487.212	3104.61
487.668	2813.41
488.125	2614.91
488.582	2427.21
489.038	2337.66
489.494	2267.21
489.951	2199.56
490.407	2141.91
490.864	2097.46
491.32	2046.71
491.776	2041.26
492.233	2043.71
492.689	2001.36
493.145	1968.81
493.602	1937.86
494.058	1954.06
494.514	1974.31
494.97	1974.31
495.426	1996.66
495.882	1993.46
496.338	1986.06
496.794	2017.66
497.251	1998.66
497.707	2028.51
498.163	2036.11
498.618	2034.51
499.074	2024.26
499.53	2033.41
499.986	2053.31
500.442	2039.16
500.898	2011.41
501.354	2027.96
501.809	2040.46
502.265	2036.91
502.721	2051.26
503.177	2055.66
503.632	2051.76
504.088	2065.76
504.543	2087.76
504.999	2105.01
505.455	2113.56
505.91	2085.16
506.366	2086.31
506.821	2097.06
507.277	2082.96
507.732	2093.01
508.187	2086.01
508.643	2100.31
509.098	2105.01
509.553	2138.26
510.009	2159.21
510.464	2197.46
510.919	2217.46
511.375	2237.96
511.83	2261.81
512.285	2287.31
512.74	2337.86
513.195	2369.26
513.65	2398.81
514.105	2431.96
514.56	2436.96
515.015	2481.36
515.47	2503.61
515.925	2458.61
516.38	2468.31
516.835	2481.31
517.29	2465.81
517.745	2468.61
518.2	2431.96
518.655	2380.26
519.109	2349.66
519.564	2319.01
520.019	2306.56
520.474	2281.16
520.928	2278.76
521.383	2253.71
521.838	2242.06
522.292	2228.61
522.747	2199.16
523.201	2219.31
523.656	2184.21
524.11	2182.21
524.565	2165.81
525.019	2174.41
525.474	2175.96
525.928	2151.31
526.382	2154.51
526.837	2162.51
527.291	2168.51
527.745	2150.36
528.2	2152.26
528.654	2133.66
529.108	2135.51
529.562	2131.06
530.016	2136.51
530.47	2131.26
530.925	2135.46
531.379	2131.51
531.833	2159.41
532.287	2153.61
532.741	2140.66
533.195	2150.76
533.649	2142.51
534.103	2145.51
534.556	2137.16
535.01	2143.96
535.464	2142.71
535.918	2144.66
536.372	2163.46
536.826	2147.46
537.279	2129.76
537.733	2133.96
538.187	2148.31
538.64	2143.46
539.094	2147.86
539.548	2185.76
540.001	2172.31
540.455	2194.21
540.908	2204.66
541.362	2212.81
541.815	2231.76
542.269	2270.06
542.722	2272.06
543.175	2307.81
543.629	2307.71
544.082	2333.06
544.536	2350.21
544.989	2353.91
545.442	2365.11
545.895	2371.66
546.349	2355.86
546.802	2372.31
547.255	2375.11
547.708	2391.81
548.161	2411.16
548.614	2408.56
549.067	2430.71
549.52	2406.81
549.973	2387.86
550.426	2368.76
550.879	2361.71
551.332	2378.46
551.785	2393.16
552.238	2403.96
552.691	2407.31
553.144	2441.91
553.596	2481.86
554.049	2509.36
554.502	2561.81
554.955	2597.41
555.407	2628.71
555.86	2613.31
556.313	2570.86
556.765	2556.76
557.218	2533.81
557.67	2511.91
558.123	2482.91
558.576	2470.61
559.028	2470.01
559.48	2513.96
559.933	2483.96
560.385	2406.71
560.838	2324.86
561.29	2273.21
561.742	2243.51
562.195	2207.96
562.647	2188.56
563.099	2168.71
563.551	2168.51
564.004	2178.11
564.456	2166.86
564.908	2116.21
565.36	2062.41
565.812	2024.81
566.264	2010.96
566.716	1982.51
567.168	1958.86
567.62	1963.21
568.072	1948.56
568.524	1925.26
568.976	1924.56
569.428	1902.81
569.88	1893.11
570.332	1918.36
570.784	1913.51
571.235	1921.96
571.687	1931.21
572.139	1929.81
572.59	1953.41
573.042	1956.46
573.494	1961.21
573.945	1930.46
574.397	1888.21
574.849	1882.46
575.3	1885.66
575.752	1855.91
576.203	1849.36
576.655	1857.31
577.106	1832.51
577.557	1821.71
578.009	1800.26
578.46	1811.71
578.912	1796.11
579.363	1815.46
579.814	1805.31
580.265	1812.36
580.717	1813.66
581.168	1809.66
581.619	1813.16
582.07	1825.86
582.521	1824.76
582.972	1805.11
583.423	1815.91
583.875	1832.41
584.326	1842.16
584.777	1870.66
585.227	1895.71
585.678	1922.71
586.129	1929.66
586.58	1952.76
587.031	1985.06
587.482	2032.36
587.933	2061.66
588.384	2054.01
588.834	2037.56
589.285	2029.61
589.736	2032.26
590.186	2034.86
590.637	2008.86
591.088	1956.81
591.538	1929.46
591.989	1909.16
592.439	1876.66
592.89	1861.31
593.34	1866.31
593.791	1847.41
594.241	1832.01
594.692	1825.71
595.142	1819.31
595.593	1825.76
596.043	1829.21
596.493	1844.51
596.943	1845.26
597.394	1901.76
597.844	1917.51
598.294	1964.41
598.744	2032.76
599.195	2118.26
599.645	2235.06
600.095	2352.06
600.545	2460.86
600.995	2561.26
601.445	2654.06
601.895	2781.11
602.345	2865.91
602.795	2829.56
603.245	2715.11
603.695	2570.56
604.145	2435.56
604.594	2313.21
605.044	2200.16
605.494	2078.51
605.944	1959.86
606.393	1902.56
606.843	1867.66
607.293	1870.46
607.743	1858.31
608.192	1875.81
608.642	1864.56
609.091	1859.91
609.541	1860.96
609.99	1860.71
610.44	1825.21
610.889	1806.01
611.339	1782.16
611.788	1752.36
612.238	1772.01
612.687	1773.71
613.136	1779.86
613.586	1811.01
614.035	1793.06
614.484	1815.91
614.933	1809.16
615.383	1776.66
615.832	1730.86
616.281	1711.76
616.73	1673.56
617.179	1630.96
617.628	1607.51
618.077	1573.36
618.526	1545.91
618.975	1549.96
619.424	1508.26
619.873	1524.91
620.322	1509.26
620.771	1504.41
621.22	1478.41
621.669	1448.11
622.118	1438.26
622.567	1429.26
623.015	1399.16
623.464	1403.21
623.913	1386.86
624.361	1384.21
624.81	1375.91
625.259	1386.51
625.707	1368.16
626.156	1390.26
626.604	1404.61
627.053	1408.26
627.501	1401.51
627.95	1399.66
628.398	1425.86
628.847	1404.91
629.295	1396.31
629.744	1391.61
630.192	1376.86
630.64	1352.36
631.089	1327.51
631.537	1304.26
631.985	1288.11
632.433	1284.01
632.881	1276.16
633.33	1279.01
633.778	1282.01
634.226	1283.06
634.674	1304.16
635.122	1308.31
635.57	1330.31
636.018	1354.96
636.466	1336.76
636.914	1347.91
637.362	1371.51
637.81	1393.21
638.258	1439.16
638.705	1455.16
639.153	1499.06
639.601	1511.56
640.049	1541.36
640.497	1587.86
640.944	1625.06
641.392	1553.61
641.84	1471.36
642.287	1409.56
642.735	1378.61
643.182	1364.96
643.63	1370.31
644.078	1369.96
644.525	1390.91
644.973	1427.76
645.42	1456.96
645.867	1489.66
646.315	1519.71
646.762	1571.46
647.21	1615.21
647.657	1698.06
648.104	1767.01
648.551	1809.21
648.999	1953.71
649.446	2142.16
649.893	2384.61
650.34	2783.21
650.787	3422.31
651.234	4398.71
651.682	6033.06
652.129	8496.46
652.576	12042.46
653.023	15479.01
653.47	15537.26
653.917	15537.31
654.363	15537.21
654.81	15534.21
655.257	15534.86
655.704	15437.11
656.151	9497.36
656.598	6257.26
657.044	4476.61
657.491	3508.91
657.938	2853.16
658.385	2418.51
658.831	2148.01
659.278	1916.76
659.724	1765.81
660.171	1643.21
660.618	1515.11
661.064	1438.26
661.511	1395.66
661.957	1354.56
662.404	1329.16
662.85	1310.06
663.296	1290.46
663.743	1265.91
664.189	1247.26
664.635	1232.71
665.082	1206.46
665.528	1186.61
665.974	1157.31
666.42	1138.46
666.867	1121.56
667.313	1068.81
667.759	1057.66
668.205	1057.71
668.651	1063.66
669.097	1051.06
669.543	1066.56
669.989	1069.56
670.435	1070.56
670.881	1088.31
671.327	1130.81
671.773	1209.41
672.219	1289.31
672.665	1375.91
673.11	1415.31
673.556	1440.76
674.002	1473.51
674.448	1484.11
674.893	1274.31
675.339	1110.71
675.785	1019.71
676.23	972.31
676.676	925.81
677.122	914.91
677.567	884.01
678.013	854.11
678.458	854.86
678.904	845.16
679.349	834.36
679.794	839.81
680.24	827.71
680.685	828.06
681.131	830.71
681.576	833.11
682.021	834.01
682.466	839.46
682.912	848.76
683.357	889.91
683.802	964.96
684.247	1052.31
684.692	1125.26
685.137	1167.91
685.583	1201.46
686.028	1264.11
686.473	1204.31
686.918	1046.56
687.363	948.06
687.807	898.96
688.252	855.41
688.697	820.91
689.142	802.61
689.587	804.26
690.032	824.11
690.477	856.76
690.921	886.21
691.366	934.51
691.811	982.21
692.255	1059.41
692.7	1279.41
693.145	1844.76
693.589	2798.36
694.034	3359.51
694.478	3565.81
694.923	3286.96
695.367	4661.31
695.812	2856.01
696.256	1204.76
696.701	873.91
697.145	814.71
697.59	786.01
698.034	777.61
698.478	771.16
698.922	769.71
699.367	789.81
699.811	829.31
700.255	888.21
700.699	977.66
701.143	1062.31
701.588	1115.51
702.032	1162.51
702.476	1210.21
702.92	1293.56
703.364	1680.66
703.808	2565.21
704.252	3212.61
704.696	3381.71
705.14	3205.26
705.584	4419.76
706.027	2464.86
706.471	1233.11
706.915	926.11
707.359	826.11
707.803	769.01
708.246	742.31
708.69	727.96
709.134	723.56
709.577	722.06
710.021	727.21
710.465	724.46
710.908	722.11
711.352	753.11
711.795	833.16
712.239	888.11
712.682	904.06
713.126	909.66
713.569	994.16
714.012	825.96
714.456	721.56
714.899	675.06
715.342	645.11
715.786	629.71
716.229	603.31
716.672	589.06
717.115	593.21
717.558	594.71
718.002	617.51
718.445	643.86
718.888	675.01
719.331	687.86
719.774	699.81
720.217	696.71
720.66	655.51
721.103	623.16
721.546	588.91
721.989	573.56
722.432	565.91
722.874	562.36
723.317	571.81
723.76	617.71
724.203	744.41
724.645	1010.21
725.088	1189.31
725.531	1166.56
725.974	1276.41
726.416	1153.56
726.859	711.41
727.301	586.01
727.744	556.91
728.187	554.26
728.629	567.81
729.071	597.86
729.514	623.56
729.956	647.01
730.399	661.36
730.841	672.21
731.283	657.61
731.726	630.96
732.168	647.81
732.61	676.16
733.053	729.91
733.495	797.56
733.937	892.11
734.379	1051.11
734.821	1332.06
735.263	2114.16
735.705	3787.11
736.148	5576.66
736.59	5627.71
737.032	6149.01
737.474	5056.16
737.916	1939.66
738.357	1025.81
738.799	783.21
739.241	729.76
739.683	740.11
740.125	750.51
740.567	751.86
741.008	807.06
741.45	849.76
741.892	897.96
742.334	901.46
742.775	891.41
743.217	859.66
743.658	725.36
744.1	744.16
744.542	853.11
744.983	888.81
745.425	938.51
745.866	908.76
746.307	756.36
746.749	798.41
747.19	1147.81
747.632	2225.71
748.073	4136.01
748.514	5744.31
748.956	7633.81
749.397	8950.06
749.838	6210.81
750.279	5922.36
750.72	3062.71
751.162	1293.06
751.603	746.86
752.044	594.96
752.485	531.51
752.926	499.36
753.367	477.66
753.808	462.11
754.249	453.36
754.69	449.41
755.131	446.01
755.572	442.86
756.013	440.56
756.453	448.26
756.894	457.36
757.335	456.96
757.776	459.36
758.216	473.51
758.657	503.41
759.098	558.26
759.538	675.61
759.979	967.06
760.42	1956.96
760.86	5010.36
761.301	10343.66
761.741	12254.41
762.182	14058.21
762.622	9180.16
763.063	3263.31
763.503	1344.41
763.943	782.21
764.384	625.11
764.824	536.51
765.264	496.11
765.705	472.01
766.145	445.26
766.585	428.66
767.025	417.01
767.465	415.51
767.906	424.06
768.346	452.01
768.786	520.71
769.226	763.51
769.666	1526.71
770.106	3455.41
770.546	4916.21
770.986	5598.31
771.426	4254.31
771.866	1758.21
772.306	798.31
772.745	494.16
773.185	419.61
773.625	415.96
774.065	444.51
774.505	638.21
774.944	1170.96
775.384	1701.91
775.824	1904.26
776.263	1588.86
776.703	832.46
777.142	471.56
777.582	348.16
778.021	316.01
778.461	299.91
778.9	300.26
779.34	290.26
779.779	278.16
780.219	276.86
780.658	264.71
781.097	265.26
781.537	256.41
781.976	255.16
782.415	255.56
782.855	260.01
783.294	249.51
783.733	252.21
784.172	257.51
784.611	254.31
785.05	264.26
785.489	270.86
785.928	275.86
786.367	286.31
786.806	304.81
787.245	328.61
787.684	337.96
788.123	337.56
788.562	325.26
789.001	312.21
789.44	302.41
789.879	302.11
790.317	302.86
790.756	322.06
791.195	368.36
791.634	495.81
792.072	891.71
792.511	2177.41
792.95	4044.36
793.388	4925.56
793.827	3212.96
794.265	1461.86
794.704	706.11
795.142	436.86
795.581	362.76
796.019	324.41
796.458	320.21
796.896	327.91
797.334	377.91
797.773	513.41
798.211	969.46
798.649	2018.56
799.087	3398.41
799.526	4822.26
799.964	4979.51
800.402	3444.61
800.84	1551.86
801.278	759.36
801.716	467.11
802.154	369.51
802.592	350.16
803.03	354.26
803.468	361.81
803.906	365.61
804.344	357.46
804.782	347.06
805.22	345.81
805.658	366.41
806.096	385.86
806.533	435.61
806.971	555.86
807.409	799.11
807.847	1583.76
808.284	4050.76
808.722	7122.86
809.16	10028.26
809.597	13429.06
810.035	15537.26
810.472	11022.16
810.91	4660.66
811.347	2082.61
811.785	987.06
812.222	620.86
812.66	480.71
813.097	410.56
813.535	354.76
813.972	315.86
814.409	295.26
814.846	283.31
815.284	268.36
815.721	274.51
816.158	301.71
816.595	404.31
817.032	521.26
817.47	476.86
817.907	345.76
818.344	301.86
818.781	300.01
819.218	363.86
819.655	557.31
820.092	727.16
820.529	658.51
820.966	511.91
821.403	353.71
821.839	301.06
822.276	334.46
822.713	396.26
823.15	367.71
823.587	376.81
824.023	668.06
824.46	1667.46
824.897	2908.86
825.333	2289.76
825.77	1039.46
826.206	544.76
826.643	321.16
827.08	241.56
827.516	210.46
827.953	195.11
828.389	192.16
828.825	177.61
829.262	170.56
829.698	162.56
830.135	158.91
830.571	160.46
831.007	160.86
831.443	162.71
831.88	161.81
832.316	167.26
832.752	165.46
833.188	163.51
833.624	167.56
834.06	173.16
834.497	169.56
834.933	172.66
835.369	192.91
835.805	195.21
836.241	207.31
836.677	229.81
837.112	265.81
837.548	330.71
837.984	494.11
838.42	1049.66
838.856	2929.91
839.292	5791.56
839.727	4336.66
840.163	2912.41
840.599	4380.71
841.034	6714.46
841.47	3379.41
841.906	1625.86
842.341	882.41
842.777	659.96
843.212	690.66
843.648	431.51
844.083	292.21
844.519	219.36
844.954	182.81
845.39	162.01
845.825	150.96
846.261	152.86
846.696	144.66
847.131	142.61
847.566	140.26
848.002	144.61
848.437	151.56
848.872	162.16
849.307	202.06
849.742	364.41
850.177	950.21
850.613	2033.26
851.048	1481.61
851.483	669.41
851.918	368.81
852.353	205.36
852.788	150.51
853.223	132.86
853.657	124.86
854.092	118.16
854.527	115.11
854.962	124.01
855.397	138.06
855.832	119.91
856.266	112.31
856.701	104.11
857.136	111.11
857.57	135.36
858.005	167.16
858.44	139.76
858.874	131.21
859.309	132.26
859.743	129.31
860.178	126.71
860.612	139.96
861.047	190.66
861.481	264.21
861.915	185.46
862.35	139.91
862.784	113.11
863.218	101.01
863.653	114.31
864.087	135.81
864.521	170.36
864.955	278.66
865.39	473.16
865.824	370.91
866.258	482.46
866.692	743.01
867.126	530.91
867.56	285.81
867.994	179.01
868.428	156.51
868.862	195.11
869.296	179.41
869.73	219.76
870.164	183.61
870.598	166.51
871.031	119.66
871.465	105.51
871.899	86.06
872.333	74.61
872.766	76.41
873.2	77.96
873.634	80.16
874.067	83.56
874.501	81.61
874.935	82.36
875.368	83.66
875.802	77.36
876.235	68.46
876.669	64.76
877.102	59.51
877.535	64.96
877.969	64.71
878.402	67.86
878.836	65.96
879.269	61.76
879.702	59.56
880.135	63.06
880.569	62.31
881.002	60.11
881.435	61.66
881.868	55.81
882.301	55.11
882.734	53.61
883.167	59.66
883.601	56.36
884.034	52.61
884.467	49.86
884.899	54.41
885.332	47.61
885.765	54.91
886.198	48.71
886.631	44.16
887.064	50.31
887.497	51.36
887.929	51.91
888.362	49.16
888.795	48.16
889.228	55.36
889.66	44.26
890.093	45.71
890.526	47.01
890.958	48.66
891.391	49.76
891.823	43.21
892.256	47.31
892.688	48.46
893.121	43.46
893.553	47.61
893.985	42.96
894.418	38.96
894.85	50.21
895.282	45.81
895.715	44.66
896.147	40.61
896.579	39.81
897.011	45.96
897.444	43.06
897.876	41.91
898.308	39.61
898.74	47.41
899.172	48.96
899.604	43.21
900.036	46.01
900.468	41.46
900.9	50.71
901.332	60.16
901.764	63.41
902.196	59.51
902.628	54.71
903.06	87.46
903.491	89.91
903.923	76.91
904.355	72.51
904.787	81.31
905.218	67.76
905.65	63.71
906.082	53.66
906.513	53.01
906.945	56.51
907.376	51.66
907.808	50.81
908.239	53.66
908.671	65.91
909.102	71.56
909.534	99.61
909.965	182.41
910.397	470.06
910.828	1371.41
911.259	841.61
911.691	451.66
912.122	261.61
912.553	131.91
912.984	72.31
913.415	62.56
913.847	55.91
914.278	55.46
914.709	44.21
915.14	45.31
915.571	48.56
916.002	42.71
916.433	43.51
916.864	42.06
917.295	48.41
917.726	57.91
918.157	67.31
918.587	67.86
919.018	57.81
919.449	56.86
919.88	71.56
920.311	108.96
920.741	280.26
921.172	504.51
921.603	254.91
922.033	157.46
922.464	106.96
922.895	67.36
923.325	47.31
923.756	43.01
924.186	55.01
924.617	85.81
925.047	117.46
925.478	105.11
925.908	74.16
926.338	55.01
926.769	44.01
927.199	42.21
927.629	37.81
928.06	40.66
928.49	41.96
928.92	38.31
929.35	33.36
929.78	28.76
930.21	28.71
930.641	19.51
931.071	26.96
931.501	23.36
931.931	22.81
932.361	24.71
932.791	27.31
933.221	25.26
933.651	37.36
934.08	71.41
934.51	43.36
934.94	36.96
935.37	23.21
935.8	23.41
936.229	22.56
936.659	23.06
937.089	42.31
937.519	60.21
937.948	85.51
938.378	49.66
938.807	31.36
939.237	20.26
939.666	17.86
940.096	12.46
940.525	8.91
940.955	15.11
941.384	13.01
941.814	15.66
942.243	12.91
942.672	10.31
943.102	6.56
943.531	12.36
943.96	9.61
944.39	12.01
944.819	15.61
945.248	8.81
945.677	12.76
946.106	13.51
946.535	13.51
946.964	13.41
947.393	10.21
947.822	7.06
948.251	11.91
948.68	11.46
949.109	9.91
949.538	6.61
949.967	10.76
950.396	11.96
950.825	13.06
951.254	11.66
951.682	8.96
952.111	6.91
952.54	12.36
952.969	7.41
953.397	8.41
953.826	8.66
954.254	15.56
954.683	11.11
955.112	11.21
955.54	7.36
955.969	8.06
956.397	10.76
956.826	8.11
957.254	9.06
957.682	11.06
958.111	12.06
958.539	10.61
958.967	7.96
959.396	11.11
959.824	12.16
960.252	10.61
960.68	6.76
961.109	11.86
961.537	15.86
961.965	7.56
962.393	12.51
962.821	6.51
963.249	7.96
963.677	17.81
964.105	85.76
964.533	144.71
964.961	70.76
965.389	40.81
965.817	22.36
966.245	16.16
966.672	10.66
967.1	10.41
967.528	-1.39
967.956	6.31
968.383	6.26
968.811	6.41
969.239	3.96
969.666	6.46
970.094	10.16
970.522	5.66
970.949	12.26
971.377	4.31
971.804	5.31
972.232	1.66
972.659	4.91
973.087	7.01
973.514	1.96
973.941	-0.34
974.369	4.96
974.796	3.36
975.223	3.06
975.651	10.01
976.078	4.46
976.505	12.21
976.932	35.81
977.359	41.96
977.786	24.06
978.214	17.51
978.641	10.31
979.068	8.91
979.495	7.61
979.922	7.61
980.349	8.06
980.776	6.16
981.202	4.96
981.629	6.76
982.056	4.11
982.483	-2.19
982.91	7.76
983.337	2.51
983.763	7.26
984.19	7.51
984.617	0.16
985.043	6.81
985.47	6.56
985.897	3.26
986.323	11.56
986.75	3.71
987.176	7.56
987.603	8.01
988.029	7.76
988.456	9.06
988.882	3.21
989.308	0.41
989.735	3.56
990.161	6.86
990.587	3.96
991.014	6.91
991.44	6.61
991.866	6.96
992.292	4.06
992.719	-0.49
993.145	5.76
993.571	3.86
993.997	7.71
994.423	4.16
994.849	-0.59
995.275	5.11
995.701	9.56
996.127	-2.19
996.553	3.51
996.979	1.66
997.405	8.86
997.83	0.56
998.256	4.31
998.682	-0.19
999.108	6.91
999.534	-2.89
999.959	2.31
1000.385	7.21
1000.811	-1.14
1001.236	-3.84
1001.662	0.41
1002.087	6.46
1002.513	8.11
1002.938	1.16
1003.364	2.86
1003.789	5.46
1004.215	2.26
1004.64	2.26
1005.066	9.76
1005.491	8.81
1005.916	4.31
1006.342	9.21
1006.767	3.96
1007.192	7.76
1007.617	7.36
1008.042	4.76
1008.468	3.61
1008.893	8.06
1009.318	10.76
1009.743	19.11
1010.168	30.16
1010.593	28.41
1011.018	15.21
1011.443	9.66
1011.868	9.81
1012.293	5.81
1012.718	-0.69
1013.143	3.41
1013.567	5.81
1013.992	3.26
1014.417	4.31
1014.842	2.36
1015.267	2.56
1015.691	3.66
1016.116	4.01
1016.541	1.76
1016.965	6.61
1017.39	3.51
1017.814	-1.74
1018.239	1.86
1018.663	-3.59
1019.088	-2.04
1019.512	5.81
1019.937	-0.99
1020.361	2.11
1020.785	-0.24
1021.21	-2.69
1021.634	-1.59
1022.058	6.56
1022.483	-0.64
1022.907	-1.59
1023.331	1.36
1023.755	0.61
1024.179	0.61
1024.604	-1.64
1025.028	0.36
1025.452	7.81
1025.876	6.21
1026.3	-0.49
1026.724	-3.09
1027.148	4.36
1027.572	2.51
1027.996	4.06
1028.42	-0.09
1028.843	5.66
1029.267	0.96
1029.691	0.66
1030.115	-1.64
1030.539	0.41
1030.962	-1.99
1031.386	2.71
1031.81	-0.29
1032.233	0.81
1032.657	-8.84
1033.08	1.26
1033.504	2.01
1033.927	-1.54
1034.351	-1.99
1034.774	-0.44
1035.198	-1.79
1035.621	0.81
1036.045	-1.99
1036.468	3.91
1036.891	2.81
1037.315	6.21
1037.738	2.71
1038.161	0.56
1038.584	1.51
1039.008	-0.34
1039.431	-3.29
1039.854	-4.99
1040.277	3.81
1040.7	0.11
1041.123	0.01
1041.546	-3.74
1041.969	5.61
1042.392	1.71
1042.815	-4.54
1043.238	-5.04
1043.661	-0.24
1044.084	-2.04
1044.507	-0.54
1044.93	-2.24
1045.352	-0.44
1045.775	6.56
1046.198	1.26
1046.621	4.46
1047.043	-0.94
1047.466	0.66
1047.889	-2.74
1048.311	2.01
1048.734	-5.74
1049.156	0.21
1049.579	0.76
1050.001	1.61
1050.424	-2.79
1050.846	-4.24
1051.269	-0.44
1051.691	-4.84
1052.113	0.11
1052.536	1.21
1052.958	-5.14
1053.38	-1.29
1053.802	3.01
1054.225	2.26
1054.647	1.66
1055.069	-1.79
1055.491	3.51
1055.913	2.56
1056.335	-5.39
1056.757	-2.34
1057.179	2.36
1057.601	1.26
1058.023	2.56
1058.445	-4.39
1058.867	5.56
1059.289	0.71
1059.711	-2.19
1060.133	0.26
1060.555	-3.19
1060.976	3.16
1061.398	0.71
1061.82	1.81
1062.241	0.31
1062.663	1.36
1063.085	-3.74
1063.506	-5.74
1063.928	-1.84
1064.35	1.06
1064.771	-0.04
1065.193	-2.94
1065.614	-2.94
1066.035	3.21
1066.457	0.96
1066.878	1.26
1067.3	-2.59
1067.721	2.81
1068.142	1.31
1068.564	3.56
1068.985	1.06
1069.406	-4.54
1069.827	-0.44
1070.248	-1.79
1070.67	-1.04
1071.091	-5.69
1071.512	-7.69
1071.933	-1.74
1072.354	-7.99
1072.775	-5.99
1073.196	-0.74
1073.617	-5.64
1074.038	-1.69
1074.459	-3.34
1074.88	-2.89
1075.3	-4.84
1075.721	0.36
1076.142	-3.09
1076.563	-6.99
1076.983	-2.29
1077.404	-4.59
1077.825	-2.74
1078.246	-4.74
1078.666	-2.19
1079.087	1.26
1079.507	-3.39
1079.928	-3.59
1080.348	-3.44
1080.769	-1.84
1081.189	-2.44
1081.61	-6.64
1082.03	0.06
1082.451	0.66
1082.871	-5.89
1083.291	-4.24
1083.711	0.76
1084.132	-4.84
1084.552	-7.44
1084.972	-7.54
1085.392	-4.94
1085.813	-2.89
1086.233	-6.34
1086.653	0.86
1087.073	-7.09
1087.493	-1.54
1087.913	-2.99
1088.333	-2.44
1088.753	-0.29
1089.173	1.31
1089.593	1.91
1090.013	-2.24
1090.433	-5.49
1090.852	2.31
1091.272	-5.04
1091.692	-2.64
1092.112	-5.54
1092.531	-7.49
1092.951	-4.49
1093.371	-5.89
1093.79	0.26
1094.21	-4.24
1094.63	1.61
1095.049	0.81
1095.469	-6.14
1095.888	0.71
1096.308	-4.09
1096.727	-5.44
1097.146	-1.74
1097.566	-2.84
1097.985	-1.04
1098.405	0.66
1098.824	-1.24
1099.243	-0.94
1099.662	-3.14
1100.082	-1.19
1100.501	-4.19
1100.92	3.61
1101.339	-2.34
1101.758	2.96
