Data from MSPlasma+Separation6_Subt14_10-14-19-638.txt Node
Date: Fri Jul 21 10:14:19 EDT 2017
User: Ender
Spectrometer: HR+D1039
Trigger mode: 0
Integration Time (sec): 6.430000E-3
Scans to average: 20
Electric dark correction enabled: true
Nonlinearity correction enabled: false
Boxcar width: 0
XAxis mode: Wavelengths
Number of Pixels in Spectrum: 2048
>>>>>Begin Spectral Data<<<<<
187.836	1.33
188.309	1.33
188.782	1.33
189.255	2.48
189.728	0.88
190.201	-2.32
190.674	3.43
191.147	-0.82
191.619	-0.32
192.092	1.13
192.565	-1.47
193.038	2.48
193.511	0.23
193.984	-4.67
194.456	-0.47
194.929	0.48
195.402	-4.02
195.874	1.63
196.347	-0.02
196.82	2.03
197.292	-1.82
197.765	-2.42
198.237	-1.32
198.71	-1.27
199.182	1.43
199.655	5.38
200.127	2.23
200.6	0.98
201.072	5.23
201.544	-1.32
202.017	2.78
202.489	1.98
202.961	1.33
203.433	-4.92
203.906	0.28
204.378	2.58
204.85	-0.17
205.322	0.38
205.794	5.73
206.266	-3.32
206.739	1.28
207.211	-0.52
207.683	-2.22
208.155	1.78
208.627	-0.32
209.099	-1.02
209.57	2.83
210.042	7.63
210.514	3.53
210.986	-0.67
211.458	-1.22
211.93	4.93
212.402	3.13
212.873	-2.77
213.345	-3.07
213.817	0.23
214.288	-5.17
214.76	-0.57
215.232	-0.77
215.703	3.08
216.175	4.98
216.646	3.18
217.118	2.73
217.589	1.03
218.061	5.83
218.532	-1.42
219.004	6.03
219.475	0.38
219.946	2.93
220.418	8.28
220.889	3.98
221.36	8.83
221.832	7.68
222.303	4.03
222.774	6.23
223.245	6.63
223.717	-0.22
224.188	2.13
224.659	4.03
225.13	-3.77
225.601	4.98
226.072	3.98
226.543	7.33
227.014	5.48
227.485	6.48
227.956	8.13
228.427	14.83
228.898	7.63
229.369	3.53
229.839	10.33
230.31	9.08
230.781	7.88
231.252	11.08
231.722	9.58
232.193	10.43
232.664	10.48
233.135	10.73
233.605	9.03
234.076	14.63
234.546	11.28
235.017	12.83
235.487	9.63
235.958	6.53
236.428	14.68
236.899	10.48
237.369	18.28
237.84	13.18
238.31	19.83
238.78	11.28
239.251	16.53
239.721	8.73
240.191	13.48
240.662	19.48
241.132	13.13
241.602	17.43
242.072	16.43
242.542	15.88
243.013	17.23
243.483	23.03
243.953	14.03
244.423	17.23
244.893	18.13
245.363	26.03
245.833	20.13
246.303	18.73
246.773	27.93
247.243	20.83
247.712	20.78
248.182	22.23
248.652	27.98
249.122	25.93
249.592	21.73
250.061	21.03
250.531	26.03
251.001	25.13
251.471	29.08
251.94	27.03
252.41	28.13
252.879	27.73
253.349	30.58
253.818	26.78
254.288	36.68
254.757	28.48
255.227	35.48
255.696	31.38
256.166	34.98
256.635	35.78
257.105	30.18
257.574	34.63
258.043	34.58
258.513	36.28
258.982	30.68
259.451	40.58
259.92	34.88
260.389	38.13
260.859	39.98
261.328	42.58
261.797	36.83
262.266	41.58
262.735	42.28
263.204	39.73
263.673	41.13
264.142	42.18
264.611	44.43
265.08	46.18
265.549	43.28
266.018	44.63
266.487	47.63
266.955	41.88
267.424	49.83
267.893	52.38
268.362	48.43
268.83	47.68
269.299	48.93
269.768	51.58
270.236	52.88
270.705	54.93
271.174	52.93
271.642	48.53
272.111	50.93
272.579	51.38
273.048	53.38
273.516	56.33
273.985	54.73
274.453	57.63
274.922	56.18
275.39	56.63
275.858	60.28
276.327	60.53
276.795	64.53
277.263	64.08
277.731	64.93
278.2	69.03
278.668	64.53
279.136	70.23
279.604	60.93
280.072	67.48
280.54	67.03
281.008	71.53
281.477	70.93
281.945	66.78
282.413	70.28
282.881	71.53
283.348	77.03
283.816	73.13
284.284	76.48
284.752	74.73
285.22	77.53
285.688	76.93
286.156	80.83
286.623	79.13
287.091	76.58
287.559	79.43
288.026	79.48
288.494	86.48
288.962	82.73
289.429	81.98
289.897	77.68
290.364	78.23
290.832	88.23
291.3	87.98
291.767	87.78
292.234	90.13
292.702	91.23
293.169	90.48
293.637	93.88
294.104	89.88
294.571	92.58
295.039	97.68
295.506	89.63
295.973	89.33
296.44	93.73
296.908	101.78
297.375	96.18
297.842	101.28
298.309	95.88
298.776	93.48
299.243	100.38
299.71	105.03
300.177	101.23
300.644	102.38
301.111	104.43
301.578	106.03
302.045	105.78
302.512	104.23
302.979	114.03
303.446	116.68
303.913	113.93
304.379	117.93
304.846	116.18
305.313	126.08
305.78	126.38
306.246	121.03
306.713	124.73
307.18	128.43
307.646	127.73
308.113	124.88
308.579	132.43
309.046	133.73
309.512	133.68
309.979	131.43
310.445	133.33
310.912	140.78
311.378	142.63
311.845	135.08
312.311	141.33
312.777	142.13
313.244	142.98
313.71	147.23
314.176	152.98
314.642	147.93
315.109	149.88
315.575	146.28
316.041	148.68
316.507	154.18
316.973	158.28
317.439	155.43
317.905	155.53
318.371	157.28
318.837	155.28
319.303	156.78
319.769	158.48
320.235	163.53
320.701	162.38
321.167	161.68
321.633	163.88
322.099	161.43
322.564	170.58
323.03	171.08
323.496	171.68
323.962	175.78
324.427	176.73
324.893	174.53
325.359	177.33
325.824	183.08
326.29	185.63
326.755	181.23
327.221	179.38
327.686	191.53
328.152	191.18
328.617	193.33
329.083	195.18
329.548	197.48
330.014	198.78
330.479	201.93
330.944	204.53
331.41	207.93
331.875	197.43
332.34	196.43
332.805	206.38
333.271	202.23
333.736	207.08
334.201	211.03
334.666	227.68
335.131	225.83
335.596	226.98
336.061	217.33
336.526	215.28
336.991	213.88
337.456	214.03
337.921	205.58
338.386	210.63
338.851	210.58
339.316	212.48
339.781	212.98
340.246	217.18
340.711	223.18
341.175	223.78
341.64	231.23
342.105	233.58
342.569	247.88
343.034	238.13
343.499	237.28
343.963	250.23
344.428	243.13
344.893	240.23
345.357	254.98
345.822	254.43
346.286	259.88
346.751	263.03
347.215	268.48
347.679	274.28
348.144	287.73
348.608	289.88
349.073	287.53
349.537	296.93
350.001	294.88
350.465	295.78
350.93	299.63
351.394	305.43
351.858	306.88
352.322	315.93
352.786	310.68
353.25	311.83
353.715	320.63
354.179	328.58
354.643	336.68
355.107	339.78
355.571	334.88
356.035	327.78
356.498	336.23
356.962	326.43
357.426	327.88
357.89	329.88
358.354	326.28
358.818	325.28
359.281	322.98
359.745	328.93
360.209	326.28
360.673	329.93
361.136	327.13
361.6	334.33
362.064	335.78
362.527	349.83
362.991	347.98
363.454	339.48
363.918	349.18
364.381	353.53
364.845	355.38
365.308	344.33
365.772	349.38
366.235	355.38
366.698	355.48
367.162	351.23
367.625	359.43
368.088	367.43
368.552	361.18
369.015	369.93
369.478	373.68
369.941	370.98
370.404	379.43
370.867	371.38
371.331	378.38
371.794	381.13
372.257	386.88
372.72	381.63
373.183	388.83
373.646	391.73
374.109	391.73
374.572	394.83
375.035	397.48
375.497	407.33
375.96	402.53
376.423	410.73
376.886	415.93
377.349	425.73
377.811	426.73
378.274	425.43
378.737	417.78
379.199	429.23
379.662	429.13
380.125	434.93
380.587	440.13
381.05	445.68
381.512	446.78
381.975	462.83
382.437	469.48
382.9	459.58
383.362	469.58
383.825	476.78
384.287	477.03
384.75	476.03
385.212	475.63
385.674	481.88
386.136	485.58
386.599	482.18
387.061	483.43
387.523	489.93
387.985	490.28
388.447	500.53
388.91	496.13
389.372	501.88
389.834	504.98
390.296	495.83
390.758	495.43
391.22	494.98
391.682	499.33
392.144	498.08
392.606	503.63
393.068	518.68
393.529	544.18
393.991	551.33
394.453	523.78
394.915	514.48
395.377	505.23
395.838	518.08
396.3	508.88
396.762	521.18
397.224	511.18
397.685	518.48
398.147	520.93
398.608	533.48
399.07	531.63
399.531	536.78
399.993	543.58
400.454	553.73
400.916	560.68
401.377	566.13
401.839	564.33
402.3	567.48
402.762	597.48
403.223	637.48
403.684	637.33
404.145	616.33
404.607	598.98
405.068	588.13
405.529	595.73
405.99	611.93
406.451	620.78
406.913	608.68
407.374	611.48
407.835	610.38
408.296	624.93
408.757	629.43
409.218	637.28
409.679	652.58
410.14	655.23
410.601	671.63
411.062	671.73
411.522	670.48
411.983	670.38
412.444	687.73
412.905	697.08
413.366	719.88
413.826	751.73
414.287	839.33
414.748	998.88
415.208	1019.18
415.669	851.33
416.13	777.83
416.59	756.93
417.051	782.38
417.511	821.73
417.972	885.43
418.432	953.18
418.893	1047.88
419.353	1008.18
419.814	771.98
420.274	697.98
420.734	684.83
421.195	707.53
421.655	711.98
422.115	724.73
422.576	716.03
423.036	724.18
423.496	746.08
423.956	784.93
424.416	834.88
424.876	927.78
425.336	935.08
425.797	910.03
426.257	900.08
426.717	856.43
427.177	807.88
427.637	807.53
428.097	837.58
428.556	867.43
429.016	933.23
429.476	932.13
429.936	916.18
430.396	913.13
430.856	946.08
431.315	969.13
431.775	1023.98
432.235	1099.18
432.694	1115.93
433.154	1053.53
433.614	1034.93
434.073	985.63
434.533	896.38
434.993	873.63
435.452	873.23
435.912	850.98
436.371	849.13
436.83	837.58
437.29	822.88
437.749	796.38
438.209	792.83
438.668	796.33
439.127	817.53
439.587	810.43
440.046	779.98
440.505	796.58
440.964	808.93
441.424	830.58
441.883	844.48
442.342	803.13
442.801	775.58
443.26	768.23
443.719	760.03
444.178	764.53
444.637	768.88
445.096	784.83
445.555	791.93
446.014	794.13
446.473	773.08
446.932	781.28
447.391	797.48
447.849	809.18
448.308	792.28
448.767	804.88
449.226	811.73
449.685	822.23
450.143	859.58
450.602	853.63
451.061	808.83
451.519	821.58
451.978	798.88
452.436	798.08
452.895	812.48
453.353	801.23
453.812	795.93
454.27	798.38
454.729	795.98
455.187	808.78
455.646	818.43
456.104	812.53
456.562	823.08
457.021	839.18
457.479	799.38
457.937	822.93
458.395	852.03
458.854	838.33
459.312	829.38
459.77	832.83
460.228	843.28
460.686	859.33
461.144	859.18
461.602	847.73
462.06	856.83
462.518	874.88
462.976	873.43
463.434	879.13
463.892	893.73
464.35	911.68
464.808	923.58
465.266	934.28
465.724	951.03
466.181	947.98
466.639	943.08
467.097	983.13
467.555	1020.83
468.012	1009.73
468.47	1022.83
468.928	1049.33
469.385	1077.63
469.843	1092.98
470.3	1086.13
470.758	1120.03
471.215	1136.18
471.673	1162.08
472.13	1190.63
472.588	1205.68
473.045	1212.38
473.503	1229.68
473.96	1285.68
474.417	1303.08
474.875	1347.73
475.332	1406.38
475.789	1432.83
476.246	1469.33
476.704	1532.38
477.161	1583.38
477.618	1624.08
478.075	1706.28
478.532	1837.58
478.989	1979.78
479.446	2180.83
479.903	2283.73
480.36	2512.43
480.817	2645.03
481.274	2818.73
481.731	3079.33
482.188	3302.68
482.645	3566.33
483.102	3739.93
483.558	4014.28
484.015	4166.98
484.472	4150.68
484.929	4020.38
485.385	3868.23
485.842	3783.68
486.299	3625.08
486.755	3332.63
487.212	3003.18
487.668	2713.83
488.125	2515.23
488.582	2332.93
489.038	2245.53
489.494	2173.73
489.951	2107.23
490.407	2062.48
490.864	2010.28
491.32	1974.53
491.776	1956.43
492.233	1957.98
492.689	1930.23
493.145	1886.73
493.602	1862.98
494.058	1887.83
494.514	1886.73
494.97	1890.43
495.426	1915.23
495.882	1913.58
496.338	1915.58
496.794	1927.78
497.251	1920.13
497.707	1943.73
498.163	1948.78
498.618	1936.43
499.074	1929.33
499.53	1964.23
499.986	1963.93
500.442	1953.63
500.898	1924.73
501.354	1942.93
501.809	1955.33
502.265	1955.88
502.721	1962.48
503.177	1952.28
503.632	1961.48
504.088	1986.33
504.543	2010.93
504.999	2029.38
505.455	2011.18
505.91	1997.18
506.366	1998.18
506.821	2008.58
507.277	1991.18
507.732	1991.18
508.187	1998.03
508.643	2019.33
509.098	2020.48
509.553	2046.58
510.009	2068.83
510.464	2104.03
510.919	2119.83
511.375	2131.88
511.83	2156.98
512.285	2211.63
512.74	2258.43
513.195	2273.33
513.65	2317.48
514.105	2347.03
514.56	2345.43
515.015	2387.38
515.47	2399.03
515.925	2366.53
516.38	2369.38
516.835	2392.68
517.29	2369.68
517.745	2352.43
518.2	2331.03
518.655	2288.78
519.109	2257.93
519.564	2230.38
520.019	2209.88
520.474	2195.23
520.928	2178.98
521.383	2160.03
521.838	2152.13
522.292	2143.13
522.747	2127.48
523.201	2116.78
523.656	2095.83
524.11	2085.83
524.565	2080.18
525.019	2084.48
525.474	2084.23
525.928	2063.03
526.382	2069.98
526.837	2077.63
527.291	2079.38
527.745	2074.28
528.2	2072.48
528.654	2044.63
529.108	2055.98
529.562	2041.08
530.016	2050.18
530.47	2066.08
530.925	2046.13
531.379	2051.28
531.833	2077.53
532.287	2065.58
532.741	2062.73
533.195	2057.98
533.649	2061.88
534.103	2070.28
534.556	2053.38
535.01	2063.58
535.464	2055.38
535.918	2058.18
536.372	2077.78
536.826	2068.08
537.279	2051.28
537.733	2054.18
538.187	2066.93
538.64	2057.63
539.094	2080.73
539.548	2100.98
540.001	2105.83
540.455	2103.68
540.908	2100.93
541.362	2136.63
541.815	2146.88
542.269	2191.13
542.722	2190.98
543.175	2218.98
543.629	2212.33
544.082	2234.98
544.536	2264.58
544.989	2262.13
545.442	2274.63
545.895	2275.33
546.349	2268.98
546.802	2284.43
547.255	2275.63
547.708	2299.33
548.161	2311.83
548.614	2302.33
549.067	2324.98
549.52	2304.93
549.973	2288.73
550.426	2283.03
550.879	2272.18
551.332	2277.18
551.785	2289.48
552.238	2310.93
552.691	2314.83
553.144	2356.23
553.596	2396.63
554.049	2419.53
554.502	2467.83
554.955	2493.13
555.407	2532.63
555.86	2502.63
556.313	2477.93
556.765	2460.98
557.218	2439.73
557.67	2428.98
558.123	2390.13
558.576	2385.83
559.028	2377.73
559.48	2411.78
559.933	2391.33
560.385	2316.38
560.838	2245.98
561.29	2174.63
561.742	2176.53
562.195	2116.48
562.647	2109.88
563.099	2095.18
563.551	2075.43
564.004	2093.13
564.456	2080.48
564.908	2031.18
565.36	2000.38
565.812	1951.73
566.264	1939.98
566.716	1900.43
567.168	1882.93
567.62	1892.73
568.072	1874.78
568.524	1859.23
568.976	1852.28
569.428	1836.38
569.88	1832.83
570.332	1839.03
570.784	1852.73
571.235	1850.48
571.687	1868.03
572.139	1862.38
572.59	1879.53
573.042	1884.03
573.494	1891.38
573.945	1865.28
574.397	1826.98
574.849	1821.43
575.3	1819.43
575.752	1804.68
576.203	1783.13
576.655	1788.78
577.106	1767.38
577.557	1747.88
578.009	1734.78
578.46	1751.98
578.912	1726.43
579.363	1753.78
579.814	1747.13
580.265	1744.98
580.717	1739.33
581.168	1740.08
581.619	1745.28
582.07	1764.78
582.521	1756.73
582.972	1742.33
583.423	1755.38
583.875	1760.33
584.326	1776.43
584.777	1796.13
585.227	1824.93
585.678	1845.73
586.129	1857.48
586.58	1886.38
587.031	1914.03
587.482	1956.38
587.933	1979.18
588.384	1989.88
588.834	1959.08
589.285	1948.73
589.736	1953.63
590.186	1951.23
590.637	1939.13
591.088	1901.88
591.538	1873.08
591.989	1824.38
592.439	1800.38
592.89	1790.03
593.34	1783.63
593.791	1783.13
594.241	1774.28
594.692	1765.33
595.142	1761.03
595.593	1752.48
596.043	1769.23
596.493	1785.98
596.943	1784.13
597.394	1833.58
597.844	1854.43
598.294	1901.13
598.744	1960.48
599.195	2043.83
599.645	2151.83
600.095	2264.63
600.545	2368.73
600.995	2463.33
601.445	2551.53
601.895	2677.18
602.345	2746.33
602.795	2722.63
603.245	2621.58
603.695	2475.08
604.145	2342.73
604.594	2231.18
605.044	2125.23
605.494	1983.63
605.944	1888.48
606.393	1843.38
606.843	1803.83
607.293	1798.98
607.743	1791.23
608.192	1800.98
608.642	1800.43
609.091	1802.38
609.541	1786.63
609.99	1795.88
610.44	1765.73
610.889	1730.83
611.339	1718.43
611.788	1696.58
612.238	1704.08
612.687	1718.73
613.136	1711.03
613.586	1743.63
614.035	1731.38
614.484	1750.18
614.933	1742.03
615.383	1707.98
615.832	1670.83
616.281	1654.63
616.73	1613.93
617.179	1572.23
617.628	1551.83
618.077	1527.48
618.526	1501.23
618.975	1493.68
619.424	1459.18
619.873	1465.13
620.322	1448.73
620.771	1454.78
621.22	1426.53
621.669	1398.88
622.118	1392.73
622.567	1376.38
623.015	1345.33
623.464	1353.48
623.913	1329.23
624.361	1335.38
624.81	1330.83
625.259	1333.53
625.707	1322.43
626.156	1328.33
626.604	1348.33
627.053	1352.43
627.501	1352.58
627.95	1360.68
628.398	1378.93
628.847	1363.28
629.295	1356.13
629.744	1349.13
630.192	1322.78
630.64	1304.53
631.089	1283.63
631.537	1258.18
631.985	1235.73
632.433	1239.78
632.881	1226.58
633.33	1240.83
633.778	1228.13
634.226	1238.58
634.674	1261.68
635.122	1257.33
635.57	1284.03
636.018	1308.63
636.466	1300.23
636.914	1304.73
637.362	1320.93
637.81	1342.98
638.258	1392.83
638.705	1414.68
639.153	1455.68
639.601	1463.58
640.049	1479.98
640.497	1524.93
640.944	1564.88
641.392	1505.48
641.84	1424.13
642.287	1366.58
642.735	1335.83
643.182	1318.13
643.63	1315.83
644.078	1328.28
644.525	1342.53
644.973	1393.63
645.42	1418.93
645.867	1443.43
646.315	1478.28
646.762	1555.88
647.21	1584.88
647.657	1665.53
648.104	1734.68
648.551	1774.68
648.999	1918.38
649.446	2109.18
649.893	2357.33
650.34	2755.28
650.787	3396.53
651.234	4379.28
651.682	6033.78
652.129	8487.68
652.576	12024.33
653.023	15411.98
653.47	15536.08
653.917	15536.13
654.363	15536.03
654.81	15533.03
655.257	15533.68
655.704	15233.23
656.151	9431.13
656.598	6186.48
657.044	4434.23
657.491	3464.83
657.938	2812.78
658.385	2379.43
658.831	2105.23
659.278	1878.33
659.724	1725.73
660.171	1601.18
660.618	1482.73
661.064	1402.68
661.511	1358.93
661.957	1317.98
662.404	1293.43
662.85	1272.18
663.296	1254.58
663.743	1228.23
664.189	1210.08
664.635	1199.43
665.082	1170.48
665.528	1159.93
665.974	1123.23
666.42	1100.58
666.867	1102.48
667.313	1043.53
667.759	1040.13
668.205	1023.43
668.651	1030.38
669.097	1018.03
669.543	1036.33
669.989	1030.68
670.435	1037.28
670.881	1054.83
671.327	1100.23
671.773	1166.98
672.219	1253.88
672.665	1334.78
673.11	1369.88
673.556	1383.08
674.002	1416.53
674.448	1436.78
674.893	1237.78
675.339	1080.08
675.785	997.03
676.23	942.28
676.676	905.93
677.122	887.88
677.567	859.63
678.013	830.43
678.458	829.98
678.904	821.33
679.349	809.53
679.794	805.93
680.24	804.28
680.685	793.08
681.131	793.13
681.576	800.23
682.021	809.33
682.466	814.83
682.912	819.53
683.357	861.08
683.802	932.68
684.247	1015.03
684.692	1086.33
685.137	1129.33
685.583	1154.43
686.028	1218.08
686.473	1148.08
686.918	1000.28
687.363	915.73
687.807	869.68
688.252	831.58
688.697	795.23
689.142	777.08
689.587	770.53
690.032	795.73
690.477	817.58
690.921	861.83
691.366	904.68
691.811	948.43
692.255	1025.18
692.7	1238.33
693.145	1778.83
693.589	2704.38
694.034	3226.23
694.478	3446.28
694.923	3146.73
695.367	4466.03
695.812	2738.78
696.256	1169.83
696.701	849.73
697.145	787.48
697.59	758.83
698.034	746.53
698.478	745.33
698.922	743.88
699.367	760.08
699.811	796.53
700.255	866.88
700.699	940.53
701.143	1030.33
701.588	1075.43
702.032	1118.48
702.476	1167.68
702.92	1244.53
703.364	1618.08
703.808	2470.68
704.252	3085.93
704.696	3262.78
705.14	3088.98
705.584	4232.03
706.027	2366.38
706.471	1190.88
706.915	896.03
707.359	789.43
707.803	735.43
708.246	716.88
708.69	709.43
709.134	698.88
709.577	705.88
710.021	697.63
710.465	702.13
710.908	690.88
711.352	723.63
711.795	801.03
712.239	863.38
712.682	882.03
713.126	863.98
713.569	961.43
714.012	793.28
714.456	697.28
714.899	648.88
715.342	625.43
715.786	594.93
716.229	586.33
716.672	566.38
717.115	572.33
717.558	579.68
718.002	594.88
718.445	615.68
718.888	655.33
719.331	662.03
719.774	678.03
720.217	667.78
720.66	632.88
721.103	600.93
721.546	569.33
721.989	550.08
722.432	542.13
722.874	543.68
723.317	549.63
723.76	597.83
724.203	730.73
724.645	968.83
725.088	1141.63
725.531	1122.68
725.974	1233.28
726.416	1106.83
726.859	688.98
727.301	567.13
727.744	540.03
728.187	532.98
728.629	551.93
729.071	578.53
729.514	606.08
729.956	629.38
730.399	641.48
730.841	643.88
731.283	633.18
731.726	606.13
732.168	612.73
732.61	652.73
733.053	697.23
733.495	772.73
733.937	860.73
734.379	1006.13
734.821	1285.33
735.263	2047.53
735.705	3652.63
736.148	5381.28
736.59	5421.58
737.032	5843.48
737.474	4843.13
737.916	1869.43
738.357	988.33
738.799	754.33
739.241	702.98
739.683	703.43
740.125	731.33
740.567	735.88
741.008	780.43
741.45	829.23
741.892	864.83
742.334	867.78
742.775	871.38
743.217	834.33
743.658	696.03
744.1	716.68
744.542	837.33
744.983	867.63
745.425	908.53
745.866	885.63
746.307	733.78
746.749	767.03
747.19	1106.43
747.632	2143.58
748.073	3978.78
748.514	5533.03
748.956	7311.63
749.397	8607.63
749.838	5947.93
750.279	5668.08
750.72	2940.23
751.162	1259.03
751.603	719.63
752.044	576.53
752.485	509.63
752.926	478.58
753.367	461.13
753.808	444.03
754.249	440.83
754.69	431.93
755.131	433.08
755.572	426.18
756.013	429.68
756.453	426.73
756.894	435.48
757.335	438.88
757.776	449.88
758.216	464.83
758.657	484.38
759.098	537.48
759.538	652.13
759.979	941.93
760.42	1878.98
760.86	4816.13
761.301	9974.93
761.741	11778.18
762.182	13512.03
762.622	8801.63
763.063	3151.78
763.503	1291.78
763.943	753.33
764.384	597.48
764.824	516.28
765.264	480.08
765.705	443.18
766.145	430.38
766.585	416.28
767.025	394.63
767.465	402.48
767.906	405.53
768.346	437.83
768.786	499.73
769.226	738.03
769.666	1480.43
770.106	3308.48
770.546	4708.78
770.986	5346.68
771.426	4070.38
771.866	1700.58
772.306	767.63
772.745	479.63
773.185	407.13
773.625	395.83
774.065	427.68
774.505	613.03
774.944	1102.13
775.384	1602.78
775.824	1801.63
776.263	1488.93
776.703	785.03
777.142	445.93
777.582	331.08
778.021	307.28
778.461	285.88
778.9	288.93
779.34	277.78
779.779	275.68
780.219	268.18
780.658	261.88
781.097	258.88
781.537	250.13
781.976	249.83
782.415	248.08
782.855	246.58
783.294	241.63
783.733	238.33
784.172	247.68
784.611	253.33
785.05	252.28
785.489	261.68
785.928	263.68
786.367	276.08
786.806	289.98
787.245	312.13
787.684	321.23
788.123	318.93
788.562	302.88
789.001	290.93
789.44	290.38
789.879	294.23
790.317	296.38
790.756	311.98
791.195	362.43
791.634	482.03
792.072	858.33
792.511	2098.28
792.95	3879.33
793.388	4698.38
793.827	3071.58
794.265	1397.68
794.704	677.03
795.142	413.33
795.581	339.48
796.019	314.83
796.458	311.68
796.896	318.13
797.334	363.53
797.773	490.63
798.211	931.68
798.649	1943.53
799.087	3257.93
799.526	4614.78
799.964	4768.08
800.402	3299.88
800.84	1491.03
801.278	726.63
801.716	442.48
802.154	358.63
802.592	339.03
803.03	343.13
803.468	344.28
803.906	349.88
804.344	339.88
804.782	335.33
805.22	337.38
805.658	347.88
806.096	373.78
806.533	418.33
806.971	531.28
807.409	767.33
807.847	1530.88
808.284	3900.03
808.722	6831.03
809.16	9596.78
809.597	12943.18
810.035	15339.93
810.472	10580.43
810.91	4499.98
811.347	2007.98
811.785	953.48
812.222	599.28
812.66	458.58
813.097	389.28
813.535	343.93
813.972	306.68
814.409	280.03
814.846	271.68
815.284	257.18
815.721	268.03
816.158	293.98
816.595	404.73
817.032	513.93
817.47	465.28
817.907	333.23
818.344	294.18
818.781	285.33
819.218	358.63
819.655	541.83
820.092	721.68
820.529	644.88
820.966	502.88
821.403	346.08
821.839	293.18
822.276	327.63
822.713	389.73
823.15	359.23
823.587	365.08
824.023	632.53
824.46	1594.43
824.897	2782.98
825.333	2197.53
825.77	1005.88
826.206	523.78
826.643	304.63
827.08	225.63
827.516	198.73
827.953	189.13
828.389	180.78
828.825	174.48
829.262	163.03
829.698	158.78
830.135	155.98
830.571	151.93
831.007	155.18
831.443	153.88
831.88	158.93
832.316	161.83
832.752	159.78
833.188	161.48
833.624	159.88
834.06	161.23
834.497	168.23
834.933	169.38
835.369	184.98
835.805	191.98
836.241	202.53
836.677	219.78
837.112	257.48
837.548	320.58
837.984	469.18
838.42	1005.33
838.856	2808.68
839.292	5541.58
839.727	4164.28
840.163	2779.53
840.599	4207.38
841.034	6426.28
841.47	3238.13
841.906	1551.28
842.341	838.23
842.777	637.78
843.212	660.43
843.648	407.78
844.083	273.43
844.519	207.48
844.954	173.28
845.39	153.98
845.825	146.88
846.261	143.13
846.696	139.43
847.131	134.18
847.566	133.63
848.002	136.68
848.437	149.43
848.872	151.93
849.307	191.48
849.742	347.48
850.177	918.13
850.613	1946.68
851.048	1417.63
851.483	651.03
851.918	363.98
852.353	200.28
852.788	141.88
853.223	132.53
853.657	117.03
854.092	111.73
854.527	104.83
854.962	120.18
855.397	134.43
855.832	120.13
856.266	103.48
856.701	106.33
857.136	104.78
857.57	130.58
858.005	162.63
858.44	143.53
858.874	128.53
859.309	129.18
859.743	121.88
860.178	121.58
860.612	135.78
861.047	186.78
861.481	265.48
861.915	175.63
862.35	129.03
862.784	106.08
863.218	98.58
863.653	110.63
864.087	131.38
864.521	161.63
864.955	267.88
865.39	458.68
865.824	365.18
866.258	474.53
866.692	732.43
867.126	528.58
867.56	281.83
867.994	179.73
868.428	150.33
868.862	190.83
869.296	176.33
869.73	211.48
870.164	177.88
870.598	161.03
871.031	116.33
871.465	103.88
871.899	82.03
872.333	72.23
872.766	75.48
873.2	80.38
873.634	64.93
874.067	80.58
874.501	74.58
874.935	79.03
875.368	71.58
875.802	69.78
876.235	73.18
876.669	65.73
877.102	57.58
877.535	59.68
877.969	55.43
878.402	63.03
878.836	61.68
879.269	58.88
879.702	55.08
880.135	62.48
880.569	63.23
881.002	58.83
881.435	58.98
881.868	56.23
882.301	53.78
882.734	50.88
883.167	55.48
883.601	53.98
884.034	52.53
884.467	45.53
884.899	46.93
885.332	47.23
885.765	45.58
886.198	46.33
886.631	50.23
887.064	47.38
887.497	49.88
887.929	45.58
888.362	48.08
888.795	48.93
889.228	47.58
889.66	48.13
890.093	46.28
890.526	43.18
890.958	42.58
891.391	47.83
891.823	43.93
892.256	45.78
892.688	45.08
893.121	39.98
893.553	44.38
893.985	42.48
894.418	39.33
894.85	53.43
895.282	45.28
895.715	40.23
896.147	38.38
896.579	39.23
897.011	45.53
897.444	42.28
897.876	34.28
898.308	35.98
898.74	41.13
899.172	47.18
899.604	40.83
900.036	43.53
900.468	39.83
900.9	47.83
901.332	51.43
901.764	56.88
902.196	54.48
902.628	57.68
903.06	86.93
903.491	86.43
903.923	78.73
904.355	72.73
904.787	79.38
905.218	63.73
905.65	61.43
906.082	54.73
906.513	46.98
906.945	51.93
907.376	45.48
907.808	52.08
908.239	52.58
908.671	62.83
909.102	66.88
909.534	95.13
909.965	178.23
910.397	453.43
910.828	1307.63
911.259	801.78
911.691	431.68
912.122	252.38
912.553	129.88
912.984	71.68
913.415	61.53
913.847	58.03
914.278	51.18
914.709	44.73
915.14	42.93
915.571	43.88
916.002	45.78
916.433	41.78
916.864	37.08
917.295	43.93
917.726	49.58
918.157	58.28
918.587	65.58
919.018	60.08
919.449	54.28
919.88	64.08
920.311	101.03
920.741	270.53
921.172	480.53
921.603	243.88
922.033	153.33
922.464	98.63
922.895	64.08
923.325	44.93
923.756	41.78
924.186	51.18
924.617	81.28
925.047	117.98
925.478	99.08
925.908	74.53
926.338	55.18
926.769	42.63
927.199	39.18
927.629	36.33
928.06	36.88
928.49	38.78
928.92	36.18
929.35	29.83
929.78	25.78
930.21	27.43
930.641	21.98
931.071	21.88
931.501	17.58
931.931	21.78
932.361	21.88
932.791	27.03
933.221	30.63
933.651	40.33
934.08	61.13
934.51	39.48
934.94	31.13
935.37	24.13
935.8	20.23
936.229	20.53
936.659	25.23
937.089	42.63
937.519	65.73
937.948	80.83
938.378	50.03
938.807	29.48
939.237	17.63
939.666	18.88
940.096	9.58
940.525	7.83
940.955	17.38
941.384	8.08
941.814	11.88
942.243	14.38
942.672	11.83
943.102	7.48
943.531	11.18
943.96	9.18
944.39	14.98
944.819	12.58
945.248	11.98
945.677	7.38
946.106	9.73
946.535	11.28
946.964	11.63
947.393	10.18
947.822	10.13
948.251	12.68
948.68	12.43
949.109	11.93
949.538	5.58
949.967	10.98
950.396	10.38
950.825	12.38
951.254	10.08
951.682	3.18
952.111	3.43
952.54	9.78
952.969	8.98
953.397	6.98
953.826	7.38
954.254	11.13
954.683	10.98
955.112	11.73
955.54	5.93
955.969	9.78
956.397	7.38
956.826	6.08
957.254	8.43
957.682	9.08
958.111	8.43
958.539	8.68
958.967	5.23
959.396	12.83
959.824	6.68
960.252	8.18
960.68	7.43
961.109	10.88
961.537	16.03
961.965	3.33
962.393	7.63
962.821	5.08
963.249	11.48
963.677	17.63
964.105	80.53
964.533	138.38
964.961	66.13
965.389	41.53
965.817	20.68
966.245	14.08
966.672	10.03
967.1	11.08
967.528	2.33
967.956	7.23
968.383	9.53
968.811	6.33
969.239	9.13
969.666	8.78
970.094	2.73
970.522	5.88
970.949	4.33
971.377	-2.07
971.804	-1.57
972.232	5.73
972.659	6.38
973.087	3.98
973.514	1.83
973.941	3.48
974.369	3.23
974.796	3.88
975.223	4.03
975.651	7.03
976.078	10.53
976.505	13.93
976.932	33.78
977.359	41.48
977.786	27.53
978.214	20.58
978.641	5.43
979.068	5.98
979.495	3.78
979.922	7.83
980.349	7.73
980.776	4.93
981.202	4.03
981.629	6.18
982.056	3.43
982.483	0.93
982.91	9.03
983.337	4.88
983.763	2.28
984.19	2.33
984.617	0.03
985.043	5.23
985.47	12.18
985.897	5.93
986.323	7.93
986.75	5.78
987.176	5.53
987.603	0.08
988.029	7.98
988.456	9.08
988.882	2.08
989.308	2.58
989.735	4.63
990.161	5.43
990.587	1.98
991.014	3.78
991.44	4.38
991.866	7.13
992.292	2.83
992.719	0.98
993.145	6.48
993.571	6.18
993.997	3.28
994.423	5.58
994.849	3.08
995.275	3.83
995.701	1.43
996.127	-2.77
996.553	2.53
996.979	-1.27
997.405	5.98
997.83	-2.17
998.256	5.38
998.682	2.03
999.108	5.83
999.534	-2.72
999.959	2.03
1000.385	8.58
1000.811	0.18
1001.236	-5.27
1001.662	0.03
1002.087	7.33
1002.513	1.68
1002.938	2.43
1003.364	1.73
1003.789	8.03
1004.215	2.13
1004.64	4.78
1005.066	6.13
1005.491	3.53
1005.916	7.68
1006.342	6.03
1006.767	2.18
1007.192	6.88
1007.617	5.93
1008.042	4.03
1008.468	3.73
1008.893	3.28
1009.318	11.08
1009.743	18.68
1010.168	32.18
1010.593	27.33
1011.018	15.18
1011.443	9.58
1011.868	10.23
1012.293	4.48
1012.718	-1.37
1013.143	4.58
1013.567	6.48
1013.992	4.78
1014.417	2.98
1014.842	-1.17
1015.267	-1.57
1015.691	7.53
1016.116	3.53
1016.541	2.93
1016.965	2.98
1017.39	5.93
1017.814	-0.72
1018.239	2.78
1018.663	-4.42
1019.088	-2.87
1019.512	6.53
1019.937	-1.87
1020.361	3.63
1020.785	0.78
1021.21	-1.72
1021.634	-0.42
1022.058	0.48
1022.483	-1.32
1022.907	-2.32
1023.331	-3.97
1023.755	-1.67
1024.179	0.68
1024.604	1.48
1025.028	2.23
1025.452	-1.42
1025.876	3.08
1026.3	1.58
1026.724	-1.87
1027.148	1.38
1027.572	0.13
1027.996	3.28
1028.42	-0.92
1028.843	1.63
1029.267	1.28
1029.691	-0.42
1030.115	-1.62
1030.539	-1.02
1030.962	-4.42
1031.386	-4.32
1031.81	-2.57
1032.233	-0.57
1032.657	-3.02
1033.08	-1.77
1033.504	4.58
1033.927	-0.17
1034.351	-0.02
1034.774	-3.57
1035.198	-3.67
1035.621	-0.12
1036.045	-0.02
1036.468	4.08
1036.891	0.73
1037.315	4.23
1037.738	2.23
1038.161	3.48
1038.584	-1.22
1039.008	-3.77
1039.431	-4.62
1039.854	-7.82
1040.277	0.33
1040.7	1.53
1041.123	-2.77
1041.546	-0.92
1041.969	-2.27
1042.392	0.98
1042.815	-7.72
1043.238	-0.12
1043.661	1.13
1044.084	-6.12
1044.507	-2.02
1044.93	-0.62
1045.352	-3.27
1045.775	2.83
1046.198	4.53
1046.621	5.48
1047.043	3.18
1047.466	0.58
1047.889	0.73
1048.311	5.68
1048.734	-0.77
1049.156	2.53
1049.579	1.98
1050.001	0.18
1050.424	-3.67
1050.846	-2.97
1051.269	2.73
1051.691	0.58
1052.113	1.33
1052.536	-0.57
1052.958	-1.07
1053.38	-3.22
1053.802	-0.17
1054.225	0.38
1054.647	-0.02
1055.069	2.38
1055.491	2.28
1055.913	3.38
1056.335	-8.32
1056.757	-4.47
1057.179	-4.42
1057.601	-1.17
1058.023	2.68
1058.445	-4.57
1058.867	2.93
1059.289	-1.32
1059.711	-2.12
1060.133	-0.47
1060.555	2.13
1060.976	1.58
1061.398	-0.62
1061.82	-0.52
1062.241	2.08
1062.663	-2.72
1063.085	-4.22
1063.506	-7.52
1063.928	1.93
1064.35	-1.52
1064.771	-2.97
1065.193	-4.37
1065.614	-3.47
1066.035	6.63
1066.457	6.23
1066.878	0.03
1067.3	-0.97
1067.721	2.58
1068.142	1.63
1068.564	4.63
1068.985	-2.17
1069.406	-3.67
1069.827	2.03
1070.248	-5.52
1070.67	-3.77
1071.091	-7.62
1071.512	-1.37
1071.933	-2.82
1072.354	-8.12
1072.775	1.68
1073.196	-1.77
1073.617	-5.42
1074.038	-5.97
1074.459	-3.77
1074.88	-3.12
1075.3	-2.67
1075.721	0.73
1076.142	-2.07
1076.563	-7.67
1076.983	-1.12
1077.404	-5.67
1077.825	0.83
1078.246	-3.67
1078.666	-6.72
1079.087	-5.57
1079.507	-3.92
1079.928	-1.17
1080.348	1.48
1080.769	-0.42
1081.189	0.93
1081.61	-8.12
1082.03	2.53
1082.451	-3.97
1082.871	-4.12
1083.291	-2.22
1083.711	-3.92
1084.132	-4.17
1084.552	-3.47
1084.972	-6.57
1085.392	-5.07
1085.813	0.73
1086.233	-2.72
1086.653	0.08
1087.073	-7.72
1087.493	-5.22
1087.913	-4.57
1088.333	-0.92
1088.753	-0.82
1089.173	3.48
1089.593	-0.82
1090.013	-5.77
1090.433	-4.47
1090.852	0.13
1091.272	-7.87
1091.692	-3.67
1092.112	-2.57
1092.531	-0.52
1092.951	-3.32
1093.371	-3.27
1093.79	-0.17
1094.21	-3.57
1094.63	-4.07
1095.049	-0.77
1095.469	-8.72
1095.888	-2.37
1096.308	2.78
1096.727	-3.67
1097.146	-4.57
1097.566	-6.12
1097.985	-5.67
1098.405	2.03
1098.824	0.98
1099.243	-5.12
1099.662	-1.92
1100.082	-3.42
1100.501	-1.52
1100.92	5.18
1101.339	2.03
1101.758	1.33
