Data from 20171114-ORNL-Ar_H_NY_Subt18_08-07-14-237.txt Node
Date: Tue Nov 14 08:07:14 EST 2017
User: Ender
Spectrometer: HR+D1039
Trigger mode: 0
Integration Time (sec): 2.730000E-2
Scans to average: 10
Electric dark correction enabled: true
Nonlinearity correction enabled: false
Boxcar width: 0
XAxis mode: Wavelengths
Number of Pixels in Spectrum: 2048
>>>>>Begin Spectral Data<<<<<
187.836	-2.13
188.309	-2.13
188.782	-2.13
189.255	-3.23
189.728	-4.63
190.201	8.17
190.674	1.57
191.147	8.77
191.619	-10.63
192.092	6.67
192.565	2.47
193.038	-0.03
193.511	0.77
193.984	-1.03
194.456	-1.33
194.929	-2.53
195.402	-3.73
195.874	0.87
196.347	-2.33
196.82	-3.73
197.292	4.57
197.765	-6.23
198.237	-6.03
198.71	-4.23
199.182	-1.23
199.655	0.27
200.127	1.97
200.6	-2.73
201.072	-2.23
201.544	-4.43
202.017	-1.73
202.489	0.37
202.961	-1.93
203.433	-2.13
203.906	-5.03
204.378	-4.53
204.85	-9.73
205.322	-10.03
205.794	0.67
206.266	-2.93
206.739	-4.43
207.211	1.97
207.683	-8.23
208.155	-3.63
208.627	-11.33
209.099	-9.23
209.57	-5.73
210.042	-10.23
210.514	-4.43
210.986	-8.43
211.458	-15.23
211.93	-6.03
212.402	-1.13
212.873	-4.93
213.345	-10.43
213.817	-17.03
214.288	-5.83
214.76	-8.33
215.232	-0.43
215.703	-5.13
216.175	-2.23
216.646	-4.83
217.118	-9.23
217.589	-11.93
218.061	-5.83
218.532	-0.23
219.004	-3.73
219.475	-0.83
219.946	-5.63
220.418	-6.63
220.889	-0.83
221.36	0.77
221.832	-3.33
222.303	-6.43
222.774	-1.93
223.245	-11.83
223.717	-8.13
224.188	-7.03
224.659	-3.23
225.13	-5.73
225.601	-13.33
226.072	-0.93
226.543	0.17
227.014	-5.63
227.485	-8.03
227.956	-3.73
228.427	-8.73
228.898	-4.83
229.369	2.87
229.839	-9.23
230.31	-8.93
230.781	1.97
231.252	-5.83
231.722	-4.63
232.193	-7.23
232.664	-5.93
233.135	-3.53
233.605	-3.13
234.076	-6.23
234.546	-4.33
235.017	0.87
235.487	-2.83
235.958	-4.53
236.428	-10.23
236.899	-4.43
237.369	-4.53
237.84	-10.53
238.31	2.07
238.78	-5.53
239.251	-6.33
239.721	-9.63
240.191	-7.63
240.662	2.07
241.132	-4.83
241.602	-10.83
242.072	-3.83
242.542	5.57
243.013	0.27
243.483	1.07
243.953	-2.33
244.423	-1.33
244.893	-6.13
245.363	-4.33
245.833	2.37
246.303	-6.13
246.773	6.27
247.243	-1.53
247.712	-6.13
248.182	1.07
248.652	4.17
249.122	-7.73
249.592	-0.13
250.061	-4.43
250.531	0.97
251.001	-7.83
251.471	-0.03
251.94	6.47
252.41	-6.13
252.879	-7.83
253.349	10.67
253.818	7.37
254.288	-1.53
254.757	-5.33
255.227	-9.13
255.696	-3.63
256.166	0.57
256.635	-1.63
257.105	1.37
257.574	-0.33
258.043	-1.23
258.513	-7.63
258.982	2.47
259.451	-1.43
259.92	1.17
260.389	0.37
260.859	-0.43
261.328	5.67
261.797	0.77
262.266	-5.23
262.735	6.37
263.204	-3.63
263.673	-0.23
264.142	0.97
264.611	-9.63
265.08	-2.03
265.549	-3.03
266.018	0.17
266.487	-1.93
266.955	-7.83
267.424	-1.83
267.893	0.77
268.362	-5.43
268.83	0.07
269.299	7.67
269.768	-2.23
270.236	-0.03
270.705	-3.63
271.174	-2.23
271.642	1.47
272.111	-0.43
272.579	-2.13
273.048	3.67
273.516	-2.03
273.985	9.57
274.453	6.67
274.922	10.07
275.39	0.67
275.858	-3.33
276.327	8.77
276.795	6.97
277.263	2.07
277.731	12.17
278.2	6.07
278.668	2.37
279.136	5.37
279.604	5.57
280.072	3.37
280.54	6.17
281.008	7.77
281.477	6.37
281.945	6.17
282.413	10.17
282.881	8.77
283.348	0.57
283.816	4.27
284.284	1.07
284.752	16.37
285.22	4.77
285.688	8.47
286.156	5.37
286.623	12.07
287.091	9.17
287.559	8.77
288.026	4.07
288.494	12.17
288.962	1.27
289.429	8.47
289.897	16.37
290.364	2.17
290.832	8.47
291.3	11.87
291.767	14.27
292.234	9.37
292.702	3.07
293.169	11.47
293.637	16.07
294.104	9.67
294.571	4.67
295.039	11.57
295.506	5.17
295.973	8.57
296.44	8.67
296.908	9.57
297.375	8.17
297.842	5.97
298.309	9.77
298.776	4.77
299.243	15.67
299.71	3.97
300.177	14.17
300.644	13.77
301.111	9.17
301.578	14.27
302.045	12.97
302.512	14.87
302.979	12.07
303.446	12.97
303.913	7.07
304.379	6.07
304.846	19.37
305.313	16.17
305.78	17.07
306.246	10.17
306.713	18.17
307.18	16.67
307.646	17.07
308.113	21.27
308.579	14.97
309.046	17.87
309.512	19.47
309.979	15.87
310.445	17.27
310.912	22.87
311.378	22.47
311.845	24.97
312.311	23.47
312.777	23.77
313.244	21.27
313.71	32.77
314.176	22.37
314.642	19.17
315.109	15.37
315.575	25.77
316.041	31.97
316.507	20.77
316.973	27.57
317.439	23.97
317.905	25.87
318.371	29.37
318.837	25.17
319.303	27.77
319.769	22.67
320.235	28.07
320.701	23.67
321.167	31.27
321.633	20.77
322.099	22.37
322.564	35.07
323.03	31.47
323.496	35.77
323.962	32.97
324.427	29.17
324.893	27.17
325.359	33.27
325.824	26.37
326.29	29.07
326.755	31.07
327.221	32.37
327.686	34.57
328.152	35.57
328.617	33.17
329.083	38.87
329.548	38.67
330.014	40.17
330.479	30.97
330.944	34.67
331.41	30.97
331.875	39.07
332.34	32.57
332.805	31.27
333.271	38.17
333.736	32.77
334.201	43.47
334.666	38.77
335.131	40.17
335.596	40.77
336.061	38.17
336.526	32.87
336.991	39.07
337.456	42.07
337.921	41.17
338.386	38.77
338.851	37.47
339.316	40.17
339.781	44.27
340.246	43.97
340.711	32.27
341.175	42.67
341.64	33.07
342.105	48.97
342.569	47.47
343.034	47.97
343.499	49.87
343.963	40.47
344.428	57.47
344.893	49.97
345.357	49.17
345.822	51.27
346.286	58.97
346.751	59.97
347.215	58.67
347.679	59.07
348.144	67.87
348.608	64.77
349.073	60.47
349.537	60.67
350.001	66.87
350.465	75.47
350.93	68.67
351.394	66.17
351.858	57.17
352.322	73.07
352.786	71.97
353.25	83.57
353.715	93.97
354.179	76.47
354.643	101.87
355.107	96.87
355.571	80.87
356.035	80.77
356.498	98.57
356.962	88.87
357.426	105.87
357.89	97.37
358.354	77.17
358.818	72.47
359.281	69.07
359.745	65.97
360.209	60.57
360.673	58.97
361.136	69.87
361.6	73.17
362.064	76.87
362.527	75.17
362.991	78.87
363.454	62.87
363.918	68.47
364.381	69.67
364.845	74.87
365.308	76.77
365.772	83.57
366.235	79.87
366.698	68.97
367.162	70.37
367.625	67.87
368.088	81.87
368.552	81.27
369.015	79.37
369.478	91.37
369.941	89.37
370.404	79.47
370.867	93.97
371.331	89.87
371.794	96.27
372.257	92.77
372.72	94.17
373.183	87.67
373.646	85.47
374.109	89.17
374.572	86.87
375.035	86.57
375.497	93.87
375.96	94.47
376.423	91.67
376.886	100.27
377.349	103.37
377.811	92.57
378.274	94.07
378.737	94.07
379.199	95.57
379.662	92.07
380.125	98.77
380.587	103.27
381.05	100.57
381.512	107.77
381.975	111.37
382.437	115.17
382.9	104.47
383.362	110.27
383.825	120.67
384.287	113.77
384.75	109.17
385.212	113.47
385.674	120.57
386.136	118.77
386.599	116.07
387.061	110.97
387.523	115.07
387.985	121.27
388.447	128.27
388.91	121.27
389.372	119.47
389.834	122.37
390.296	122.57
390.758	120.07
391.22	127.67
391.682	130.87
392.144	135.97
392.606	135.97
393.068	131.57
393.529	141.67
393.991	130.97
394.453	121.27
394.915	127.37
395.377	127.07
395.838	128.47
396.3	126.37
396.762	136.17
397.224	127.97
397.685	120.47
398.147	128.87
398.608	120.37
399.07	134.27
399.531	131.17
399.993	139.67
400.454	146.17
400.916	145.27
401.377	139.77
401.839	146.17
402.3	140.87
402.762	158.57
403.223	168.47
403.684	157.17
404.145	151.97
404.607	161.07
405.068	163.87
405.529	164.07
405.99	179.27
406.451	165.37
406.913	164.37
407.374	162.87
407.835	155.27
408.296	164.37
408.757	172.87
409.218	180.47
409.679	174.87
410.14	167.27
410.601	168.57
411.062	181.67
411.522	172.27
411.983	169.47
412.444	168.57
412.905	176.07
413.366	187.67
413.826	195.67
414.287	211.37
414.748	263.07
415.208	246.47
415.669	213.97
416.13	207.37
416.59	199.67
417.051	213.17
417.511	222.37
417.972	240.17
418.432	249.77
418.893	285.47
419.353	258.47
419.814	201.47
420.274	183.87
420.734	178.87
421.195	197.87
421.655	188.17
422.115	199.17
422.576	196.67
423.036	204.57
423.496	205.07
423.956	217.17
424.416	233.57
424.876	269.77
425.336	256.37
425.797	260.57
426.257	258.37
426.717	233.37
427.177	230.47
427.637	225.87
428.097	229.67
428.556	243.57
429.016	268.77
429.476	263.17
429.936	264.37
430.396	268.97
430.856	285.67
431.315	308.57
431.775	341.77
432.235	365.57
432.694	351.87
433.154	347.07
433.614	387.07
434.073	326.87
434.533	281.67
434.993	259.67
435.452	279.87
435.912	289.87
436.371	278.87
436.83	270.17
437.29	259.07
437.749	243.47
438.209	243.77
438.668	274.37
439.127	282.27
439.587	256.67
440.046	242.07
440.505	258.57
440.964	275.97
441.424	317.77
441.883	307.47
442.342	260.87
442.801	235.27
443.26	232.97
443.719	226.77
444.178	225.77
444.637	222.57
445.096	227.67
445.555	226.47
446.014	233.17
446.473	236.97
446.932	237.77
447.391	236.27
447.849	237.77
448.308	225.07
448.767	231.97
449.226	247.47
449.685	251.97
450.143	259.37
450.602	247.77
451.061	241.27
451.519	234.87
451.978	231.97
452.436	241.77
452.895	245.57
453.353	252.57
453.812	250.97
454.27	244.47
454.729	246.27
455.187	244.97
455.646	253.17
456.104	258.07
456.562	263.17
457.021	263.67
457.479	264.27
457.937	278.77
458.395	275.37
458.854	262.77
459.312	267.07
459.77	285.47
460.228	267.37
460.686	255.17
461.144	270.37
461.602	257.87
462.06	253.97
462.518	271.47
462.976	267.87
463.434	273.27
463.892	276.57
464.35	282.17
464.808	295.77
465.266	275.17
465.724	283.47
466.181	291.57
466.639	288.17
467.097	305.57
467.555	313.97
468.012	321.37
468.47	329.47
468.928	340.97
469.385	359.27
469.843	359.87
470.3	361.77
470.758	375.27
471.215	397.27
471.673	415.87
472.13	427.87
472.588	432.97
473.045	382.57
473.503	389.27
473.96	406.57
474.417	419.37
474.875	456.27
475.332	487.17
475.789	472.27
476.246	485.37
476.704	501.77
477.161	529.67
477.618	533.07
478.075	564.37
478.532	620.97
478.989	689.67
479.446	793.67
479.903	766.77
480.36	796.67
480.817	849.17
481.274	944.27
481.731	1034.67
482.188	1113.07
482.645	1230.37
483.102	1326.27
483.558	1433.37
484.015	1482.67
484.472	1457.87
484.929	1426.27
485.385	1373.07
485.842	1330.97
486.299	1298.57
486.755	1253.47
487.212	1062.77
487.668	918.97
488.125	852.37
488.582	784.87
489.038	755.37
489.494	718.67
489.951	700.37
490.407	683.47
490.864	656.97
491.32	661.27
491.776	657.47
492.233	662.87
492.689	636.27
493.145	638.07
493.602	628.27
494.058	636.37
494.514	638.17
494.97	658.67
495.426	665.57
495.882	645.97
496.338	633.87
496.794	644.67
497.251	645.67
497.707	649.07
498.163	654.37
498.618	653.37
499.074	664.17
499.53	692.47
499.986	694.97
500.442	667.07
500.898	647.17
501.354	640.37
501.809	646.47
502.265	651.77
502.721	662.97
503.177	666.27
503.632	663.97
504.088	686.17
504.543	688.27
504.999	716.67
505.455	685.17
505.91	670.57
506.366	665.37
506.821	663.87
507.277	660.07
507.732	655.27
508.187	666.37
508.643	665.47
509.098	671.97
509.553	688.97
510.009	694.07
510.464	707.87
510.919	723.07
511.375	728.27
511.83	741.67
512.285	754.47
512.74	793.87
513.195	811.97
513.65	801.27
514.105	799.87
514.56	802.87
515.015	814.07
515.47	835.67
515.925	815.27
516.38	818.17
516.835	827.37
517.29	811.77
517.745	808.17
518.2	807.07
518.655	786.87
519.109	771.67
519.564	761.47
520.019	759.57
520.474	766.87
520.928	751.27
521.383	754.47
521.838	740.27
522.292	738.47
522.747	752.37
523.201	749.07
523.656	732.87
524.11	721.37
524.565	727.77
525.019	720.87
525.474	736.07
525.928	740.47
526.382	733.77
526.837	730.57
527.291	728.27
527.745	736.87
528.2	725.37
528.654	725.27
529.108	717.77
529.562	725.77
530.016	719.27
530.47	723.87
530.925	728.87
531.379	724.37
531.833	736.37
532.287	738.87
532.741	730.47
533.195	741.97
533.649	750.77
534.103	740.47
534.556	738.77
535.01	739.77
535.464	738.77
535.918	743.47
536.372	756.57
536.826	752.97
537.279	741.37
537.733	750.07
538.187	751.47
538.64	741.17
539.094	760.57
539.548	755.27
540.001	749.57
540.455	762.57
540.908	772.37
541.362	786.87
541.815	784.87
542.269	790.77
542.722	800.87
543.175	803.57
543.629	804.37
544.082	832.47
544.536	834.37
544.989	827.77
545.442	830.97
545.895	829.67
546.349	829.87
546.802	827.87
547.255	832.47
547.708	852.77
548.161	855.97
548.614	862.87
549.067	867.37
549.52	851.87
549.973	852.37
550.426	854.47
550.879	843.67
551.332	831.97
551.785	840.47
552.238	852.77
552.691	865.67
553.144	884.97
553.596	883.97
554.049	899.87
554.502	943.37
554.955	956.17
555.407	947.27
555.86	935.57
556.313	936.07
556.765	927.47
557.218	938.07
557.67	926.17
558.123	921.07
558.576	916.67
559.028	927.77
559.48	922.97
559.933	919.17
560.385	894.17
560.838	859.07
561.29	832.57
561.742	820.37
562.195	810.97
562.647	804.47
563.099	811.27
563.551	814.07
564.004	820.67
564.456	812.47
564.908	798.07
565.36	778.97
565.812	762.97
566.264	756.47
566.716	748.97
567.168	734.87
567.62	743.27
568.072	733.47
568.524	726.17
568.976	719.57
569.428	716.87
569.88	709.27
570.332	718.67
570.784	713.17
571.235	722.07
571.687	738.67
572.139	739.47
572.59	747.97
573.042	753.17
573.494	748.27
573.945	743.37
574.397	726.27
574.849	722.17
575.3	730.97
575.752	718.67
576.203	709.57
576.655	716.37
577.106	705.37
577.557	703.37
578.009	702.87
578.46	688.37
578.912	687.27
579.363	693.57
579.814	697.77
580.265	691.27
580.717	701.97
581.168	698.57
581.619	716.77
582.07	716.47
582.521	708.17
582.972	706.77
583.423	707.97
583.875	706.77
584.326	719.87
584.777	732.37
585.227	752.97
585.678	756.67
586.129	760.07
586.58	788.67
587.031	808.57
587.482	834.37
587.933	846.77
588.384	837.97
588.834	809.07
589.285	800.27
589.736	810.57
590.186	808.87
590.637	781.87
591.088	779.77
591.538	775.07
591.989	768.27
592.439	749.37
592.89	754.27
593.34	740.37
593.791	727.67
594.241	720.27
594.692	729.57
595.142	729.27
595.593	721.97
596.043	734.47
596.493	736.77
596.943	733.87
597.394	751.37
597.844	747.27
598.294	771.17
598.744	787.07
599.195	814.47
599.645	854.57
600.095	888.47
600.545	969.17
600.995	1002.37
601.445	1072.27
601.895	1135.57
602.345	1192.87
602.795	1171.77
603.245	1119.67
603.695	1061.47
604.145	1000.17
604.594	954.57
605.044	899.27
605.494	832.57
605.944	792.57
606.393	774.57
606.843	762.17
607.293	752.07
607.743	757.77
608.192	770.97
608.642	772.27
609.091	774.97
609.541	794.57
609.99	790.57
610.44	791.97
610.889	745.47
611.339	723.67
611.788	721.07
612.238	708.77
612.687	731.37
613.136	713.87
613.586	730.87
614.035	724.07
614.484	739.97
614.933	741.07
615.383	739.67
615.832	729.87
616.281	728.77
616.73	693.17
617.179	687.77
617.628	664.67
618.077	659.57
618.526	645.17
618.975	641.47
619.424	645.47
619.873	640.47
620.322	649.87
620.771	632.67
621.22	620.57
621.669	615.17
622.118	606.37
622.567	602.87
623.015	590.87
623.464	592.07
623.913	581.07
624.361	572.47
624.81	568.47
625.259	573.97
625.707	574.27
626.156	577.97
626.604	583.57
627.053	583.17
627.501	581.17
627.95	594.37
628.398	603.57
628.847	593.17
629.295	584.97
629.744	590.27
630.192	585.77
630.64	574.97
631.089	565.37
631.537	560.47
631.985	554.57
632.433	554.47
632.881	537.37
633.33	551.67
633.778	545.97
634.226	536.07
634.674	552.87
635.122	561.67
635.57	576.07
636.018	572.77
636.466	566.27
636.914	578.77
637.362	595.27
637.81	601.37
638.258	611.97
638.705	600.17
639.153	639.07
639.601	645.57
640.049	661.37
640.497	699.07
640.944	723.47
641.392	661.27
641.84	633.07
642.287	593.57
642.735	580.27
643.182	583.47
643.63	580.37
644.078	579.27
644.525	594.07
644.973	598.17
645.42	602.57
645.867	640.77
646.315	648.27
646.762	668.87
647.21	701.47
647.657	713.37
648.104	753.57
648.551	761.07
648.999	830.07
649.446	906.57
649.893	986.27
650.34	1130.47
650.787	1338.67
651.234	1644.27
651.682	2142.57
652.129	2877.97
652.576	4091.67
653.023	5991.07
653.47	8090.57
653.917	10043.07
654.363	11566.47
654.81	12780.67
655.257	12096.47
655.704	8009.77
656.151	4828.07
656.598	3193.57
657.044	2265.97
657.491	1761.97
657.938	1424.47
658.385	1204.97
658.831	1057.97
659.278	944.97
659.724	845.27
660.171	791.87
660.618	726.57
661.064	687.37
661.511	676.07
661.957	659.77
662.404	651.77
662.85	651.47
663.296	628.57
663.743	567.47
664.189	551.77
664.635	546.47
665.082	547.07
665.528	545.37
665.974	534.57
666.42	526.17
666.867	520.37
667.313	488.97
667.759	478.17
668.205	464.17
668.651	467.27
669.097	455.47
669.543	459.07
669.989	461.27
670.435	466.87
670.881	462.77
671.327	457.37
671.773	480.27
672.219	512.47
672.665	569.77
673.11	608.87
673.556	653.97
674.002	697.87
674.448	682.07
674.893	574.67
675.339	493.27
675.785	458.47
676.23	445.17
676.676	403.27
677.122	395.17
677.567	390.87
678.013	393.07
678.458	379.27
678.904	377.37
679.349	362.77
679.794	374.57
680.24	365.67
680.685	361.17
681.131	361.67
681.576	364.77
682.021	372.77
682.466	360.37
682.912	365.07
683.357	372.47
683.802	395.37
684.247	422.37
684.692	470.77
685.137	516.77
685.583	561.87
686.028	584.97
686.473	539.37
686.918	474.57
687.363	442.97
687.807	405.17
688.252	378.17
688.697	372.87
689.142	343.47
689.587	348.07
690.032	341.07
690.477	355.97
690.921	366.27
691.366	402.87
691.811	419.57
692.255	445.97
692.7	474.27
693.145	525.47
693.589	742.37
694.034	1190.87
694.478	1618.57
694.923	1823.37
695.367	2374.57
695.812	1248.67
696.256	525.47
696.701	394.97
697.145	358.97
697.59	336.37
698.034	328.67
698.478	338.67
698.922	325.57
699.367	337.37
699.811	351.17
700.255	357.37
700.699	391.17
701.143	444.57
701.588	499.87
702.032	529.07
702.476	539.87
702.92	520.27
703.364	513.97
703.808	668.77
704.252	1100.77
704.696	1530.97
705.14	1763.67
705.584	2236.27
706.027	1125.47
706.471	545.67
706.915	418.27
707.359	366.07
707.803	328.57
708.246	324.17
708.69	327.67
709.134	323.77
709.577	321.67
710.021	325.47
710.465	318.77
710.908	318.57
711.352	306.57
711.795	323.97
712.239	361.47
712.682	403.47
713.126	428.17
713.569	469.77
714.012	370.37
714.456	316.87
714.899	302.67
715.342	290.57
715.786	273.47
716.229	268.07
716.672	271.97
717.115	258.57
717.558	255.67
718.002	265.47
718.445	274.17
718.888	294.17
719.331	298.57
719.774	315.97
720.217	312.87
720.66	298.17
721.103	282.87
721.546	258.87
721.989	255.17
722.432	243.37
722.874	255.87
723.317	237.87
723.76	248.87
724.203	268.47
724.645	324.77
725.088	462.37
725.531	593.47
725.974	673.17
726.416	566.67
726.859	316.07
727.301	256.67
727.744	245.97
728.187	244.57
728.629	246.27
729.071	254.27
729.514	271.17
729.956	279.97
730.399	295.07
730.841	297.97
731.283	284.77
731.726	280.47
732.168	269.77
732.61	280.27
733.053	302.57
733.495	322.17
733.937	366.07
734.379	420.17
734.821	468.47
735.263	573.97
735.705	887.57
736.148	1693.87
736.59	2735.67
737.032	3217.17
737.474	2599.77
737.916	855.67
738.357	449.77
738.799	343.97
739.241	311.77
739.683	295.77
740.125	306.47
740.567	317.97
741.008	325.87
741.45	328.37
741.892	336.97
742.334	366.37
742.775	385.77
743.217	356.57
743.658	285.37
744.1	264.17
744.542	275.57
744.983	329.87
745.425	362.77
745.866	370.47
746.307	288.17
746.749	286.57
747.19	336.17
747.632	486.27
748.073	941.77
748.514	1974.57
748.956	3015.07
749.397	3791.17
749.838	3148.27
750.279	3108.27
750.72	1579.97
751.162	583.47
751.603	337.47
752.044	257.47
752.485	232.57
752.926	219.27
753.367	206.07
753.808	203.77
754.249	197.27
754.69	191.67
755.131	180.57
755.572	189.17
756.013	191.57
756.453	192.47
756.894	201.07
757.335	205.07
757.776	202.97
758.216	208.77
758.657	207.77
759.098	209.17
759.538	235.27
759.979	275.57
760.42	395.77
760.86	753.67
761.301	1966.57
761.741	4734.57
762.182	6773.17
762.622	4768.37
763.063	1395.67
763.503	562.67
763.943	344.87
764.384	281.37
764.824	252.17
765.264	233.17
765.705	211.47
766.145	184.47
766.585	177.97
767.025	175.47
767.465	161.17
767.906	173.87
768.346	194.97
768.786	199.87
769.226	215.17
769.666	323.87
770.106	654.67
770.546	1670.37
770.986	2809.97
771.426	2476.97
771.866	842.07
772.306	341.77
772.745	211.87
773.185	171.77
773.625	167.97
774.065	156.17
774.505	166.47
774.944	209.67
775.384	371.17
775.824	588.57
776.263	584.07
776.703	287.57
777.142	166.07
777.582	134.17
778.021	126.17
778.461	130.67
778.9	127.47
779.34	128.87
779.779	114.67
780.219	111.47
780.658	108.37
781.097	115.87
781.537	119.07
781.976	110.77
782.415	108.37
782.855	106.17
783.294	106.57
783.733	101.07
784.172	105.67
784.611	103.97
785.05	113.97
785.489	117.97
785.928	119.57
786.367	123.37
786.806	125.47
787.245	137.27
787.684	142.67
788.123	152.17
788.562	135.37
789.001	138.37
789.44	126.37
789.879	117.87
790.317	121.77
790.756	127.07
791.195	131.27
791.634	155.07
792.072	210.77
792.511	382.47
792.95	1056.37
793.388	2225.17
793.827	2004.97
794.265	692.47
794.704	290.47
795.142	191.27
795.581	156.67
796.019	146.57
796.458	135.17
796.896	122.07
797.334	137.37
797.773	160.47
798.211	228.37
798.649	467.27
799.087	1076.07
799.526	1687.97
799.964	2137.57
800.402	2096.67
800.84	797.67
801.278	319.57
801.716	194.27
802.154	166.07
802.592	157.97
803.03	145.37
803.468	136.27
803.906	148.97
804.344	157.97
804.782	147.97
805.22	141.17
805.658	137.07
806.096	153.37
806.533	168.87
806.971	187.07
807.409	233.97
807.847	345.97
808.284	708.97
808.722	1988.27
809.16	3482.07
809.597	3347.37
810.035	5774.07
810.472	6050.97
810.91	2205.07
811.347	847.47
811.785	426.37
812.222	269.07
812.66	207.07
813.097	173.97
813.535	147.47
813.972	133.67
814.409	127.67
814.846	112.07
815.284	117.27
815.721	102.77
816.158	100.67
816.595	111.57
817.032	158.77
817.47	186.17
817.907	149.17
818.344	103.67
818.781	107.17
819.218	93.67
819.655	126.47
820.092	198.97
820.529	224.27
820.966	178.77
821.403	124.77
821.839	98.27
822.276	97.47
822.713	127.57
823.15	142.27
823.587	122.27
824.023	150.97
824.46	316.47
824.897	953.17
825.333	1424.37
825.77	617.97
826.206	245.97
826.643	145.67
827.08	103.87
827.516	87.87
827.953	83.77
828.389	81.37
828.825	75.47
829.262	72.67
829.698	65.87
830.135	64.67
830.571	60.27
831.007	67.17
831.443	61.27
831.88	66.37
832.316	65.17
832.752	70.57
833.188	67.07
833.624	63.57
834.06	70.17
834.497	68.47
834.933	76.77
835.369	82.77
835.805	73.47
836.241	76.47
836.677	78.67
837.112	96.17
837.548	105.57
837.984	142.27
838.42	208.17
838.856	529.27
839.292	1612.37
839.727	2420.47
840.163	1140.87
840.599	988.87
841.034	2159.57
841.47	2227.17
841.906	817.47
842.341	347.37
842.777	206.97
843.212	209.17
843.648	192.27
844.083	114.07
844.519	87.07
844.954	72.47
845.39	63.57
845.825	62.47
846.261	62.97
846.696	53.67
847.131	61.37
847.566	61.27
848.002	55.37
848.437	54.27
848.872	63.97
849.307	64.87
849.742	88.97
850.177	202.17
850.613	586.17
851.048	929.27
851.483	401.57
851.918	164.57
852.353	94.87
852.788	58.17
853.223	57.07
853.657	51.77
854.092	46.37
854.527	47.57
854.962	41.17
855.397	44.67
855.832	50.87
856.266	37.07
856.701	42.27
857.136	37.57
857.57	38.87
858.005	50.37
858.44	59.57
858.874	46.37
859.309	54.87
859.743	42.37
860.178	44.77
860.612	41.67
861.047	63.57
861.481	72.07
861.915	75.97
862.35	50.77
862.784	30.07
863.218	41.17
863.653	33.87
864.087	49.97
864.521	57.17
864.955	73.27
865.39	163.17
865.824	188.57
866.258	116.47
866.692	182.97
867.126	188.27
867.56	114.87
867.994	62.57
868.428	42.67
868.862	53.87
869.296	57.77
869.73	60.87
870.164	53.87
870.598	50.57
871.031	34.87
871.465	35.57
871.899	34.77
872.333	24.07
872.766	26.17
873.2	26.47
873.634	32.17
874.067	27.17
874.501	30.77
874.935	33.47
875.368	24.67
875.802	24.57
876.235	23.67
876.669	26.87
877.102	20.57
877.535	24.57
877.969	22.97
878.402	23.97
878.836	21.17
879.269	25.97
879.702	28.27
880.135	26.87
880.569	26.27
881.002	22.57
881.435	21.67
881.868	18.87
882.301	24.97
882.734	19.07
883.167	26.07
883.601	21.27
884.034	21.17
884.467	17.87
884.899	24.57
885.332	21.77
885.765	15.37
886.198	16.57
886.631	20.57
887.064	17.77
887.497	23.77
887.929	23.17
888.362	15.07
888.795	15.87
889.228	18.67
889.66	22.67
890.093	18.57
890.526	15.97
890.958	13.87
891.391	20.57
891.823	16.77
892.256	13.57
892.688	10.37
893.121	16.87
893.553	17.87
893.985	19.87
894.418	21.27
894.85	13.07
895.282	19.47
895.715	11.57
896.147	20.57
896.579	21.27
897.011	12.37
897.444	19.37
897.876	9.67
898.308	16.97
898.74	18.57
899.172	7.07
899.604	18.87
900.036	19.47
900.468	13.77
900.9	15.77
901.332	25.27
901.764	16.17
902.196	16.17
902.628	15.47
903.06	20.87
903.491	31.37
903.923	29.77
904.355	20.47
904.787	28.37
905.218	23.57
905.65	25.67
906.082	12.27
906.513	14.57
906.945	19.37
907.376	14.27
907.808	19.87
908.239	24.47
908.671	20.47
909.102	20.47
909.534	30.57
909.965	45.27
910.397	93.37
910.828	336.17
911.259	498.67
911.691	232.17
912.122	112.77
912.553	52.07
912.984	37.67
913.415	28.67
913.847	26.37
914.278	18.77
914.709	16.37
915.14	17.57
915.571	19.47
916.002	13.17
916.433	19.17
916.864	15.77
917.295	10.77
917.726	18.77
918.157	23.57
918.587	30.27
919.018	29.57
919.449	24.67
919.88	23.57
920.311	30.97
920.741	51.67
921.172	176.37
921.603	162.67
922.033	79.07
922.464	39.77
922.895	27.97
923.325	19.87
923.756	11.47
924.186	9.87
924.617	19.47
925.047	19.67
925.478	27.37
925.908	19.87
926.338	11.27
926.769	5.47
927.199	21.67
927.629	8.77
928.06	18.07
928.49	12.67
928.92	18.27
929.35	7.97
929.78	7.77
930.21	8.27
930.641	9.17
931.071	-0.03
931.501	7.07
931.931	4.27
932.361	8.57
932.791	1.07
933.221	5.07
933.651	7.97
934.08	22.17
934.51	30.47
934.94	10.87
935.37	8.57
935.8	10.67
936.229	6.77
936.659	7.87
937.089	5.27
937.519	14.27
937.948	26.97
938.378	19.17
938.807	6.87
939.237	5.87
939.666	1.67
940.096	-5.63
940.525	7.27
940.955	8.37
941.384	4.17
941.814	-5.83
942.243	-6.73
942.672	3.67
943.102	-0.73
943.531	-1.63
943.96	1.37
944.39	1.57
944.819	4.27
945.248	-1.23
945.677	-0.03
946.106	6.17
946.535	4.77
946.964	-0.33
947.393	5.47
947.822	4.97
948.251	-4.73
948.68	3.37
949.109	6.07
949.538	3.37
949.967	0.97
950.396	2.87
950.825	-1.93
951.254	2.77
951.682	-7.33
952.111	6.07
952.54	2.67
952.969	-2.73
953.397	-9.53
953.826	0.57
954.254	-2.43
954.683	2.57
955.112	-2.03
955.54	-1.13
955.969	1.57
956.397	-0.03
956.826	-2.63
957.254	1.77
957.682	1.87
958.111	6.27
958.539	1.27
958.967	0.77
959.396	-2.33
959.824	4.07
960.252	-1.03
960.68	-6.43
961.109	-0.63
961.537	-3.53
961.965	3.87
962.393	1.77
962.821	-0.83
963.249	-0.73
963.677	1.57
964.105	8.97
964.533	49.37
964.961	46.17
965.389	26.17
965.817	8.17
966.245	2.27
966.672	7.07
967.1	-11.23
967.528	0.87
967.956	-1.23
968.383	1.57
968.811	-1.43
969.239	0.17
969.666	-1.13
970.094	-4.13
970.522	0.07
970.949	-8.33
971.377	-6.13
971.804	-5.73
972.232	-5.33
972.659	-6.43
973.087	-6.43
973.514	0.57
973.941	-1.63
974.369	0.97
974.796	-2.53
975.223	1.17
975.651	4.87
976.078	7.47
976.505	-7.93
976.932	-1.53
977.359	14.47
977.786	13.97
978.214	2.77
978.641	2.07
979.068	-3.13
979.495	-10.03
979.922	-2.63
980.349	-7.13
980.776	4.97
981.202	4.97
981.629	-2.33
982.056	6.97
982.483	-4.93
982.91	3.27
983.337	-8.33
983.763	0.67
984.19	-2.23
984.617	-2.33
985.043	-8.13
985.47	-1.13
985.897	-3.93
986.323	-8.73
986.75	-4.93
987.176	0.07
987.603	6.37
988.029	2.27
988.456	-0.13
988.882	-3.93
989.308	-8.93
989.735	-7.03
990.161	-2.43
990.587	-3.13
991.014	7.57
991.44	12.17
991.866	-0.13
992.292	-2.53
992.719	-1.73
993.145	8.57
993.571	-9.93
993.997	-3.03
994.423	-1.93
994.849	-3.03
995.275	5.07
995.701	1.17
996.127	-1.93
996.553	-2.63
996.979	-3.53
997.405	-4.73
997.83	-9.83
998.256	-3.23
998.682	-9.93
999.108	-8.33
999.534	-1.93
999.959	0.57
1000.385	-5.53
1000.811	0.07
1001.236	-4.53
1001.662	-9.43
1002.087	-6.03
1002.513	-2.23
1002.938	2.77
1003.364	-2.03
1003.789	-2.23
1004.215	2.67
1004.64	3.87
1005.066	2.27
1005.491	4.37
1005.916	0.77
1006.342	-8.83
1006.767	-3.73
1007.192	5.87
1007.617	-3.63
1008.042	-3.83
1008.468	-4.83
1008.893	-8.83
1009.318	-5.23
1009.743	-3.63
1010.168	4.97
1010.593	-1.93
1011.018	-6.13
1011.443	-1.23
1011.868	4.47
1012.293	-5.43
1012.718	-2.43
1013.143	1.57
1013.567	2.57
1013.992	-1.83
1014.417	-10.53
1014.842	6.37
1015.267	-8.63
1015.691	-2.53
1016.116	-3.43
1016.541	-1.73
1016.965	2.17
1017.39	3.97
1017.814	-0.33
1018.239	0.57
1018.663	-11.73
1019.088	-12.73
1019.512	-2.23
1019.937	-0.53
1020.361	-4.63
1020.785	-6.13
1021.21	-9.33
1021.634	-7.03
1022.058	-0.03
1022.483	5.67
1022.907	-0.23
1023.331	-1.73
1023.755	-1.93
1024.179	-5.43
1024.604	-5.23
1025.028	-7.13
1025.452	-4.63
1025.876	-3.63
1026.3	-1.73
1026.724	-12.93
1027.148	-6.53
1027.572	-6.13
1027.996	-9.73
1028.42	-3.73
1028.843	-7.23
1029.267	-7.73
1029.691	-0.33
1030.115	-2.83
1030.539	-2.13
1030.962	-8.23
1031.386	-8.53
1031.81	-0.93
1032.233	-2.43
1032.657	-7.33
1033.08	1.37
1033.504	-1.33
1033.927	-2.53
1034.351	-7.93
1034.774	-12.63
1035.198	-1.43
1035.621	-11.83
1036.045	-3.13
1036.468	-1.13
1036.891	-13.73
1037.315	-0.33
1037.738	-11.23
1038.161	2.27
1038.584	-7.43
1039.008	-7.43
1039.431	-4.33
1039.854	-3.73
1040.277	-4.13
1040.7	-7.83
1041.123	-1.13
1041.546	-6.73
1041.969	-6.23
1042.392	-9.73
1042.815	1.87
1043.238	4.97
1043.661	0.87
1044.084	-8.53
1044.507	-3.13
1044.93	-4.83
1045.352	-2.53
1045.775	-3.43
1046.198	-3.13
1046.621	2.37
1047.043	3.07
1047.466	7.47
1047.889	-4.63
1048.311	-5.93
1048.734	-3.33
1049.156	-1.33
1049.579	-2.03
1050.001	-0.93
1050.424	2.27
1050.846	-1.93
1051.269	-4.13
1051.691	-4.63
1052.113	-3.83
1052.536	-3.23
1052.958	-1.93
1053.38	-4.53
1053.802	-8.93
1054.225	0.07
1054.647	-9.23
1055.069	-4.63
1055.491	2.67
1055.913	-3.93
1056.335	0.37
1056.757	-5.53
1057.179	-8.13
1057.601	-6.33
1058.023	-2.33
1058.445	-3.03
1058.867	-2.63
1059.289	-3.03
1059.711	-6.73
1060.133	-8.23
1060.555	-7.53
1060.976	-5.83
1061.398	-13.93
1061.82	-10.23
1062.241	-3.43
1062.663	-9.53
1063.085	-4.03
1063.506	-2.53
1063.928	-6.93
1064.35	-3.63
1064.771	-9.93
1065.193	0.37
1065.614	-7.93
1066.035	-2.53
1066.457	-3.43
1066.878	-0.33
1067.3	-4.33
1067.721	-0.33
1068.142	-6.63
1068.564	-8.03
1068.985	-3.53
1069.406	-6.43
1069.827	-3.83
1070.248	-2.33
1070.67	-6.73
1071.091	-2.73
1071.512	-6.43
1071.933	-8.83
1072.354	-9.13
1072.775	-6.93
1073.196	-9.83
1073.617	-0.33
1074.038	-7.53
1074.459	-5.43
1074.88	-11.53
1075.3	-0.53
1075.721	-9.23
1076.142	5.27
1076.563	-3.93
1076.983	-11.53
1077.404	-4.83
1077.825	-9.93
1078.246	-4.43
1078.666	-9.73
1079.087	-2.83
1079.507	-6.43
1079.928	-5.73
1080.348	-0.53
1080.769	-9.23
1081.189	-2.33
1081.61	2.37
1082.03	-3.53
1082.451	-4.13
1082.871	-7.73
1083.291	-10.83
1083.711	-7.53
1084.132	-2.73
1084.552	-2.83
1084.972	-2.63
1085.392	-12.83
1085.813	-9.03
1086.233	-5.13
1086.653	-9.43
1087.073	-7.33
1087.493	-11.03
1087.913	-7.03
1088.333	-2.43
1088.753	-6.93
1089.173	1.67
1089.593	-0.53
1090.013	-0.23
1090.433	3.47
1090.852	-6.13
1091.272	-1.63
1091.692	2.27
1092.112	0.47
1092.531	-8.83
1092.951	-7.63
1093.371	-8.13
1093.79	-4.83
1094.21	-2.13
1094.63	-4.83
1095.049	-6.03
1095.469	-10.33
1095.888	-8.83
1096.308	0.37
1096.727	5.97
1097.146	-11.23
1097.566	-4.73
1097.985	-6.43
1098.405	-5.63
1098.824	-5.33
1099.243	-3.13
1099.662	-7.33
1100.082	-7.33
1100.501	-3.53
1100.92	-5.13
1101.339	-5.73
1101.758	-3.83
