Data from 20171114-ORNL-Ar_H_NY_Subt18_08-07-48-632.txt Node
Date: Tue Nov 14 08:07:48 EST 2017
User: Ender
Spectrometer: HR+D1039
Trigger mode: 0
Integration Time (sec): 2.730000E-2
Scans to average: 10
Electric dark correction enabled: true
Nonlinearity correction enabled: false
Boxcar width: 0
XAxis mode: Wavelengths
Number of Pixels in Spectrum: 2048
>>>>>Begin Spectral Data<<<<<
187.836	-2.53
188.309	-2.53
188.782	-2.53
189.255	2.97
189.728	0.87
190.201	4.17
190.674	-0.43
191.147	8.07
191.619	-8.53
192.092	-2.63
192.565	3.87
193.038	-2.93
193.511	3.37
193.984	5.57
194.456	-5.53
194.929	-3.43
195.402	-4.13
195.874	1.17
196.347	2.37
196.82	-5.33
197.292	4.67
197.765	-0.03
198.237	-6.33
198.71	-0.13
199.182	-3.83
199.655	-0.03
200.127	0.37
200.6	-1.63
201.072	0.27
201.544	-3.93
202.017	-1.43
202.489	6.77
202.961	-4.43
203.433	-0.43
203.906	-6.83
204.378	-7.33
204.85	-4.63
205.322	-6.83
205.794	2.57
206.266	-6.43
206.739	-6.03
207.211	-0.83
207.683	-5.73
208.155	-3.73
208.627	-3.93
209.099	-4.23
209.57	-4.63
210.042	-4.13
210.514	-7.63
210.986	-2.83
211.458	-3.73
211.93	-8.13
212.402	-2.73
212.873	-4.33
213.345	-9.03
213.817	-7.93
214.288	-7.73
214.76	-5.93
215.232	-3.83
215.703	-1.53
216.175	-2.73
216.646	-3.73
217.118	-5.13
217.589	-8.83
218.061	-6.53
218.532	-5.63
219.004	-2.03
219.475	-1.13
219.946	-2.63
220.418	-8.53
220.889	1.37
221.36	-2.33
221.832	-5.83
222.303	-7.33
222.774	-1.53
223.245	-13.33
223.717	-6.93
224.188	-1.73
224.659	-4.13
225.13	-5.03
225.601	-2.83
226.072	1.07
226.543	-2.93
227.014	0.37
227.485	2.37
227.956	-5.23
228.427	-3.33
228.898	-3.33
229.369	3.07
229.839	-0.83
230.31	-10.03
230.781	-1.73
231.252	-4.43
231.722	-3.73
232.193	1.27
232.664	4.97
233.135	-0.53
233.605	-4.63
234.076	-9.63
234.546	-1.13
235.017	4.77
235.487	-3.93
235.958	0.87
236.428	-0.83
236.899	5.17
237.369	0.47
237.84	-3.93
238.31	4.17
238.78	1.57
239.251	0.47
239.721	2.97
240.191	-0.03
240.662	1.17
241.132	2.67
241.602	0.37
242.072	-4.33
242.542	2.97
243.013	0.57
243.483	0.07
243.953	1.17
244.423	-0.33
244.893	-4.33
245.363	4.07
245.833	-0.43
246.303	0.37
246.773	5.57
247.243	0.97
247.712	5.07
248.182	2.07
248.652	4.77
249.122	-6.43
249.592	9.17
250.061	20.77
250.531	27.47
251.001	12.27
251.471	16.97
251.94	11.77
252.41	5.07
252.879	-0.73
253.349	6.07
253.818	7.67
254.288	-0.83
254.757	1.97
255.227	-0.93
255.696	6.27
256.166	5.87
256.635	-0.23
257.105	4.37
257.574	5.77
258.043	6.27
258.513	4.17
258.982	17.87
259.451	5.77
259.92	16.67
260.389	7.47
260.859	14.97
261.328	13.17
261.797	9.47
262.266	4.07
262.735	7.37
263.204	5.57
263.673	1.87
264.142	5.97
264.611	2.07
265.08	-2.73
265.549	-2.63
266.018	6.17
266.487	0.37
266.955	-3.33
267.424	2.07
267.893	6.77
268.362	2.27
268.83	7.77
269.299	11.47
269.768	3.17
270.236	7.87
270.705	-1.23
271.174	4.07
271.642	5.57
272.111	6.77
272.579	15.27
273.048	22.87
273.516	25.57
273.985	24.77
274.453	18.97
274.922	21.57
275.39	13.67
275.858	5.87
276.327	8.57
276.795	13.77
277.263	11.67
277.731	27.97
278.2	45.57
278.668	52.17
279.136	42.07
279.604	17.97
280.072	12.97
280.54	4.87
281.008	6.37
281.477	9.07
281.945	15.57
282.413	11.27
282.881	17.37
283.348	1.77
283.816	13.37
284.284	14.97
284.752	11.97
285.22	9.77
285.688	14.77
286.156	15.57
286.623	40.57
287.091	47.87
287.559	16.37
288.026	18.17
288.494	12.77
288.962	4.37
289.429	10.87
289.897	15.27
290.364	10.77
290.832	11.37
291.3	7.77
291.767	11.57
292.234	19.17
292.702	17.47
293.169	19.17
293.637	15.17
294.104	14.57
294.571	5.37
295.039	11.07
295.506	10.27
295.973	12.37
296.44	16.27
296.908	17.17
297.375	10.17
297.842	17.77
298.309	15.07
298.776	12.27
299.243	17.27
299.71	13.47
300.177	17.37
300.644	16.57
301.111	20.37
301.578	17.97
302.045	17.47
302.512	19.57
302.979	20.77
303.446	23.07
303.913	19.47
304.379	18.67
304.846	21.47
305.313	23.07
305.78	17.27
306.246	26.07
306.713	23.77
307.18	21.17
307.646	24.17
308.113	20.07
308.579	27.27
309.046	28.97
309.512	24.57
309.979	15.17
310.445	27.07
310.912	26.57
311.378	36.27
311.845	27.57
312.311	23.47
312.777	30.27
313.244	25.67
313.71	32.47
314.176	25.17
314.642	26.97
315.109	27.37
315.575	34.17
316.041	29.57
316.507	33.27
316.973	36.67
317.439	25.87
317.905	39.27
318.371	33.47
318.837	33.57
319.303	34.07
319.769	32.27
320.235	24.77
320.701	39.17
321.167	31.57
321.633	29.67
322.099	42.67
322.564	42.87
323.03	33.17
323.496	29.97
323.962	34.77
324.427	30.87
324.893	44.57
325.359	35.67
325.824	39.87
326.29	33.77
326.755	35.27
327.221	39.97
327.686	39.47
328.152	43.27
328.617	36.17
329.083	37.97
329.548	46.17
330.014	44.77
330.479	38.57
330.944	36.67
331.41	38.37
331.875	45.07
332.34	36.57
332.805	45.37
333.271	46.87
333.736	43.17
334.201	48.37
334.666	46.07
335.131	47.87
335.596	53.97
336.061	47.87
336.526	39.87
336.991	44.57
337.456	54.87
337.921	45.77
338.386	41.77
338.851	41.87
339.316	44.37
339.781	45.47
340.246	45.17
340.711	45.27
341.175	44.37
341.64	49.67
342.105	47.87
342.569	52.67
343.034	54.17
343.499	48.07
343.963	48.07
344.428	57.37
344.893	54.07
345.357	54.97
345.822	58.17
346.286	63.27
346.751	64.17
347.215	63.37
347.679	71.87
348.144	92.67
348.608	75.17
349.073	64.47
349.537	70.17
350.001	71.77
350.465	84.07
350.93	75.37
351.394	80.47
351.858	68.67
352.322	82.47
352.786	74.57
353.25	97.97
353.715	103.37
354.179	93.57
354.643	108.67
355.107	121.77
355.571	101.37
356.035	97.57
356.498	110.07
356.962	116.77
357.426	132.37
357.89	108.47
358.354	79.47
358.818	78.77
359.281	76.17
359.745	70.97
360.209	68.27
360.673	69.07
361.136	77.47
361.6	79.57
362.064	76.77
362.527	84.37
362.991	76.87
363.454	76.17
363.918	74.17
364.381	73.17
364.845	77.27
365.308	77.87
365.772	81.67
366.235	79.77
366.698	73.47
367.162	80.17
367.625	75.57
368.088	87.47
368.552	88.97
369.015	84.07
369.478	93.87
369.941	95.77
370.404	94.77
370.867	100.87
371.331	98.97
371.794	107.07
372.257	106.57
372.72	114.97
373.183	100.57
373.646	99.37
374.109	99.27
374.572	111.37
375.035	106.07
375.497	105.17
375.96	102.27
376.423	101.37
376.886	108.47
377.349	103.97
377.811	101.67
378.274	100.17
378.737	105.57
379.199	111.47
379.662	111.97
380.125	112.97
380.587	110.97
381.05	115.77
381.512	120.17
381.975	128.77
382.437	121.57
382.9	122.77
383.362	123.97
383.825	140.27
384.287	142.67
384.75	137.07
385.212	134.47
385.674	134.57
386.136	132.97
386.599	120.47
387.061	127.57
387.523	125.27
387.985	136.47
388.447	140.27
388.91	143.17
389.372	157.07
389.834	147.97
390.296	143.37
390.758	151.67
391.22	161.37
391.682	205.97
392.144	291.37
392.606	226.17
393.068	165.77
393.529	171.17
393.991	152.87
394.453	144.07
394.915	158.97
395.377	187.07
395.838	208.27
396.3	153.17
396.762	134.97
397.224	130.07
397.685	129.07
398.147	133.57
398.608	126.97
399.07	126.37
399.531	129.47
399.993	139.17
400.454	146.67
400.916	143.27
401.377	141.97
401.839	147.17
402.3	156.87
402.762	157.07
403.223	167.37
403.684	164.87
404.145	161.17
404.607	156.17
405.068	162.67
405.529	161.07
405.99	182.07
406.451	170.07
406.913	167.17
407.374	158.37
407.835	157.07
408.296	166.87
408.757	171.07
409.218	180.27
409.679	175.77
410.14	174.87
410.601	176.67
411.062	181.17
411.522	192.97
411.983	184.07
412.444	175.77
412.905	175.77
413.366	183.77
413.826	183.07
414.287	215.07
414.748	252.87
415.208	232.27
415.669	208.67
416.13	202.97
416.59	195.67
417.051	209.07
417.511	217.47
417.972	235.67
418.432	240.37
418.893	279.97
419.353	244.77
419.814	190.17
420.274	177.47
420.734	183.17
421.195	196.77
421.655	193.47
422.115	189.47
422.576	191.97
423.036	195.77
423.496	201.17
423.956	218.27
424.416	228.87
424.876	266.67
425.336	253.07
425.797	257.27
426.257	254.17
426.717	235.17
427.177	225.97
427.637	215.27
428.097	232.17
428.556	246.37
429.016	272.37
429.476	261.77
429.936	266.37
430.396	278.77
430.856	292.17
431.315	316.67
431.775	342.27
432.235	379.07
432.694	350.47
433.154	367.77
433.614	387.27
434.073	337.17
434.533	280.37
434.993	270.47
435.452	285.57
435.912	301.97
436.371	281.27
436.83	279.37
437.29	268.17
437.749	251.47
438.209	244.07
438.668	264.27
439.127	283.67
439.587	257.67
440.046	249.07
440.505	256.27
440.964	268.97
441.424	321.27
441.883	315.27
442.342	257.37
442.801	221.47
443.26	218.57
443.719	221.17
444.178	218.07
444.637	205.57
445.096	217.07
445.555	218.77
446.014	219.17
446.473	225.47
446.932	234.17
447.391	223.97
447.849	221.47
448.308	217.67
448.767	216.07
449.226	225.47
449.685	232.37
450.143	245.37
450.602	238.57
451.061	223.57
451.519	227.87
451.978	227.47
452.436	227.67
452.895	235.97
453.353	245.67
453.812	238.27
454.27	232.27
454.729	243.57
455.187	243.27
455.646	244.27
456.104	240.27
456.562	253.77
457.021	264.07
457.479	258.67
457.937	260.67
458.395	264.67
458.854	245.47
459.312	250.87
459.77	271.87
460.228	255.87
460.686	238.87
461.144	248.87
461.602	241.17
462.06	238.57
462.518	256.97
462.976	255.47
463.434	253.77
463.892	263.37
464.35	272.17
464.808	285.17
465.266	263.17
465.724	268.17
466.181	270.97
466.639	263.57
467.097	288.27
467.555	293.47
468.012	295.77
468.47	299.97
468.928	321.27
469.385	331.87
469.843	343.97
470.3	350.17
470.758	350.97
471.215	387.17
471.673	401.37
472.13	406.97
472.588	413.97
473.045	367.07
473.503	374.47
473.96	385.97
474.417	401.97
474.875	426.67
475.332	473.17
475.789	458.07
476.246	460.37
476.704	485.77
477.161	507.77
477.618	513.47
478.075	551.77
478.532	604.97
478.989	680.57
479.446	792.47
479.903	762.07
480.36	796.07
480.817	859.37
481.274	959.57
481.731	1052.07
482.188	1139.37
482.645	1283.17
483.102	1379.97
483.558	1523.67
484.015	1562.88
484.472	1548.77
484.929	1501.47
485.385	1459.97
485.842	1414.67
486.299	1337.67
486.755	1281.17
487.212	1079.07
487.668	919.07
488.125	839.17
488.582	767.47
489.038	723.07
489.494	702.37
489.951	668.57
490.407	655.37
490.864	634.67
491.32	631.87
491.776	642.57
492.233	633.27
492.689	601.27
493.145	597.97
493.602	585.97
494.058	598.37
494.514	609.57
494.97	637.07
495.426	644.67
495.882	600.07
496.338	599.17
496.794	613.97
497.251	603.67
497.707	628.67
498.163	618.47
498.618	623.27
499.074	636.27
499.53	664.97
499.986	668.47
500.442	633.67
500.898	612.47
501.354	612.47
501.809	630.37
502.265	638.77
502.721	649.97
503.177	669.17
503.632	665.97
504.088	673.77
504.543	700.67
504.999	700.17
505.455	649.77
505.91	619.47
506.366	620.37
506.821	625.07
507.277	609.87
507.732	613.57
508.187	614.57
508.643	620.57
509.098	624.67
509.553	647.97
510.009	648.27
510.464	654.17
510.919	682.87
511.375	684.77
511.83	695.47
512.285	711.97
512.74	749.27
513.195	767.47
513.65	752.97
514.105	751.67
514.56	753.27
515.015	786.07
515.47	795.57
515.925	779.87
516.38	776.67
516.835	778.67
517.29	779.17
517.745	769.97
518.2	740.87
518.655	731.47
519.109	738.57
519.564	733.87
520.019	722.67
520.474	710.37
520.928	706.97
521.383	714.87
521.838	694.67
522.292	695.57
522.747	702.97
523.201	707.37
523.656	683.47
524.11	681.77
524.565	683.07
525.019	685.67
525.474	695.67
525.928	692.87
526.382	688.97
526.837	688.37
527.291	696.97
527.745	691.47
528.2	679.87
528.654	682.87
529.108	676.57
529.562	675.97
530.016	687.87
530.47	680.17
530.925	685.17
531.379	689.57
531.833	694.97
532.287	692.27
532.741	691.77
533.195	695.57
533.649	699.87
534.103	709.47
534.556	688.17
535.01	693.37
535.464	693.27
535.918	706.67
536.372	711.47
536.826	703.77
537.279	695.57
537.733	703.67
538.187	699.47
538.64	701.37
539.094	717.77
539.548	709.17
540.001	716.37
540.455	708.47
540.908	710.57
541.362	729.77
541.815	727.97
542.269	753.27
542.722	739.67
543.175	755.07
543.629	760.17
544.082	771.37
544.536	781.07
544.989	769.67
545.442	779.37
545.895	777.27
546.349	780.97
546.802	786.47
547.255	778.57
547.708	790.27
548.161	804.67
548.614	811.37
549.067	818.67
549.52	808.97
549.973	805.47
550.426	801.57
550.879	780.97
551.332	784.67
551.785	798.17
552.238	799.57
552.691	813.57
553.144	824.17
553.596	835.27
554.049	849.37
554.502	882.67
554.955	897.07
555.407	901.37
555.86	887.77
556.313	881.07
556.765	876.67
557.218	870.47
557.67	867.87
558.123	869.97
558.576	852.07
559.028	870.57
559.48	873.87
559.933	863.77
560.385	820.87
560.838	802.27
561.29	769.97
561.742	768.57
562.195	752.07
562.647	759.07
563.099	760.47
563.551	757.97
564.004	775.47
564.456	764.07
564.908	754.77
565.36	740.47
565.812	722.47
566.264	721.87
566.716	720.97
567.168	709.77
567.62	712.17
568.072	700.17
568.524	686.87
568.976	687.37
569.428	662.37
569.88	670.27
570.332	672.37
570.784	675.77
571.235	678.37
571.687	691.67
572.139	700.67
572.59	704.57
573.042	697.17
573.494	699.47
573.945	694.77
574.397	679.97
574.849	675.17
575.3	679.77
575.752	671.87
576.203	668.97
576.655	668.77
577.106	660.47
577.557	659.37
578.009	658.07
578.46	658.77
578.912	659.97
579.363	663.57
579.814	659.87
580.265	648.67
580.717	655.07
581.168	663.07
581.619	665.07
582.07	669.97
582.521	659.47
582.972	661.17
583.423	677.77
583.875	673.37
584.326	701.37
584.777	736.07
585.227	816.77
585.678	909.37
586.129	1000.57
586.58	1070.17
587.031	1141.77
587.482	1291.87
587.933	1479.57
588.384	1292.67
588.834	956.27
589.285	801.07
589.736	775.97
590.186	764.57
590.637	766.97
591.088	743.27
591.538	734.77
591.989	729.87
592.439	722.47
592.89	709.87
593.34	700.67
593.791	703.47
594.241	699.37
594.692	706.97
595.142	703.17
595.593	699.27
596.043	688.57
596.493	710.97
596.943	708.17
597.394	710.07
597.844	702.27
598.294	725.57
598.744	753.67
599.195	770.57
599.645	808.97
600.095	843.17
600.545	900.67
600.995	947.67
601.445	1013.87
601.895	1079.77
602.345	1124.37
602.795	1106.47
603.245	1065.57
603.695	1008.57
604.145	949.27
604.594	902.57
605.044	845.27
605.494	799.27
605.944	738.27
606.393	741.67
606.843	723.27
607.293	726.77
607.743	733.57
608.192	746.57
608.642	758.27
609.091	761.27
609.541	763.27
609.99	763.27
610.44	764.87
610.889	712.87
611.339	696.97
611.788	686.47
612.238	698.97
612.687	717.17
613.136	714.27
613.586	735.77
614.035	729.27
614.484	751.27
614.933	752.77
615.383	743.77
615.832	726.47
616.281	715.97
616.73	696.37
617.179	660.27
617.628	652.17
618.077	633.97
618.526	621.67
618.975	614.97
619.424	597.77
619.873	609.37
620.322	608.37
620.771	607.57
621.22	602.47
621.669	585.37
622.118	583.37
622.567	582.87
623.015	565.67
623.464	568.17
623.913	554.47
624.361	545.07
624.81	548.27
625.259	549.57
625.707	545.27
626.156	550.47
626.604	569.27
627.053	559.47
627.501	557.57
627.95	571.97
628.398	567.17
628.847	562.27
629.295	571.37
629.744	570.77
630.192	556.57
630.64	566.17
631.089	568.87
631.537	578.57
631.985	585.27
632.433	601.47
632.881	608.57
633.33	657.17
633.778	640.37
634.226	575.57
634.674	562.27
635.122	578.67
635.57	594.57
636.018	623.27
636.466	581.67
636.914	558.77
637.362	559.57
637.81	569.17
638.258	581.27
638.705	574.47
639.153	604.67
639.601	616.37
640.049	632.57
640.497	658.57
640.944	689.17
641.392	644.17
641.84	615.17
642.287	575.07
642.735	568.37
643.182	573.27
643.63	579.87
644.078	576.97
644.525	585.67
644.973	595.17
645.42	599.97
645.867	622.17
646.315	636.17
646.762	658.57
647.21	686.37
647.657	714.47
648.104	740.57
648.551	768.07
648.999	831.27
649.446	913.97
649.893	1014.27
650.34	1171.38
650.787	1388.27
651.234	1733.97
651.682	2257.47
652.129	3138.97
652.576	4527.47
653.023	6629.47
653.47	9132.27
653.917	11287.08
654.363	12978.58
654.81	14254.18
655.257	13621.48
655.704	8854.27
656.151	5239.07
656.598	3392.77
657.044	2404.07
657.491	1852.27
657.938	1482.47
658.385	1242.47
658.831	1067.97
659.278	961.27
659.724	859.27
660.171	786.17
660.618	717.67
661.064	690.67
661.511	665.77
661.957	659.37
662.404	650.47
662.85	645.67
663.296	621.37
663.743	565.17
664.189	537.17
664.635	536.27
665.082	531.37
665.528	526.87
665.974	513.27
666.42	508.27
666.867	504.67
667.313	488.17
667.759	485.77
668.205	475.37
668.651	484.77
669.097	476.87
669.543	499.87
669.989	472.37
670.435	443.07
670.881	441.27
671.327	441.37
671.773	470.87
672.219	490.67
672.665	543.37
673.11	579.47
673.556	619.47
674.002	666.37
674.448	652.37
674.893	544.27
675.339	468.27
675.785	436.87
676.23	411.77
676.676	388.57
677.122	380.57
677.567	374.17
678.013	360.47
678.458	360.87
678.904	360.17
679.349	338.37
679.794	346.57
680.24	348.07
680.685	345.17
681.131	349.17
681.576	344.97
682.021	352.87
682.466	345.07
682.912	345.47
683.357	342.67
683.802	381.37
684.247	408.27
684.692	455.47
685.137	488.37
685.583	526.07
686.028	557.67
686.473	519.87
686.918	446.07
687.363	406.47
687.807	393.37
688.252	361.27
688.697	345.37
689.142	333.27
689.587	331.27
690.032	319.37
690.477	332.67
690.921	351.67
691.366	390.87
691.811	402.57
692.255	426.37
692.7	466.17
693.145	505.77
693.589	702.07
694.034	1143.47
694.478	1532.27
694.923	1723.77
695.367	2217.47
695.812	1167.47
696.256	484.77
696.701	368.97
697.145	340.57
697.59	323.87
698.034	325.87
698.478	326.47
698.922	326.07
699.367	321.97
699.811	341.07
700.255	352.97
700.699	383.97
701.143	422.07
701.588	480.27
702.032	513.37
702.476	515.57
702.92	486.07
703.364	493.67
703.808	636.77
704.252	1044.97
704.696	1466.77
705.14	1646.57
705.584	2096.17
706.027	1044.67
706.471	518.07
706.915	392.37
707.359	343.87
707.803	318.77
708.246	302.67
708.69	310.37
709.134	312.37
709.577	312.87
710.021	321.17
710.465	301.67
710.908	300.17
711.352	292.57
711.795	312.87
712.239	353.47
712.682	389.67
713.126	410.37
713.569	461.67
714.012	373.07
714.456	314.97
714.899	296.37
715.342	273.17
715.786	264.17
716.229	261.17
716.672	252.37
717.115	243.07
717.558	246.87
718.002	250.57
718.445	258.37
718.888	291.27
719.331	291.77
719.774	306.87
720.217	308.37
720.66	283.27
721.103	268.07
721.546	255.67
721.989	252.77
722.432	233.57
722.874	239.97
723.317	235.57
723.76	228.27
724.203	259.57
724.645	322.37
725.088	443.27
725.531	570.87
725.974	639.67
726.416	541.37
726.859	306.77
727.301	245.77
727.744	240.17
728.187	230.37
728.629	236.87
729.071	237.67
729.514	261.87
729.956	271.27
730.399	282.07
730.841	292.67
731.283	268.97
731.726	268.07
732.168	256.87
732.61	263.77
733.053	286.97
733.495	324.37
733.937	347.17
734.379	399.87
734.821	440.77
735.263	545.97
735.705	844.17
736.148	1601.97
736.59	2577.07
737.032	2974.97
737.474	2437.97
737.916	794.67
738.357	420.27
738.799	331.77
739.241	295.77
739.683	283.57
740.125	286.77
740.567	297.97
741.008	314.87
741.45	313.87
741.892	309.87
742.334	347.07
742.775	353.77
743.217	337.07
743.658	270.87
744.1	254.37
744.542	263.17
744.983	308.67
745.425	339.97
745.866	331.77
746.307	282.57
746.749	288.47
747.19	334.07
747.632	459.87
748.073	909.47
748.514	1876.57
748.956	2826.37
749.397	3547.67
749.838	2950.07
750.279	2903.87
750.72	1474.57
751.162	539.27
751.603	309.87
752.044	252.27
752.485	221.77
752.926	207.27
753.367	196.57
753.808	198.37
754.249	194.67
754.69	192.27
755.131	173.57
755.572	181.57
756.013	181.37
756.453	181.47
756.894	192.37
757.335	191.77
757.776	194.87
758.216	198.77
758.657	192.37
759.098	205.57
759.538	232.27
759.979	269.07
760.42	376.57
760.86	720.57
761.301	1878.17
761.741	4429.97
762.182	6289.07
762.622	4422.18
763.063	1300.87
763.503	537.87
763.943	340.37
764.384	346.57
764.824	394.37
765.264	425.97
765.705	300.87
766.145	213.67
766.585	180.77
767.025	179.47
767.465	186.47
767.906	239.77
768.346	324.47
768.786	334.77
769.226	263.97
769.666	318.87
770.106	631.47
770.546	1587.27
770.986	2628.68
771.426	2333.88
771.866	785.17
772.306	328.67
772.745	214.07
773.185	179.97
773.625	176.67
774.065	163.67
774.505	201.57
774.944	319.97
775.384	700.97
775.824	1210.37
776.263	1174.17
776.703	510.27
777.142	219.07
777.582	158.67
778.021	138.97
778.461	134.37
778.9	143.27
779.34	130.27
779.779	124.67
780.219	113.77
780.658	106.67
781.097	112.87
781.537	107.07
781.976	112.47
782.415	101.97
782.855	105.77
783.294	106.17
783.733	105.17
784.172	110.87
784.611	95.17
785.05	111.07
785.489	111.07
785.928	123.37
786.367	119.17
786.806	114.47
787.245	128.47
787.684	134.57
788.123	153.97
788.562	129.87
789.001	126.17
789.44	118.87
789.879	119.87
790.317	114.97
790.756	131.27
791.195	130.37
791.634	152.67
792.072	209.67
792.511	372.47
792.95	1034.97
793.388	2120.97
793.827	1902.27
794.265	670.87
794.704	282.97
795.142	181.97
795.581	146.27
796.019	130.17
796.458	125.87
796.896	114.87
797.334	128.27
797.773	149.97
798.211	218.37
798.649	453.67
799.087	1024.87
799.526	1593.27
799.964	2002.87
800.402	1966.17
800.84	742.57
801.278	300.67
801.716	186.87
802.154	153.37
802.592	142.47
803.03	139.57
803.468	134.57
803.906	143.67
804.344	143.97
804.782	139.77
805.22	138.47
805.658	130.47
806.096	144.07
806.533	157.67
806.971	177.37
807.409	207.97
807.847	313.27
808.284	677.37
808.722	1890.27
809.16	3234.27
809.597	3140.88
810.035	5402.47
810.472	5625.27
810.91	2048.27
811.347	785.97
811.785	396.57
812.222	253.07
812.66	193.57
813.097	164.87
813.535	144.87
813.972	130.27
814.409	115.97
814.846	109.97
815.284	108.17
815.721	102.67
816.158	103.17
816.595	122.77
817.032	172.37
817.47	188.97
817.907	156.77
818.344	154.17
818.781	119.57
819.218	96.27
819.655	127.07
820.092	184.17
820.529	213.27
820.966	174.67
821.403	134.07
821.839	112.07
822.276	102.87
822.713	121.57
823.15	130.57
823.587	108.97
824.023	151.67
824.46	304.87
824.897	895.67
825.333	1313.67
825.77	571.77
826.206	224.97
826.643	133.17
827.08	102.77
827.516	85.37
827.953	69.47
828.389	81.67
828.825	71.87
829.262	66.77
829.698	59.57
830.135	66.27
830.571	59.87
831.007	59.77
831.443	64.17
831.88	65.87
832.316	62.17
832.752	65.67
833.188	71.27
833.624	67.57
834.06	65.47
834.497	72.77
834.933	74.67
835.369	76.07
835.805	70.97
836.241	74.77
836.677	82.67
837.112	93.87
837.548	104.07
837.984	131.27
838.42	204.37
838.856	492.97
839.292	1515.37
839.727	2256.77
840.163	1053.88
840.599	935.87
841.034	2028.17
841.47	2066.97
841.906	761.87
842.341	329.87
842.777	227.37
843.212	311.67
843.648	308.07
844.083	146.77
844.519	100.07
844.954	77.27
845.39	58.67
845.825	59.27
846.261	56.37
846.696	57.97
847.131	48.77
847.566	57.17
848.002	59.07
848.437	52.77
848.872	63.87
849.307	60.57
849.742	83.47
850.177	179.87
850.613	562.07
851.048	868.27
851.483	376.07
851.918	148.77
852.353	84.17
852.788	58.37
853.223	55.37
853.657	54.07
854.092	50.07
854.527	42.97
854.962	40.07
855.397	46.27
855.832	47.47
856.266	44.07
856.701	44.27
857.136	37.37
857.57	39.87
858.005	50.57
858.44	52.27
858.874	44.57
859.309	51.57
859.743	39.07
860.178	47.27
860.612	40.77
861.047	53.87
861.481	61.17
861.915	61.07
862.35	46.07
862.784	35.17
863.218	41.47
863.653	37.47
864.087	43.07
864.521	51.77
864.955	72.57
865.39	156.57
865.824	172.07
866.258	117.37
866.692	161.27
867.126	169.97
867.56	97.87
867.994	50.07
868.428	38.07
868.862	51.37
869.296	55.97
869.73	58.57
870.164	51.97
870.598	45.67
871.031	35.67
871.465	30.17
871.899	36.07
872.333	26.27
872.766	28.17
873.2	17.37
873.634	29.47
874.067	28.77
874.501	19.57
874.935	34.77
875.368	29.47
875.802	29.07
876.235	24.17
876.669	22.57
877.102	20.97
877.535	24.87
877.969	21.97
878.402	21.67
878.836	16.27
879.269	22.57
879.702	23.67
880.135	22.17
880.569	21.87
881.002	28.37
881.435	21.27
881.868	21.67
882.301	21.47
882.734	16.57
883.167	20.87
883.601	20.67
884.034	23.37
884.467	16.87
884.899	17.37
885.332	18.57
885.765	11.67
886.198	18.57
886.631	20.57
887.064	18.97
887.497	22.17
887.929	23.57
888.362	14.17
888.795	16.17
889.228	12.17
889.66	22.07
890.093	16.17
890.526	20.47
890.958	20.07
891.391	15.27
891.823	19.27
892.256	19.37
892.688	17.67
893.121	12.17
893.553	18.17
893.985	21.77
894.418	19.07
894.85	16.37
895.282	19.17
895.715	24.47
896.147	22.17
896.579	17.17
897.011	8.77
897.444	19.07
897.876	4.27
898.308	21.97
898.74	16.17
899.172	13.67
899.604	23.17
900.036	20.87
900.468	19.87
900.9	12.47
901.332	16.27
901.764	11.87
902.196	18.47
902.628	16.47
903.06	17.47
903.491	29.27
903.923	23.87
904.355	20.67
904.787	22.47
905.218	20.17
905.65	21.57
906.082	15.27
906.513	15.27
906.945	13.37
907.376	20.37
907.808	27.97
908.239	25.07
908.671	19.17
909.102	20.37
909.534	24.47
909.965	49.17
910.397	92.87
910.828	316.57
911.259	462.77
911.691	212.97
912.122	101.87
912.553	51.07
912.984	35.37
913.415	26.87
913.847	24.87
914.278	12.97
914.709	17.17
915.14	16.87
915.571	14.07
916.002	10.87
916.433	16.37
916.864	20.37
917.295	13.57
917.726	20.87
918.157	17.77
918.587	24.67
919.018	14.47
919.449	16.37
919.88	23.87
920.311	30.37
920.741	51.57
921.172	160.17
921.603	146.97
922.033	68.77
922.464	48.37
922.895	24.17
923.325	21.57
923.756	17.87
924.186	17.97
924.617	23.77
925.047	37.07
925.478	54.57
925.908	41.07
926.338	27.07
926.769	18.87
927.199	21.47
927.629	4.57
928.06	17.57
928.49	13.97
928.92	10.37
929.35	11.17
929.78	11.27
930.21	7.67
930.641	5.57
931.071	5.37
931.501	4.17
931.931	12.07
932.361	7.97
932.791	8.97
933.221	7.37
933.651	4.97
934.08	15.37
934.51	21.87
934.94	15.97
935.37	7.07
935.8	8.27
936.229	5.17
936.659	7.27
937.089	7.17
937.519	19.17
937.948	20.57
938.378	12.97
938.807	2.37
939.237	2.17
939.666	7.07
940.096	0.87
940.525	-0.93
940.955	4.47
941.384	5.57
941.814	-4.73
942.243	0.07
942.672	6.47
943.102	0.67
943.531	2.17
943.96	5.67
944.39	4.77
944.819	3.47
945.248	0.67
945.677	8.87
946.106	3.47
946.535	4.07
946.964	0.37
947.393	4.77
947.822	1.77
948.251	-5.93
948.68	8.97
949.109	9.07
949.538	9.27
949.967	-1.33
950.396	1.77
950.825	1.07
951.254	-1.73
951.682	-4.33
952.111	0.87
952.54	6.87
952.969	-6.83
953.397	-10.63
953.826	-3.33
954.254	-9.43
954.683	0.57
955.112	-2.43
955.54	3.77
955.969	9.87
956.397	2.17
956.826	-8.43
957.254	1.47
957.682	3.27
958.111	12.37
958.539	3.27
958.967	2.57
959.396	-4.33
959.824	0.27
960.252	3.17
960.68	-3.33
961.109	1.77
961.537	-5.23
961.965	1.37
962.393	0.57
962.821	-3.33
963.249	-3.43
963.677	4.57
964.105	5.27
964.533	42.07
964.961	43.67
965.389	20.67
965.817	9.97
966.245	4.57
966.672	-2.73
967.1	-8.43
967.528	2.57
967.956	0.47
968.383	-0.33
968.811	0.37
969.239	-4.53
969.666	-2.93
970.094	-2.43
970.522	-0.43
970.949	-2.53
971.377	-1.83
971.804	-2.73
972.232	-6.73
972.659	-0.93
973.087	-1.83
973.514	-2.63
973.941	-3.63
974.369	4.87
974.796	1.17
975.223	5.57
975.651	-2.43
976.078	3.57
976.505	-3.63
976.932	1.27
977.359	13.67
977.786	13.57
978.214	3.37
978.641	-3.53
979.068	1.57
979.495	-1.03
979.922	-4.53
980.349	1.27
980.776	5.47
981.202	-1.43
981.629	5.07
982.056	5.07
982.483	-4.83
982.91	2.37
983.337	-5.43
983.763	1.57
984.19	-1.93
984.617	-6.73
985.043	-8.23
985.47	-0.63
985.897	0.87
986.323	-7.53
986.75	0.97
987.176	-3.33
987.603	-0.13
988.029	-0.23
988.456	-4.83
988.882	3.47
989.308	-3.53
989.735	-6.83
990.161	-3.23
990.587	-5.83
991.014	-2.93
991.44	4.27
991.866	-6.23
992.292	-5.03
992.719	-2.43
993.145	0.97
993.571	-6.83
993.997	-2.03
994.423	-0.33
994.849	-3.63
995.275	-0.33
995.701	5.67
996.127	-2.43
996.553	3.67
996.979	-2.83
997.405	-3.83
997.83	-3.63
998.256	-1.93
998.682	-4.13
999.108	-8.53
999.534	8.47
999.959	-2.33
1000.385	-3.53
1000.811	2.07
1001.236	-3.53
1001.662	-8.33
1002.087	-9.13
1002.513	-0.53
1002.938	-3.13
1003.364	5.97
1003.789	-6.63
1004.215	4.27
1004.64	-6.83
1005.066	5.47
1005.491	-4.43
1005.916	-9.13
1006.342	-8.83
1006.767	-7.63
1007.192	4.87
1007.617	-8.13
1008.042	-8.03
1008.468	-1.03
1008.893	-5.73
1009.318	-7.03
1009.743	-2.43
1010.168	0.17
1010.593	0.57
1011.018	-9.13
1011.443	-1.43
1011.868	0.77
1012.293	-1.03
1012.718	-1.63
1013.143	-0.53
1013.567	3.37
1013.992	-5.13
1014.417	-9.83
1014.842	2.27
1015.267	-10.03
1015.691	-3.53
1016.116	0.27
1016.541	-3.33
1016.965	2.37
1017.39	-1.03
1017.814	-2.53
1018.239	-3.43
1018.663	-12.23
1019.088	-13.13
1019.512	-2.93
1019.937	-5.13
1020.361	-2.23
1020.785	-12.63
1021.21	1.97
1021.634	-1.03
1022.058	-1.53
1022.483	5.07
1022.907	-4.73
1023.331	-1.73
1023.755	-2.73
1024.179	-1.83
1024.604	-9.43
1025.028	-7.63
1025.452	-5.03
1025.876	0.37
1026.3	7.27
1026.724	-10.13
1027.148	-2.53
1027.572	-8.93
1027.996	-5.03
1028.42	-6.03
1028.843	-3.03
1029.267	-5.63
1029.691	-2.63
1030.115	-3.13
1030.539	-4.73
1030.962	-2.43
1031.386	-13.63
1031.81	-6.03
1032.233	-4.23
1032.657	0.37
1033.08	-0.03
1033.504	1.87
1033.927	-4.83
1034.351	-2.83
1034.774	-7.83
1035.198	-6.73
1035.621	-1.43
1036.045	-11.73
1036.468	2.87
1036.891	-10.03
1037.315	-9.83
1037.738	-5.43
1038.161	-4.23
1038.584	-6.73
1039.008	-6.83
1039.431	-1.93
1039.854	-2.83
1040.277	-11.43
1040.7	-9.93
1041.123	0.97
1041.546	-5.43
1041.969	-6.93
1042.392	-7.93
1042.815	-3.43
1043.238	3.47
1043.661	3.27
1044.084	-8.43
1044.507	-8.03
1044.93	-2.13
1045.352	-10.53
1045.775	-5.53
1046.198	0.57
1046.621	-0.43
1047.043	-2.33
1047.466	-0.83
1047.889	-5.33
1048.311	-0.23
1048.734	-3.43
1049.156	-2.83
1049.579	0.97
1050.001	-1.53
1050.424	-1.93
1050.846	-6.63
1051.269	-2.83
1051.691	-3.23
1052.113	-7.43
1052.536	0.27
1052.958	-1.93
1053.38	-3.03
1053.802	-11.93
1054.225	6.97
1054.647	-6.53
1055.069	-5.43
1055.491	4.57
1055.913	-10.13
1056.335	1.87
1056.757	-2.63
1057.179	-5.03
1057.601	-5.73
1058.023	-7.83
1058.445	-6.13
1058.867	-7.43
1059.289	-3.53
1059.711	-13.03
1060.133	-4.43
1060.555	-10.73
1060.976	-11.63
1061.398	-5.23
1061.82	-8.53
1062.241	-4.13
1062.663	-9.83
1063.085	-2.33
1063.506	0.57
1063.928	-5.23
1064.35	-0.83
1064.771	-15.23
1065.193	-8.83
1065.614	-9.33
1066.035	-2.73
1066.457	-4.13
1066.878	-1.33
1067.3	-11.23
1067.721	-0.33
1068.142	-10.73
1068.564	-7.53
1068.985	-5.33
1069.406	-1.23
1069.827	-4.33
1070.248	-4.43
1070.67	-5.23
1071.091	-6.53
1071.512	-1.43
1071.933	-9.53
1072.354	-13.73
1072.775	-9.33
1073.196	-5.53
1073.617	-2.03
1074.038	-8.93
1074.459	-1.93
1074.88	-9.83
1075.3	5.47
1075.721	-7.43
1076.142	1.27
1076.563	-6.23
1076.983	-8.13
1077.404	-5.23
1077.825	-11.53
1078.246	-10.23
1078.666	-11.93
1079.087	-3.63
1079.507	-7.23
1079.928	-2.33
1080.348	-2.63
1080.769	-8.73
1081.189	3.57
1081.61	-0.23
1082.03	-5.43
1082.451	-5.53
1082.871	-3.73
1083.291	-9.83
1083.711	-3.73
1084.132	-6.03
1084.552	-5.33
1084.972	-1.93
1085.392	-8.83
1085.813	-5.73
1086.233	-7.83
1086.653	-0.83
1087.073	-1.03
1087.493	-11.33
1087.913	-6.83
1088.333	-12.63
1088.753	-7.13
1089.173	3.27
1089.593	-1.23
1090.013	0.67
1090.433	0.07
1090.852	-13.33
1091.272	0.17
1091.692	-2.83
1092.112	-0.53
1092.531	-8.43
1092.951	-11.23
1093.371	0.27
1093.79	-0.13
1094.21	-0.53
1094.63	-2.83
1095.049	-3.93
1095.469	-3.73
1095.888	-4.03
1096.308	-5.83
1096.727	-0.13
1097.146	-6.33
1097.566	2.07
1097.985	-3.13
1098.405	-0.73
1098.824	-8.83
1099.243	-7.43
1099.662	-10.43
1100.082	-5.13
1100.501	-2.53
1100.92	-3.33
1101.339	-3.73
1101.758	-0.63
