Data from 20171114-ORNL-Ar_H_NY_Subt18_08-04-32-090.txt Node
Date: Tue Nov 14 08:04:32 EST 2017
User: Ender
Spectrometer: HR+D1039
Trigger mode: 0
Integration Time (sec): 2.730000E-2
Scans to average: 10
Electric dark correction enabled: true
Nonlinearity correction enabled: false
Boxcar width: 0
XAxis mode: Wavelengths
Number of Pixels in Spectrum: 2048
>>>>>Begin Spectral Data<<<<<
187.836	-4.92
188.309	-4.92
188.782	-4.92
189.255	0.28
189.728	-5.12
190.201	8.38
190.674	3.28
191.147	4.08
191.619	-6.42
192.092	1.28
192.565	4.28
193.038	-0.22
193.511	3.88
193.984	0.38
194.456	-6.42
194.929	0.78
195.402	-0.22
195.874	-3.32
196.347	4.48
196.82	-7.72
197.292	8.58
197.765	1.88
198.237	-3.12
198.71	0.28
199.182	-0.32
199.655	4.78
200.127	2.58
200.6	-5.12
201.072	1.08
201.544	-9.62
202.017	3.18
202.489	3.58
202.961	3.28
203.433	1.18
203.906	-6.92
204.378	-2.82
204.85	0.38
205.322	-8.52
205.794	3.98
206.266	1.98
206.739	-4.82
207.211	5.98
207.683	-4.92
208.155	-4.92
208.627	-4.22
209.099	2.28
209.57	-6.22
210.042	-6.42
210.514	-5.82
210.986	-0.92
211.458	-7.92
211.93	-0.22
212.402	1.38
212.873	-5.62
213.345	-11.32
213.817	-7.72
214.288	-10.82
214.76	-7.82
215.232	5.98
215.703	-4.72
216.175	-5.72
216.646	-8.82
217.118	-2.82
217.589	-7.22
218.061	0.88
218.532	-2.22
219.004	-1.72
219.475	-5.32
219.946	-3.92
220.418	-8.62
220.889	3.28
221.36	7.18
221.832	-3.62
222.303	-7.02
222.774	2.18
223.245	-4.42
223.717	-7.42
224.188	-0.82
224.659	-7.62
225.13	-1.42
225.601	-0.02
226.072	2.18
226.543	2.58
227.014	-0.72
227.485	2.38
227.956	-4.82
228.427	-0.22
228.898	5.18
229.369	3.28
229.839	2.78
230.31	-2.62
230.781	4.08
231.252	-1.72
231.722	0.48
232.193	-1.62
232.664	4.68
233.135	5.08
233.605	-0.92
234.076	-1.12
234.546	1.28
235.017	7.08
235.487	4.18
235.958	2.98
236.428	2.48
236.899	11.58
237.369	5.78
237.84	4.48
238.31	0.88
238.78	7.88
239.251	5.78
239.721	7.98
240.191	2.28
240.662	2.98
241.132	1.68
241.602	0.48
242.072	1.98
242.542	5.18
243.013	0.68
243.483	1.28
243.953	8.08
244.423	1.38
244.893	3.48
245.363	9.58
245.833	5.28
246.303	4.28
246.773	7.58
247.243	5.88
247.712	2.88
248.182	8.78
248.652	8.98
249.122	0.48
249.592	13.88
250.061	23.58
250.531	33.68
251.001	22.18
251.471	27.18
251.94	25.38
252.41	7.58
252.879	9.08
253.349	18.48
253.818	16.68
254.288	6.98
254.757	6.58
255.227	1.18
255.696	9.18
256.166	10.18
256.635	10.38
257.105	12.08
257.574	12.88
258.043	12.48
258.513	15.48
258.982	18.68
259.451	14.48
259.92	19.38
260.389	15.68
260.859	21.98
261.328	16.38
261.797	18.48
262.266	11.98
262.735	21.18
263.204	5.38
263.673	5.78
264.142	9.08
264.611	1.68
265.08	7.08
265.549	6.48
266.018	9.48
266.487	2.48
266.955	-2.72
267.424	6.78
267.893	12.38
268.362	1.38
268.83	6.38
269.299	11.18
269.768	5.88
270.236	6.18
270.705	3.28
271.174	8.78
271.642	12.98
272.111	10.38
272.579	21.08
273.048	32.78
273.516	30.18
273.985	31.58
274.453	27.08
274.922	23.88
275.39	10.88
275.858	12.98
276.327	12.58
276.795	19.68
277.263	8.18
277.731	30.98
278.2	60.08
278.668	62.68
279.136	48.28
279.604	24.38
280.072	19.08
280.54	11.98
281.008	8.38
281.477	22.28
281.945	13.78
282.413	18.88
282.881	18.48
283.348	10.98
283.816	12.88
284.284	15.88
284.752	19.98
285.22	13.28
285.688	18.98
286.156	24.28
286.623	48.18
287.091	57.68
287.559	36.68
288.026	22.28
288.494	16.48
288.962	14.58
289.429	16.68
289.897	19.88
290.364	18.68
290.832	19.98
291.3	18.08
291.767	20.58
292.234	27.18
292.702	19.58
293.169	21.38
293.637	29.48
294.104	22.98
294.571	15.88
295.039	20.48
295.506	14.68
295.973	17.48
296.44	17.28
296.908	23.98
297.375	18.58
297.842	26.98
298.309	24.58
298.776	18.68
299.243	29.68
299.71	16.18
300.177	26.68
300.644	26.18
301.111	23.68
301.578	28.28
302.045	20.48
302.512	32.78
302.979	29.98
303.446	26.08
303.913	22.78
304.379	21.78
304.846	26.68
305.313	31.58
305.78	23.88
306.246	27.68
306.713	34.28
307.18	25.08
307.646	32.28
308.113	31.68
308.579	26.98
309.046	28.88
309.512	28.68
309.979	21.88
310.445	32.08
310.912	30.98
311.378	41.88
311.845	35.48
312.311	32.18
312.777	33.98
313.244	32.98
313.71	40.78
314.176	33.88
314.642	40.08
315.109	40.88
315.575	37.78
316.041	37.68
316.507	36.78
316.973	42.68
317.439	34.38
317.905	40.88
318.371	40.48
318.837	39.28
319.303	36.08
319.769	35.08
320.235	41.28
320.701	38.18
321.167	41.78
321.633	35.28
322.099	46.18
322.564	47.88
323.03	42.88
323.496	43.48
323.962	45.78
324.427	40.48
324.893	40.58
325.359	43.38
325.824	40.18
326.29	35.38
326.755	44.48
327.221	42.18
327.686	39.78
328.152	48.38
328.617	42.48
329.083	53.58
329.548	52.88
330.014	45.48
330.479	41.88
330.944	46.18
331.41	43.88
331.875	46.58
332.34	48.98
332.805	46.58
333.271	49.08
333.736	46.18
334.201	49.28
334.666	54.38
335.131	53.28
335.596	52.78
336.061	53.28
336.526	48.38
336.991	50.18
337.456	53.78
337.921	49.58
338.386	42.28
338.851	50.68
339.316	47.98
339.781	48.48
340.246	53.98
340.711	49.28
341.175	56.28
341.64	43.18
342.105	52.48
342.569	55.88
343.034	66.78
343.499	55.48
343.963	58.68
344.428	62.68
344.893	63.58
345.357	66.18
345.822	69.38
346.286	67.08
346.751	74.58
347.215	72.08
347.679	70.78
348.144	99.38
348.608	86.68
349.073	70.98
349.537	75.38
350.001	83.08
350.465	92.28
350.93	80.38
351.394	84.38
351.858	75.88
352.322	83.38
352.786	78.68
353.25	100.08
353.715	114.58
354.179	96.28
354.643	111.38
355.107	121.18
355.571	106.88
356.035	101.78
356.498	118.28
356.962	116.68
357.426	129.98
357.89	110.38
358.354	95.58
358.818	82.48
359.281	84.48
359.745	77.28
360.209	70.98
360.673	79.28
361.136	81.48
361.6	87.48
362.064	77.88
362.527	82.68
362.991	84.48
363.454	81.48
363.918	80.38
364.381	78.38
364.845	77.38
365.308	79.78
365.772	82.28
366.235	80.78
366.698	79.78
367.162	82.68
367.625	89.18
368.088	83.58
368.552	90.78
369.015	88.28
369.478	90.08
369.941	97.78
370.404	92.68
370.867	98.58
371.331	104.08
371.794	106.68
372.257	103.08
372.72	113.18
373.183	114.68
373.646	102.38
374.109	100.58
374.572	103.38
375.035	104.48
375.497	100.68
375.96	106.38
376.423	100.58
376.886	114.58
377.349	110.08
377.811	103.58
378.274	97.28
378.737	98.28
379.199	105.38
379.662	111.08
380.125	108.38
380.587	110.58
381.05	114.38
381.512	120.08
381.975	128.88
382.437	125.18
382.9	124.48
383.362	129.28
383.825	140.08
384.287	143.38
384.75	136.48
385.212	136.78
385.674	129.78
386.136	133.98
386.599	123.38
387.061	123.08
387.523	125.98
387.985	124.38
388.447	137.88
388.91	134.18
389.372	148.78
389.834	135.88
390.296	137.68
390.758	151.78
391.22	157.08
391.682	200.38
392.144	267.68
392.606	219.88
393.068	157.98
393.529	160.38
393.991	151.28
394.453	135.18
394.915	152.98
395.377	175.68
395.838	202.18
396.3	148.18
396.762	138.48
397.224	126.98
397.685	123.78
398.147	123.08
398.608	120.68
399.07	126.98
399.531	128.48
399.993	127.98
400.454	137.88
400.916	140.08
401.377	128.68
401.839	143.18
402.3	141.88
402.762	159.88
403.223	171.38
403.684	160.08
404.145	145.88
404.607	149.48
405.068	156.98
405.529	155.58
405.99	182.48
406.451	165.48
406.913	156.28
407.374	152.18
407.835	147.98
408.296	161.88
408.757	154.58
409.218	176.78
409.679	159.98
410.14	163.88
410.601	161.38
411.062	171.48
411.522	180.68
411.983	174.38
412.444	166.78
412.905	172.38
413.366	167.28
413.826	178.48
414.287	203.58
414.748	239.48
415.208	226.58
415.669	198.58
416.13	200.58
416.59	191.58
417.051	206.28
417.511	204.88
417.972	222.68
418.432	227.28
418.893	271.08
419.353	239.28
419.814	186.38
420.274	173.78
420.734	170.78
421.195	185.58
421.655	179.18
422.115	185.38
422.576	181.68
423.036	187.68
423.496	195.88
423.956	205.18
424.416	218.48
424.876	251.88
425.336	249.48
425.797	244.78
426.257	242.98
426.717	226.68
427.177	217.38
427.637	214.18
428.097	219.58
428.556	225.28
429.016	250.18
429.476	250.18
429.936	249.68
430.396	254.18
430.856	267.58
431.315	287.68
431.775	324.38
432.235	351.08
432.694	329.78
433.154	337.28
433.614	355.88
434.073	309.78
434.533	262.88
434.993	252.58
435.452	264.18
435.912	278.68
436.371	267.88
436.83	263.78
437.29	252.88
437.749	231.38
438.209	228.28
438.668	253.08
439.127	262.08
439.587	245.08
440.046	229.98
440.505	236.78
440.964	262.58
441.424	300.38
441.883	285.88
442.342	243.88
442.801	207.58
443.26	209.18
443.719	203.18
444.178	202.78
444.637	194.98
445.096	211.28
445.555	205.28
446.014	209.68
446.473	210.88
446.932	213.98
447.391	202.58
447.849	206.98
448.308	205.18
448.767	203.68
449.226	220.28
449.685	224.78
450.143	232.88
450.602	220.18
451.061	215.88
451.519	220.78
451.978	216.98
452.436	213.88
452.895	221.48
453.353	233.48
453.812	223.88
454.27	223.28
454.729	219.28
455.187	224.78
455.646	226.48
456.104	226.18
456.562	239.78
457.021	246.78
457.479	242.18
457.937	255.98
458.395	243.88
458.854	233.68
459.312	243.48
459.77	252.68
460.228	240.08
460.686	227.78
461.144	233.08
461.602	233.58
462.06	225.48
462.518	232.98
462.976	238.88
463.434	241.88
463.892	246.58
464.35	255.58
464.808	272.38
465.266	244.08
465.724	254.68
466.181	258.28
466.639	258.38
467.097	267.98
467.555	284.08
468.012	278.38
468.47	290.68
468.928	306.48
469.385	314.28
469.843	333.78
470.3	319.88
470.758	331.78
471.215	353.88
471.673	379.58
472.13	363.48
472.588	381.68
473.045	345.38
473.503	349.98
473.96	363.38
474.417	379.88
474.875	396.88
475.332	447.58
475.789	433.88
476.246	426.48
476.704	452.58
477.161	468.88
477.618	479.48
478.075	516.88
478.532	564.18
478.989	641.18
479.446	742.38
479.903	716.68
480.36	751.28
480.817	808.68
481.274	902.58
481.731	996.58
482.188	1083.38
482.645	1210.48
483.102	1327.88
483.558	1433.58
484.015	1504.18
484.472	1482.28
484.929	1421.08
485.385	1389.78
485.842	1361.28
486.299	1286.48
486.755	1202.78
487.212	1018.98
487.668	861.18
488.125	794.48
488.582	727.38
489.038	698.88
489.494	675.58
489.951	644.98
490.407	626.78
490.864	611.58
491.32	599.48
491.776	594.58
492.233	606.58
492.689	564.68
493.145	564.08
493.602	553.18
494.058	577.48
494.514	577.68
494.97	592.48
495.426	596.48
495.882	575.68
496.338	574.18
496.794	581.68
497.251	574.68
497.707	590.28
498.163	595.08
498.618	606.78
499.074	598.18
499.53	635.18
499.986	631.98
500.442	603.78
500.898	583.78
501.354	589.28
501.809	591.18
502.265	593.18
502.721	608.08
503.177	625.08
503.632	607.58
504.088	633.28
504.543	667.88
504.999	661.88
505.455	611.88
505.91	586.38
506.366	590.38
506.821	595.38
507.277	570.78
507.732	572.58
508.187	581.08
508.643	592.88
509.098	584.68
509.553	603.88
510.009	613.08
510.464	627.58
510.919	639.48
511.375	639.08
511.83	651.78
512.285	661.98
512.74	712.88
513.195	725.48
513.65	719.88
514.105	725.38
514.56	718.88
515.015	738.68
515.47	752.68
515.925	743.48
516.38	734.28
516.835	735.68
517.29	730.48
517.745	724.28
518.2	709.48
518.655	690.68
519.109	694.08
519.564	694.08
520.019	678.28
520.474	673.58
520.928	675.08
521.383	675.28
521.838	665.98
522.292	650.48
522.747	665.18
523.201	654.88
523.656	642.68
524.11	640.18
524.565	640.58
525.019	629.18
525.474	638.88
525.928	647.78
526.382	644.38
526.837	646.48
527.291	654.28
527.745	644.78
528.2	650.68
528.654	634.78
529.108	630.98
529.562	637.08
530.016	642.18
530.47	634.58
530.925	652.58
531.379	654.68
531.833	653.88
532.287	650.78
532.741	655.08
533.195	649.68
533.649	659.98
534.103	677.78
534.556	662.88
535.01	665.68
535.464	649.98
535.918	665.98
536.372	667.88
536.826	670.58
537.279	652.38
537.733	654.98
538.187	667.28
538.64	659.48
539.094	667.98
539.548	672.98
540.001	662.58
540.455	668.38
540.908	675.08
541.362	672.18
541.815	672.68
542.269	702.98
542.722	698.88
543.175	707.48
543.629	707.88
544.082	728.08
544.536	727.48
544.989	720.98
545.442	726.98
545.895	724.18
546.349	729.88
546.802	732.88
547.255	734.98
547.708	736.38
548.161	748.98
548.614	752.28
549.067	763.38
549.52	749.48
549.973	746.38
550.426	742.28
550.879	736.08
551.332	737.18
551.785	736.58
552.238	745.48
552.691	743.78
553.144	751.38
553.596	771.08
554.049	787.58
554.502	813.78
554.955	826.28
555.407	838.98
555.86	820.78
556.313	820.08
556.765	801.88
557.218	804.08
557.67	809.88
558.123	807.88
558.576	797.68
559.028	798.88
559.48	813.58
559.933	794.28
560.385	774.38
560.838	735.28
561.29	715.18
561.742	717.38
562.195	691.88
562.647	691.78
563.099	701.18
563.551	702.78
564.004	710.78
564.456	704.78
564.908	694.18
565.36	673.78
565.812	667.98
566.264	656.28
566.716	650.38
567.168	640.18
567.62	651.98
568.072	645.38
568.524	631.78
568.976	623.88
569.428	609.88
569.88	607.88
570.332	616.68
570.784	611.68
571.235	618.18
571.687	628.18
572.139	636.58
572.59	649.28
573.042	638.28
573.494	643.48
573.945	631.18
574.397	623.58
574.849	620.68
575.3	624.48
575.752	613.28
576.203	609.58
576.655	608.58
577.106	602.98
577.557	596.98
578.009	595.28
578.46	603.88
578.912	602.98
579.363	601.68
579.814	605.18
580.265	599.48
580.717	612.68
581.168	612.48
581.619	614.08
582.07	604.48
582.521	595.88
582.972	609.48
583.423	609.18
583.875	617.88
584.326	626.28
584.777	673.98
585.227	740.28
585.678	816.08
586.129	908.38
586.58	963.28
587.031	1055.18
587.482	1205.08
587.933	1362.48
588.384	1192.38
588.834	870.58
589.285	717.08
589.736	693.98
590.186	692.68
590.637	680.08
591.088	654.38
591.538	649.18
591.989	648.18
592.439	648.28
592.89	639.08
593.34	636.58
593.791	639.08
594.241	627.68
594.692	633.58
595.142	625.28
595.593	623.88
596.043	624.48
596.493	642.28
596.943	637.38
597.394	634.18
597.844	641.88
598.294	652.48
598.744	669.88
599.195	682.38
599.645	723.08
600.095	759.88
600.545	799.58
600.995	853.38
601.445	910.88
601.895	962.68
602.345	1007.68
602.795	988.18
603.245	945.38
603.695	897.68
604.145	849.58
604.594	809.28
605.044	766.78
605.494	709.38
605.944	675.58
606.393	654.88
606.843	652.28
607.293	641.38
607.743	635.88
608.192	656.08
608.642	667.18
609.091	680.68
609.541	679.08
609.99	676.98
610.44	670.58
610.889	636.78
611.339	610.88
611.788	595.78
612.238	622.18
612.687	628.38
613.136	630.18
613.586	654.58
614.035	653.28
614.484	659.48
614.933	664.98
615.383	656.78
615.832	649.38
616.281	632.38
616.73	613.38
617.179	573.78
617.628	568.98
618.077	551.28
618.526	542.38
618.975	536.88
619.424	535.88
619.873	537.78
620.322	534.68
620.771	526.98
621.22	529.38
621.669	518.88
622.118	508.58
622.567	505.68
623.015	496.38
623.464	489.58
623.913	491.08
624.361	488.08
624.81	488.98
625.259	478.88
625.707	479.48
626.156	486.28
626.604	490.48
627.053	495.88
627.501	492.28
627.95	490.28
628.398	509.28
628.847	490.98
629.295	496.58
629.744	500.28
630.192	500.28
630.64	494.08
631.089	485.68
631.537	509.48
631.985	498.88
632.433	511.58
632.881	521.58
633.33	559.18
633.778	544.78
634.226	485.08
634.674	491.28
635.122	503.48
635.57	523.18
636.018	541.08
636.466	502.98
636.914	488.08
637.362	492.28
637.81	507.68
638.258	502.58
638.705	496.18
639.153	521.08
639.601	526.68
640.049	557.68
640.497	574.38
640.944	596.48
641.392	551.38
641.84	537.78
642.287	511.98
642.735	490.88
643.182	498.48
643.63	492.68
644.078	493.88
644.525	508.28
644.973	505.58
645.42	500.88
645.867	534.18
646.315	555.48
646.762	568.78
647.21	595.98
647.657	608.18
648.104	643.98
648.551	664.08
648.999	713.48
649.446	790.28
649.893	852.18
650.34	981.38
650.787	1171.38
651.234	1464.38
651.682	1909.58
652.129	2595.98
652.576	3724.18
653.023	5526.68
653.47	7647.88
653.917	9631.48
654.363	11288.98
654.81	12679.78
655.257	12048.78
655.704	7793.68
656.151	4591.08
656.598	2962.88
657.044	2084.18
657.491	1612.78
657.938	1284.68
658.385	1074.38
658.831	938.58
659.278	827.68
659.724	725.38
660.171	675.08
660.618	623.18
661.064	590.08
661.511	568.88
661.957	555.28
662.404	544.08
662.85	553.28
663.296	535.18
663.743	481.08
664.189	461.88
664.635	453.28
665.082	455.38
665.528	446.28
665.974	437.48
666.42	435.98
666.867	432.98
667.313	408.28
667.759	403.58
668.205	405.28
668.651	418.58
669.097	419.48
669.543	431.58
669.989	413.28
670.435	382.28
670.881	378.88
671.327	381.78
671.773	395.78
672.219	409.68
672.665	462.78
673.11	495.28
673.556	537.68
674.002	570.48
674.448	559.68
674.893	466.88
675.339	405.28
675.785	371.58
676.23	360.38
676.676	338.58
677.122	324.48
677.567	316.88
678.013	310.38
678.458	300.38
678.904	302.18
679.349	295.68
679.794	298.58
680.24	295.88
680.685	290.88
681.131	286.38
681.576	293.88
682.021	304.78
682.466	299.28
682.912	291.88
683.357	300.48
683.802	322.68
684.247	350.98
684.692	374.38
685.137	415.58
685.583	455.98
686.028	473.28
686.473	435.98
686.918	372.78
687.363	351.68
687.807	331.08
688.252	306.08
688.697	291.88
689.142	281.18
689.587	283.48
690.032	264.88
690.477	291.78
690.921	296.48
691.366	321.68
691.811	338.28
692.255	361.28
692.7	385.28
693.145	416.58
693.589	566.38
694.034	934.08
694.478	1281.28
694.923	1490.88
695.367	1961.48
695.812	1031.48
696.256	420.48
696.701	315.78
697.145	287.78
697.59	282.68
698.034	273.48
698.478	280.48
698.922	268.58
699.367	277.58
699.811	283.28
700.255	300.08
700.699	321.08
701.143	361.18
701.588	395.28
702.032	433.88
702.476	432.48
702.92	412.28
703.364	413.88
703.808	523.88
704.252	847.28
704.696	1212.18
705.14	1425.38
705.584	1836.18
706.027	898.68
706.471	443.98
706.915	333.88
707.359	289.28
707.803	265.98
708.246	257.48
708.69	269.88
709.134	260.98
709.577	259.08
710.021	265.08
710.465	257.88
710.908	250.28
711.352	251.78
711.795	264.28
712.239	290.98
712.682	323.58
713.126	353.08
713.569	393.68
714.012	316.48
714.456	277.98
714.899	259.68
715.342	235.38
715.786	223.28
716.229	218.88
716.672	215.38
717.115	208.68
717.558	215.78
718.002	211.68
718.445	211.28
718.888	243.78
719.331	253.38
719.774	266.68
720.217	259.48
720.66	236.48
721.103	217.38
721.546	216.08
721.989	213.98
722.432	199.48
722.874	203.78
723.317	193.98
723.76	197.78
724.203	224.28
724.645	268.08
725.088	368.58
725.531	481.18
725.974	549.88
726.416	464.68
726.859	255.68
727.301	204.78
727.744	198.18
728.187	197.28
728.629	200.48
729.071	203.18
729.514	215.78
729.956	232.78
730.399	237.58
730.841	247.18
731.283	225.08
731.726	223.78
732.168	219.98
732.61	217.88
733.053	233.98
733.495	264.68
733.937	289.28
734.379	331.68
734.821	362.28
735.263	445.08
735.705	674.98
736.148	1272.58
736.59	2150.18
737.032	2652.48
737.474	2151.78
737.916	679.58
738.357	358.58
738.799	273.38
739.241	246.68
739.683	239.38
740.125	244.38
740.567	251.28
741.008	261.68
741.45	265.28
741.892	267.58
742.334	285.98
742.775	307.68
743.217	290.48
743.658	233.58
744.1	211.18
744.542	215.08
744.983	260.68
745.425	291.98
745.866	291.68
746.307	238.28
746.749	230.98
747.19	258.58
747.632	368.38
748.073	695.88
748.514	1508.98
748.956	2402.78
749.397	2990.68
749.838	2496.58
750.279	2550.18
750.72	1284.68
751.162	459.58
751.603	272.48
752.044	206.18
752.485	186.68
752.926	174.98
753.367	169.68
753.808	160.08
754.249	158.58
754.69	162.38
755.131	154.68
755.572	159.18
756.013	152.78
756.453	149.48
756.894	154.58
757.335	163.68
757.776	155.98
758.216	162.28
758.657	162.98
759.098	167.38
759.538	194.78
759.979	217.58
760.42	310.38
760.86	566.08
761.301	1455.58
761.741	3631.88
762.182	5586.78
762.622	3951.38
763.063	1112.48
763.503	448.68
763.943	292.58
764.384	290.28
764.824	346.18
765.264	385.08
765.705	258.88
766.145	173.38
766.585	159.78
767.025	153.58
767.465	153.38
767.906	201.58
768.346	269.58
768.786	292.38
769.226	223.58
769.666	261.58
770.106	491.18
770.546	1258.18
770.986	2262.38
771.426	2057.18
771.866	678.78
772.306	283.08
772.745	181.48
773.185	149.28
773.625	145.28
774.065	139.98
774.505	161.28
774.944	246.28
775.384	552.68
775.824	1030.08
776.263	1034.28
776.703	427.28
777.142	192.18
777.582	130.68
778.021	116.08
778.461	118.28
778.9	117.18
779.34	108.38
779.779	96.88
780.219	90.38
780.658	85.88
781.097	94.38
781.537	98.38
781.976	91.28
782.415	90.78
782.855	90.88
783.294	82.78
783.733	88.98
784.172	90.38
784.611	85.78
785.05	91.88
785.489	94.98
785.928	94.98
786.367	103.88
786.806	98.88
787.245	102.88
787.684	113.68
788.123	128.58
788.562	117.08
789.001	102.68
789.44	93.68
789.879	98.28
790.317	98.08
790.756	102.68
791.195	104.28
791.634	124.58
792.072	168.08
792.511	291.48
792.95	804.48
793.388	1812.18
793.827	1702.78
794.265	575.18
794.704	237.28
795.142	157.28
795.581	131.28
796.019	112.98
796.458	109.78
796.896	103.28
797.334	106.18
797.773	123.88
798.211	175.08
798.649	350.38
799.087	831.38
799.526	1331.28
799.964	1679.78
800.402	1734.38
800.84	644.58
801.278	251.28
801.716	158.78
802.154	129.38
802.592	127.38
803.03	117.78
803.468	114.88
803.906	120.28
804.344	129.98
804.782	121.98
805.22	111.08
805.658	106.28
806.096	118.38
806.533	129.48
806.971	148.78
807.409	181.48
807.847	252.18
808.284	523.58
808.722	1531.08
809.16	2813.28
809.597	2590.88
810.035	4584.18
810.472	5097.18
810.91	1806.48
811.347	676.98
811.785	343.28
812.222	211.78
812.66	163.38
813.097	140.48
813.535	114.08
813.972	110.68
814.409	100.68
814.846	90.78
815.284	93.58
815.721	88.18
816.158	85.88
816.595	98.68
817.032	152.98
817.47	168.08
817.907	148.28
818.344	127.68
818.781	99.88
819.218	80.58
819.655	101.78
820.092	153.08
820.529	184.08
820.966	149.58
821.403	115.08
821.839	103.08
822.276	86.78
822.713	101.78
823.15	118.78
823.587	98.88
824.023	118.38
824.46	244.78
824.897	733.88
825.333	1184.78
825.77	501.58
826.206	193.28
826.643	111.28
827.08	84.58
827.516	70.68
827.953	63.58
828.389	68.18
828.825	56.28
829.262	54.78
829.698	48.88
830.135	50.98
830.571	46.58
831.007	60.98
831.443	53.68
831.88	55.08
832.316	58.78
832.752	57.18
833.188	59.08
833.624	53.58
834.06	59.58
834.497	61.98
834.933	64.98
835.369	56.98
835.805	50.18
836.241	57.78
836.677	64.88
837.112	79.08
837.548	82.68
837.984	110.58
838.42	168.88
838.856	400.28
839.292	1265.98
839.727	2004.38
840.163	922.48
840.599	764.78
841.034	1712.88
841.47	1858.88
841.906	670.78
842.341	280.28
842.777	193.28
843.212	258.98
843.648	271.98
844.083	125.08
844.519	85.58
844.954	64.58
845.39	48.48
845.825	47.48
846.261	48.68
846.696	43.78
847.131	47.58
847.566	54.08
848.002	48.78
848.437	42.48
848.872	55.88
849.307	55.48
849.742	63.38
850.177	144.08
850.613	455.38
851.048	754.98
851.483	330.18
851.918	134.58
852.353	82.38
852.788	48.28
853.223	49.38
853.657	47.18
854.092	42.68
854.527	35.68
854.962	40.58
855.397	40.68
855.832	39.48
856.266	37.28
856.701	29.78
857.136	30.68
857.57	35.58
858.005	39.18
858.44	46.18
858.874	40.48
859.309	49.58
859.743	29.78
860.178	45.58
860.612	36.08
861.047	43.68
861.481	56.88
861.915	61.78
862.35	44.78
862.784	26.38
863.218	35.78
863.653	31.88
864.087	43.38
864.521	52.18
864.955	58.68
865.39	128.68
865.824	151.78
866.258	94.48
866.692	141.18
867.126	157.38
867.56	88.68
867.994	47.28
868.428	32.58
868.862	24.88
869.296	54.28
869.73	49.48
870.164	47.88
870.598	38.68
871.031	40.38
871.465	23.48
871.899	25.48
872.333	24.48
872.766	21.68
873.2	20.38
873.634	27.78
874.067	25.58
874.501	24.68
874.935	28.68
875.368	26.58
875.802	26.18
876.235	20.18
876.669	21.48
877.102	19.78
877.535	18.08
877.969	22.58
878.402	22.58
878.836	15.88
879.269	21.88
879.702	22.48
880.135	14.38
880.569	19.98
881.002	24.28
881.435	20.98
881.868	15.58
882.301	18.78
882.734	12.68
883.167	19.28
883.601	18.78
884.034	23.08
884.467	7.48
884.899	16.18
885.332	21.88
885.765	14.38
886.198	15.88
886.631	14.98
887.064	19.68
887.497	11.28
887.929	23.58
888.362	20.78
888.795	14.28
889.228	11.18
889.66	20.28
890.093	17.58
890.526	15.58
890.958	12.18
891.391	11.58
891.823	18.08
892.256	15.38
892.688	5.48
893.121	16.08
893.553	12.88
893.985	19.18
894.418	25.28
894.85	11.88
895.282	20.28
895.715	14.68
896.147	18.68
896.579	10.68
897.011	12.08
897.444	10.88
897.876	13.68
898.308	20.08
898.74	15.58
899.172	9.18
899.604	23.48
900.036	18.28
900.468	11.18
900.9	16.68
901.332	17.78
901.764	11.28
902.196	19.98
902.628	16.88
903.06	18.18
903.491	25.68
903.923	21.88
904.355	20.28
904.787	18.78
905.218	20.58
905.65	19.28
906.082	11.38
906.513	10.98
906.945	14.28
907.376	6.98
907.808	12.48
908.239	13.08
908.671	19.48
909.102	17.48
909.534	24.18
909.965	40.48
910.397	74.98
910.828	268.18
911.259	418.68
911.691	195.18
912.122	90.18
912.553	43.88
912.984	25.78
913.415	26.58
913.847	22.08
914.278	16.78
914.709	14.28
915.14	17.28
915.571	17.68
916.002	17.38
916.433	19.18
916.864	11.38
917.295	13.78
917.726	22.18
918.157	10.78
918.587	26.58
919.018	24.28
919.449	18.08
919.88	24.38
920.311	26.28
920.741	41.28
921.172	147.78
921.603	134.98
922.033	61.08
922.464	40.78
922.895	21.88
923.325	27.98
923.756	13.78
924.186	15.18
924.617	27.48
925.047	31.88
925.478	49.38
925.908	45.78
926.338	21.28
926.769	17.18
927.199	22.18
927.629	5.18
928.06	17.98
928.49	9.28
928.92	17.48
929.35	5.98
929.78	8.08
930.21	8.68
930.641	7.18
931.071	5.58
931.501	-1.92
931.931	13.18
932.361	5.18
932.791	5.48
933.221	0.48
933.651	4.38
934.08	14.88
934.51	29.58
934.94	12.08
935.37	12.48
935.8	8.98
936.229	7.58
936.659	14.88
937.089	-2.92
937.519	14.28
937.948	20.28
938.378	8.68
938.807	3.08
939.237	0.18
939.666	14.08
940.096	0.38
940.525	2.68
940.955	6.88
941.384	4.28
941.814	-1.82
942.243	2.68
942.672	5.88
943.102	-2.92
943.531	2.18
943.96	6.98
944.39	-0.12
944.819	-1.32
945.248	5.58
945.677	0.38
946.106	9.28
946.535	-1.82
946.964	0.08
947.393	7.18
947.822	-1.62
948.251	-3.02
948.68	4.98
949.109	7.98
949.538	5.18
949.967	-1.92
950.396	2.28
950.825	-3.92
951.254	-0.22
951.682	-6.92
952.111	6.08
952.54	6.88
952.969	3.38
953.397	-4.32
953.826	0.28
954.254	-6.62
954.683	-1.92
955.112	1.78
955.54	3.08
955.969	3.48
956.397	-0.82
956.826	-0.32
957.254	3.38
957.682	7.28
958.111	8.88
958.539	3.28
958.967	5.48
959.396	-3.12
959.824	2.68
960.252	-0.02
960.68	-2.12
961.109	0.98
961.537	-4.02
961.965	0.18
962.393	5.28
962.821	-3.02
963.249	0.38
963.677	8.88
964.105	-3.42
964.533	44.38
964.961	33.98
965.389	23.78
965.817	6.58
966.245	-1.12
966.672	0.08
967.1	-10.42
967.528	4.18
967.956	-5.42
968.383	6.68
968.811	0.68
969.239	-5.42
969.666	-3.72
970.094	-1.32
970.522	0.48
970.949	6.48
971.377	1.48
971.804	-0.72
972.232	2.38
972.659	-0.12
973.087	-1.92
973.514	-3.82
973.941	-2.62
974.369	5.98
974.796	4.08
975.223	3.48
975.651	-1.12
976.078	8.28
976.505	-4.32
976.932	6.38
977.359	6.48
977.786	16.88
978.214	-0.22
978.641	-2.02
979.068	-4.32
979.495	-5.62
979.922	-1.22
980.349	-6.62
980.776	10.18
981.202	-3.02
981.629	5.88
982.056	4.58
982.483	-1.02
982.91	0.18
983.337	-6.82
983.763	6.78
984.19	-0.32
984.617	-4.02
985.043	-1.72
985.47	2.28
985.897	-10.02
986.323	-5.02
986.75	5.28
987.176	0.38
987.603	-0.22
988.029	2.68
988.456	2.98
988.882	5.98
989.308	-1.62
989.735	1.18
990.161	3.08
990.587	0.88
991.014	0.88
991.44	6.48
991.866	-1.72
992.292	-3.32
992.719	7.08
993.145	4.28
993.571	-4.02
993.997	0.98
994.423	1.28
994.849	-6.02
995.275	7.58
995.701	6.68
996.127	0.08
996.553	1.68
996.979	3.38
997.405	3.18
997.83	-3.42
998.256	-5.82
998.682	-1.92
999.108	-4.52
999.534	-6.82
999.959	-4.12
1000.385	-6.92
1000.811	0.98
1001.236	-5.52
1001.662	-5.92
1002.087	-3.02
1002.513	-0.92
1002.938	7.88
1003.364	-5.52
1003.789	-1.52
1004.215	4.58
1004.64	-0.02
1005.066	-1.42
1005.491	5.68
1005.916	3.08
1006.342	-8.62
1006.767	-1.62
1007.192	3.08
1007.617	-1.72
1008.042	-3.12
1008.468	1.58
1008.893	-3.72
1009.318	1.88
1009.743	-1.32
1010.168	4.28
1010.593	6.28
1011.018	-6.62
1011.443	1.98
1011.868	2.18
1012.293	-4.12
1012.718	-3.62
1013.143	6.58
1013.567	-0.12
1013.992	0.38
1014.417	-10.32
1014.842	2.78
1015.267	-0.82
1015.691	1.48
1016.116	5.88
1016.541	2.38
1016.965	4.98
1017.39	2.78
1017.814	1.18
1018.239	0.98
1018.663	-9.62
1019.088	-5.32
1019.512	-1.62
1019.937	-0.12
1020.361	-3.32
1020.785	-6.82
1021.21	-2.92
1021.634	-0.82
1022.058	0.28
1022.483	4.98
1022.907	-1.22
1023.331	-3.02
1023.755	1.08
1024.179	0.28
1024.604	-4.92
1025.028	-7.12
1025.452	-2.02
1025.876	-1.22
1026.3	1.98
1026.724	-10.62
1027.148	-7.02
1027.572	-1.02
1027.996	-3.62
1028.42	2.08
1028.843	0.98
1029.267	-5.72
1029.691	-3.52
1030.115	-4.32
1030.539	-6.02
1030.962	-7.62
1031.386	-4.12
1031.81	-4.42
1032.233	2.38
1032.657	1.88
1033.08	1.88
1033.504	-1.02
1033.927	-2.82
1034.351	3.88
1034.774	-3.02
1035.198	-0.22
1035.621	-10.42
1036.045	-4.72
1036.468	4.98
1036.891	-7.82
1037.315	-6.92
1037.738	-3.22
1038.161	5.48
1038.584	-5.02
1039.008	-2.42
1039.431	-0.22
1039.854	1.18
1040.277	-5.22
1040.7	-9.62
1041.123	-0.82
1041.546	-9.22
1041.969	-2.92
1042.392	-7.12
1042.815	-0.02
1043.238	-3.12
1043.661	5.68
1044.084	-12.42
1044.507	-1.42
1044.93	-3.52
1045.352	-4.12
1045.775	7.08
1046.198	2.38
1046.621	1.58
1047.043	0.58
1047.466	14.08
1047.889	2.18
1048.311	1.48
1048.734	-0.82
1049.156	0.38
1049.579	1.68
1050.001	-2.82
1050.424	3.18
1050.846	-1.02
1051.269	0.98
1051.691	-8.12
1052.113	-5.52
1052.536	-4.32
1052.958	-2.92
1053.38	-3.12
1053.802	-10.52
1054.225	2.08
1054.647	-10.62
1055.069	-5.72
1055.491	3.48
1055.913	-2.82
1056.335	0.18
1056.757	-2.82
1057.179	-7.52
1057.601	-2.42
1058.023	-1.12
1058.445	-2.72
1058.867	-3.32
1059.289	-4.42
1059.711	-0.92
1060.133	-2.72
1060.555	-3.72
1060.976	-6.62
1061.398	-11.42
1061.82	-4.62
1062.241	-4.62
1062.663	-4.02
1063.085	-2.72
1063.506	1.48
1063.928	-0.52
1064.35	0.18
1064.771	-9.72
1065.193	-0.72
1065.614	-9.32
1066.035	-3.22
1066.457	-0.12
1066.878	-0.42
1067.3	0.58
1067.721	-8.22
1068.142	-5.42
1068.564	-0.62
1068.985	-1.62
1069.406	-3.42
1069.827	-1.92
1070.248	-1.42
1070.67	-6.62
1071.091	-0.42
1071.512	-9.42
1071.933	-5.72
1072.354	-9.72
1072.775	-4.62
1073.196	-8.52
1073.617	-0.62
1074.038	-3.32
1074.459	-3.52
1074.88	-5.02
1075.3	-0.72
1075.721	-7.02
1076.142	3.48
1076.563	1.08
1076.983	-8.22
1077.404	-2.62
1077.825	-6.82
1078.246	1.48
1078.666	-6.12
1079.087	0.88
1079.507	2.78
1079.928	-1.12
1080.348	0.28
1080.769	-7.82
1081.189	2.48
1081.61	-3.72
1082.03	-1.82
1082.451	2.78
1082.871	-3.22
1083.291	-12.02
1083.711	-12.52
1084.132	-4.22
1084.552	-4.92
1084.972	-2.22
1085.392	-8.12
1085.813	-6.22
1086.233	-6.22
1086.653	-4.92
1087.073	-1.52
1087.493	-6.02
1087.913	-0.42
1088.333	-6.32
1088.753	2.28
1089.173	5.38
1089.593	0.18
1090.013	-0.22
1090.433	3.38
1090.852	0.28
1091.272	-0.52
1091.692	3.58
1092.112	-1.52
1092.531	-8.92
1092.951	-15.12
1093.371	-4.52
1093.79	2.48
1094.21	-1.02
1094.63	-0.82
1095.049	-5.62
1095.469	-1.32
1095.888	-1.02
1096.308	1.58
1096.727	3.58
1097.146	-3.12
1097.566	8.28
1097.985	-3.92
1098.405	-0.02
1098.824	-6.32
1099.243	0.38
1099.662	-10.22
1100.082	-4.22
1100.501	-6.82
1100.92	-3.52
1101.339	-1.72
1101.758	-5.42
