Data from 20171114-ORNL-Ar_H_NY_Subt18_08-05-58-077.txt Node
Date: Tue Nov 14 08:05:58 EST 2017
User: Ender
Spectrometer: HR+D1039
Trigger mode: 0
Integration Time (sec): 2.730000E-2
Scans to average: 10
Electric dark correction enabled: true
Nonlinearity correction enabled: false
Boxcar width: 0
XAxis mode: Wavelengths
Number of Pixels in Spectrum: 2048
>>>>>Begin Spectral Data<<<<<
187.836	-3.84
188.309	-3.84
188.782	-3.84
189.255	1.96
189.728	-0.34
190.201	5.06
190.674	-0.84
191.147	1.26
191.619	-6.34
192.092	3.76
192.565	1.46
193.038	-2.14
193.511	1.26
193.984	6.16
194.456	-1.64
194.929	-0.24
195.402	-3.34
195.874	-2.24
196.347	-3.24
196.82	-10.34
197.292	0.06
197.765	-1.24
198.237	-9.04
198.71	2.66
199.182	-4.24
199.655	1.76
200.127	-1.64
200.6	-3.14
201.072	-5.44
201.544	-0.54
202.017	-4.84
202.489	4.86
202.961	-3.44
203.433	-3.64
203.906	-6.74
204.378	-10.64
204.85	-3.24
205.322	-9.74
205.794	-0.64
206.266	-8.94
206.739	-7.84
207.211	3.76
207.683	-5.34
208.155	-5.44
208.627	-6.44
209.099	-6.24
209.57	-5.34
210.042	-5.24
210.514	-3.74
210.986	1.36
211.458	-9.94
211.93	-4.64
212.402	1.46
212.873	-12.64
213.345	-12.44
213.817	-11.54
214.288	-2.44
214.76	-14.04
215.232	-7.84
215.703	-3.44
216.175	-4.94
216.646	-5.14
217.118	-7.54
217.589	-6.34
218.061	-3.74
218.532	-3.14
219.004	-4.84
219.475	-10.74
219.946	-4.64
220.418	-5.34
220.889	1.86
221.36	2.96
221.832	-0.74
222.303	-10.34
222.774	0.96
223.245	-13.04
223.717	-9.64
224.188	-6.14
224.659	-8.34
225.13	-8.24
225.601	-6.64
226.072	-1.34
226.543	3.26
227.014	2.36
227.485	-2.94
227.956	-8.44
228.427	-1.34
228.898	6.26
229.369	2.56
229.839	-1.84
230.31	-9.74
230.781	2.76
231.252	-1.84
231.722	0.26
232.193	-4.94
232.664	4.16
233.135	2.66
233.605	-2.54
234.076	-1.54
234.546	0.96
235.017	0.76
235.487	-3.64
235.958	-6.64
236.428	0.56
236.899	5.96
237.369	5.46
237.84	-2.54
238.31	2.46
238.78	3.06
239.251	-2.54
239.721	2.26
240.191	-2.24
240.662	-0.64
241.132	-3.34
241.602	-6.44
242.072	-1.44
242.542	9.46
243.013	4.86
243.483	6.46
243.953	4.56
244.423	0.06
244.893	-7.84
245.363	3.86
245.833	6.96
246.303	-2.84
246.773	7.06
247.243	3.16
247.712	5.56
248.182	9.16
248.652	12.56
249.122	-1.24
249.592	13.76
250.061	18.76
250.531	32.76
251.001	13.86
251.471	19.76
251.94	19.46
252.41	4.96
252.879	0.86
253.349	9.86
253.818	8.26
254.288	2.16
254.757	-0.14
255.227	1.36
255.696	7.46
256.166	4.86
256.635	5.76
257.105	8.66
257.574	10.26
258.043	15.06
258.513	12.36
258.982	20.56
259.451	8.76
259.92	13.86
260.389	7.16
260.859	17.96
261.328	12.66
261.797	14.86
262.266	4.86
262.735	7.86
263.204	8.36
263.673	1.36
264.142	6.26
264.611	-2.44
265.08	-0.04
265.549	2.46
266.018	8.46
266.487	-3.84
266.955	-10.14
267.424	-0.04
267.893	10.96
268.362	4.46
268.83	3.46
269.299	13.96
269.768	8.76
270.236	8.56
270.705	5.36
271.174	10.16
271.642	7.16
272.111	10.96
272.579	14.86
273.048	27.66
273.516	34.66
273.985	25.96
274.453	21.26
274.922	15.36
275.39	7.26
275.858	2.36
276.327	7.36
276.795	18.06
277.263	4.76
277.731	21.26
278.2	59.46
278.668	58.06
279.136	44.06
279.604	19.96
280.072	11.76
280.54	11.36
281.008	13.16
281.477	16.26
281.945	7.56
282.413	15.46
282.881	21.56
283.348	8.36
283.816	12.36
284.284	14.06
284.752	23.36
285.22	19.66
285.688	16.56
286.156	19.76
286.623	42.16
287.091	51.06
287.559	33.86
288.026	15.66
288.494	17.16
288.962	1.16
289.429	8.56
289.897	18.36
290.364	11.26
290.832	18.26
291.3	15.26
291.767	15.76
292.234	22.56
292.702	15.96
293.169	16.36
293.637	21.66
294.104	22.36
294.571	9.06
295.039	11.16
295.506	15.26
295.973	13.16
296.44	23.16
296.908	15.66
297.375	13.76
297.842	18.06
298.309	19.56
298.776	14.46
299.243	21.36
299.71	9.56
300.177	18.26
300.644	23.46
301.111	21.56
301.578	24.66
302.045	20.46
302.512	23.56
302.979	22.96
303.446	27.56
303.913	18.66
304.379	17.96
304.846	25.36
305.313	28.46
305.78	22.96
306.246	27.56
306.713	31.36
307.18	24.36
307.646	24.86
308.113	29.56
308.579	25.26
309.046	24.66
309.512	32.16
309.979	23.26
310.445	29.26
310.912	32.36
311.378	29.16
311.845	35.66
312.311	30.26
312.777	36.26
313.244	30.46
313.71	40.46
314.176	30.66
314.642	34.16
315.109	31.96
315.575	36.56
316.041	41.56
316.507	33.46
316.973	45.06
317.439	35.46
317.905	36.66
318.371	43.96
318.837	33.56
319.303	30.86
319.769	32.56
320.235	34.16
320.701	35.66
321.167	39.06
321.633	28.56
322.099	39.96
322.564	43.06
323.03	38.56
323.496	40.26
323.962	45.56
324.427	38.06
324.893	43.36
325.359	41.66
325.824	37.26
326.29	42.16
326.755	40.26
327.221	43.16
327.686	45.76
328.152	45.86
328.617	42.76
329.083	42.76
329.548	49.86
330.014	45.26
330.479	39.26
330.944	49.56
331.41	44.26
331.875	46.36
332.34	52.06
332.805	43.56
333.271	49.96
333.736	44.86
334.201	54.56
334.666	57.96
335.131	59.36
335.596	49.26
336.061	49.66
336.526	46.56
336.991	45.16
337.456	61.56
337.921	56.66
338.386	43.86
338.851	47.26
339.316	43.36
339.781	43.56
340.246	49.56
340.711	45.26
341.175	51.76
341.64	46.66
342.105	57.26
342.569	56.26
343.034	59.76
343.499	58.76
343.963	54.46
344.428	61.76
344.893	59.76
345.357	57.16
345.822	68.16
346.286	67.36
346.751	69.16
347.215	65.86
347.679	77.96
348.144	102.36
348.608	86.86
349.073	74.46
349.537	79.26
350.001	79.46
350.465	87.66
350.93	81.76
351.394	88.56
351.858	73.96
352.322	96.56
352.786	83.76
353.25	100.46
353.715	116.26
354.179	106.16
354.643	122.06
355.107	128.26
355.571	107.46
356.035	100.06
356.498	124.76
356.962	125.26
357.426	134.86
357.89	114.86
358.354	91.36
358.818	84.06
359.281	84.06
359.745	83.06
360.209	81.26
360.673	79.96
361.136	78.26
361.6	82.66
362.064	84.96
362.527	89.36
362.991	94.86
363.454	86.16
363.918	83.16
364.381	80.76
364.845	81.16
365.308	84.06
365.772	84.36
366.235	90.86
366.698	83.16
367.162	85.06
367.625	87.36
368.088	92.06
368.552	89.56
369.015	89.16
369.478	98.36
369.941	100.06
370.404	95.36
370.867	101.46
371.331	109.86
371.794	116.26
372.257	108.86
372.72	117.46
373.183	110.36
373.646	109.36
374.109	103.76
374.572	103.36
375.035	110.86
375.497	105.26
375.96	112.76
376.423	105.76
376.886	112.56
377.349	115.46
377.811	100.36
378.274	101.76
378.737	107.66
379.199	117.36
379.662	112.56
380.125	123.46
380.587	122.66
381.05	122.36
381.512	131.56
381.975	137.36
382.437	130.76
382.9	123.36
383.362	140.46
383.825	148.46
384.287	146.76
384.75	146.46
385.212	140.36
385.674	142.76
386.136	141.86
386.599	129.56
387.061	131.66
387.523	132.36
387.985	138.06
388.447	143.96
388.91	148.66
389.372	162.36
389.834	157.46
390.296	143.26
390.758	153.46
391.22	175.26
391.682	210.46
392.144	288.76
392.606	227.76
393.068	166.66
393.529	170.56
393.991	162.46
394.453	151.16
394.915	169.26
395.377	191.06
395.838	217.06
396.3	159.46
396.762	138.76
397.224	132.06
397.685	134.56
398.147	134.86
398.608	135.16
399.07	130.06
399.531	138.56
399.993	143.66
400.454	153.36
400.916	147.36
401.377	145.16
401.839	144.66
402.3	158.06
402.762	164.96
403.223	184.26
403.684	172.96
404.145	165.96
404.607	162.76
405.068	168.46
405.529	174.56
405.99	188.96
406.451	185.36
406.913	174.66
407.374	164.56
407.835	162.06
408.296	167.86
408.757	175.16
409.218	190.36
409.679	177.06
410.14	174.36
410.601	180.66
411.062	187.26
411.522	193.36
411.983	202.16
412.444	171.96
412.905	181.06
413.366	189.06
413.826	201.86
414.287	222.56
414.748	264.56
415.208	239.26
415.669	210.56
416.13	210.56
416.59	208.76
417.051	213.76
417.511	223.96
417.972	239.46
418.432	246.76
418.893	291.16
419.353	255.86
419.814	207.56
420.274	183.96
420.734	186.76
421.195	208.36
421.655	198.56
422.115	199.66
422.576	194.26
423.036	208.96
423.496	210.66
423.956	223.26
424.416	241.06
424.876	273.46
425.336	266.76
425.797	262.46
426.257	263.46
426.717	249.46
427.177	242.06
427.637	225.96
428.097	236.76
428.556	248.76
429.016	274.96
429.476	264.96
429.936	284.66
430.396	281.86
430.856	300.86
431.315	320.56
431.775	347.66
432.235	383.36
432.694	355.66
433.154	374.16
433.614	404.26
434.073	343.46
434.533	286.56
434.993	273.86
435.452	284.06
435.912	299.26
436.371	295.66
436.83	282.36
437.29	271.66
437.749	242.46
438.209	247.86
438.668	277.56
439.127	294.06
439.587	270.56
440.046	253.76
440.505	267.76
440.964	284.66
441.424	333.36
441.883	316.56
442.342	264.46
442.801	224.06
443.26	222.76
443.719	223.46
444.178	227.36
444.637	217.86
445.096	221.66
445.555	230.26
446.014	225.76
446.473	229.36
446.932	233.26
447.391	225.26
447.849	233.56
448.308	219.76
448.767	234.66
449.226	232.46
449.685	239.56
450.143	250.86
450.602	241.36
451.061	224.66
451.519	233.86
451.978	232.96
452.436	240.76
452.895	241.76
453.353	257.06
453.812	240.36
454.27	241.36
454.729	237.26
455.187	251.46
455.646	250.36
456.104	259.46
456.562	266.56
457.021	278.16
457.479	269.66
457.937	280.96
458.395	267.86
458.854	254.46
459.312	254.16
459.77	279.06
460.228	260.86
460.686	255.66
461.144	252.16
461.602	244.76
462.06	249.56
462.518	258.16
462.976	263.86
463.434	263.56
463.892	268.66
464.35	276.76
464.808	296.36
465.266	271.26
465.724	272.26
466.181	275.66
466.639	273.66
467.097	291.86
467.555	302.46
468.012	298.36
468.47	322.76
468.928	335.36
469.385	346.76
469.843	352.16
470.3	350.26
470.758	372.26
471.215	397.96
471.673	421.56
472.13	410.86
472.588	424.86
473.045	377.56
473.503	382.76
473.96	402.26
474.417	408.46
474.875	442.76
475.332	482.56
475.789	472.76
476.246	477.36
476.704	491.86
477.161	519.86
477.618	536.56
478.075	569.16
478.532	622.96
478.989	699.36
479.446	819.86
479.903	790.46
480.36	833.66
480.817	876.76
481.274	988.76
481.731	1098.26
482.188	1183.66
482.645	1321.96
483.102	1438.16
483.558	1581.56
484.015	1628.06
484.472	1605.96
484.929	1545.26
485.385	1497.26
485.842	1460.96
486.299	1382.36
486.755	1325.76
487.212	1124.06
487.668	949.96
488.125	857.86
488.582	797.86
489.038	758.36
489.494	729.46
489.951	701.76
490.407	685.66
490.864	663.76
491.32	653.06
491.776	651.66
492.233	661.66
492.689	627.16
493.145	611.76
493.602	615.86
494.058	613.26
494.514	622.76
494.97	644.96
495.426	665.46
495.882	627.06
496.338	623.56
496.794	635.66
497.251	640.66
497.707	651.96
498.163	655.96
498.618	662.76
499.074	665.96
499.53	693.26
499.986	682.76
500.442	668.26
500.898	651.96
501.354	639.26
501.809	654.76
502.265	651.36
502.721	672.46
503.177	673.16
503.632	682.16
504.088	697.66
504.543	725.76
504.999	725.66
505.455	681.76
505.91	641.36
506.366	647.56
506.821	632.16
507.277	630.66
507.732	630.16
508.187	632.36
508.643	649.36
509.098	648.86
509.553	662.56
510.009	676.96
510.464	687.66
510.919	701.26
511.375	705.46
511.83	720.46
512.285	739.36
512.74	779.46
513.195	799.26
513.65	792.56
514.105	782.06
514.56	781.46
515.015	804.66
515.47	818.36
515.925	811.86
516.38	813.16
516.835	813.36
517.29	802.56
517.745	793.96
518.2	772.96
518.655	763.26
519.109	753.36
519.564	755.66
520.019	740.36
520.474	741.96
520.928	733.46
521.383	728.36
521.838	725.56
522.292	723.16
522.747	720.36
523.201	717.36
523.656	702.46
524.11	699.96
524.565	705.26
525.019	710.46
525.474	714.36
525.928	713.06
526.382	704.56
526.837	713.36
527.291	722.56
527.745	708.76
528.2	718.86
528.654	711.86
529.108	700.26
529.562	710.36
530.016	701.86
530.47	708.46
530.925	702.56
531.379	717.76
531.833	714.86
532.287	717.36
532.741	719.46
533.195	724.76
533.649	715.36
534.103	728.46
534.556	723.56
535.01	733.86
535.464	719.36
535.918	736.16
536.372	741.96
536.826	735.56
537.279	727.86
537.733	722.96
538.187	724.96
538.64	732.36
539.094	735.26
539.548	744.76
540.001	729.46
540.455	744.86
540.908	741.76
541.362	751.56
541.815	764.96
542.269	768.06
542.722	764.96
543.175	785.26
543.629	786.16
544.082	798.66
544.536	807.36
544.989	796.76
545.442	794.76
545.895	799.76
546.349	797.56
546.802	808.86
547.255	819.46
547.708	817.86
548.161	825.66
548.614	831.26
549.067	843.06
549.52	836.16
549.973	824.16
550.426	817.96
550.879	812.26
551.332	804.16
551.785	825.96
552.238	823.76
552.691	816.56
553.144	849.96
553.596	852.66
554.049	880.06
554.502	909.06
554.955	924.46
555.407	921.86
555.86	911.96
556.313	893.06
556.765	896.46
557.218	891.56
557.67	891.06
558.123	894.86
558.576	886.16
559.028	898.06
559.48	893.96
559.933	881.06
560.385	852.56
560.838	818.86
561.29	788.46
561.742	792.76
562.195	769.06
562.647	773.06
563.099	783.26
563.551	773.16
564.004	786.96
564.456	782.06
564.908	767.66
565.36	757.76
565.812	746.76
566.264	733.86
566.716	732.66
567.168	725.16
567.62	733.06
568.072	716.26
568.524	703.16
568.976	698.66
569.428	684.96
569.88	689.16
570.332	682.26
570.784	685.56
571.235	685.56
571.687	702.76
572.139	704.46
572.59	721.16
573.042	716.76
573.494	723.26
573.945	720.36
574.397	693.06
574.849	701.66
575.3	701.06
575.752	695.36
576.203	696.76
576.655	694.16
577.106	675.86
577.557	673.36
578.009	673.96
578.46	663.76
578.912	668.66
579.363	672.06
579.814	675.96
580.265	679.06
580.717	676.66
581.168	672.36
581.619	683.26
582.07	691.96
582.521	686.86
582.972	680.66
583.423	686.96
583.875	688.96
584.326	701.96
584.777	751.66
585.227	819.06
585.678	913.56
586.129	986.86
586.58	1058.86
587.031	1139.96
587.482	1285.66
587.933	1468.26
588.384	1282.36
588.834	966.26
589.285	818.76
589.736	788.26
590.186	777.96
590.637	771.76
591.088	749.86
591.538	742.86
591.989	733.26
592.439	732.16
592.89	728.76
593.34	709.06
593.791	716.66
594.241	708.76
594.692	713.06
595.142	709.26
595.593	708.76
596.043	716.66
596.493	727.96
596.943	723.36
597.394	719.56
597.844	720.86
598.294	736.16
598.744	750.06
599.195	770.36
599.645	819.96
600.095	851.76
600.545	924.56
600.995	969.76
601.445	1021.36
601.895	1083.46
602.345	1128.56
602.795	1112.46
603.245	1072.86
603.695	1014.16
604.145	957.06
604.594	915.86
605.044	863.06
605.494	807.16
605.944	752.66
606.393	735.76
606.843	731.46
607.293	730.36
607.743	727.36
608.192	747.86
608.642	756.36
609.091	768.76
609.541	768.16
609.99	770.66
610.44	765.56
610.889	726.56
611.339	699.46
611.788	695.46
612.238	705.86
612.687	720.46
613.136	722.56
613.586	737.26
614.035	726.76
614.484	746.16
614.933	755.96
615.383	749.66
615.832	736.96
616.281	716.46
616.73	686.96
617.179	659.56
617.628	645.46
618.077	628.06
618.526	624.46
618.975	601.56
619.424	620.86
619.873	611.96
620.322	627.16
620.771	608.96
621.22	600.06
621.669	601.16
622.118	594.36
622.567	578.66
623.015	568.26
623.464	563.06
623.913	557.66
624.361	561.06
624.81	543.96
625.259	552.36
625.707	557.46
626.156	563.06
626.604	566.16
627.053	560.06
627.501	559.86
627.95	562.46
628.398	571.96
628.847	562.26
629.295	567.76
629.744	571.76
630.192	566.46
630.64	563.86
631.089	564.66
631.537	582.36
631.985	583.36
632.433	591.66
632.881	598.86
633.33	656.66
633.778	636.26
634.226	566.36
634.674	573.06
635.122	570.76
635.57	598.46
636.018	619.16
636.466	578.96
636.914	562.06
637.362	571.56
637.81	563.26
638.258	573.66
638.705	578.26
639.153	602.96
639.601	627.26
640.049	636.76
640.497	665.66
640.944	691.06
641.392	651.26
641.84	610.86
642.287	578.06
642.735	563.96
643.182	570.06
643.63	570.36
644.078	572.86
644.525	587.86
644.973	596.06
645.42	602.26
645.867	618.46
646.315	634.66
646.762	658.36
647.21	687.56
647.657	709.26
648.104	738.56
648.551	771.46
648.999	832.86
649.446	914.06
649.893	998.96
650.34	1166.06
650.787	1392.66
651.234	1707.06
651.682	2213.66
652.129	3048.26
652.576	4405.96
653.023	6469.46
653.47	8885.86
653.917	11148.06
654.363	12909.66
654.81	14251.06
655.257	13603.16
655.704	8895.76
656.151	5262.26
656.598	3409.16
657.044	2425.76
657.491	1869.16
657.938	1490.06
658.385	1240.66
658.831	1071.86
659.278	963.16
659.724	846.96
660.171	790.26
660.618	721.26
661.064	681.06
661.511	671.46
661.957	650.66
662.404	632.16
662.85	642.16
663.296	615.66
663.743	564.26
664.189	534.76
664.635	529.36
665.082	522.06
665.528	521.96
665.974	525.16
666.42	506.16
666.867	497.06
667.313	484.16
667.759	477.56
668.205	467.66
668.651	476.76
669.097	478.76
669.543	487.56
669.989	469.86
670.435	449.76
670.881	439.36
671.327	438.56
671.773	459.56
672.219	483.06
672.665	541.16
673.11	570.96
673.556	621.26
674.002	664.86
674.448	643.86
674.893	542.16
675.339	466.06
675.785	432.46
676.23	413.66
676.676	388.66
677.122	380.06
677.567	366.86
678.013	365.46
678.458	360.46
678.904	347.26
679.349	338.76
679.794	347.66
680.24	344.36
680.685	337.86
681.131	346.36
681.576	342.96
682.021	350.46
682.466	334.86
682.912	351.36
683.357	342.26
683.802	379.76
684.247	398.66
684.692	441.76
685.137	479.76
685.583	524.76
686.028	559.86
686.473	509.46
686.918	439.76
687.363	407.96
687.807	385.26
688.252	356.66
688.697	349.76
689.142	326.06
689.587	325.66
690.032	318.76
690.477	340.46
690.921	349.76
691.366	376.96
691.811	396.56
692.255	421.46
692.7	452.36
693.145	489.96
693.589	670.56
694.034	1096.56
694.478	1491.16
694.923	1709.46
695.367	2240.96
695.812	1175.06
696.256	495.56
696.701	362.56
697.145	342.36
697.59	328.26
698.034	319.06
698.478	330.06
698.922	324.56
699.367	324.06
699.811	332.56
700.255	357.36
700.699	379.46
701.143	416.56
701.588	457.86
702.032	507.76
702.476	508.36
702.92	481.66
703.364	481.76
703.808	623.76
704.252	995.86
704.696	1423.16
705.14	1648.26
705.584	2114.86
706.027	1042.76
706.471	510.86
706.915	387.06
707.359	343.16
707.803	313.46
708.246	302.06
708.69	298.76
709.134	305.66
709.577	303.46
710.021	312.16
710.465	305.36
710.908	294.16
711.352	295.26
711.795	302.06
712.239	349.86
712.682	369.76
713.126	410.76
713.569	458.66
714.012	369.56
714.456	316.56
714.899	290.26
715.342	272.56
715.786	256.66
716.229	257.16
716.672	246.86
717.115	250.96
717.558	250.66
718.002	237.56
718.445	257.66
718.888	283.86
719.331	285.46
719.774	300.56
720.217	296.36
720.66	274.26
721.103	261.76
721.546	245.86
721.989	248.46
722.432	225.96
722.874	232.06
723.317	226.66
723.76	223.56
724.203	255.66
724.645	308.06
725.088	435.06
725.531	554.86
725.974	631.36
726.416	540.06
726.859	299.56
727.301	238.36
727.744	236.86
728.187	226.86
728.629	230.66
729.071	232.56
729.514	251.76
729.956	259.96
730.399	278.46
730.841	278.76
731.283	262.76
731.726	263.56
732.168	256.96
732.61	264.36
733.053	272.06
733.495	303.86
733.937	342.36
734.379	398.36
734.821	422.96
735.263	525.06
735.705	805.26
736.148	1521.76
736.59	2507.76
737.032	3009.66
737.474	2432.16
737.916	783.46
738.357	418.76
738.799	329.36
739.241	292.06
739.683	273.86
740.125	287.46
740.567	288.16
741.008	315.16
741.45	303.56
741.892	304.26
742.334	334.46
742.775	342.86
743.217	342.96
743.658	267.96
744.1	250.96
744.542	256.16
744.983	301.46
745.425	330.06
745.866	337.36
746.307	280.36
746.749	282.76
747.19	322.06
747.632	441.76
748.073	837.66
748.514	1792.26
748.956	2783.06
749.397	3467.36
749.838	2896.16
750.279	2912.36
750.72	1473.76
751.162	531.06
751.603	309.76
752.044	252.56
752.485	214.96
752.926	207.06
753.367	193.16
753.808	192.36
754.249	185.26
754.69	183.36
755.131	185.06
755.572	172.46
756.013	176.46
756.453	180.36
756.894	184.26
757.335	181.06
757.776	196.86
758.216	186.96
758.657	195.06
759.098	197.56
759.538	218.56
759.979	263.16
760.42	364.06
760.86	669.56
761.301	1744.96
761.741	4259.56
762.182	6315.86
762.622	4441.26
763.063	1281.76
763.503	534.76
763.943	332.36
764.384	321.36
764.824	380.76
765.264	411.86
765.705	293.86
766.145	201.96
766.585	182.56
767.025	183.36
767.465	173.16
767.906	236.66
768.346	302.56
768.786	322.26
769.226	245.06
769.666	304.56
770.106	587.86
770.546	1489.86
770.986	2591.96
771.426	2326.66
771.866	772.86
772.306	325.16
772.745	200.46
773.185	170.16
773.625	163.46
774.065	160.46
774.505	185.86
774.944	295.66
775.384	630.46
775.824	1151.96
776.263	1137.66
776.703	481.46
777.142	212.56
777.582	152.56
778.021	137.46
778.461	130.66
778.9	133.46
779.34	130.46
779.779	111.16
780.219	108.56
780.658	109.46
781.097	112.56
781.537	110.76
781.976	105.26
782.415	96.86
782.855	99.96
783.294	102.76
783.733	98.46
784.172	107.06
784.611	99.76
785.05	104.56
785.489	112.86
785.928	117.96
786.367	113.06
786.806	119.36
787.245	128.86
787.684	127.66
788.123	147.66
788.562	135.06
789.001	116.36
789.44	112.66
789.879	114.66
790.317	118.06
790.756	128.86
791.195	124.46
791.634	146.56
792.072	202.86
792.511	348.76
792.95	959.16
793.388	2068.56
793.827	1904.26
794.265	662.26
794.704	270.86
795.142	175.86
795.581	151.56
796.019	130.96
796.458	128.16
796.896	121.06
797.334	130.76
797.773	148.46
798.211	216.56
798.649	426.46
799.087	989.06
799.526	1550.76
799.964	1953.86
800.402	1984.76
800.84	739.76
801.278	292.96
801.716	174.26
802.154	148.86
802.592	140.86
803.03	138.56
803.468	127.96
803.906	133.76
804.344	146.16
804.782	133.06
805.22	126.26
805.658	128.36
806.096	144.86
806.533	153.36
806.971	165.76
807.409	211.46
807.847	304.56
808.284	634.16
808.722	1780.86
809.16	3220.86
809.597	3005.46
810.035	5251.26
810.472	5702.66
810.91	2044.36
811.347	776.26
811.785	400.86
812.222	248.56
812.66	191.86
813.097	158.26
813.535	141.86
813.972	124.86
814.409	110.96
814.846	107.76
815.284	109.76
815.721	94.36
816.158	101.76
816.595	115.66
817.032	169.16
817.47	192.36
817.907	168.76
818.344	142.66
818.781	111.66
819.218	97.86
819.655	117.86
820.092	180.46
820.529	205.56
820.966	171.46
821.403	133.06
821.839	105.06
822.276	98.86
822.713	115.96
823.15	135.96
823.587	111.26
824.023	141.56
824.46	286.96
824.897	858.06
825.333	1316.36
825.77	570.36
826.206	226.56
826.643	135.46
827.08	104.46
827.516	82.86
827.953	77.76
828.389	78.66
828.825	64.66
829.262	67.86
829.698	64.06
830.135	67.06
830.571	55.86
831.007	67.86
831.443	65.86
831.88	56.26
832.316	61.26
832.752	60.16
833.188	62.46
833.624	67.36
834.06	63.26
834.497	62.96
834.933	69.66
835.369	73.86
835.805	63.96
836.241	72.16
836.677	80.26
837.112	81.86
837.548	98.36
837.984	128.56
838.42	191.46
838.856	469.46
839.292	1461.06
839.727	2266.76
840.163	1050.66
840.599	886.46
841.034	1970.36
841.47	2084.96
841.906	758.26
842.341	328.06
842.777	223.76
843.212	299.86
843.648	294.86
844.083	141.76
844.519	90.96
844.954	75.76
845.39	57.06
845.825	51.36
846.261	51.86
846.696	50.16
847.131	55.16
847.566	57.66
848.002	52.46
848.437	54.06
848.872	57.16
849.307	56.56
849.742	83.36
850.177	167.76
850.613	538.66
851.048	856.06
851.483	367.66
851.918	150.96
852.353	85.86
852.788	64.76
853.223	57.96
853.657	52.16
854.092	51.76
854.527	39.76
854.962	38.36
855.397	45.46
855.832	47.46
856.266	41.76
856.701	42.66
857.136	36.06
857.57	37.26
858.005	44.96
858.44	53.86
858.874	43.46
859.309	55.76
859.743	40.76
860.178	46.86
860.612	37.86
861.047	47.76
861.481	67.56
861.915	61.86
862.35	47.36
862.784	39.36
863.218	39.66
863.653	32.46
864.087	41.76
864.521	49.86
864.955	72.16
865.39	149.56
865.824	168.16
866.258	109.66
866.692	158.36
867.126	174.46
867.56	104.96
867.994	50.06
868.428	35.66
868.862	44.16
869.296	54.86
869.73	60.46
870.164	47.46
870.598	45.26
871.031	36.96
871.465	31.66
871.899	29.96
872.333	23.46
872.766	22.66
873.2	19.06
873.634	29.06
874.067	27.96
874.501	26.96
874.935	27.56
875.368	27.56
875.802	23.76
876.235	22.96
876.669	24.96
877.102	28.26
877.535	23.96
877.969	18.66
878.402	23.46
878.836	9.36
879.269	29.76
879.702	24.16
880.135	25.56
880.569	25.66
881.002	32.76
881.435	25.76
881.868	21.86
882.301	20.26
882.734	17.16
883.167	26.36
883.601	12.66
884.034	22.86
884.467	14.46
884.899	19.96
885.332	14.86
885.765	13.56
886.198	14.06
886.631	20.26
887.064	20.16
887.497	18.96
887.929	24.26
888.362	10.86
888.795	11.36
889.228	17.86
889.66	21.76
890.093	20.66
890.526	14.16
890.958	14.36
891.391	15.96
891.823	27.46
892.256	24.96
892.688	16.16
893.121	13.56
893.553	13.36
893.985	25.06
894.418	18.66
894.85	9.96
895.282	17.16
895.715	19.86
896.147	10.06
896.579	14.46
897.011	16.96
897.444	13.66
897.876	12.56
898.308	10.46
898.74	15.06
899.172	16.26
899.604	25.06
900.036	20.16
900.468	9.46
900.9	15.66
901.332	18.26
901.764	13.16
902.196	20.56
902.628	12.26
903.06	11.56
903.491	28.46
903.923	21.26
904.355	16.46
904.787	21.56
905.218	16.16
905.65	18.26
906.082	11.56
906.513	12.16
906.945	18.26
907.376	15.66
907.808	19.56
908.239	21.66
908.671	16.76
909.102	20.96
909.534	23.66
909.965	42.66
910.397	88.56
910.828	300.86
911.259	459.36
911.691	221.36
912.122	102.46
912.553	49.26
912.984	32.76
913.415	23.76
913.847	27.26
914.278	18.46
914.709	11.16
915.14	16.56
915.571	16.46
916.002	11.06
916.433	18.36
916.864	19.66
917.295	8.76
917.726	21.36
918.157	17.66
918.587	33.16
919.018	19.36
919.449	21.46
919.88	23.56
920.311	30.86
920.741	49.56
921.172	161.06
921.603	142.86
922.033	63.76
922.464	44.96
922.895	15.26
923.325	19.46
923.756	15.66
924.186	9.66
924.617	19.96
925.047	37.56
925.478	51.96
925.908	42.06
926.338	21.96
926.769	18.66
927.199	19.16
927.629	7.96
928.06	15.16
928.49	13.16
928.92	19.76
929.35	7.16
929.78	11.76
930.21	9.66
930.641	12.46
931.071	7.06
931.501	5.26
931.931	7.46
932.361	6.86
932.791	2.06
933.221	7.96
933.651	1.16
934.08	11.76
934.51	30.06
934.94	13.66
935.37	9.06
935.8	10.26
936.229	9.06
936.659	0.46
937.089	1.36
937.519	10.46
937.948	26.06
938.378	16.06
938.807	10.16
939.237	4.16
939.666	4.66
940.096	-4.44
940.525	2.76
940.955	2.46
941.384	1.46
941.814	-8.94
942.243	-1.44
942.672	10.06
943.102	-2.54
943.531	0.46
943.96	1.66
944.39	1.16
944.819	6.66
945.248	6.86
945.677	2.86
946.106	9.06
946.535	2.06
946.964	-4.54
947.393	2.96
947.822	3.56
948.251	-7.44
948.68	-0.54
949.109	4.76
949.538	8.16
949.967	3.36
950.396	-1.14
950.825	-4.04
951.254	-1.64
951.682	-2.54
952.111	4.56
952.54	7.46
952.969	-1.54
953.397	-5.24
953.826	3.56
954.254	-5.94
954.683	-0.64
955.112	-6.94
955.54	1.46
955.969	-2.24
956.397	0.96
956.826	1.16
957.254	5.36
957.682	-1.34
958.111	1.66
958.539	0.16
958.967	4.26
959.396	-4.54
959.824	-6.34
960.252	-2.44
960.68	-7.54
961.109	-1.84
961.537	-2.44
961.965	2.56
962.393	1.36
962.821	-3.44
963.249	1.86
963.677	6.86
964.105	2.66
964.533	40.56
964.961	40.06
965.389	21.76
965.817	11.46
966.245	6.06
966.672	-2.94
967.1	-7.14
967.528	1.76
967.956	-2.14
968.383	-0.04
968.811	0.86
969.239	-3.24
969.666	-5.44
970.094	1.36
970.522	2.26
970.949	-3.64
971.377	-5.44
971.804	-2.24
972.232	-2.34
972.659	-0.74
973.087	-0.84
973.514	-4.34
973.941	-8.74
974.369	1.86
974.796	3.06
975.223	-4.94
975.651	-2.24
976.078	-2.54
976.505	-2.14
976.932	-2.24
977.359	15.96
977.786	8.96
978.214	0.36
978.641	-0.24
979.068	-12.14
979.495	-7.04
979.922	-0.34
980.349	-3.34
980.776	1.96
981.202	-2.04
981.629	-0.54
982.056	3.26
982.483	0.96
982.91	-2.44
983.337	-7.84
983.763	-3.14
984.19	-3.84
984.617	-2.64
985.043	-0.54
985.47	-7.64
985.897	-6.74
986.323	-2.74
986.75	1.66
987.176	-8.24
987.603	-3.04
988.029	1.56
988.456	-5.94
988.882	1.46
989.308	-8.94
989.735	-4.44
990.161	1.66
990.587	-5.44
991.014	-7.34
991.44	3.86
991.866	2.66
992.292	-9.04
992.719	-8.84
993.145	-0.14
993.571	-5.74
993.997	-4.34
994.423	5.46
994.849	0.86
995.275	-0.64
995.701	1.26
996.127	0.66
996.553	-2.64
996.979	-6.94
997.405	-5.74
997.83	-8.54
998.256	-9.34
998.682	-3.94
999.108	-3.84
999.534	-0.84
999.959	-3.24
1000.385	-0.74
1000.811	-0.84
1001.236	-12.04
1001.662	-7.44
1002.087	-9.44
1002.513	-2.04
1002.938	-3.34
1003.364	-4.84
1003.789	2.26
1004.215	4.76
1004.64	0.56
1005.066	-2.44
1005.491	1.36
1005.916	-1.84
1006.342	-5.44
1006.767	-6.94
1007.192	4.06
1007.617	-3.94
1008.042	-10.34
1008.468	-7.74
1008.893	-6.94
1009.318	5.86
1009.743	-4.74
1010.168	5.36
1010.593	3.66
1011.018	-3.74
1011.443	-4.54
1011.868	-0.84
1012.293	-1.84
1012.718	-5.24
1013.143	4.76
1013.567	-0.94
1013.992	-5.94
1014.417	-14.44
1014.842	6.46
1015.267	-6.84
1015.691	-4.84
1016.116	1.46
1016.541	-0.54
1016.965	4.36
1017.39	0.76
1017.814	-2.14
1018.239	-4.04
1018.663	-5.14
1019.088	-11.24
1019.512	-6.84
1019.937	-2.44
1020.361	-5.84
1020.785	-16.94
1021.21	-7.94
1021.634	-3.34
1022.058	-6.44
1022.483	0.76
1022.907	-6.14
1023.331	-5.34
1023.755	-3.74
1024.179	-7.24
1024.604	-8.74
1025.028	-9.64
1025.452	-2.74
1025.876	-0.04
1026.3	-4.14
1026.724	-16.84
1027.148	-2.84
1027.572	-11.74
1027.996	-1.64
1028.42	-0.54
1028.843	-6.54
1029.267	-7.84
1029.691	-6.84
1030.115	-9.54
1030.539	-5.64
1030.962	-5.54
1031.386	-11.54
1031.81	-1.44
1032.233	0.56
1032.657	-4.14
1033.08	-0.54
1033.504	-3.94
1033.927	-10.24
1034.351	-0.44
1034.774	-5.54
1035.198	-6.54
1035.621	-4.64
1036.045	-8.54
1036.468	2.06
1036.891	-10.64
1037.315	-13.54
1037.738	-8.84
1038.161	3.96
1038.584	-12.64
1039.008	-6.44
1039.431	-8.64
1039.854	-7.14
1040.277	-9.14
1040.7	-16.54
1041.123	-12.24
1041.546	-10.34
1041.969	-6.04
1042.392	-3.04
1042.815	-5.94
1043.238	2.36
1043.661	2.86
1044.084	-11.74
1044.507	-11.94
1044.93	-6.74
1045.352	-5.84
1045.775	-2.04
1046.198	-1.04
1046.621	-3.64
1047.043	2.66
1047.466	9.16
1047.889	-2.84
1048.311	-2.54
1048.734	2.56
1049.156	1.16
1049.579	-5.94
1050.001	-0.54
1050.424	-3.84
1050.846	-4.34
1051.269	-1.24
1051.691	-5.64
1052.113	-12.74
1052.536	-1.24
1052.958	-10.84
1053.38	-2.34
1053.802	-8.54
1054.225	-1.24
1054.647	-14.74
1055.069	-3.04
1055.491	5.66
1055.913	-4.04
1056.335	-0.94
1056.757	-5.64
1057.179	-10.24
1057.601	-8.14
1058.023	-7.64
1058.445	-4.14
1058.867	-5.24
1059.289	-1.24
1059.711	-7.14
1060.133	-2.84
1060.555	-4.84
1060.976	-7.24
1061.398	-4.54
1061.82	-5.84
1062.241	-4.74
1062.663	-11.44
1063.085	-0.14
1063.506	-1.04
1063.928	-1.14
1064.35	-1.74
1064.771	-13.64
1065.193	-0.24
1065.614	-10.24
1066.035	-2.44
1066.457	-4.34
1066.878	3.26
1067.3	-1.74
1067.721	-8.44
1068.142	-4.34
1068.564	-4.84
1068.985	-8.54
1069.406	-7.04
1069.827	-5.24
1070.248	-1.54
1070.67	-9.24
1071.091	-4.24
1071.512	-6.94
1071.933	-1.64
1072.354	-4.24
1072.775	-14.54
1073.196	-10.64
1073.617	-6.04
1074.038	-9.74
1074.459	-0.94
1074.88	-11.24
1075.3	-1.14
1075.721	-5.44
1076.142	5.86
1076.563	0.26
1076.983	-9.74
1077.404	-8.94
1077.825	-12.94
1078.246	-7.14
1078.666	-11.14
1079.087	-9.14
1079.507	-8.44
1079.928	0.06
1080.348	-1.74
1080.769	-2.64
1081.189	2.06
1081.61	-6.94
1082.03	-9.04
1082.451	-9.84
1082.871	-5.94
1083.291	-6.54
1083.711	-11.34
1084.132	-7.24
1084.552	-6.04
1084.972	-3.44
1085.392	-15.34
1085.813	-15.34
1086.233	-10.44
1086.653	-8.94
1087.073	-4.44
1087.493	-4.44
1087.913	-7.44
1088.333	-7.44
1088.753	-10.44
1089.173	-2.34
1089.593	-2.64
1090.013	-2.24
1090.433	1.36
1090.852	-3.94
1091.272	-0.14
1091.692	-1.74
1092.112	-6.14
1092.531	-8.94
1092.951	-11.64
1093.371	-7.74
1093.79	-5.84
1094.21	-6.04
1094.63	-5.34
1095.049	-7.94
1095.469	-3.74
1095.888	-1.44
1096.308	-1.74
1096.727	0.66
1097.146	-11.14
1097.566	-1.94
1097.985	-3.94
1098.405	-1.74
1098.824	-6.74
1099.243	-11.34
1099.662	-10.04
1100.082	-4.74
1100.501	1.96
1100.92	-5.54
1101.339	-6.04
1101.758	-7.94
