Data from 20171114-ORNL-Ar_H_NY_Subt18_08-03-56-330.txt Node
Date: Tue Nov 14 08:03:56 EST 2017
User: Ender
Spectrometer: HR+D1039
Trigger mode: 0
Integration Time (sec): 2.730000E-2
Scans to average: 10
Electric dark correction enabled: true
Nonlinearity correction enabled: false
Boxcar width: 0
XAxis mode: Wavelengths
Number of Pixels in Spectrum: 2048
>>>>>Begin Spectral Data<<<<<
187.836	-3.19
188.309	-3.19
188.782	-3.19
189.255	0.71
189.728	-4.39
190.201	6.11
190.674	-2.99
191.147	3.21
191.619	-6.19
192.092	0.11
192.565	6.31
193.038	-2.09
193.511	4.81
193.984	0.01
194.456	-0.49
194.929	0.31
195.402	-3.49
195.874	1.21
196.347	-1.19
196.82	-10.19
197.292	5.81
197.765	-4.99
198.237	-12.09
198.71	2.61
199.182	-3.89
199.655	0.61
200.127	-2.69
200.6	-1.59
201.072	-1.89
201.544	-5.99
202.017	-7.49
202.489	0.61
202.961	-3.99
203.433	-3.49
203.906	-8.89
204.378	-8.29
204.85	-2.49
205.322	-7.99
205.794	-3.89
206.266	-2.69
206.739	-7.19
207.211	4.31
207.683	-13.59
208.155	-5.79
208.627	-11.79
209.099	-0.49
209.57	-10.89
210.042	-8.89
210.514	-0.49
210.986	-4.79
211.458	-8.99
211.93	-4.89
212.402	1.61
212.873	-5.59
213.345	-4.69
213.817	-14.49
214.288	-9.09
214.76	-11.39
215.232	-3.49
215.703	-5.39
216.175	-7.99
216.646	-0.99
217.118	-8.99
217.589	-4.69
218.061	2.31
218.532	-4.89
219.004	-3.89
219.475	-2.59
219.946	-3.49
220.418	-5.29
220.889	1.71
221.36	-1.79
221.832	1.81
222.303	-9.99
222.774	3.91
223.245	-13.99
223.717	-1.69
224.188	-4.69
224.659	-8.19
225.13	-5.09
225.601	1.81
226.072	3.61
226.543	-6.39
227.014	2.21
227.485	0.41
227.956	-7.69
228.427	-3.69
228.898	1.11
229.369	3.01
229.839	-1.99
230.31	-7.59
230.781	-2.99
231.252	-3.19
231.722	-5.89
232.193	-10.99
232.664	-4.99
233.135	-3.19
233.605	-7.39
234.076	-8.29
234.546	0.61
235.017	-3.49
235.487	-5.69
235.958	-3.59
236.428	-6.19
236.899	-0.39
237.369	-2.29
237.84	-7.59
238.31	-0.99
238.78	-0.39
239.251	-9.79
239.721	-0.59
240.191	-0.99
240.662	-2.49
241.132	1.61
241.602	-8.19
242.072	-1.19
242.542	0.81
243.013	-1.19
243.483	2.31
243.953	-1.99
244.423	-1.29
244.893	-1.89
245.363	-2.69
245.833	-0.99
246.303	-3.69
246.773	-3.39
247.243	-4.29
247.712	-1.59
248.182	-8.09
248.652	-0.79
249.122	-11.69
249.592	1.51
250.061	-4.69
250.531	3.11
251.001	-5.09
251.471	5.11
251.94	6.51
252.41	-1.19
252.879	-4.69
253.349	3.61
253.818	-1.89
254.288	2.71
254.757	-4.29
255.227	-10.89
255.696	0.41
256.166	-0.09
256.635	2.81
257.105	2.91
257.574	0.01
258.043	-1.39
258.513	-5.69
258.982	0.01
259.451	-4.79
259.92	1.41
260.389	-2.39
260.859	7.21
261.328	0.51
261.797	3.51
262.266	1.21
262.735	7.61
263.204	-2.99
263.673	-3.19
264.142	2.71
264.611	-3.29
265.08	-4.79
265.549	-5.89
266.018	-1.79
266.487	-11.49
266.955	-11.39
267.424	-9.09
267.893	-3.99
268.362	-6.39
268.83	-6.39
269.299	2.01
269.768	-1.19
270.236	4.01
270.705	-2.69
271.174	-3.89
271.642	2.41
272.111	2.11
272.579	-1.49
273.048	-1.99
273.516	0.21
273.985	2.21
274.453	5.31
274.922	-0.59
275.39	0.51
275.858	-2.29
276.327	6.81
276.795	11.81
277.263	-7.99
277.731	12.91
278.2	0.51
278.668	8.11
279.136	-0.09
279.604	-3.99
280.072	4.21
280.54	5.21
281.008	2.61
281.477	8.31
281.945	5.71
282.413	9.41
282.881	8.61
283.348	3.81
283.816	7.31
284.284	3.21
284.752	13.21
285.22	10.31
285.688	8.91
286.156	8.31
286.623	14.21
287.091	10.01
287.559	8.51
288.026	9.41
288.494	5.51
288.962	-0.59
289.429	2.81
289.897	8.91
290.364	10.21
290.832	10.91
291.3	8.41
291.767	15.61
292.234	12.91
292.702	3.41
293.169	3.81
293.637	12.81
294.104	7.71
294.571	2.01
295.039	0.31
295.506	9.51
295.973	7.21
296.44	9.21
296.908	6.11
297.375	2.51
297.842	12.81
298.309	4.61
298.776	5.61
299.243	17.41
299.71	10.11
300.177	14.01
300.644	12.51
301.111	13.31
301.578	20.01
302.045	5.91
302.512	9.51
302.979	16.31
303.446	15.31
303.913	11.91
304.379	7.61
304.846	16.91
305.313	19.01
305.78	13.91
306.246	10.81
306.713	18.51
307.18	13.11
307.646	15.71
308.113	16.51
308.579	16.01
309.046	16.51
309.512	13.91
309.979	5.71
310.445	21.71
310.912	18.91
311.378	22.51
311.845	18.61
312.311	24.91
312.777	24.31
313.244	12.91
313.71	24.01
314.176	14.61
314.642	24.61
315.109	16.21
315.575	22.21
316.041	25.71
316.507	16.51
316.973	29.21
317.439	27.01
317.905	26.91
318.371	24.21
318.837	24.01
319.303	26.01
319.769	27.51
320.235	26.11
320.701	24.31
321.167	25.41
321.633	16.81
322.099	20.21
322.564	31.71
323.03	23.91
323.496	24.11
323.962	25.61
324.427	22.31
324.893	30.51
325.359	29.01
325.824	32.11
326.29	27.71
326.755	28.81
327.221	27.11
327.686	25.11
328.152	36.91
328.617	34.51
329.083	36.11
329.548	34.11
330.014	32.01
330.479	31.31
330.944	31.51
331.41	31.61
331.875	37.51
332.34	33.71
332.805	33.11
333.271	40.11
333.736	24.41
334.201	42.41
334.666	41.11
335.131	40.81
335.596	38.51
336.061	37.51
336.526	28.31
336.991	36.61
337.456	39.11
337.921	39.71
338.386	35.41
338.851	35.91
339.316	39.61
339.781	39.11
340.246	43.91
340.711	29.41
341.175	39.91
341.64	37.51
342.105	42.81
342.569	43.41
343.034	43.31
343.499	41.51
343.963	36.41
344.428	55.71
344.893	41.81
345.357	46.11
345.822	51.91
346.286	53.01
346.751	55.51
347.215	48.21
347.679	60.51
348.144	76.71
348.608	62.21
349.073	55.61
349.537	62.11
350.001	63.31
350.465	72.41
350.93	63.91
351.394	60.71
351.858	56.71
352.322	75.31
352.786	72.81
353.25	78.71
353.715	81.71
354.179	81.11
354.643	88.51
355.107	94.31
355.571	87.21
356.035	83.91
356.498	93.51
356.962	94.81
357.426	91.01
357.89	89.61
358.354	72.41
358.818	73.71
359.281	67.91
359.745	64.11
360.209	62.01
360.673	63.81
361.136	65.11
361.6	69.41
362.064	70.81
362.527	73.81
362.991	72.41
363.454	73.01
363.918	67.61
364.381	74.61
364.845	71.41
365.308	76.71
365.772	75.81
366.235	76.91
366.698	69.91
367.162	69.51
367.625	70.51
368.088	80.21
368.552	73.11
369.015	75.11
369.478	83.91
369.941	87.01
370.404	79.31
370.867	85.11
371.331	88.41
371.794	92.61
372.257	80.51
372.72	87.61
373.183	85.51
373.646	79.11
374.109	84.71
374.572	92.01
375.035	93.01
375.497	95.81
375.96	91.71
376.423	87.01
376.886	97.81
377.349	100.31
377.811	93.71
378.274	92.41
378.737	94.71
379.199	97.01
379.662	101.61
380.125	105.61
380.587	95.51
381.05	98.21
381.512	103.51
381.975	108.21
382.437	105.91
382.9	102.41
383.362	111.71
383.825	120.41
384.287	117.11
384.75	109.91
385.212	115.61
385.674	120.01
386.136	121.71
386.599	108.01
387.061	119.21
387.523	109.91
387.985	118.61
388.447	115.31
388.91	113.81
389.372	117.51
389.834	115.11
390.296	115.41
390.758	118.61
391.22	120.81
391.682	127.41
392.144	135.11
392.606	134.71
393.068	134.71
393.529	142.01
393.991	127.51
394.453	121.01
394.915	127.51
395.377	122.51
395.838	124.61
396.3	125.21
396.762	132.01
397.224	124.51
397.685	120.71
398.147	127.61
398.608	125.61
399.07	126.81
399.531	128.51
399.993	137.11
400.454	148.81
400.916	134.21
401.377	142.61
401.839	142.31
402.3	142.61
402.762	153.41
403.223	168.41
403.684	161.51
404.145	151.71
404.607	152.11
405.068	147.61
405.529	149.81
405.99	168.11
406.451	156.91
406.913	158.81
407.374	156.41
407.835	151.31
408.296	159.01
408.757	171.51
409.218	164.51
409.679	165.81
410.14	166.61
410.601	169.41
411.062	166.91
411.522	174.51
411.983	164.51
412.444	167.31
412.905	173.71
413.366	174.91
413.826	192.41
414.287	213.11
414.748	259.61
415.208	245.71
415.669	204.01
416.13	202.21
416.59	197.41
417.051	205.31
417.511	211.11
417.972	237.81
418.432	242.71
418.893	283.21
419.353	247.91
419.814	192.71
420.274	182.41
420.734	180.31
421.195	192.81
421.655	179.91
422.115	181.81
422.576	186.51
423.036	183.81
423.496	193.51
423.956	209.51
424.416	226.41
424.876	257.51
425.336	238.71
425.797	244.31
426.257	248.71
426.717	220.01
427.177	220.31
427.637	213.11
428.097	222.81
428.556	230.11
429.016	248.51
429.476	248.11
429.936	249.61
430.396	251.91
430.856	271.71
431.315	284.71
431.775	312.61
432.235	340.01
432.694	317.41
433.154	324.81
433.614	342.31
434.073	303.41
434.533	266.51
434.993	246.31
435.452	254.41
435.912	256.21
436.371	262.41
436.83	252.71
437.29	241.41
437.749	230.21
438.209	218.81
438.668	243.11
439.127	253.61
439.587	238.61
440.046	223.21
440.505	241.81
440.964	247.01
441.424	272.31
441.883	269.31
442.342	246.81
442.801	213.51
443.26	211.11
443.719	213.11
444.178	213.21
444.637	205.11
445.096	211.71
445.555	215.31
446.014	214.71
446.473	213.41
446.932	221.41
447.391	217.41
447.849	225.71
448.308	206.71
448.767	216.11
449.226	230.31
449.685	221.11
450.143	240.01
450.602	229.01
451.061	216.51
451.519	219.11
451.978	219.21
452.436	222.41
452.895	227.31
453.353	229.71
453.812	225.81
454.27	224.61
454.729	222.71
455.187	219.11
455.646	226.41
456.104	234.11
456.562	236.71
457.021	248.71
457.479	235.81
457.937	248.01
458.395	241.41
458.854	236.01
459.312	240.01
459.77	244.41
460.228	238.11
460.686	238.61
461.144	239.01
461.602	231.31
462.06	232.01
462.518	239.21
462.976	242.11
463.434	244.31
463.892	249.91
464.35	268.91
464.808	264.91
465.266	252.91
465.724	251.11
466.181	260.31
466.639	265.11
467.097	279.81
467.555	283.11
468.012	283.91
468.47	291.51
468.928	306.21
469.385	317.71
469.843	322.01
470.3	315.21
470.758	324.51
471.215	345.81
471.673	364.41
472.13	363.51
472.588	382.91
473.045	338.71
473.503	353.31
473.96	366.81
474.417	376.21
474.875	391.11
475.332	424.01
475.789	408.91
476.246	421.91
476.704	441.21
477.161	466.81
477.618	473.81
478.075	508.41
478.532	548.11
478.989	593.01
479.446	680.51
479.903	662.21
480.36	711.01
480.817	747.01
481.274	836.91
481.731	910.11
482.188	988.01
482.645	1100.21
483.102	1164.51
483.558	1271.51
484.015	1316.01
484.472	1301.11
484.929	1267.21
485.385	1228.91
485.842	1215.51
486.299	1163.11
486.755	1091.01
487.212	946.01
487.668	817.61
488.125	763.81
488.582	704.91
489.038	679.21
489.494	644.41
489.951	622.61
490.407	608.61
490.864	591.71
491.32	588.41
491.776	576.71
492.233	578.71
492.689	557.61
493.145	541.71
493.602	549.61
494.058	555.51
494.514	548.81
494.97	566.61
495.426	576.61
495.882	564.31
496.338	547.51
496.794	557.61
497.251	552.01
497.707	567.31
498.163	564.91
498.618	571.41
499.074	567.51
499.53	594.91
499.986	593.31
500.442	563.41
500.898	559.51
501.354	555.01
501.809	568.71
502.265	561.41
502.721	569.71
503.177	561.31
503.632	565.01
504.088	581.91
504.543	600.41
504.999	606.61
505.455	592.91
505.91	572.21
506.366	579.91
506.821	568.01
507.277	563.21
507.732	566.61
508.187	567.81
508.643	580.31
509.098	570.51
509.553	589.11
510.009	603.71
510.464	605.81
510.919	611.81
511.375	610.91
511.83	629.71
512.285	638.11
512.74	668.01
513.195	677.01
513.65	676.41
514.105	683.61
514.56	690.71
515.015	698.21
515.47	717.61
515.925	687.01
516.38	703.21
516.835	706.51
517.29	687.41
517.745	694.11
518.2	684.01
518.655	667.41
519.109	649.41
519.564	660.61
520.019	646.21
520.474	640.61
520.928	644.21
521.383	631.61
521.838	623.51
522.292	625.11
522.747	623.11
523.201	629.21
523.656	617.51
524.11	619.11
524.565	613.91
525.019	609.81
525.474	620.51
525.928	613.01
526.382	614.51
526.837	617.01
527.291	617.31
527.745	609.81
528.2	604.21
528.654	603.41
529.108	595.71
529.562	602.41
530.016	598.51
530.47	595.61
530.925	603.11
531.379	605.61
531.833	610.41
532.287	609.11
532.741	598.61
533.195	612.31
533.649	604.81
534.103	608.51
534.556	600.21
535.01	610.61
535.464	610.61
535.918	613.11
536.372	616.91
536.826	611.61
537.279	602.41
537.733	613.51
538.187	606.91
538.64	618.61
539.094	618.51
539.548	623.91
540.001	615.31
540.455	621.81
540.908	627.51
541.362	627.71
541.815	639.81
542.269	644.21
542.722	646.61
543.175	662.81
543.629	648.51
544.082	669.91
544.536	662.91
544.989	664.11
545.442	673.31
545.895	677.01
546.349	664.11
546.802	681.81
547.255	681.81
547.708	682.51
548.161	697.81
548.614	688.31
549.067	701.91
549.52	689.91
549.973	687.51
550.426	688.41
550.879	668.91
551.332	669.21
551.785	674.01
552.238	675.01
552.691	694.61
553.144	696.41
553.596	702.51
554.049	719.01
554.502	748.71
554.955	764.31
555.407	750.01
555.86	754.51
556.313	760.01
556.765	729.61
557.218	730.81
557.67	734.61
558.123	721.21
558.576	727.71
559.028	731.91
559.48	733.91
559.933	725.71
560.385	692.91
560.838	671.51
561.29	653.81
561.742	655.21
562.195	639.01
562.647	638.81
563.099	636.71
563.551	647.71
564.004	650.21
564.456	639.91
564.908	629.81
565.36	617.01
565.812	604.51
566.264	586.11
566.716	578.21
567.168	573.91
567.62	582.11
568.072	576.21
568.524	558.11
568.976	556.91
569.428	551.61
569.88	556.61
570.332	556.81
570.784	560.51
571.235	554.01
571.687	559.81
572.139	570.31
572.59	580.91
573.042	585.31
573.494	575.61
573.945	571.71
574.397	561.01
574.849	554.01
575.3	549.61
575.752	555.41
576.203	544.61
576.655	544.81
577.106	538.91
577.557	537.41
578.009	543.01
578.46	536.11
578.912	528.61
579.363	529.51
579.814	525.01
580.265	528.31
580.717	530.01
581.168	531.71
581.619	548.91
582.07	536.41
582.521	536.31
582.972	522.31
583.423	535.21
583.875	532.61
584.326	537.91
584.777	544.31
585.227	571.41
585.678	577.61
586.129	594.21
586.58	615.61
587.031	622.81
587.482	659.81
587.933	682.41
588.384	668.81
588.834	633.41
589.285	608.41
589.736	608.81
590.186	604.21
590.637	600.31
591.088	594.91
591.538	577.41
591.989	577.31
592.439	569.41
592.89	560.01
593.34	555.31
593.791	542.81
594.241	541.21
594.692	543.11
595.142	534.61
595.593	536.51
596.043	540.31
596.493	539.41
596.943	544.91
597.394	560.21
597.844	559.01
598.294	560.01
598.744	580.11
599.195	606.41
599.645	634.71
600.095	653.91
600.545	702.61
600.995	733.31
601.445	785.91
601.895	841.81
602.345	885.01
602.795	857.01
603.245	828.71
603.695	779.01
604.145	743.11
604.594	709.41
605.044	669.21
605.494	618.51
605.944	577.51
606.393	567.31
606.843	546.01
607.293	554.01
607.743	545.41
608.192	555.71
608.642	564.81
609.091	567.11
609.541	568.81
609.99	579.41
610.44	579.21
610.889	531.21
611.339	530.01
611.788	514.21
612.238	525.01
612.687	530.61
613.136	529.81
613.586	538.51
614.035	536.81
614.484	535.81
614.933	526.81
615.383	537.51
615.832	530.21
616.281	529.71
616.73	506.61
617.179	497.31
617.628	488.61
618.077	473.61
618.526	469.11
618.975	459.01
619.424	458.11
619.873	458.81
620.322	464.71
620.771	453.11
621.22	449.51
621.669	442.71
622.118	437.71
622.567	429.91
623.015	419.21
623.464	413.21
623.913	415.41
624.361	417.51
624.81	412.41
625.259	418.21
625.707	420.01
626.156	413.31
626.604	428.21
627.053	411.31
627.501	421.71
627.95	420.61
628.398	433.81
628.847	423.31
629.295	416.11
629.744	431.71
630.192	419.11
630.64	414.41
631.089	404.31
631.537	400.71
631.985	389.51
632.433	390.81
632.881	380.01
633.33	380.81
633.778	380.61
634.226	382.71
634.674	386.01
635.122	396.21
635.57	407.71
636.018	411.81
636.466	405.51
636.914	401.41
637.362	423.61
637.81	426.81
638.258	420.91
638.705	422.41
639.153	435.81
639.601	449.01
640.049	461.31
640.497	499.41
640.944	509.21
641.392	467.81
641.84	452.01
642.287	425.11
642.735	422.71
643.182	411.61
643.63	416.81
644.078	407.31
644.525	420.61
644.973	419.81
645.42	425.11
645.867	444.61
646.315	451.61
646.762	466.41
647.21	491.51
647.657	504.41
648.104	520.31
648.551	538.31
648.999	587.91
649.446	634.31
649.893	691.31
650.34	777.91
650.787	905.01
651.234	1112.71
651.682	1429.81
652.129	1915.01
652.576	2704.31
653.023	3984.01
653.47	5496.31
653.917	6954.41
654.363	8157.31
654.81	9216.11
655.257	8769.21
655.704	5802.21
656.151	3443.51
656.598	2265.91
657.044	1606.51
657.491	1252.31
657.938	1003.21
658.385	842.51
658.831	737.11
659.278	663.41
659.724	578.61
660.171	543.31
660.618	499.31
661.064	469.41
661.511	446.01
661.957	434.61
662.404	435.81
662.85	448.01
663.296	432.71
663.743	393.81
664.189	379.51
664.635	381.41
665.082	374.51
665.528	377.11
665.974	364.31
666.42	361.41
666.867	355.11
667.313	332.51
667.759	335.11
668.205	322.01
668.651	321.61
669.097	317.31
669.543	320.01
669.989	316.21
670.435	312.91
670.881	319.71
671.327	318.91
671.773	339.31
672.219	354.11
672.665	385.41
673.11	409.01
673.556	456.61
674.002	494.81
674.448	478.31
674.893	398.01
675.339	337.21
675.785	316.41
676.23	300.01
676.676	286.11
677.122	274.11
677.567	262.61
678.013	267.01
678.458	254.61
678.904	253.81
679.349	248.81
679.794	250.11
680.24	250.41
680.685	245.31
681.131	244.21
681.576	249.71
682.021	253.31
682.466	256.81
682.912	250.51
683.357	244.11
683.802	266.91
684.247	282.71
684.692	330.31
685.137	346.61
685.583	383.21
686.028	403.01
686.473	372.51
686.918	316.21
687.363	296.21
687.807	274.71
688.252	254.01
688.697	258.41
689.142	239.11
689.587	234.31
690.032	233.41
690.477	246.51
690.921	238.41
691.366	269.61
691.811	279.41
692.255	308.21
692.7	331.41
693.145	355.31
693.589	480.41
694.034	780.81
694.478	1098.81
694.923	1290.61
695.367	1717.61
695.812	896.21
696.256	366.21
696.701	263.41
697.145	244.31
697.59	229.21
698.034	226.21
698.478	228.61
698.922	224.51
699.367	232.31
699.811	236.71
700.255	242.21
700.699	268.21
701.143	290.21
701.588	348.61
702.032	368.11
702.476	373.71
702.92	344.11
703.364	342.41
703.808	430.61
704.252	701.61
704.696	1025.91
705.14	1229.81
705.584	1599.11
706.027	785.01
706.471	370.71
706.915	278.91
707.359	249.71
707.803	231.31
708.246	218.81
708.69	220.01
709.134	224.31
709.577	217.51
710.021	223.31
710.465	214.71
710.908	204.11
711.352	204.61
711.795	212.41
712.239	244.51
712.682	262.91
713.126	284.81
713.569	331.51
714.012	256.21
714.456	210.01
714.899	204.11
715.342	190.21
715.786	183.21
716.229	182.21
716.672	176.91
717.115	176.51
717.558	173.91
718.002	171.41
718.445	184.31
718.888	200.81
719.331	206.51
719.774	215.11
720.217	211.61
720.66	204.11
721.103	184.01
721.546	180.21
721.989	178.21
722.432	160.51
722.874	167.31
723.317	155.71
723.76	163.21
724.203	170.31
724.645	211.01
725.088	305.41
725.531	397.11
725.974	471.31
726.416	398.61
726.859	213.01
727.301	168.01
727.744	165.91
728.187	162.81
728.629	168.11
729.071	170.41
729.514	180.51
729.956	189.01
730.399	196.51
730.841	200.81
731.283	193.81
731.726	182.91
732.168	188.41
732.61	188.71
733.053	199.41
733.495	213.01
733.937	247.01
734.379	275.21
734.821	306.31
735.263	379.11
735.705	578.71
736.148	1070.31
736.59	1827.61
737.032	2288.11
737.474	1894.91
737.916	591.71
738.357	309.31
738.799	237.31
739.241	212.01
739.683	205.41
740.125	209.21
740.567	216.91
741.008	234.81
741.45	226.11
741.892	221.61
742.334	245.11
742.775	258.21
743.217	254.21
743.658	197.41
744.1	179.51
744.542	180.11
744.983	225.81
745.425	264.91
745.866	261.51
746.307	196.01
746.749	196.61
747.19	220.31
747.632	306.31
748.073	586.51
748.514	1284.71
748.956	2061.11
749.397	2578.11
749.838	2164.61
750.279	2242.51
750.72	1129.71
751.162	398.41
751.603	233.71
752.044	182.11
752.485	155.91
752.926	150.51
753.367	142.01
753.808	140.41
754.249	133.61
754.69	130.91
755.131	130.41
755.572	131.21
756.013	122.01
756.453	116.91
756.894	134.61
757.335	129.81
757.776	138.51
758.216	136.71
758.657	134.31
759.098	143.11
759.538	151.11
759.979	186.41
760.42	254.21
760.86	475.21
761.301	1257.61
761.741	3167.31
762.182	4978.01
762.622	3520.51
763.063	987.91
763.503	385.91
763.943	230.41
764.384	197.11
764.824	181.81
765.264	173.31
765.705	157.51
766.145	120.11
766.585	115.01
767.025	121.61
767.465	110.31
767.906	127.71
768.346	148.01
768.786	147.51
769.226	152.31
769.666	209.61
770.106	408.71
770.546	1060.01
770.986	1955.71
771.426	1797.71
771.866	591.61
772.306	227.61
772.745	145.91
773.185	113.21
773.625	121.81
774.065	99.91
774.505	110.21
774.944	140.41
775.384	264.51
775.824	456.41
776.263	457.21
776.703	212.31
777.142	116.81
777.582	102.21
778.021	90.81
778.461	83.31
778.9	88.31
779.34	82.51
779.779	80.11
780.219	71.41
780.658	68.71
781.097	77.01
781.537	75.71
781.976	74.01
782.415	71.31
782.855	68.71
783.294	63.21
783.733	67.31
784.172	71.11
784.611	67.31
785.05	79.21
785.489	78.91
785.928	79.61
786.367	81.81
786.806	80.31
787.245	80.31
787.684	94.61
788.123	100.71
788.562	86.91
789.001	85.81
789.44	84.01
789.879	82.51
790.317	86.41
790.756	87.61
791.195	89.81
791.634	104.01
792.072	138.71
792.511	246.61
792.95	680.01
793.388	1559.61
793.827	1473.11
794.265	496.21
794.704	202.21
795.142	131.21
795.581	107.41
796.019	96.81
796.458	84.91
796.896	79.51
797.334	92.71
797.773	108.91
798.211	151.91
798.649	297.11
799.087	717.01
799.526	1141.41
799.964	1448.81
800.402	1550.81
800.84	567.71
801.278	212.41
801.716	128.41
802.154	102.51
802.592	103.51
803.03	97.61
803.468	94.01
803.906	98.31
804.344	106.01
804.782	95.91
805.22	94.21
805.658	91.71
806.096	103.21
806.533	113.51
806.971	116.71
807.409	157.71
807.847	219.41
808.284	457.51
808.722	1308.01
809.16	2489.41
809.597	2279.91
810.035	4078.11
810.472	4637.71
810.91	1640.21
811.347	598.11
811.785	301.61
812.222	185.11
812.66	142.11
813.097	116.61
813.535	102.81
813.972	95.81
814.409	82.91
814.846	72.11
815.284	72.61
815.721	72.41
816.158	73.81
816.595	74.81
817.032	114.31
817.47	137.41
817.907	110.91
818.344	68.61
818.781	64.21
819.218	65.71
819.655	85.11
820.092	140.81
820.529	173.21
820.966	128.51
821.403	94.71
821.839	71.71
822.276	68.11
822.713	95.81
823.15	98.01
823.587	80.71
824.023	103.01
824.46	209.71
824.897	636.41
825.333	1030.31
825.77	438.71
826.206	169.21
826.643	96.11
827.08	73.41
827.516	55.41
827.953	52.91
828.389	57.01
828.825	44.11
829.262	42.41
829.698	47.91
830.135	42.21
830.571	49.31
831.007	45.91
831.443	40.31
831.88	42.11
832.316	39.91
832.752	41.01
833.188	38.71
833.624	45.11
834.06	44.81
834.497	48.51
834.933	50.71
835.369	48.81
835.805	40.91
836.241	51.71
836.677	48.61
837.112	65.71
837.548	73.01
837.984	87.41
838.42	140.61
838.856	343.61
839.292	1086.21
839.727	1779.71
840.163	814.91
840.599	659.01
841.034	1500.71
841.47	1667.61
841.906	594.41
842.341	243.91
842.777	148.01
843.212	147.31
843.648	141.41
844.083	80.31
844.519	58.71
844.954	48.41
845.39	37.21
845.825	40.51
846.261	37.71
846.696	33.21
847.131	38.51
847.566	37.81
848.002	31.81
848.437	36.21
848.872	44.81
849.307	44.51
849.742	56.91
850.177	121.01
850.613	394.11
851.048	668.51
851.483	280.51
851.918	108.31
852.353	57.21
852.788	31.71
853.223	37.71
853.657	35.31
854.092	35.21
854.527	30.11
854.962	25.61
855.397	30.01
855.832	39.51
856.266	29.31
856.701	25.71
857.136	19.21
857.57	27.61
858.005	36.11
858.44	43.61
858.874	29.61
859.309	33.01
859.743	22.01
860.178	26.71
860.612	23.01
861.047	33.01
861.481	46.61
861.915	56.81
862.35	29.61
862.784	20.01
863.218	27.71
863.653	24.41
864.087	29.21
864.521	34.91
864.955	44.61
865.39	97.91
865.824	122.11
866.258	84.21
866.692	137.01
867.126	141.31
867.56	87.81
867.994	37.41
868.428	24.01
868.862	37.41
869.296	34.31
869.73	44.41
870.164	39.51
870.598	35.71
871.031	27.81
871.465	20.91
871.899	20.41
872.333	17.71
872.766	12.51
873.2	12.31
873.634	23.91
874.067	11.71
874.501	18.11
874.935	22.11
875.368	21.61
875.802	15.01
876.235	16.01
876.669	16.41
877.102	13.61
877.535	21.31
877.969	20.81
878.402	21.61
878.836	3.71
879.269	14.91
879.702	15.21
880.135	9.31
880.569	18.81
881.002	20.21
881.435	8.71
881.868	1.71
882.301	18.71
882.734	7.91
883.167	8.21
883.601	13.51
884.034	16.91
884.467	8.31
884.899	10.41
885.332	7.71
885.765	8.31
886.198	8.21
886.631	13.41
887.064	12.41
887.497	13.11
887.929	15.81
888.362	4.81
888.795	11.21
889.228	11.61
889.66	10.71
890.093	10.81
890.526	7.41
890.958	9.51
891.391	14.51
891.823	11.11
892.256	12.71
892.688	5.81
893.121	2.41
893.553	9.71
893.985	14.41
894.418	15.91
894.85	6.01
895.282	4.91
895.715	6.11
896.147	1.01
896.579	9.21
897.011	8.41
897.444	8.21
897.876	8.41
898.308	10.71
898.74	7.71
899.172	7.61
899.604	14.31
900.036	9.91
900.468	10.01
900.9	7.21
901.332	6.61
901.764	2.71
902.196	8.91
902.628	12.91
903.06	8.41
903.491	21.71
903.923	19.11
904.355	17.21
904.787	16.91
905.218	12.61
905.65	14.51
906.082	0.81
906.513	6.61
906.945	6.81
907.376	2.31
907.808	14.01
908.239	14.31
908.671	10.61
909.102	15.01
909.534	16.61
909.965	34.71
910.397	66.91
910.828	233.91
911.259	365.21
911.691	162.41
912.122	71.31
912.553	32.81
912.984	22.01
913.415	15.21
913.847	20.81
914.278	2.41
914.709	9.61
915.14	12.11
915.571	10.81
916.002	8.41
916.433	13.81
916.864	10.61
917.295	3.81
917.726	18.71
918.157	6.81
918.587	20.11
919.018	9.71
919.449	13.01
919.88	14.11
920.311	20.41
920.741	31.21
921.172	117.91
921.603	119.11
922.033	47.91
922.464	32.21
922.895	14.71
923.325	10.71
923.756	7.51
924.186	5.71
924.617	11.41
925.047	16.01
925.478	13.11
925.908	13.01
926.338	8.41
926.769	5.81
927.199	11.51
927.629	8.71
928.06	5.01
928.49	10.11
928.92	4.41
929.35	0.61
929.78	1.91
930.21	-1.79
930.641	2.41
931.071	2.91
931.501	-2.59
931.931	2.61
932.361	9.81
932.791	-4.39
933.221	4.11
933.651	-2.49
934.08	8.21
934.51	22.01
934.94	3.61
935.37	4.01
935.8	6.81
936.229	1.51
936.659	6.31
937.089	-0.79
937.519	8.31
937.948	20.31
938.378	10.31
938.807	-2.19
939.237	4.91
939.666	6.01
940.096	-7.39
940.525	4.91
940.955	-1.69
941.384	1.61
941.814	-4.49
942.243	1.41
942.672	3.41
943.102	-1.79
943.531	-1.49
943.96	0.21
944.39	-4.09
944.819	-2.59
945.248	0.31
945.677	2.71
946.106	-0.99
946.535	-1.29
946.964	-5.29
947.393	-4.59
947.822	-0.89
948.251	-12.59
948.68	1.01
949.109	6.01
949.538	3.81
949.967	-0.89
950.396	2.71
950.825	-2.09
951.254	-5.79
951.682	-0.99
952.111	-5.49
952.54	3.11
952.969	-7.69
953.397	-6.29
953.826	2.21
954.254	-5.39
954.683	2.21
955.112	-1.89
955.54	-2.69
955.969	1.41
956.397	-4.09
956.826	-3.69
957.254	2.81
957.682	-1.49
958.111	-1.79
958.539	-3.39
958.967	1.81
959.396	-2.89
959.824	2.91
960.252	2.21
960.68	-10.99
961.109	-3.29
961.537	-5.89
961.965	-3.89
962.393	-1.49
962.821	-10.69
963.249	-2.69
963.677	1.51
964.105	1.91
964.533	32.01
964.961	28.21
965.389	16.01
965.817	7.81
966.245	-4.19
966.672	-5.99
967.1	-6.19
967.528	-3.99
967.956	-8.69
968.383	-4.99
968.811	-4.29
969.239	-6.09
969.666	-9.29
970.094	-5.79
970.522	1.21
970.949	3.01
971.377	-5.59
971.804	-7.69
972.232	-9.29
972.659	0.01
973.087	-6.99
973.514	-3.79
973.941	-7.79
974.369	0.51
974.796	3.91
975.223	2.01
975.651	-4.49
976.078	3.41
976.505	-2.29
976.932	-1.69
977.359	7.71
977.786	1.81
978.214	-2.09
978.641	-4.99
979.068	-1.49
979.495	-9.69
979.922	-2.79
980.349	-1.89
980.776	0.41
981.202	-1.29
981.629	5.11
982.056	5.31
982.483	-0.89
982.91	-1.29
983.337	-6.49
983.763	4.91
984.19	-8.99
984.617	-5.59
985.043	-3.59
985.47	-1.69
985.897	5.51
986.323	-8.49
986.75	-2.79
987.176	-3.89
987.603	-2.09
988.029	2.11
988.456	-3.79
988.882	1.51
989.308	-7.99
989.735	-5.29
990.161	-2.99
990.587	-3.29
991.014	-2.29
991.44	0.51
991.866	-4.19
992.292	-11.69
992.719	-3.59
993.145	5.81
993.571	-10.09
993.997	-4.29
994.423	-5.49
994.849	-4.29
995.275	-2.89
995.701	2.81
996.127	-6.49
996.553	1.21
996.979	-6.79
997.405	-1.19
997.83	-8.49
998.256	-4.29
998.682	-7.29
999.108	-5.59
999.534	-3.49
999.959	-0.69
1000.385	-5.79
1000.811	1.61
1001.236	-5.99
1001.662	-10.29
1002.087	-11.79
1002.513	-6.69
1002.938	-0.19
1003.364	-4.79
1003.789	-3.49
1004.215	0.91
1004.64	-2.19
1005.066	3.11
1005.491	-5.19
1005.916	-2.19
1006.342	-8.59
1006.767	-13.39
1007.192	0.81
1007.617	-7.29
1008.042	-5.59
1008.468	-11.29
1008.893	-4.09
1009.318	-3.19
1009.743	-4.69
1010.168	-0.59
1010.593	-5.59
1011.018	-6.19
1011.443	-7.49
1011.868	-0.39
1012.293	-7.79
1012.718	-5.49
1013.143	4.51
1013.567	-0.09
1013.992	-1.99
1014.417	-12.99
1014.842	-0.19
1015.267	-6.59
1015.691	-4.19
1016.116	8.21
1016.541	1.51
1016.965	5.21
1017.39	-1.69
1017.814	-2.39
1018.239	-0.79
1018.663	-5.49
1019.088	-10.69
1019.512	-8.89
1019.937	-1.39
1020.361	-8.59
1020.785	-11.19
1021.21	-5.49
1021.634	-5.59
1022.058	3.61
1022.483	-5.89
1022.907	-4.49
1023.331	-7.19
1023.755	-2.59
1024.179	1.51
1024.604	-5.99
1025.028	-6.69
1025.452	-5.59
1025.876	2.31
1026.3	-0.89
1026.724	-15.29
1027.148	-7.19
1027.572	-4.49
1027.996	-3.89
1028.42	-1.49
1028.843	-3.69
1029.267	-11.69
1029.691	-7.39
1030.115	-7.69
1030.539	-13.19
1030.962	-10.19
1031.386	-14.69
1031.81	-1.59
1032.233	-3.79
1032.657	-1.89
1033.08	-6.69
1033.504	1.51
1033.927	-8.79
1034.351	2.81
1034.774	-3.69
1035.198	-5.79
1035.621	-8.99
1036.045	-7.49
1036.468	-0.79
1036.891	-14.89
1037.315	-9.09
1037.738	-12.99
1038.161	-6.19
1038.584	-3.29
1039.008	-7.99
1039.431	-1.79
1039.854	-3.99
1040.277	-7.89
1040.7	-10.99
1041.123	-0.49
1041.546	-4.89
1041.969	-0.29
1042.392	-7.79
1042.815	-4.49
1043.238	4.01
1043.661	3.41
1044.084	-9.19
1044.507	-6.39
1044.93	-10.49
1045.352	-6.79
1045.775	-3.99
1046.198	-0.89
1046.621	-2.89
1047.043	-2.39
1047.466	1.51
1047.889	1.11
1048.311	-8.29
1048.734	0.41
1049.156	-10.59
1049.579	-3.69
1050.001	-5.49
1050.424	-0.29
1050.846	-4.99
1051.269	-1.99
1051.691	-9.09
1052.113	-9.19
1052.536	-1.19
1052.958	-4.59
1053.38	2.41
1053.802	-13.09
1054.225	3.61
1054.647	-8.99
1055.069	-4.79
1055.491	1.41
1055.913	-5.99
1056.335	8.61
1056.757	-4.09
1057.179	-9.39
1057.601	-6.09
1058.023	-4.49
1058.445	-8.09
1058.867	-2.89
1059.289	-0.69
1059.711	-11.09
1060.133	-2.49
1060.555	-3.59
1060.976	-8.99
1061.398	-4.19
1061.82	-10.79
1062.241	-5.49
1062.663	-11.29
1063.085	-3.59
1063.506	-3.69
1063.928	-5.19
1064.35	-2.89
1064.771	-14.29
1065.193	-2.89
1065.614	-10.79
1066.035	0.51
1066.457	-6.29
1066.878	3.21
1067.3	-8.19
1067.721	-7.69
1068.142	-6.69
1068.564	-7.59
1068.985	-7.19
1069.406	-6.39
1069.827	-9.79
1070.248	-4.59
1070.67	-1.99
1071.091	-7.89
1071.512	-6.09
1071.933	-6.89
1072.354	-8.59
1072.775	-8.19
1073.196	-8.69
1073.617	-6.59
1074.038	-10.09
1074.459	-1.49
1074.88	-11.89
1075.3	-1.89
1075.721	-2.99
1076.142	-4.29
1076.563	-3.39
1076.983	-11.29
1077.404	-6.19
1077.825	-12.49
1078.246	-1.79
1078.666	-11.99
1079.087	-4.79
1079.507	-16.09
1079.928	-1.49
1080.348	-8.59
1080.769	-4.49
1081.189	3.21
1081.61	-6.69
1082.03	-6.59
1082.451	-3.99
1082.871	-0.59
1083.291	-8.99
1083.711	-11.89
1084.132	-4.89
1084.552	-7.69
1084.972	-5.59
1085.392	-12.29
1085.813	-10.69
1086.233	-7.49
1086.653	-3.29
1087.073	-4.79
1087.493	-8.59
1087.913	-8.99
1088.333	-5.39
1088.753	-2.09
1089.173	1.11
1089.593	-8.19
1090.013	-8.49
1090.433	3.31
1090.852	-0.89
1091.272	-4.49
1091.692	-3.49
1092.112	-4.29
1092.531	-5.79
1092.951	-14.49
1093.371	-7.69
1093.79	0.01
1094.21	-3.59
1094.63	-2.89
1095.049	-4.69
1095.469	-2.39
1095.888	0.91
1096.308	0.51
1096.727	1.31
1097.146	-4.39
1097.566	0.31
1097.985	-6.89
1098.405	-3.39
1098.824	-6.69
1099.243	-9.49
1099.662	-5.29
1100.082	-5.79
1100.501	0.61
1100.92	-6.79
1101.339	-2.49
1101.758	-2.09
