Data from 20171114-ORNL-Ar_H_NY_Subt18_08-07-30-616.txt Node
Date: Tue Nov 14 08:07:30 EST 2017
User: Ender
Spectrometer: HR+D1039
Trigger mode: 0
Integration Time (sec): 2.730000E-2
Scans to average: 10
Electric dark correction enabled: true
Nonlinearity correction enabled: false
Boxcar width: 0
XAxis mode: Wavelengths
Number of Pixels in Spectrum: 2048
>>>>>Begin Spectral Data<<<<<
187.836	-0.69
188.309	-0.69
188.782	-0.69
189.255	-3.09
189.728	-1.09
190.201	4.01
190.674	-1.09
191.147	1.71
191.619	-10.99
192.092	-0.99
192.565	3.91
193.038	-1.09
193.511	0.41
193.984	3.41
194.456	-2.49
194.929	2.81
195.402	2.11
195.874	3.11
196.347	-1.69
196.82	-11.29
197.292	0.81
197.765	-1.59
198.237	-5.79
198.71	-1.09
199.182	-2.99
199.655	-0.59
200.127	-3.39
200.6	-6.09
201.072	-2.89
201.544	-5.39
202.017	-5.89
202.489	0.11
202.961	-3.09
203.433	-2.09
203.906	-5.99
204.378	-9.79
204.85	-10.29
205.322	-12.89
205.794	-1.89
206.266	-7.79
206.739	-6.39
207.211	7.01
207.683	-8.39
208.155	-6.29
208.627	-6.59
209.099	-5.09
209.57	-8.19
210.042	-5.99
210.514	-3.59
210.986	-2.19
211.458	-9.09
211.93	-7.89
212.402	-0.19
212.873	-7.39
213.345	-12.09
213.817	-10.19
214.288	-4.49
214.76	-7.79
215.232	-5.89
215.703	-6.89
216.175	-7.19
216.646	-8.09
217.118	-5.89
217.589	-8.79
218.061	-1.79
218.532	-8.79
219.004	-0.89
219.475	-2.59
219.946	-4.49
220.418	-9.39
220.889	0.51
221.36	-1.49
221.832	-6.69
222.303	-6.49
222.774	-1.39
223.245	-10.99
223.717	-4.49
224.188	-5.49
224.659	-5.69
225.13	-6.79
225.601	-3.69
226.072	-1.79
226.543	-1.39
227.014	-0.99
227.485	-2.89
227.956	-7.89
228.427	-7.89
228.898	0.31
229.369	0.91
229.839	-7.29
230.31	-10.39
230.781	2.41
231.252	-5.59
231.722	-5.89
232.193	-3.49
232.664	-1.29
233.135	-0.19
233.605	-2.19
234.076	-5.49
234.546	1.51
235.017	2.51
235.487	-2.59
235.958	-2.79
236.428	-6.99
236.899	1.81
237.369	0.91
237.84	-3.69
238.31	4.21
238.78	-2.79
239.251	-4.09
239.721	-4.19
240.191	-4.29
240.662	-4.49
241.132	4.81
241.602	-0.89
242.072	-5.69
242.542	5.01
243.013	-2.49
243.483	5.51
243.953	-0.49
244.423	0.71
244.893	-8.19
245.363	1.01
245.833	1.91
246.303	-7.29
246.773	2.31
247.243	-0.99
247.712	-1.09
248.182	3.81
248.652	6.11
249.122	-4.39
249.592	7.61
250.061	4.21
250.531	26.31
251.001	7.51
251.471	18.71
251.94	15.31
252.41	5.41
252.879	-3.49
253.349	8.71
253.818	7.61
254.288	0.21
254.757	1.51
255.227	-6.19
255.696	-0.39
256.166	2.71
256.635	3.21
257.105	4.31
257.574	3.81
258.043	3.01
258.513	10.41
258.982	11.31
259.451	2.01
259.92	7.71
260.389	5.01
260.859	6.81
261.328	8.11
261.797	7.71
262.266	1.31
262.735	5.71
263.204	1.91
263.673	-0.29
264.142	3.71
264.611	-7.29
265.08	-2.09
265.549	-5.29
266.018	-2.29
266.487	-6.69
266.955	-8.29
267.424	-3.69
267.893	3.21
268.362	-6.99
268.83	-0.59
269.299	4.11
269.768	-0.79
270.236	-2.29
270.705	7.81
271.174	2.31
271.642	1.21
272.111	1.61
272.579	15.31
273.048	14.21
273.516	19.11
273.985	18.81
274.453	14.91
274.922	13.21
275.39	9.11
275.858	0.71
276.327	4.71
276.795	8.71
277.263	2.41
277.731	23.61
278.2	43.01
278.668	44.51
279.136	35.01
279.604	11.31
280.072	12.81
280.54	7.41
281.008	13.51
281.477	7.61
281.945	3.01
282.413	9.01
282.881	6.81
283.348	5.41
283.816	16.61
284.284	13.61
284.752	16.11
285.22	7.61
285.688	9.01
286.156	14.11
286.623	38.11
287.091	38.21
287.559	25.81
288.026	11.61
288.494	8.51
288.962	2.01
289.429	4.61
289.897	8.31
290.364	7.91
290.832	14.11
291.3	12.21
291.767	13.41
292.234	6.21
292.702	6.71
293.169	10.81
293.637	16.01
294.104	13.21
294.571	5.41
295.039	3.41
295.506	6.51
295.973	12.91
296.44	6.01
296.908	7.81
297.375	10.81
297.842	16.11
298.309	12.01
298.776	5.01
299.243	15.91
299.71	9.01
300.177	16.81
300.644	14.31
301.111	12.61
301.578	21.41
302.045	7.41
302.512	11.81
302.979	19.01
303.446	16.01
303.913	15.11
304.379	5.31
304.846	13.41
305.313	18.31
305.78	15.71
306.246	19.91
306.713	18.81
307.18	13.91
307.646	18.31
308.113	20.11
308.579	15.71
309.046	19.31
309.512	22.71
309.979	11.01
310.445	22.01
310.912	20.71
311.378	25.91
311.845	22.81
312.311	16.91
312.777	27.91
313.244	17.51
313.71	34.11
314.176	16.21
314.642	23.31
315.109	21.01
315.575	22.61
316.041	27.21
316.507	24.11
316.973	27.61
317.439	18.91
317.905	31.01
318.371	22.31
318.837	25.31
319.303	21.91
319.769	28.51
320.235	23.51
320.701	31.91
321.167	31.61
321.633	24.31
322.099	28.91
322.564	36.61
323.03	29.31
323.496	27.71
323.962	35.31
324.427	30.61
324.893	34.51
325.359	38.31
325.824	28.01
326.29	24.81
326.755	21.91
327.221	30.41
327.686	24.31
328.152	35.61
328.617	27.91
329.083	37.51
329.548	41.41
330.014	33.31
330.479	26.71
330.944	32.31
331.41	34.91
331.875	37.41
332.34	34.21
332.805	35.11
333.271	37.71
333.736	36.41
334.201	39.41
334.666	42.31
335.131	45.41
335.596	41.61
336.061	36.71
336.526	29.11
336.991	37.11
337.456	46.21
337.921	36.31
338.386	33.51
338.851	36.31
339.316	36.41
339.781	39.21
340.246	37.51
340.711	35.21
341.175	40.91
341.64	29.81
342.105	39.11
342.569	42.31
343.034	45.11
343.499	43.41
343.963	43.21
344.428	53.41
344.893	44.71
345.357	49.21
345.822	44.01
346.286	55.61
346.751	62.21
347.215	52.31
347.679	59.01
348.144	76.41
348.608	65.31
349.073	62.61
349.537	57.61
350.001	62.11
350.465	74.71
350.93	58.91
351.394	65.01
351.858	60.51
352.322	68.31
352.786	67.01
353.25	78.21
353.715	95.51
354.179	84.71
354.643	96.41
355.107	100.01
355.571	85.91
356.035	80.51
356.498	94.71
356.962	96.21
357.426	98.21
357.89	97.21
358.354	67.71
358.818	70.11
359.281	65.01
359.745	67.21
360.209	60.01
360.673	62.61
361.136	69.01
361.6	70.71
362.064	62.51
362.527	68.61
362.991	79.61
363.454	65.21
363.918	62.81
364.381	57.01
364.845	69.71
365.308	72.31
365.772	70.21
366.235	72.81
366.698	72.61
367.162	67.81
367.625	67.61
368.088	63.81
368.552	75.31
369.015	77.01
369.478	85.21
369.941	84.81
370.404	84.51
370.867	86.01
371.331	86.31
371.794	92.71
372.257	92.31
372.72	99.71
373.183	92.31
373.646	88.41
374.109	88.21
374.572	84.61
375.035	88.71
375.497	92.41
375.96	92.21
376.423	88.31
376.886	90.81
377.349	98.91
377.811	83.41
378.274	87.51
378.737	93.51
379.199	95.91
379.662	91.21
380.125	102.71
380.587	105.41
381.05	106.31
381.512	110.91
381.975	115.31
382.437	110.11
382.9	109.71
383.362	115.41
383.825	121.31
384.287	123.21
384.75	128.81
385.212	116.61
385.674	120.41
386.136	123.71
386.599	116.41
387.061	106.81
387.523	110.81
387.985	122.31
388.447	132.41
388.91	131.71
389.372	143.01
389.834	129.71
390.296	133.91
390.758	135.81
391.22	151.51
391.682	181.61
392.144	273.21
392.606	210.11
393.068	149.31
393.529	146.91
393.991	135.01
394.453	130.81
394.915	134.71
395.377	170.61
395.838	189.51
396.3	143.01
396.762	129.51
397.224	121.91
397.685	113.81
398.147	109.31
398.608	105.61
399.07	120.51
399.531	119.21
399.993	128.21
400.454	136.61
400.916	126.31
401.377	131.71
401.839	138.11
402.3	135.51
402.762	148.51
403.223	162.01
403.684	155.41
404.145	153.71
404.607	142.71
405.068	142.01
405.529	146.11
405.99	166.61
406.451	154.71
406.913	154.51
407.374	153.01
407.835	148.61
408.296	151.61
408.757	152.41
409.218	173.71
409.679	165.81
410.14	158.41
410.601	157.71
411.062	168.21
411.522	171.21
411.983	175.61
412.444	161.21
412.905	160.61
413.366	164.21
413.826	180.31
414.287	199.61
414.748	238.11
415.208	219.11
415.669	194.91
416.13	189.41
416.59	186.81
417.051	194.71
417.511	200.01
417.972	214.81
418.432	230.61
418.893	265.81
419.353	236.31
419.814	184.11
420.274	165.71
420.734	167.51
421.195	191.11
421.655	179.91
422.115	178.81
422.576	175.51
423.036	183.81
423.496	194.71
423.956	198.61
424.416	208.91
424.876	243.81
425.336	239.91
425.797	246.51
426.257	235.51
426.717	219.81
427.177	212.01
427.637	202.01
428.097	219.71
428.556	229.21
429.016	252.31
429.476	235.51
429.936	255.71
430.396	250.11
430.856	256.51
431.315	290.31
431.775	321.71
432.235	350.31
432.694	323.41
433.154	337.31
433.614	364.71
434.073	313.31
434.533	268.91
434.993	252.91
435.452	252.51
435.912	261.81
436.371	268.31
436.83	262.01
437.29	257.51
437.749	232.11
438.209	227.31
438.668	255.31
439.127	266.01
439.587	244.71
440.046	235.71
440.505	239.51
440.964	252.11
441.424	297.11
441.883	282.81
442.342	246.71
442.801	207.01
443.26	206.51
443.719	209.41
444.178	206.11
444.637	193.01
445.096	204.31
445.555	211.11
446.014	212.51
446.473	212.81
446.932	218.81
447.391	211.11
447.849	213.71
448.308	206.81
448.767	204.21
449.226	216.11
449.685	220.11
450.143	235.01
450.602	230.41
451.061	214.61
451.519	224.11
451.978	212.81
452.436	224.01
452.895	225.61
453.353	237.41
453.812	227.71
454.27	227.01
454.729	227.81
455.187	227.81
455.646	233.31
456.104	227.21
456.562	244.91
457.021	243.11
457.479	240.11
457.937	250.41
458.395	239.51
458.854	235.21
459.312	240.21
459.77	261.51
460.228	247.51
460.686	231.71
461.144	238.21
461.602	228.31
462.06	230.71
462.518	231.71
462.976	242.91
463.434	239.11
463.892	248.81
464.35	260.11
464.808	274.01
465.266	250.81
465.724	261.81
466.181	258.71
466.639	252.01
467.097	273.71
467.555	280.01
468.012	287.41
468.47	303.81
468.928	312.71
469.385	321.51
469.843	326.71
470.3	325.71
470.758	339.21
471.215	361.61
471.673	390.21
472.13	390.61
472.588	405.41
473.045	359.11
473.503	356.41
473.96	370.01
474.417	386.91
474.875	414.31
475.332	453.01
475.789	443.21
476.246	440.81
476.704	469.41
477.161	481.11
477.618	499.31
478.075	538.01
478.532	591.91
478.989	651.61
479.446	763.61
479.903	728.61
480.36	763.61
480.817	823.31
481.274	920.81
481.731	1009.51
482.188	1100.81
482.645	1221.51
483.102	1335.91
483.558	1470.31
484.015	1508.21
484.472	1487.41
484.929	1433.21
485.385	1401.31
485.842	1355.31
486.299	1285.91
486.755	1226.71
487.212	1033.51
487.668	880.71
488.125	809.01
488.582	745.71
489.038	710.91
489.494	672.01
489.951	662.61
490.407	633.51
490.864	620.81
491.32	624.61
491.776	618.11
492.233	621.71
492.689	576.01
493.145	575.81
493.602	569.91
494.058	583.91
494.514	593.31
494.97	615.11
495.426	626.41
495.882	588.91
496.338	580.71
496.794	594.31
497.251	596.81
497.707	602.11
498.163	607.21
498.618	617.21
499.074	613.31
499.53	649.61
499.986	641.11
500.442	618.91
500.898	609.61
501.354	598.41
501.809	610.61
502.265	618.51
502.721	639.61
503.177	642.21
503.632	643.81
504.088	648.91
504.543	674.91
504.999	687.11
505.455	626.81
505.91	600.51
506.366	600.41
506.821	602.31
507.277	597.61
507.732	609.81
508.187	595.21
508.643	613.91
509.098	604.21
509.553	629.41
510.009	632.71
510.464	641.61
510.919	664.01
511.375	661.71
511.83	679.21
512.285	697.41
512.74	729.81
513.195	756.01
513.65	740.41
514.105	748.71
514.56	747.61
515.015	768.31
515.47	780.21
515.925	763.71
516.38	762.11
516.835	758.21
517.29	750.61
517.745	744.11
518.2	735.01
518.655	722.01
519.109	707.41
519.564	717.31
520.019	696.71
520.474	701.41
520.928	704.11
521.383	696.21
521.838	682.41
522.292	692.61
522.747	680.61
523.201	677.31
523.656	669.81
524.11	675.31
524.565	667.61
525.019	663.61
525.474	683.61
525.928	674.81
526.382	673.61
526.837	673.71
527.291	673.61
527.745	674.11
528.2	674.81
528.654	662.81
529.108	669.61
529.562	661.91
530.016	667.01
530.47	673.21
530.925	661.71
531.379	668.91
531.833	679.21
532.287	682.31
532.741	680.01
533.195	670.41
533.649	684.51
534.103	696.71
534.556	694.91
535.01	691.81
535.464	690.91
535.918	697.51
536.372	702.61
536.826	694.51
537.279	686.41
537.733	686.61
538.187	695.11
538.64	689.81
539.094	695.81
539.548	701.81
540.001	706.41
540.455	701.81
540.908	706.91
541.362	718.61
541.815	718.21
542.269	729.11
542.722	740.01
543.175	751.41
543.629	746.51
544.082	753.41
544.536	775.41
544.989	765.41
545.442	774.61
545.895	774.11
546.349	768.31
546.802	767.51
547.255	772.61
547.708	788.31
548.161	792.01
548.614	792.61
549.067	807.41
549.52	792.21
549.973	777.01
550.426	779.71
550.879	769.11
551.332	775.51
551.785	781.71
552.238	781.21
552.691	798.01
553.144	809.71
553.596	820.11
554.049	833.71
554.502	866.31
554.955	883.31
555.407	881.71
555.86	881.71
556.313	870.71
556.765	859.31
557.218	868.41
557.67	859.11
558.123	854.31
558.576	853.31
559.028	856.31
559.48	862.61
559.933	848.61
560.385	813.31
560.838	789.51
561.29	763.11
561.742	768.41
562.195	752.71
562.647	742.21
563.099	750.71
563.551	758.01
564.004	770.11
564.456	759.81
564.908	740.91
565.36	730.81
565.812	717.31
566.264	707.31
566.716	703.51
567.168	694.51
567.62	695.21
568.072	685.31
568.524	678.51
568.976	670.91
569.428	655.91
569.88	662.81
570.332	670.01
570.784	667.81
571.235	669.61
571.687	668.11
572.139	681.61
572.59	695.91
573.042	699.01
573.494	699.71
573.945	687.21
574.397	674.61
574.849	665.91
575.3	680.81
575.752	675.01
576.203	664.11
576.655	667.51
577.106	651.11
577.557	640.31
578.009	650.51
578.46	639.01
578.912	645.01
579.363	646.31
579.814	653.61
580.265	654.71
580.717	654.41
581.168	659.11
581.619	657.71
582.07	670.31
582.521	651.01
582.972	656.01
583.423	664.91
583.875	664.21
584.326	682.51
584.777	724.21
585.227	801.01
585.678	889.31
586.129	962.61
586.58	1042.61
587.031	1115.71
587.482	1244.51
587.933	1415.41
588.384	1245.21
588.834	944.51
589.285	770.81
589.736	773.91
590.186	761.41
590.637	741.71
591.088	724.51
591.538	728.41
591.989	723.51
592.439	716.91
592.89	698.81
593.34	697.41
593.791	693.51
594.241	682.71
594.692	697.21
595.142	685.41
595.593	689.21
596.043	692.61
596.493	703.81
596.943	705.31
597.394	713.81
597.844	697.61
598.294	710.11
598.744	735.91
599.195	765.41
599.645	801.11
600.095	856.01
600.545	902.31
600.995	952.91
601.445	1009.01
601.895	1072.61
602.345	1118.71
602.795	1095.61
603.245	1051.31
603.695	993.31
604.145	918.81
604.594	888.51
605.044	833.01
605.494	784.01
605.944	728.41
606.393	722.91
606.843	712.51
607.293	721.81
607.743	720.91
608.192	725.41
608.642	746.91
609.091	751.31
609.541	764.41
609.99	752.41
610.44	743.61
610.889	701.51
611.339	680.61
611.788	666.91
612.238	685.51
612.687	709.41
613.136	703.21
613.586	724.31
614.035	722.51
614.484	732.41
614.933	738.21
615.383	726.01
615.832	722.51
616.281	707.91
616.73	673.61
617.179	657.51
617.628	641.11
618.077	616.41
618.526	615.81
618.975	605.91
619.424	605.21
619.873	604.21
620.322	608.41
620.771	591.71
621.22	598.81
621.669	583.41
622.118	575.51
622.567	569.71
623.015	552.21
623.464	559.31
623.913	545.81
624.361	534.91
624.81	535.11
625.259	545.71
625.707	555.41
626.156	552.21
626.604	555.91
627.053	551.91
627.501	554.51
627.95	562.11
628.398	567.71
628.847	552.51
629.295	551.91
629.744	564.11
630.192	556.71
630.64	564.31
631.089	560.51
631.537	569.61
631.985	572.31
632.433	589.81
632.881	592.81
633.33	643.21
633.778	625.81
634.226	546.11
634.674	562.11
635.122	571.41
635.57	595.31
636.018	615.81
636.466	571.71
636.914	546.81
637.362	562.71
637.81	566.01
638.258	574.71
638.705	571.11
639.153	594.81
639.601	606.11
640.049	621.21
640.497	660.81
640.944	688.61
641.392	628.81
641.84	605.91
642.287	573.61
642.735	556.51
643.182	562.01
643.63	568.11
644.078	567.41
644.525	584.81
644.973	583.51
645.42	585.11
645.867	613.91
646.315	626.91
646.762	653.61
647.21	682.11
647.657	706.81
648.104	736.51
648.551	755.61
648.999	814.61
649.446	900.51
649.893	987.31
650.34	1138.11
650.787	1360.61
651.234	1716.71
651.682	2237.11
652.129	3064.01
652.576	4422.81
653.023	6485.11
653.47	8857.01
653.917	11046.41
654.363	12684.31
654.81	14001.81
655.257	13286.11
655.704	8677.61
656.151	5151.31
656.598	3342.21
657.044	2378.81
657.491	1823.31
657.938	1449.51
658.385	1219.01
658.831	1052.61
659.278	948.31
659.724	854.41
660.171	770.81
660.618	709.11
661.064	674.21
661.511	662.31
661.957	631.51
662.404	632.61
662.85	641.01
663.296	611.11
663.743	547.41
664.189	530.11
664.635	521.41
665.082	512.61
665.528	514.71
665.974	513.41
666.42	512.81
666.867	496.11
667.313	481.01
667.759	474.01
668.205	468.91
668.651	471.11
669.097	475.51
669.543	490.01
669.989	457.71
670.435	443.01
670.881	436.31
671.327	441.71
671.773	456.71
672.219	475.41
672.665	543.11
673.11	580.31
673.556	622.01
674.002	655.31
674.448	642.31
674.893	530.41
675.339	463.91
675.785	435.21
676.23	404.91
676.676	389.01
677.122	377.71
677.567	365.71
678.013	360.31
678.458	352.01
678.904	349.11
679.349	346.41
679.794	347.31
680.24	340.11
680.685	343.01
681.131	337.91
681.576	354.01
682.021	348.21
682.466	342.51
682.912	348.11
683.357	348.41
683.802	384.21
684.247	410.11
684.692	450.21
685.137	485.21
685.583	522.21
686.028	544.81
686.473	507.51
686.918	439.71
687.363	409.31
687.807	387.31
688.252	355.51
688.697	351.61
689.142	337.21
689.587	329.01
690.032	326.01
690.477	334.81
690.921	345.91
691.366	375.01
691.811	394.01
692.255	416.51
692.7	454.01
693.145	493.11
693.589	699.81
694.034	1122.51
694.478	1515.51
694.923	1706.51
695.367	2231.81
695.812	1180.91
696.256	493.71
696.701	360.71
697.145	340.31
697.59	322.01
698.034	316.01
698.478	326.51
698.922	328.01
699.367	329.11
699.811	337.91
700.255	342.61
700.699	368.91
701.143	423.61
701.588	479.61
702.032	508.91
702.476	502.41
702.92	489.61
703.364	487.31
703.808	642.71
704.252	1028.51
704.696	1437.21
705.14	1647.21
705.584	2086.31
706.027	1045.11
706.471	511.01
706.915	390.61
707.359	347.81
707.803	318.31
708.246	305.61
708.69	307.21
709.134	305.91
709.577	308.11
710.021	310.41
710.465	306.71
710.908	294.41
711.352	301.31
711.795	309.21
712.239	342.41
712.682	381.81
713.126	404.91
713.569	456.71
714.012	359.81
714.456	319.91
714.899	290.91
715.342	273.31
715.786	256.51
716.229	249.81
716.672	253.11
717.115	237.41
717.558	250.31
718.002	242.21
718.445	263.71
718.888	279.81
719.331	291.91
719.774	302.21
720.217	295.61
720.66	275.21
721.103	252.01
721.546	253.81
721.989	249.81
722.432	230.21
722.874	226.81
723.317	229.21
723.76	234.11
724.203	253.31
724.645	315.31
725.088	446.61
725.531	560.21
725.974	630.61
726.416	538.61
726.859	306.11
727.301	244.51
727.744	227.41
728.187	226.11
728.629	235.31
729.071	233.21
729.514	255.11
729.956	272.01
730.399	280.51
730.841	282.81
731.283	269.61
731.726	256.51
732.168	259.81
732.61	266.01
733.053	284.41
733.495	314.71
733.937	347.31
734.379	396.31
734.821	428.11
735.263	544.41
735.705	827.31
736.148	1579.21
736.59	2561.81
737.032	2978.91
737.474	2432.51
737.916	802.91
738.357	419.71
738.799	323.31
739.241	294.21
739.683	277.91
740.125	284.11
740.567	297.61
741.008	315.61
741.45	310.31
741.892	316.31
742.334	343.81
742.775	351.31
743.217	331.81
743.658	269.11
744.1	250.81
744.542	255.61
744.983	302.81
745.425	340.61
745.866	336.01
746.307	278.51
746.749	278.91
747.19	327.31
747.632	456.01
748.073	891.91
748.514	1862.21
748.956	2816.21
749.397	3543.41
749.838	2933.51
750.279	2887.81
750.72	1462.71
751.162	534.51
751.603	312.61
752.044	245.41
752.485	219.01
752.926	202.81
753.367	201.31
753.808	189.21
754.249	187.71
754.69	186.51
755.131	172.51
755.572	177.11
756.013	180.01
756.453	179.21
756.894	182.71
757.335	188.31
757.776	189.51
758.216	187.81
758.657	195.51
759.098	196.81
759.538	218.81
759.979	259.61
760.42	379.11
760.86	710.31
761.301	1853.01
761.741	4402.91
762.182	6302.41
762.622	4402.01
763.063	1286.11
763.503	536.11
763.943	338.21
764.384	329.51
764.824	389.01
765.264	408.11
765.705	286.81
766.145	203.81
766.585	184.21
767.025	173.21
767.465	179.61
767.906	234.91
768.346	301.51
768.786	321.21
769.226	255.61
769.666	308.81
770.106	628.71
770.546	1555.41
770.986	2600.81
771.426	2325.01
771.866	788.91
772.306	322.01
772.745	208.91
773.185	169.41
773.625	178.21
774.065	164.61
774.505	197.51
774.944	307.71
775.384	656.91
775.824	1139.91
776.263	1118.91
776.703	482.01
777.142	215.71
777.582	150.01
778.021	138.51
778.461	139.31
778.9	135.61
779.34	128.01
779.779	115.51
780.219	103.51
780.658	111.61
781.097	104.81
781.537	120.31
781.976	110.61
782.415	107.01
782.855	108.41
783.294	105.01
783.733	101.01
784.172	109.71
784.611	98.01
785.05	107.21
785.489	118.31
785.928	114.31
786.367	116.31
786.806	120.81
787.245	126.61
787.684	134.01
788.123	150.81
788.562	131.11
789.001	131.11
789.44	115.61
789.879	116.31
790.317	113.51
790.756	126.61
791.195	123.71
791.634	141.21
792.072	199.71
792.511	371.31
792.95	1015.31
793.388	2094.51
793.827	1895.31
794.265	665.91
794.704	285.11
795.142	180.61
795.581	152.31
796.019	135.51
796.458	126.11
796.896	126.01
797.334	126.11
797.773	157.91
798.211	218.31
798.649	437.91
799.087	1014.51
799.526	1584.61
799.964	1997.31
800.402	1962.01
800.84	740.71
801.278	292.51
801.716	181.31
802.154	148.81
802.592	138.91
803.03	141.01
803.468	140.61
803.906	138.01
804.344	142.91
804.782	134.71
805.22	129.91
805.658	129.71
806.096	146.61
806.533	162.91
806.971	166.31
807.409	212.81
807.847	316.71
808.284	672.11
808.722	1872.61
809.16	3244.81
809.597	3123.01
810.035	5367.11
810.472	5636.81
810.91	2037.31
811.347	782.41
811.785	397.61
812.222	254.41
812.66	201.81
813.097	161.21
813.535	141.71
813.972	126.11
814.409	115.71
814.846	105.71
815.284	104.71
815.721	96.51
816.158	102.51
816.595	118.61
817.032	181.21
817.47	193.31
817.907	147.21
818.344	143.01
818.781	108.51
819.218	107.61
819.655	120.01
820.092	179.61
820.529	212.11
820.966	174.11
821.403	125.61
821.839	101.01
822.276	106.71
822.713	117.11
823.15	131.91
823.587	113.21
824.023	144.31
824.46	303.31
824.897	899.01
825.333	1328.71
825.77	574.81
826.206	228.41
826.643	127.61
827.08	100.31
827.516	86.61
827.953	78.81
828.389	74.91
828.825	75.31
829.262	75.31
829.698	64.81
830.135	66.01
830.571	60.01
831.007	62.61
831.443	58.41
831.88	53.71
832.316	61.31
832.752	59.11
833.188	63.31
833.624	58.41
834.06	63.31
834.497	68.91
834.933	78.91
835.369	75.91
835.805	66.31
836.241	79.11
836.677	76.61
837.112	88.11
837.548	95.91
837.984	132.91
838.42	200.11
838.856	496.21
839.292	1516.21
839.727	2252.41
840.163	1056.71
840.599	934.91
841.034	2027.21
841.47	2063.01
841.906	757.31
842.341	323.11
842.777	229.51
843.212	310.01
843.648	292.01
844.083	148.41
844.519	94.01
844.954	76.41
845.39	58.71
845.825	66.11
846.261	56.21
846.696	54.61
847.131	54.21
847.566	57.11
848.002	49.61
848.437	52.21
848.872	58.61
849.307	57.91
849.742	85.51
850.177	182.01
850.613	558.01
851.048	847.31
851.483	371.01
851.918	154.71
852.353	92.61
852.788	62.91
853.223	53.81
853.657	48.41
854.092	47.61
854.527	40.41
854.962	33.61
855.397	44.11
855.832	43.71
856.266	43.61
856.701	42.51
857.136	35.61
857.57	43.41
858.005	47.71
858.44	55.91
858.874	43.01
859.309	55.21
859.743	36.11
860.178	46.21
860.612	39.81
861.047	50.91
861.481	64.91
861.915	71.51
862.35	49.61
862.784	33.31
863.218	35.81
863.653	30.21
864.087	36.91
864.521	56.71
864.955	75.41
865.39	158.11
865.824	171.91
866.258	110.61
866.692	163.31
867.126	165.41
867.56	104.11
867.994	50.01
868.428	36.91
868.862	42.81
869.296	60.81
869.73	57.51
870.164	52.11
870.598	46.21
871.031	37.81
871.465	31.51
871.899	28.21
872.333	22.91
872.766	25.61
873.2	25.61
873.634	31.61
874.067	31.21
874.501	29.81
874.935	33.21
875.368	34.31
875.802	26.41
876.235	21.31
876.669	19.41
877.102	20.21
877.535	29.21
877.969	18.81
878.402	19.81
878.836	17.91
879.269	20.31
879.702	27.61
880.135	22.21
880.569	31.31
881.002	31.01
881.435	22.31
881.868	20.21
882.301	25.01
882.734	6.41
883.167	25.91
883.601	18.71
884.034	19.11
884.467	15.61
884.899	19.51
885.332	15.81
885.765	9.11
886.198	16.81
886.631	21.71
887.064	11.61
887.497	18.91
887.929	21.51
888.362	13.11
888.795	10.31
889.228	15.41
889.66	24.61
890.093	16.91
890.526	10.51
890.958	18.51
891.391	22.81
891.823	23.21
892.256	10.21
892.688	10.81
893.121	11.31
893.553	13.11
893.985	21.31
894.418	18.31
894.85	10.81
895.282	20.41
895.715	14.51
896.147	19.11
896.579	19.01
897.011	19.41
897.444	18.71
897.876	13.21
898.308	16.91
898.74	14.41
899.172	17.41
899.604	23.61
900.036	20.71
900.468	9.31
900.9	20.71
901.332	15.21
901.764	18.21
902.196	16.81
902.628	16.41
903.06	7.71
903.491	26.61
903.923	25.51
904.355	22.01
904.787	26.81
905.218	28.81
905.65	18.61
906.082	9.61
906.513	14.61
906.945	19.01
907.376	12.91
907.808	16.31
908.239	19.61
908.671	16.01
909.102	24.41
909.534	25.01
909.965	48.31
910.397	88.61
910.828	306.01
911.259	470.31
911.691	216.81
912.122	108.21
912.553	56.91
912.984	33.61
913.415	22.31
913.847	22.81
914.278	15.31
914.709	14.11
915.14	16.11
915.571	12.91
916.002	14.71
916.433	18.21
916.864	14.51
917.295	18.81
917.726	20.81
918.157	17.71
918.587	28.21
919.018	26.21
919.449	22.61
919.88	21.31
920.311	29.51
920.741	46.71
921.172	166.71
921.603	154.71
922.033	71.61
922.464	46.21
922.895	20.61
923.325	18.61
923.756	18.21
924.186	16.41
924.617	29.11
925.047	35.81
925.478	50.21
925.908	39.81
926.338	23.91
926.769	20.51
927.199	19.01
927.629	7.81
928.06	10.01
928.49	17.21
928.92	14.81
929.35	11.81
929.78	11.61
930.21	10.81
930.641	8.61
931.071	6.11
931.501	0.51
931.931	8.81
932.361	6.51
932.791	6.11
933.221	3.11
933.651	13.81
934.08	18.51
934.51	28.31
934.94	10.01
935.37	12.61
935.8	11.51
936.229	8.61
936.659	13.91
937.089	5.41
937.519	13.01
937.948	24.71
938.378	11.61
938.807	3.51
939.237	1.11
939.666	5.01
940.096	-7.49
940.525	3.21
940.955	1.21
941.384	3.31
941.814	-11.29
942.243	-2.39
942.672	6.81
943.102	-1.49
943.531	-0.79
943.96	3.11
944.39	3.21
944.819	6.41
945.248	0.21
945.677	1.11
946.106	5.51
946.535	5.11
946.964	-1.09
947.393	2.41
947.822	1.11
948.251	-1.19
948.68	0.81
949.109	5.91
949.538	7.61
949.967	1.41
950.396	-4.79
950.825	-0.99
951.254	-1.29
951.682	-8.79
952.111	3.91
952.54	9.51
952.969	4.01
953.397	-2.19
953.826	-4.49
954.254	-3.89
954.683	0.11
955.112	-1.19
955.54	-0.99
955.969	-1.09
956.397	-0.49
956.826	-8.89
957.254	6.01
957.682	0.51
958.111	3.11
958.539	-3.79
958.967	7.41
959.396	0.81
959.824	-1.29
960.252	1.91
960.68	-8.19
961.109	0.81
961.537	-1.29
961.965	-2.89
962.393	1.11
962.821	-7.99
963.249	-5.39
963.677	5.31
964.105	2.01
964.533	45.81
964.961	40.51
965.389	17.91
965.817	14.61
966.245	5.31
966.672	3.31
967.1	-5.69
967.528	5.81
967.956	-2.39
968.383	3.31
968.811	-4.69
969.239	-3.69
969.666	-1.29
970.094	-1.89
970.522	-5.99
970.949	1.91
971.377	-1.59
971.804	-8.49
972.232	-5.79
972.659	2.01
973.087	-12.59
973.514	-5.99
973.941	-4.69
974.369	1.61
974.796	7.01
975.223	3.41
975.651	0.21
976.078	3.41
976.505	-1.39
976.932	-0.69
977.359	15.31
977.786	12.81
978.214	-2.09
978.641	-3.09
979.068	1.01
979.495	-7.89
979.922	-0.99
980.349	-4.09
980.776	6.01
981.202	5.01
981.629	4.81
982.056	-0.39
982.483	-3.29
982.91	-3.49
983.337	-4.79
983.763	5.91
984.19	-4.29
984.617	-6.39
985.043	-6.19
985.47	-4.09
985.897	-1.09
986.323	-7.79
986.75	1.21
987.176	-0.39
987.603	-1.29
988.029	0.91
988.456	2.21
988.882	-0.49
989.308	-1.89
989.735	-3.39
990.161	-0.29
990.587	-5.89
991.014	-3.19
991.44	15.61
991.866	-1.09
992.292	-1.99
992.719	-6.69
993.145	3.71
993.571	-6.99
993.997	-0.99
994.423	-6.59
994.849	-5.99
995.275	1.61
995.701	-0.89
996.127	-7.59
996.553	2.71
996.979	-3.09
997.405	-5.49
997.83	-4.69
998.256	-4.19
998.682	-6.49
999.108	-15.09
999.534	2.01
999.959	-4.99
1000.385	-3.29
1000.811	4.31
1001.236	-4.89
1001.662	-5.39
1002.087	-8.09
1002.513	-2.09
1002.938	1.81
1003.364	-4.09
1003.789	-0.39
1004.215	-2.19
1004.64	-2.69
1005.066	2.81
1005.491	0.21
1005.916	0.91
1006.342	-3.69
1006.767	-6.09
1007.192	6.11
1007.617	-6.39
1008.042	-4.19
1008.468	-5.99
1008.893	-3.79
1009.318	-5.99
1009.743	-4.49
1010.168	4.91
1010.593	-2.29
1011.018	-8.19
1011.443	-6.89
1011.868	3.41
1012.293	-5.89
1012.718	-10.79
1013.143	-8.19
1013.567	-4.69
1013.992	-1.89
1014.417	-11.29
1014.842	-0.49
1015.267	-3.09
1015.691	-7.19
1016.116	6.91
1016.541	2.11
1016.965	6.11
1017.39	2.01
1017.814	-2.49
1018.239	-0.99
1018.663	-4.29
1019.088	-9.99
1019.512	-4.89
1019.937	-6.69
1020.361	-8.09
1020.785	-13.49
1021.21	-4.79
1021.634	-4.29
1022.058	2.01
1022.483	2.61
1022.907	-2.99
1023.331	-6.49
1023.755	-4.79
1024.179	-1.69
1024.604	-1.99
1025.028	-2.39
1025.452	-4.69
1025.876	-2.39
1026.3	-2.69
1026.724	-12.69
1027.148	-7.79
1027.572	-9.99
1027.996	-5.59
1028.42	1.31
1028.843	-3.19
1029.267	-2.69
1029.691	-3.79
1030.115	-5.19
1030.539	-7.79
1030.962	-8.89
1031.386	-13.29
1031.81	2.51
1032.233	-3.09
1032.657	-3.09
1033.08	0.71
1033.504	-6.59
1033.927	-7.79
1034.351	1.31
1034.774	-6.59
1035.198	-5.49
1035.621	-7.49
1036.045	-3.89
1036.468	-1.09
1036.891	-16.19
1037.315	-5.89
1037.738	-10.69
1038.161	3.41
1038.584	-8.69
1039.008	-5.49
1039.431	-4.99
1039.854	-4.49
1040.277	-11.99
1040.7	-13.09
1041.123	2.41
1041.546	-9.69
1041.969	-9.39
1042.392	-5.39
1042.815	-7.29
1043.238	3.91
1043.661	-0.09
1044.084	-5.99
1044.507	-6.59
1044.93	-5.29
1045.352	0.31
1045.775	2.91
1046.198	-0.99
1046.621	-2.19
1047.043	-4.19
1047.466	7.21
1047.889	-5.19
1048.311	-12.09
1048.734	1.11
1049.156	-2.69
1049.579	-6.99
1050.001	-1.99
1050.424	0.71
1050.846	1.81
1051.269	-7.69
1051.691	-0.49
1052.113	-5.49
1052.536	-1.29
1052.958	-1.19
1053.38	-2.49
1053.802	-9.09
1054.225	3.11
1054.647	-11.99
1055.069	-10.59
1055.491	5.71
1055.913	-12.79
1056.335	0.01
1056.757	1.81
1057.179	-11.19
1057.601	-7.39
1058.023	-3.79
1058.445	-2.49
1058.867	-3.69
1059.289	-5.49
1059.711	-9.29
1060.133	2.61
1060.555	-4.79
1060.976	-4.99
1061.398	-3.89
1061.82	-6.29
1062.241	-7.39
1062.663	-8.19
1063.085	-3.19
1063.506	-2.89
1063.928	-6.19
1064.35	-1.99
1064.771	-11.49
1065.193	-1.79
1065.614	-8.49
1066.035	-1.09
1066.457	-2.19
1066.878	0.81
1067.3	-8.99
1067.721	-5.49
1068.142	-5.19
1068.564	-3.09
1068.985	-3.19
1069.406	-5.89
1069.827	-1.89
1070.248	-3.99
1070.67	-10.39
1071.091	-6.49
1071.512	-4.49
1071.933	-4.99
1072.354	-4.79
1072.775	-5.29
1073.196	-7.99
1073.617	-2.09
1074.038	-5.89
1074.459	-8.69
1074.88	-10.19
1075.3	-3.59
1075.721	-10.69
1076.142	-0.99
1076.563	-2.69
1076.983	-11.79
1077.404	-13.39
1077.825	-7.89
1078.246	-3.59
1078.666	-11.19
1079.087	-3.09
1079.507	-7.79
1079.928	-0.39
1080.348	-2.39
1080.769	-4.89
1081.189	-2.19
1081.61	-1.29
1082.03	-2.39
1082.451	-8.59
1082.871	-3.89
1083.291	-6.09
1083.711	-11.99
1084.132	-3.59
1084.552	-2.49
1084.972	-0.99
1085.392	-5.69
1085.813	-8.59
1086.233	-5.19
1086.653	-10.29
1087.073	-2.59
1087.493	-5.49
1087.913	-10.69
1088.333	-7.09
1088.753	-3.39
1089.173	0.21
1089.593	-1.59
1090.013	-1.99
1090.433	1.21
1090.852	-2.69
1091.272	-1.59
1091.692	-3.49
1092.112	-3.09
1092.531	-6.99
1092.951	-7.99
1093.371	-3.99
1093.79	-1.69
1094.21	-1.99
1094.63	-3.99
1095.049	-11.19
1095.469	2.11
1095.888	-4.59
1096.308	-1.79
1096.727	0.61
1097.146	-8.19
1097.566	-2.89
1097.985	-5.79
1098.405	0.31
1098.824	-7.29
1099.243	-9.59
1099.662	-14.89
1100.082	-3.09
1100.501	0.91
1100.92	-5.39
1101.339	-6.79
1101.758	-6.89
