Data from 20171114-ORNL-Ar_H_NY_Subt18_08-08-14-019.txt Node
Date: Tue Nov 14 08:08:14 EST 2017
User: Ender
Spectrometer: HR+D1039
Trigger mode: 0
Integration Time (sec): 2.730000E-2
Scans to average: 10
Electric dark correction enabled: true
Nonlinearity correction enabled: false
Boxcar width: 0
XAxis mode: Wavelengths
Number of Pixels in Spectrum: 2048
>>>>>Begin Spectral Data<<<<<
187.836	-6.59
188.309	-6.59
188.782	-6.59
189.255	1.71
189.728	-5.19
190.201	2.01
190.674	6.91
191.147	1.01
191.619	-5.59
192.092	-1.39
192.565	5.21
193.038	-2.39
193.511	1.31
193.984	-1.29
194.456	-0.49
194.929	2.51
195.402	2.11
195.874	0.11
196.347	-1.99
196.82	-9.39
197.292	4.51
197.765	-3.89
198.237	-7.09
198.71	2.61
199.182	-1.69
199.655	6.11
200.127	9.81
200.6	-1.79
201.072	-3.09
201.544	-1.29
202.017	-1.19
202.489	11.21
202.961	-2.49
203.433	-1.89
203.906	-10.19
204.378	-5.09
204.85	-3.59
205.322	-7.19
205.794	-2.39
206.266	-1.99
206.739	-5.89
207.211	2.11
207.683	-4.49
208.155	-4.79
208.627	-4.39
209.099	2.11
209.57	-3.69
210.042	-8.59
210.514	-2.29
210.986	-2.99
211.458	-11.39
211.93	-4.79
212.402	2.51
212.873	-10.29
213.345	-4.99
213.817	-12.19
214.288	-5.19
214.76	-11.89
215.232	-5.29
215.703	-3.89
216.175	-3.79
216.646	-6.89
217.118	-11.79
217.589	-1.19
218.061	-0.69
218.532	-4.59
219.004	-6.99
219.475	-1.09
219.946	0.31
220.418	-9.39
220.889	3.11
221.36	4.51
221.832	-4.99
222.303	-13.79
222.774	1.71
223.245	-11.39
223.717	-8.79
224.188	-6.89
224.659	-6.19
225.13	-12.49
225.601	0.41
226.072	-1.99
226.543	-3.19
227.014	1.11
227.485	-3.39
227.956	-3.29
228.427	-3.19
228.898	-2.69
229.369	4.61
229.839	0.21
230.31	-4.29
230.781	2.91
231.252	-3.39
231.722	-6.89
232.193	-1.99
232.664	1.11
233.135	2.81
233.605	0.11
234.076	-5.29
234.546	-3.19
235.017	5.51
235.487	-0.89
235.958	-2.59
236.428	-6.79
236.899	6.91
237.369	3.11
237.84	-2.19
238.31	8.91
238.78	2.01
239.251	-1.49
239.721	-2.09
240.191	3.61
240.662	-1.39
241.132	-3.99
241.602	-5.09
242.072	-4.89
242.542	6.31
243.013	-5.29
243.483	9.41
243.953	1.21
244.423	-0.79
244.893	-3.79
245.363	0.71
245.833	1.11
246.303	1.51
246.773	9.71
247.243	-0.29
247.712	6.01
248.182	6.81
248.652	3.61
249.122	-1.59
249.592	9.41
250.061	22.11
250.531	34.41
251.001	25.71
251.471	22.61
251.94	16.61
252.41	4.61
252.879	-4.49
253.349	10.71
253.818	7.31
254.288	7.11
254.757	3.41
255.227	4.21
255.696	6.21
256.166	7.11
256.635	5.61
257.105	7.81
257.574	5.91
258.043	13.61
258.513	13.31
258.982	15.31
259.451	13.11
259.92	10.11
260.389	11.41
260.859	12.21
261.328	10.91
261.797	14.01
262.266	7.21
262.735	8.21
263.204	5.61
263.673	4.71
264.142	3.81
264.611	-1.59
265.08	1.71
265.549	-2.39
266.018	5.01
266.487	-2.49
266.955	-4.39
267.424	1.41
267.893	8.31
268.362	3.21
268.83	-0.19
269.299	14.21
269.768	11.01
270.236	11.01
270.705	0.21
271.174	7.51
271.642	7.41
272.111	14.31
272.579	15.41
273.048	24.01
273.516	31.41
273.985	29.41
274.453	19.81
274.922	16.71
275.39	15.11
275.858	3.51
276.327	10.11
276.795	17.61
277.263	13.11
277.731	31.11
278.2	55.31
278.668	47.81
279.136	46.31
279.604	16.21
280.072	11.31
280.54	13.61
281.008	12.31
281.477	15.11
281.945	12.21
282.413	14.51
282.881	21.21
283.348	13.41
283.816	11.01
284.284	15.51
284.752	21.61
285.22	16.21
285.688	20.11
286.156	24.11
286.623	41.71
287.091	51.51
287.559	29.41
288.026	16.21
288.494	14.41
288.962	8.31
289.429	10.21
289.897	16.31
290.364	8.71
290.832	12.71
291.3	13.31
291.767	15.61
292.234	21.01
292.702	14.31
293.169	21.71
293.637	25.11
294.104	20.21
294.571	3.81
295.039	13.81
295.506	12.61
295.973	13.61
296.44	18.01
296.908	17.61
297.375	23.81
297.842	14.91
298.309	21.81
298.776	10.81
299.243	22.31
299.71	16.41
300.177	23.01
300.644	20.01
301.111	18.71
301.578	27.41
302.045	16.71
302.512	27.61
302.979	26.21
303.446	19.51
303.913	20.01
304.379	21.21
304.846	30.11
305.313	19.71
305.78	17.41
306.246	27.41
306.713	29.11
307.18	27.01
307.646	27.31
308.113	28.41
308.579	25.11
309.046	24.51
309.512	22.11
309.979	18.51
310.445	28.21
310.912	32.51
311.378	32.11
311.845	27.51
312.311	27.71
312.777	34.81
313.244	30.51
313.71	38.91
314.176	29.01
314.642	32.91
315.109	32.71
315.575	38.81
316.041	42.91
316.507	32.71
316.973	39.31
317.439	27.91
317.905	35.51
318.371	37.61
318.837	28.91
319.303	30.61
319.769	30.61
320.235	37.51
320.701	31.71
321.167	38.61
321.633	31.41
322.099	39.51
322.564	44.81
323.03	35.11
323.496	36.61
323.962	41.11
324.427	35.11
324.893	39.01
325.359	34.91
325.824	32.81
326.29	37.31
326.755	34.61
327.221	30.91
327.686	39.71
328.152	46.21
328.617	46.11
329.083	45.91
329.548	53.31
330.014	48.01
330.479	44.81
330.944	43.41
331.41	45.71
331.875	49.01
332.34	44.01
332.805	44.01
333.271	48.71
333.736	38.71
334.201	53.91
334.666	48.91
335.131	51.11
335.596	51.61
336.061	52.51
336.526	40.01
336.991	46.91
337.456	55.61
337.921	54.31
338.386	48.11
338.851	40.81
339.316	46.51
339.781	50.71
340.246	54.81
340.711	47.61
341.175	47.41
341.64	38.61
342.105	52.41
342.569	49.31
343.034	58.41
343.499	61.41
343.963	52.01
344.428	60.31
344.893	61.21
345.357	57.61
345.822	69.21
346.286	71.91
346.751	75.21
347.215	62.81
347.679	65.71
348.144	94.71
348.608	82.51
349.073	72.91
349.537	82.21
350.001	77.31
350.465	92.21
350.93	82.21
351.394	87.01
351.858	72.31
352.322	87.71
352.786	83.81
353.25	103.11
353.715	113.11
354.179	101.91
354.643	124.21
355.107	127.91
355.571	108.11
356.035	106.01
356.498	119.41
356.962	129.51
357.426	130.91
357.89	120.61
358.354	89.61
358.818	87.21
359.281	77.51
359.745	77.61
360.209	76.91
360.673	78.21
361.136	82.81
361.6	86.91
362.064	88.11
362.527	84.21
362.991	93.81
363.454	82.71
363.918	74.91
364.381	73.81
364.845	75.31
365.308	85.21
365.772	87.41
366.235	84.21
366.698	84.71
367.162	81.31
367.625	82.11
368.088	93.51
368.552	84.31
369.015	89.71
369.478	99.11
369.941	96.31
370.404	94.91
370.867	99.31
371.331	112.61
371.794	126.81
372.257	115.11
372.72	119.71
373.183	115.81
373.646	99.61
374.109	103.11
374.572	114.61
375.035	105.51
375.497	107.41
375.96	105.21
376.423	103.61
376.886	115.81
377.349	115.51
377.811	103.41
378.274	105.51
378.737	107.51
379.199	109.41
379.662	115.51
380.125	118.41
380.587	127.61
381.05	118.21
381.512	130.51
381.975	135.91
382.437	132.21
382.9	129.11
383.362	139.91
383.825	142.81
384.287	151.31
384.75	143.81
385.212	136.71
385.674	143.01
386.136	141.01
386.599	125.81
387.061	129.01
387.523	139.41
387.985	142.01
388.447	143.11
388.91	147.61
389.372	165.51
389.834	153.61
390.296	143.51
390.758	161.81
391.22	170.01
391.682	212.41
392.144	313.11
392.606	237.91
393.068	170.01
393.529	168.71
393.991	159.21
394.453	152.81
394.915	161.01
395.377	196.21
395.838	219.81
396.3	160.31
396.762	146.71
397.224	141.21
397.685	132.81
398.147	129.21
398.608	126.61
399.07	129.91
399.531	140.81
399.993	145.81
400.454	156.61
400.916	148.91
401.377	152.11
401.839	153.51
402.3	154.31
402.762	171.31
403.223	180.81
403.684	174.71
404.145	167.01
404.607	160.81
405.068	169.11
405.529	174.21
405.99	199.11
406.451	181.51
406.913	176.91
407.374	175.41
407.835	172.21
408.296	175.01
408.757	185.11
409.218	196.41
409.679	181.41
410.14	176.11
410.601	186.21
411.062	188.21
411.522	194.31
411.983	190.91
412.444	174.21
412.905	184.41
413.366	186.51
413.826	195.71
414.287	219.51
414.748	274.71
415.208	250.01
415.669	212.51
416.13	203.01
416.59	203.31
417.051	214.31
417.511	223.31
417.972	240.91
418.432	244.81
418.893	294.61
419.353	249.01
419.814	196.91
420.274	186.91
420.734	183.01
421.195	209.71
421.655	207.31
422.115	199.11
422.576	198.61
423.036	202.81
423.496	212.01
423.956	223.91
424.416	231.01
424.876	265.51
425.336	265.81
425.797	263.51
426.257	263.11
426.717	246.21
427.177	237.21
427.637	227.61
428.097	237.71
428.556	243.01
429.016	276.91
429.476	275.21
429.936	284.71
430.396	291.21
430.856	299.21
431.315	324.51
431.775	357.61
432.235	388.61
432.694	366.81
433.154	376.51
433.614	410.81
434.073	353.71
434.533	291.11
434.993	280.11
435.452	286.81
435.912	304.91
436.371	290.21
436.83	294.91
437.29	278.11
437.749	252.91
438.209	253.61
438.668	281.41
439.127	296.31
439.587	267.41
440.046	250.51
440.505	266.71
440.964	279.01
441.424	334.31
441.883	315.11
442.342	261.11
442.801	231.51
443.26	236.01
443.719	226.31
444.178	224.71
444.637	215.91
445.096	225.91
445.555	235.51
446.014	230.71
446.473	235.51
446.932	238.31
447.391	230.21
447.849	231.11
448.308	218.91
448.767	229.11
449.226	243.21
449.685	243.81
450.143	252.91
450.602	238.01
451.061	233.11
451.519	234.71
451.978	237.11
452.436	246.01
452.895	245.51
453.353	259.71
453.812	243.21
454.27	242.81
454.729	248.51
455.187	244.61
455.646	247.11
456.104	249.61
456.562	261.51
457.021	268.11
457.479	272.61
457.937	277.71
458.395	266.91
458.854	247.11
459.312	261.81
459.77	284.81
460.228	262.41
460.686	243.11
461.144	247.71
461.602	249.11
462.06	247.71
462.518	252.91
462.976	261.71
463.434	262.51
463.892	266.61
464.35	281.11
464.808	287.71
465.266	269.31
465.724	268.91
466.181	278.81
466.639	275.31
467.097	292.61
467.555	304.91
468.012	304.91
468.47	314.41
468.928	333.41
469.385	342.11
469.843	345.71
470.3	357.41
470.758	375.81
471.215	396.91
471.673	413.81
472.13	414.81
472.588	427.71
473.045	371.01
473.503	390.61
473.96	406.61
474.417	409.71
474.875	438.01
475.332	484.31
475.789	463.91
476.246	476.71
476.704	499.61
477.161	519.81
477.618	534.11
478.075	562.31
478.532	616.31
478.989	704.01
479.446	817.41
479.903	784.21
480.36	821.71
480.817	874.51
481.274	985.71
481.731	1085.91
482.188	1172.51
482.645	1299.41
483.102	1417.81
483.558	1550.21
484.015	1600.71
484.472	1566.91
484.929	1519.61
485.385	1477.81
485.842	1438.41
486.299	1369.31
486.755	1306.01
487.212	1100.01
487.668	937.31
488.125	853.71
488.582	787.41
489.038	753.01
489.494	715.11
489.951	685.51
490.407	673.11
490.864	649.41
491.32	642.11
491.776	641.91
492.233	649.41
492.689	620.11
493.145	615.91
493.602	605.61
494.058	614.91
494.514	617.31
494.97	643.91
495.426	657.71
495.882	635.01
496.338	621.41
496.794	628.31
497.251	619.51
497.707	634.21
498.163	644.21
498.618	641.41
499.074	642.91
499.53	690.81
499.986	684.61
500.442	665.91
500.898	643.81
501.354	642.51
501.809	641.71
502.265	643.91
502.721	671.71
503.177	675.81
503.632	659.41
504.088	689.71
504.543	714.31
504.999	715.81
505.455	663.31
505.91	633.41
506.366	639.21
506.821	630.01
507.277	622.81
507.732	635.61
508.187	625.11
508.643	638.71
509.098	652.81
509.553	663.61
510.009	669.01
510.464	678.21
510.919	696.01
511.375	700.01
511.83	714.11
512.285	724.11
512.74	755.71
513.195	791.41
513.65	775.01
514.105	782.21
514.56	769.01
515.015	792.71
515.47	812.31
515.925	795.41
516.38	781.71
516.835	802.71
517.29	784.51
517.745	784.51
518.2	775.41
518.655	753.41
519.109	754.01
519.564	745.81
520.019	731.11
520.474	716.61
520.928	726.01
521.383	731.51
521.838	722.21
522.292	713.21
522.747	727.71
523.201	714.81
523.656	709.11
524.11	700.01
524.565	699.21
525.019	701.11
525.474	719.11
525.928	707.81
526.382	696.91
526.837	700.61
527.291	708.51
527.745	706.01
528.2	712.61
528.654	704.31
529.108	696.81
529.562	694.11
530.016	698.91
530.47	704.41
530.925	699.81
531.379	703.71
531.833	716.41
532.287	707.11
532.741	712.11
533.195	705.11
533.649	695.51
534.103	730.41
534.556	719.81
535.01	729.91
535.464	713.31
535.918	722.41
536.372	723.71
536.826	721.91
537.279	702.61
537.733	720.21
538.187	724.01
538.64	719.11
539.094	733.31
539.548	740.21
540.001	734.11
540.455	735.81
540.908	737.11
541.362	751.51
541.815	749.01
542.269	763.41
542.722	768.61
543.175	781.71
543.629	765.71
544.082	797.31
544.536	793.01
544.989	808.01
545.442	798.51
545.895	801.21
546.349	792.71
546.802	801.71
547.255	810.81
547.708	812.11
548.161	816.81
548.614	825.91
549.067	839.71
549.52	823.11
549.973	816.81
550.426	812.51
550.879	800.31
551.332	805.31
551.785	816.91
552.238	822.81
552.691	826.31
553.144	840.21
553.596	849.61
554.049	868.81
554.502	905.11
554.955	915.71
555.407	920.91
555.86	906.81
556.313	897.91
556.765	877.31
557.218	886.41
557.67	882.01
558.123	887.11
558.576	875.91
559.028	881.51
559.48	888.21
559.933	876.11
560.385	854.11
560.838	814.81
561.29	788.21
561.742	790.31
562.195	773.71
562.647	781.01
563.099	779.91
563.551	781.81
564.004	791.21
564.456	785.91
564.908	760.31
565.36	756.81
565.812	741.71
566.264	729.81
566.716	739.01
567.168	741.01
567.62	733.21
568.072	715.41
568.524	708.81
568.976	697.91
569.428	687.01
569.88	691.81
570.332	686.91
570.784	701.51
571.235	692.21
571.687	695.71
572.139	705.91
572.59	713.21
573.042	722.51
573.494	718.31
573.945	712.61
574.397	688.71
574.849	699.21
575.3	702.01
575.752	695.81
576.203	679.61
576.655	703.61
577.106	679.71
577.557	679.71
578.009	678.51
578.46	672.21
578.912	679.21
579.363	671.61
579.814	675.31
580.265	673.41
580.717	675.61
581.168	674.11
581.619	700.41
582.07	692.41
582.521	681.11
582.972	682.41
583.423	690.81
583.875	691.71
584.326	707.51
584.777	757.71
585.227	833.51
585.678	933.21
586.129	1023.21
586.58	1101.51
587.031	1180.21
587.482	1335.71
587.933	1506.31
588.384	1324.51
588.834	981.31
589.285	820.91
589.736	797.11
590.186	796.31
590.637	793.81
591.088	756.41
591.538	745.81
591.989	733.11
592.439	733.41
592.89	722.71
593.34	723.61
593.791	718.11
594.241	714.51
594.692	724.11
595.142	713.91
595.593	709.41
596.043	723.81
596.493	726.41
596.943	729.01
597.394	737.31
597.844	728.11
598.294	738.51
598.744	774.61
599.195	792.41
599.645	833.01
600.095	873.81
600.545	936.61
600.995	986.61
601.445	1038.71
601.895	1108.91
602.345	1151.41
602.795	1131.21
603.245	1082.41
603.695	1038.11
604.145	975.51
604.594	935.11
605.044	866.61
605.494	812.51
605.944	769.71
606.393	744.21
606.843	752.81
607.293	737.41
607.743	738.61
608.192	754.71
608.642	774.21
609.091	784.41
609.541	786.11
609.99	777.91
610.44	782.01
610.889	740.41
611.339	711.71
611.788	696.51
612.238	717.31
612.687	734.01
613.136	740.31
613.586	768.31
614.035	753.51
614.484	766.21
614.933	781.61
615.383	765.81
615.832	757.61
616.281	742.61
616.73	690.31
617.179	678.21
617.628	667.71
618.077	643.81
618.526	628.21
618.975	628.21
619.424	623.91
619.873	624.51
620.322	635.11
620.771	621.71
621.22	621.81
621.669	608.91
622.118	599.91
622.567	588.01
623.015	584.51
623.464	576.31
623.913	569.61
624.361	560.61
624.81	560.01
625.259	565.51
625.707	560.41
626.156	567.71
626.604	578.11
627.053	574.61
627.501	571.81
627.95	579.21
628.398	590.71
628.847	579.21
629.295	581.31
629.744	582.01
630.192	584.71
630.64	583.71
631.089	573.61
631.537	589.81
631.985	604.51
632.433	622.61
632.881	631.51
633.33	674.81
633.778	656.61
634.226	581.31
634.674	584.71
635.122	588.01
635.57	610.31
636.018	641.81
636.466	593.21
636.914	562.41
637.362	580.91
637.81	590.91
638.258	591.01
638.705	594.11
639.153	618.81
639.601	627.71
640.049	651.11
640.497	686.71
640.944	702.61
641.392	652.91
641.84	625.01
642.287	600.21
642.735	586.61
643.182	586.81
643.63	591.21
644.078	591.11
644.525	601.31
644.973	613.11
645.42	614.11
645.867	624.81
646.315	648.41
646.762	669.51
647.21	709.11
647.657	723.81
648.104	761.51
648.551	788.21
648.999	845.01
649.446	942.01
649.893	1020.31
650.34	1179.61
650.787	1431.91
651.234	1788.01
651.682	2332.21
652.129	3186.21
652.576	4629.71
653.023	6813.61
653.47	9277.21
653.917	11499.91
654.363	13138.61
654.81	14432.41
655.257	13749.51
655.704	9037.01
656.151	5326.01
656.598	3448.11
657.044	2466.51
657.491	1882.71
657.938	1513.01
658.385	1261.21
658.831	1099.11
659.278	988.41
659.724	880.61
660.171	795.01
660.618	746.11
661.064	699.61
661.511	682.31
661.957	671.61
662.404	657.01
662.85	666.31
663.296	627.81
663.743	574.61
664.189	550.91
664.635	545.81
665.082	548.71
665.528	549.21
665.974	536.71
666.42	521.91
666.867	513.41
667.313	502.01
667.759	497.81
668.205	494.01
668.651	496.11
669.097	491.21
669.543	511.11
669.989	484.91
670.435	460.71
670.881	447.91
671.327	460.21
671.773	470.91
672.219	503.21
672.665	562.41
673.11	601.51
673.556	642.11
674.002	677.31
674.448	665.31
674.893	558.11
675.339	482.31
675.785	442.61
676.23	424.51
676.676	404.81
677.122	395.21
677.567	381.11
678.013	377.41
678.458	366.71
678.904	366.61
679.349	352.71
679.794	359.91
680.24	362.51
680.685	350.11
681.131	356.61
681.576	354.31
682.021	358.41
682.466	360.11
682.912	354.71
683.357	368.81
683.802	399.01
684.247	419.71
684.692	464.71
685.137	505.01
685.583	548.81
686.028	570.51
686.473	518.91
686.918	452.91
687.363	424.01
687.807	397.71
688.252	374.51
688.697	357.51
689.142	345.11
689.587	339.21
690.032	332.01
690.477	355.11
690.921	364.01
691.366	393.31
691.811	401.91
692.255	428.61
692.7	462.41
693.145	520.71
693.589	724.51
694.034	1187.41
694.478	1577.81
694.923	1747.71
695.367	2289.61
695.812	1209.21
696.256	508.01
696.701	373.11
697.145	349.51
697.59	333.71
698.034	330.81
698.478	337.11
698.922	333.11
699.367	338.51
699.811	342.21
700.255	366.31
700.699	393.61
701.143	433.51
701.588	492.61
702.032	526.81
702.476	514.21
702.92	506.01
703.364	503.71
703.808	667.81
704.252	1079.11
704.696	1497.31
705.14	1690.21
705.584	2131.91
706.027	1079.21
706.471	534.61
706.915	403.91
707.359	358.41
707.803	327.71
708.246	320.01
708.69	319.01
709.134	320.51
709.577	316.11
710.021	327.31
710.465	315.81
710.908	304.01
711.352	305.11
711.795	324.61
712.239	368.91
712.682	386.41
713.126	425.01
713.569	473.51
714.012	379.41
714.456	331.01
714.899	306.31
715.342	284.61
715.786	259.81
716.229	261.61
716.672	262.81
717.115	255.81
717.558	260.61
718.002	264.61
718.445	269.01
718.888	298.01
719.331	301.31
719.774	310.51
720.217	308.01
720.66	284.61
721.103	271.11
721.546	252.41
721.989	251.21
722.432	236.91
722.874	244.51
723.317	231.21
723.76	243.01
724.203	260.81
724.645	337.31
725.088	467.81
725.531	584.01
725.974	661.31
726.416	554.51
726.859	312.91
727.301	253.81
727.744	244.91
728.187	241.31
728.629	248.11
729.071	243.61
729.514	255.81
729.956	286.31
730.399	293.81
730.841	292.21
731.283	278.01
731.726	271.01
732.168	267.71
732.61	276.91
733.053	293.41
733.495	322.61
733.937	362.71
734.379	407.01
734.821	450.41
735.263	564.31
735.705	874.51
736.148	1667.81
736.59	2665.91
737.032	3039.11
737.474	2504.41
737.916	829.11
738.357	443.11
738.799	335.51
739.241	306.71
739.683	284.11
740.125	299.41
740.567	307.81
741.008	317.01
741.45	322.51
741.892	318.81
742.334	354.61
742.775	365.91
743.217	347.01
743.658	274.61
744.1	259.31
744.542	264.21
744.983	318.81
745.425	350.51
745.866	347.01
746.307	295.91
746.749	293.11
747.19	348.71
747.632	484.91
748.073	934.71
748.514	1945.31
748.956	2897.51
749.397	3657.91
749.838	3038.51
750.279	2947.41
750.72	1507.61
751.162	556.41
751.603	328.11
752.044	260.21
752.485	220.61
752.926	212.01
753.367	206.41
753.808	202.71
754.249	190.31
754.69	186.41
755.131	184.61
755.572	191.61
756.013	192.51
756.453	190.11
756.894	188.21
757.335	195.31
757.776	201.41
758.216	203.91
758.657	207.51
759.098	201.91
759.538	230.31
759.979	271.31
760.42	389.41
760.86	746.31
761.301	1941.21
761.741	4584.81
762.182	6422.51
762.622	4481.21
763.063	1320.51
763.503	551.41
763.943	352.61
764.384	355.71
764.824	417.21
765.264	438.01
765.705	309.71
766.145	217.71
766.585	198.51
767.025	183.71
767.465	196.01
767.906	251.11
768.346	325.31
768.786	350.61
769.226	263.51
769.666	329.11
770.106	657.91
770.546	1638.61
770.986	2673.01
771.426	2370.41
771.866	797.91
772.306	328.51
772.745	213.51
773.185	183.71
773.625	176.71
774.065	170.51
774.505	198.81
774.944	319.21
775.384	703.01
775.824	1218.81
776.263	1170.21
776.703	506.81
777.142	224.61
777.582	165.41
778.021	141.21
778.461	143.91
778.9	137.61
779.34	138.01
779.779	119.41
780.219	117.91
780.658	112.11
781.097	109.81
781.537	118.91
781.976	111.71
782.415	109.01
782.855	104.91
783.294	109.61
783.733	106.71
784.172	110.31
784.611	105.61
785.05	113.41
785.489	113.31
785.928	117.21
786.367	123.61
786.806	117.61
787.245	130.41
787.684	141.21
788.123	145.61
788.562	141.71
789.001	128.01
789.44	120.01
789.879	124.01
790.317	122.41
790.756	133.21
791.195	130.81
791.634	155.71
792.072	208.31
792.511	377.11
792.95	1058.21
793.388	2160.71
793.827	1929.71
794.265	694.01
794.704	287.31
795.142	185.91
795.581	157.11
796.019	134.41
796.458	130.61
796.896	125.71
797.334	138.01
797.773	156.51
798.211	226.41
798.649	461.91
799.087	1056.51
799.526	1640.01
799.964	2050.91
800.402	2014.01
800.84	765.51
801.278	310.01
801.716	189.11
802.154	151.31
802.592	148.11
803.03	139.51
803.468	134.11
803.906	147.51
804.344	157.21
804.782	142.81
805.22	140.21
805.658	133.61
806.096	155.61
806.533	162.21
806.971	177.71
807.409	224.41
807.847	330.11
808.284	694.21
808.722	1939.71
809.16	3314.91
809.597	3216.51
810.035	5524.91
810.472	5728.41
810.91	2090.51
811.347	805.01
811.785	414.81
812.222	273.61
812.66	195.01
813.097	170.11
813.535	143.71
813.972	134.91
814.409	116.41
814.846	107.71
815.284	116.31
815.721	103.11
816.158	107.31
816.595	125.71
817.032	176.11
817.47	196.11
817.907	167.11
818.344	154.41
818.781	129.21
819.218	100.21
819.655	128.71
820.092	192.41
820.529	207.31
820.966	179.81
821.403	133.21
821.839	106.81
822.276	103.81
822.713	126.91
823.15	137.21
823.587	122.61
824.023	150.51
824.46	324.21
824.897	938.31
825.333	1349.21
825.77	579.81
826.206	231.71
826.643	139.31
827.08	105.11
827.516	89.31
827.953	83.41
828.389	81.11
828.825	73.01
829.262	66.01
829.698	65.71
830.135	63.71
830.571	67.31
831.007	62.81
831.443	62.01
831.88	58.61
832.316	71.81
832.752	64.81
833.188	62.11
833.624	65.21
834.06	67.81
834.497	70.31
834.933	77.11
835.369	73.51
835.805	64.91
836.241	77.01
836.677	86.91
837.112	90.91
837.548	107.41
837.984	140.71
838.42	212.01
838.856	519.51
839.292	1559.51
839.727	2297.91
840.163	1076.81
840.599	969.11
841.034	2076.21
841.47	2106.11
841.906	781.71
842.341	350.21
842.777	231.81
843.212	314.61
843.648	305.31
844.083	154.41
844.519	98.21
844.954	80.31
845.39	65.61
845.825	62.01
846.261	59.41
846.696	55.51
847.131	55.71
847.566	58.91
848.002	51.01
848.437	57.61
848.872	58.21
849.307	69.41
849.742	89.41
850.177	184.71
850.613	571.31
851.048	887.11
851.483	379.71
851.918	163.31
852.353	88.81
852.788	63.61
853.223	65.21
853.657	60.31
854.092	50.31
854.527	41.21
854.962	43.31
855.397	36.81
855.832	47.81
856.266	42.41
856.701	44.41
857.136	37.51
857.57	48.31
858.005	50.41
858.44	59.01
858.874	46.71
859.309	61.91
859.743	42.91
860.178	49.61
860.612	42.11
861.047	58.91
861.481	71.41
861.915	64.21
862.35	51.41
862.784	38.11
863.218	43.01
863.653	31.11
864.087	49.51
864.521	55.01
864.955	76.91
865.39	161.21
865.824	176.31
866.258	120.51
866.692	162.11
867.126	171.81
867.56	105.01
867.994	52.51
868.428	34.31
868.862	47.21
869.296	60.11
869.73	65.41
870.164	47.81
870.598	48.81
871.031	37.71
871.465	34.21
871.899	34.71
872.333	29.81
872.766	26.61
873.2	25.61
873.634	33.51
874.067	26.11
874.501	27.81
874.935	35.51
875.368	28.11
875.802	31.91
876.235	24.51
876.669	27.91
877.102	22.61
877.535	26.01
877.969	22.21
878.402	28.41
878.836	16.31
879.269	21.41
879.702	25.61
880.135	21.61
880.569	24.01
881.002	28.21
881.435	19.41
881.868	11.01
882.301	25.81
882.734	23.91
883.167	19.81
883.601	18.11
884.034	26.11
884.467	14.21
884.899	19.11
885.332	22.01
885.765	18.61
886.198	21.11
886.631	17.81
887.064	22.11
887.497	22.11
887.929	24.51
888.362	9.31
888.795	10.41
889.228	17.51
889.66	20.21
890.093	14.61
890.526	17.21
890.958	14.71
891.391	19.41
891.823	31.01
892.256	13.81
892.688	15.81
893.121	17.71
893.553	19.21
893.985	22.91
894.418	20.81
894.85	16.31
895.282	17.21
895.715	21.51
896.147	17.51
896.579	18.51
897.011	14.01
897.444	17.51
897.876	13.71
898.308	19.61
898.74	11.81
899.172	14.21
899.604	27.61
900.036	23.41
900.468	19.01
900.9	14.81
901.332	11.71
901.764	7.11
902.196	19.41
902.628	14.81
903.06	11.41
903.491	23.01
903.923	16.71
904.355	23.11
904.787	25.61
905.218	21.51
905.65	24.81
906.082	11.61
906.513	9.91
906.945	14.51
907.376	9.61
907.808	19.71
908.239	17.81
908.671	24.11
909.102	16.01
909.534	29.91
909.965	44.41
910.397	98.21
910.828	318.41
911.259	474.61
911.691	218.11
912.122	110.11
912.553	49.61
912.984	36.21
913.415	25.01
913.847	26.81
914.278	12.71
914.709	17.71
915.14	14.41
915.571	16.61
916.002	12.81
916.433	17.21
916.864	13.21
917.295	11.71
917.726	13.31
918.157	14.21
918.587	26.61
919.018	21.31
919.449	21.21
919.88	28.51
920.311	29.31
920.741	50.81
921.172	165.81
921.603	151.71
922.033	74.41
922.464	48.01
922.895	23.01
923.325	22.21
923.756	16.81
924.186	18.21
924.617	22.21
925.047	44.91
925.478	50.01
925.908	46.71
926.338	24.41
926.769	20.91
927.199	21.61
927.629	13.21
928.06	13.71
928.49	12.21
928.92	11.01
929.35	10.01
929.78	8.81
930.21	7.21
930.641	4.61
931.071	8.71
931.501	5.91
931.931	12.01
932.361	8.71
932.791	5.21
933.221	6.11
933.651	4.41
934.08	12.21
934.51	30.91
934.94	8.41
935.37	5.61
935.8	11.31
936.229	5.11
936.659	18.31
937.089	-0.09
937.519	18.51
937.948	25.71
938.378	16.71
938.807	1.91
939.237	4.71
939.666	4.21
940.096	0.31
940.525	3.31
940.955	3.91
941.384	5.21
941.814	-7.39
942.243	-4.39
942.672	1.01
943.102	0.11
943.531	4.71
943.96	5.31
944.39	8.11
944.819	3.81
945.248	5.11
945.677	3.11
946.106	7.41
946.535	6.81
946.964	1.41
947.393	5.41
947.822	2.21
948.251	-1.59
948.68	2.71
949.109	2.41
949.538	6.91
949.967	6.41
950.396	-0.49
950.825	-1.49
951.254	1.61
951.682	-6.29
952.111	6.71
952.54	9.71
952.969	0.41
953.397	-3.39
953.826	5.01
954.254	-5.39
954.683	-1.09
955.112	-1.99
955.54	4.41
955.969	6.91
956.397	3.61
956.826	-0.79
957.254	0.31
957.682	2.81
958.111	6.21
958.539	4.21
958.967	2.91
959.396	-1.39
959.824	-1.19
960.252	4.11
960.68	-7.09
961.109	-0.69
961.537	-1.39
961.965	-0.89
962.393	-2.19
962.821	-6.79
963.249	2.71
963.677	0.91
964.105	2.61
964.533	49.81
964.961	35.91
965.389	18.21
965.817	3.41
966.245	6.31
966.672	5.31
967.1	-6.89
967.528	0.41
967.956	-8.59
968.383	-0.59
968.811	1.71
969.239	-0.29
969.666	-3.39
970.094	-0.69
970.522	-2.09
970.949	-4.29
971.377	0.61
971.804	-6.09
972.232	-1.59
972.659	-6.29
973.087	-6.19
973.514	-6.09
973.941	1.81
974.369	0.61
974.796	1.31
975.223	2.51
975.651	-4.69
976.078	-1.49
976.505	4.01
976.932	4.41
977.359	10.81
977.786	12.51
978.214	0.71
978.641	0.01
979.068	-9.59
979.495	-5.49
979.922	-6.99
980.349	-5.19
980.776	2.91
981.202	-0.39
981.629	5.01
982.056	1.31
982.483	-5.79
982.91	-1.09
983.337	-7.29
983.763	3.81
984.19	-9.79
984.617	-3.49
985.043	-7.09
985.47	-0.29
985.897	-8.29
986.323	-4.29
986.75	0.01
987.176	-2.59
987.603	2.71
988.029	-1.59
988.456	-3.09
988.882	0.91
989.308	-2.59
989.735	-3.69
990.161	-0.29
990.587	-3.69
991.014	-0.59
991.44	7.51
991.866	-2.89
992.292	-3.59
992.719	-3.49
993.145	2.31
993.571	-7.89
993.997	2.41
994.423	-4.19
994.849	-5.39
995.275	4.21
995.701	-0.69
996.127	2.81
996.553	1.21
996.979	3.01
997.405	-3.39
997.83	-2.89
998.256	-3.39
998.682	-7.09
999.108	-9.59
999.534	-0.29
999.959	-1.39
1000.385	-6.19
1000.811	-4.89
1001.236	-4.29
1001.662	-4.79
1002.087	-10.29
1002.513	-3.09
1002.938	5.81
1003.364	-6.09
1003.789	5.01
1004.215	4.11
1004.64	-1.89
1005.066	-1.79
1005.491	3.11
1005.916	-3.49
1006.342	-1.29
1006.767	-6.09
1007.192	2.41
1007.617	-4.19
1008.042	-8.59
1008.468	-4.39
1008.893	-6.39
1009.318	-1.69
1009.743	-3.19
1010.168	4.71
1010.593	-2.79
1011.018	-3.89
1011.443	-0.79
1011.868	2.11
1012.293	-1.59
1012.718	-7.89
1013.143	-0.09
1013.567	-2.69
1013.992	-1.89
1014.417	-14.39
1014.842	0.21
1015.267	-5.69
1015.691	-0.29
1016.116	6.31
1016.541	-1.99
1016.965	4.31
1017.39	5.61
1017.814	1.91
1018.239	-1.69
1018.663	-8.79
1019.088	-9.49
1019.512	-5.19
1019.937	-0.79
1020.361	-2.69
1020.785	-4.49
1021.21	-0.19
1021.634	-6.19
1022.058	-0.49
1022.483	-0.09
1022.907	-2.99
1023.331	-0.79
1023.755	0.81
1024.179	0.61
1024.604	-7.99
1025.028	-7.39
1025.452	-3.69
1025.876	-4.29
1026.3	0.51
1026.724	-12.69
1027.148	-3.79
1027.572	-2.59
1027.996	-1.29
1028.42	-2.89
1028.843	-4.49
1029.267	0.51
1029.691	-3.19
1030.115	-8.79
1030.539	-7.99
1030.962	-8.99
1031.386	-13.29
1031.81	0.41
1032.233	1.41
1032.657	-3.29
1033.08	-1.79
1033.504	-3.79
1033.927	-5.69
1034.351	-1.89
1034.774	-2.19
1035.198	-1.19
1035.621	-8.79
1036.045	-9.99
1036.468	-4.39
1036.891	-10.39
1037.315	-9.69
1037.738	-7.59
1038.161	2.41
1038.584	-9.69
1039.008	-0.69
1039.431	-3.89
1039.854	-1.49
1040.277	-5.69
1040.7	-7.19
1041.123	0.01
1041.546	-9.69
1041.969	0.11
1042.392	-12.09
1042.815	-7.39
1043.238	-0.49
1043.661	-1.69
1044.084	-10.39
1044.507	-3.09
1044.93	-6.49
1045.352	-9.19
1045.775	-1.79
1046.198	-0.59
1046.621	3.61
1047.043	-1.39
1047.466	11.41
1047.889	-1.69
1048.311	-7.09
1048.734	-3.29
1049.156	-6.39
1049.579	-1.89
1050.001	-2.89
1050.424	-1.89
1050.846	-3.39
1051.269	1.11
1051.691	-5.49
1052.113	-4.39
1052.536	-4.89
1052.958	0.11
1053.38	-1.69
1053.802	-10.09
1054.225	1.71
1054.647	-9.19
1055.069	-7.89
1055.491	-1.79
1055.913	-3.79
1056.335	-6.89
1056.757	-6.19
1057.179	-6.19
1057.601	-2.09
1058.023	-5.89
1058.445	-9.29
1058.867	-3.09
1059.289	-2.99
1059.711	-9.79
1060.133	-0.49
1060.555	-8.59
1060.976	-13.09
1061.398	-6.49
1061.82	-9.39
1062.241	-7.39
1062.663	-8.09
1063.085	-4.19
1063.506	1.31
1063.928	-4.49
1064.35	-2.59
1064.771	-13.59
1065.193	-5.89
1065.614	-13.19
1066.035	-8.39
1066.457	-3.99
1066.878	0.11
1067.3	-6.29
1067.721	-3.79
1068.142	-2.29
1068.564	-4.89
1068.985	-8.09
1069.406	-6.99
1069.827	-0.99
1070.248	2.51
1070.67	-4.99
1071.091	-6.79
1071.512	-10.79
1071.933	-5.19
1072.354	-8.29
1072.775	-2.99
1073.196	-8.99
1073.617	1.11
1074.038	-4.09
1074.459	-7.69
1074.88	-9.19
1075.3	0.91
1075.721	-5.89
1076.142	0.31
1076.563	2.01
1076.983	-9.19
1077.404	-5.99
1077.825	-1.99
1078.246	-3.19
1078.666	-11.79
1079.087	-3.09
1079.507	-5.29
1079.928	1.51
1080.348	-3.59
1080.769	0.21
1081.189	1.61
1081.61	-0.19
1082.03	-8.19
1082.451	-9.79
1082.871	-4.49
1083.291	-10.89
1083.711	-12.09
1084.132	-8.39
1084.552	-1.19
1084.972	-2.09
1085.392	-10.99
1085.813	-7.69
1086.233	-6.49
1086.653	-5.59
1087.073	-4.19
1087.493	-13.79
1087.913	-8.49
1088.333	-5.19
1088.753	-12.09
1089.173	3.11
1089.593	-0.69
1090.013	-1.19
1090.433	-1.79
1090.852	-5.09
1091.272	-3.09
1091.692	-6.29
1092.112	-4.99
1092.531	-12.89
1092.951	-11.59
1093.371	-3.29
1093.79	5.31
1094.21	-4.49
1094.63	-2.09
1095.049	-4.79
1095.469	-0.99
1095.888	-5.49
1096.308	2.41
1096.727	4.21
1097.146	-6.09
1097.566	-2.89
1097.985	0.21
1098.405	-1.49
1098.824	-5.39
1099.243	-5.59
1099.662	-10.39
1100.082	-2.09
1100.501	1.51
1100.92	-6.69
1101.339	-2.79
1101.758	-3.59
