Data from 20171114-ORNL-Ar_H_NY_Subt18_08-05-35-693.txt Node
Date: Tue Nov 14 08:05:35 EST 2017
User: Ender
Spectrometer: HR+D1039
Trigger mode: 0
Integration Time (sec): 2.730000E-2
Scans to average: 10
Electric dark correction enabled: true
Nonlinearity correction enabled: false
Boxcar width: 0
XAxis mode: Wavelengths
Number of Pixels in Spectrum: 2048
>>>>>Begin Spectral Data<<<<<
187.836	-1.32
188.309	-1.32
188.782	-1.32
189.255	-7.12
189.728	-0.62
190.201	6.28
190.674	0.08
191.147	2.68
191.619	-3.42
192.092	-1.82
192.565	2.58
193.038	-1.92
193.511	-3.62
193.984	1.48
194.456	1.58
194.929	4.48
195.402	-1.02
195.874	1.68
196.347	2.08
196.82	-6.02
197.292	9.18
197.765	-4.02
198.237	-8.22
198.71	1.68
199.182	-2.72
199.655	3.78
200.127	1.98
200.6	-2.72
201.072	-2.52
201.544	-0.72
202.017	-6.32
202.489	1.58
202.961	-2.72
203.433	-2.42
203.906	-4.32
204.378	-2.32
204.85	-0.22
205.322	-7.42
205.794	3.98
206.266	-1.32
206.739	-5.22
207.211	-0.22
207.683	-6.32
208.155	-0.52
208.627	-12.52
209.099	-1.22
209.57	-10.22
210.042	0.38
210.514	-4.52
210.986	-2.02
211.458	-9.52
211.93	-5.02
212.402	1.38
212.873	-4.22
213.345	-9.72
213.817	-7.42
214.288	-0.72
214.76	-16.12
215.232	-3.92
215.703	-2.92
216.175	-5.52
216.646	-6.42
217.118	-4.32
217.589	-6.92
218.061	-1.52
218.532	-2.22
219.004	-0.22
219.475	-3.92
219.946	3.18
220.418	-3.02
220.889	3.88
221.36	2.68
221.832	-2.32
222.303	-13.42
222.774	-3.12
223.245	-4.62
223.717	-5.72
224.188	-6.12
224.659	-2.22
225.13	-8.42
225.601	-0.32
226.072	2.08
226.543	-1.52
227.014	2.08
227.485	-1.12
227.956	-12.62
228.427	-3.92
228.898	2.58
229.369	2.58
229.839	-0.42
230.31	-10.22
230.781	1.18
231.252	-0.82
231.722	-9.92
232.193	-5.02
232.664	0.08
233.135	1.98
233.605	1.28
234.076	-6.22
234.546	0.38
235.017	7.68
235.487	2.48
235.958	3.78
236.428	-5.92
236.899	0.78
237.369	0.48
237.84	-3.92
238.31	15.28
238.78	4.18
239.251	6.18
239.721	7.08
240.191	6.68
240.662	-0.02
241.132	0.18
241.602	-2.72
242.072	5.28
242.542	5.98
243.013	1.78
243.483	5.78
243.953	4.98
244.423	0.78
244.893	-0.22
245.363	5.48
245.833	4.28
246.303	4.18
246.773	2.68
247.243	5.38
247.712	3.38
248.182	10.28
248.652	8.18
249.122	-0.82
249.592	12.38
250.061	22.38
250.531	34.58
251.001	18.98
251.471	22.98
251.94	18.88
252.41	-1.92
252.879	1.68
253.349	13.18
253.818	10.28
254.288	3.38
254.757	9.58
255.227	5.98
255.696	3.28
256.166	4.58
256.635	3.68
257.105	10.88
257.574	9.98
258.043	10.08
258.513	17.08
258.982	16.88
259.451	12.08
259.92	15.68
260.389	16.68
260.859	15.48
261.328	10.78
261.797	18.18
262.266	11.58
262.735	14.28
263.204	2.18
263.673	6.18
264.142	9.28
264.611	-2.32
265.08	6.38
265.549	4.08
266.018	6.58
266.487	-1.62
266.955	1.38
267.424	2.58
267.893	7.58
268.362	-0.02
268.83	8.38
269.299	10.58
269.768	3.38
270.236	11.38
270.705	3.98
271.174	16.48
271.642	8.58
272.111	11.48
272.579	21.88
273.048	26.38
273.516	24.68
273.985	27.28
274.453	27.08
274.922	24.18
275.39	14.38
275.858	7.18
276.327	15.98
276.795	20.28
277.263	10.48
277.731	35.18
278.2	59.68
278.668	62.68
279.136	54.58
279.604	17.48
280.072	19.28
280.54	20.98
281.008	11.98
281.477	16.68
281.945	12.68
282.413	18.58
282.881	19.58
283.348	4.58
283.816	21.78
284.284	13.18
284.752	12.98
285.22	6.38
285.688	16.88
286.156	21.18
286.623	45.38
287.091	61.38
287.559	29.58
288.026	18.28
288.494	19.78
288.962	5.08
289.429	12.38
289.897	20.28
290.364	15.98
290.832	23.38
291.3	10.48
291.767	18.98
292.234	23.58
292.702	13.88
293.169	26.38
293.637	21.08
294.104	20.88
294.571	10.78
295.039	15.98
295.506	16.78
295.973	19.58
296.44	13.78
296.908	26.48
297.375	12.98
297.842	25.28
298.309	20.18
298.776	13.98
299.243	23.78
299.71	16.28
300.177	20.48
300.644	24.38
301.111	23.58
301.578	26.08
302.045	20.58
302.512	27.38
302.979	23.08
303.446	18.38
303.913	20.68
304.379	23.88
304.846	30.28
305.313	28.78
305.78	28.78
306.246	30.48
306.713	31.58
307.18	27.18
307.646	31.48
308.113	32.18
308.579	26.88
309.046	26.48
309.512	27.38
309.979	19.48
310.445	29.48
310.912	30.08
311.378	36.38
311.845	33.98
312.311	32.38
312.777	35.68
313.244	33.08
313.71	41.08
314.176	32.38
314.642	35.38
315.109	30.98
315.575	40.68
316.041	43.38
316.507	36.48
316.973	43.98
317.439	45.28
317.905	37.88
318.371	42.68
318.837	34.58
319.303	40.78
319.769	37.58
320.235	40.58
320.701	38.88
321.167	38.78
321.633	34.88
322.099	40.48
322.564	46.28
323.03	40.88
323.496	39.88
323.962	42.98
324.427	43.98
324.893	43.38
325.359	44.48
325.824	40.78
326.29	42.88
326.755	40.08
327.221	43.28
327.686	42.28
328.152	45.18
328.617	47.88
329.083	43.78
329.548	60.78
330.014	51.08
330.479	43.98
330.944	43.48
331.41	47.78
331.875	49.18
332.34	46.98
332.805	47.28
333.271	53.48
333.736	51.08
334.201	54.28
334.666	52.98
335.131	58.58
335.596	54.58
336.061	51.28
336.526	49.18
336.991	47.08
337.456	60.98
337.921	51.88
338.386	47.98
338.851	48.48
339.316	45.78
339.781	56.68
340.246	54.08
340.711	53.68
341.175	55.98
341.64	45.38
342.105	47.38
342.569	58.98
343.034	63.08
343.499	57.88
343.963	60.98
344.428	64.48
344.893	64.58
345.357	56.38
345.822	61.38
346.286	68.08
346.751	74.88
347.215	68.48
347.679	77.28
348.144	100.78
348.608	88.28
349.073	80.68
349.537	82.18
350.001	92.08
350.465	94.28
350.93	84.78
351.394	92.58
351.858	75.98
352.322	90.08
352.786	87.78
353.25	103.48
353.715	118.78
354.179	99.88
354.643	131.48
355.107	130.78
355.571	113.08
356.035	103.88
356.498	124.88
356.962	125.28
357.426	132.78
357.89	118.58
358.354	91.18
358.818	86.18
359.281	89.28
359.745	76.98
360.209	77.78
360.673	81.18
361.136	89.48
361.6	87.38
362.064	83.28
362.527	88.78
362.991	95.48
363.454	81.48
363.918	81.68
364.381	87.68
364.845	81.38
365.308	88.38
365.772	86.98
366.235	87.88
366.698	77.68
367.162	89.68
367.625	88.78
368.088	91.48
368.552	86.98
369.015	92.38
369.478	100.88
369.941	103.98
370.404	96.38
370.867	102.98
371.331	110.98
371.794	116.58
372.257	112.78
372.72	119.28
373.183	108.48
373.646	102.28
374.109	99.68
374.572	105.78
375.035	105.28
375.497	114.78
375.96	106.38
376.423	109.58
376.886	113.48
377.349	114.38
377.811	103.78
378.274	107.98
378.737	103.58
379.199	114.28
379.662	117.18
380.125	123.58
380.587	115.48
381.05	121.08
381.512	128.48
381.975	140.18
382.437	130.68
382.9	128.48
383.362	133.98
383.825	141.68
384.287	150.48
384.75	142.58
385.212	140.38
385.674	142.68
386.136	141.58
386.599	131.48
387.061	123.08
387.523	130.08
387.985	137.18
388.447	149.28
388.91	148.28
389.372	153.78
389.834	144.38
390.296	148.08
390.758	155.58
391.22	170.48
391.682	206.28
392.144	295.68
392.606	231.18
393.068	165.78
393.529	169.58
393.991	155.38
394.453	147.58
394.915	154.18
395.377	181.98
395.838	208.58
396.3	158.08
396.762	144.68
397.224	133.58
397.685	134.28
398.147	135.68
398.608	126.98
399.07	134.28
399.531	133.28
399.993	149.78
400.454	153.68
400.916	144.18
401.377	148.58
401.839	149.48
402.3	151.48
402.762	161.38
403.223	185.38
403.684	168.48
404.145	164.88
404.607	166.28
405.068	167.78
405.529	177.48
405.99	187.08
406.451	175.88
406.913	170.88
407.374	163.88
407.835	162.98
408.296	165.18
408.757	172.58
409.218	184.98
409.679	183.08
410.14	179.48
410.601	182.18
411.062	179.48
411.522	192.48
411.983	192.18
412.444	183.18
412.905	183.98
413.366	179.68
413.826	198.48
414.287	217.78
414.748	267.88
415.208	239.88
415.669	218.88
416.13	204.08
416.59	200.38
417.051	208.38
417.511	222.38
417.972	232.48
418.432	248.88
418.893	286.98
419.353	259.58
419.814	206.88
420.274	179.78
420.734	186.38
421.195	202.48
421.655	196.18
422.115	191.98
422.576	196.68
423.036	203.58
423.496	210.38
423.956	218.18
424.416	234.18
424.876	271.98
425.336	264.58
425.797	262.88
426.257	256.68
426.717	238.38
427.177	237.98
427.637	223.18
428.097	237.48
428.556	247.08
429.016	264.28
429.476	268.48
429.936	273.48
430.396	275.08
430.856	294.48
431.315	315.08
431.775	355.28
432.235	377.68
432.694	359.58
433.154	367.58
433.614	389.58
434.073	342.18
434.533	287.88
434.993	282.08
435.452	287.98
435.912	292.38
436.371	285.38
436.83	282.68
437.29	274.28
437.749	251.38
438.209	248.68
438.668	275.48
439.127	291.28
439.587	267.38
440.046	255.18
440.505	266.18
440.964	278.58
441.424	326.78
441.883	317.08
442.342	267.08
442.801	230.78
443.26	219.88
443.719	225.58
444.178	220.48
444.637	218.18
445.096	215.48
445.555	217.18
446.014	227.98
446.473	230.08
446.932	231.88
447.391	225.98
447.849	232.78
448.308	211.68
448.767	222.88
449.226	234.68
449.685	232.88
450.143	254.28
450.602	240.58
451.061	232.98
451.519	233.58
451.978	233.08
452.436	232.58
452.895	242.28
453.353	248.88
453.812	244.68
454.27	241.58
454.729	237.38
455.187	243.78
455.646	241.08
456.104	257.88
456.562	272.98
457.021	277.48
457.479	257.28
457.937	273.88
458.395	264.38
458.854	258.28
459.312	265.98
459.77	277.38
460.228	256.48
460.686	247.98
461.144	245.98
461.602	248.88
462.06	240.68
462.518	260.58
462.976	248.78
463.434	263.98
463.892	273.38
464.35	279.58
464.808	300.18
465.266	269.58
465.724	272.18
466.181	269.78
466.639	280.18
467.097	290.88
467.555	305.18
468.012	303.58
468.47	316.88
468.928	334.98
469.385	343.68
469.843	346.98
470.3	346.08
470.758	364.18
471.215	385.98
471.673	408.78
472.13	411.38
472.588	419.18
473.045	382.48
473.503	378.18
473.96	398.98
474.417	408.78
474.875	437.48
475.332	480.58
475.789	461.28
476.246	477.48
476.704	491.98
477.161	508.68
477.618	533.78
478.075	561.78
478.532	622.28
478.989	700.48
479.446	825.68
479.903	781.88
480.36	826.28
480.817	869.88
481.274	976.58
481.731	1082.88
482.188	1180.68
482.645	1310.18
483.102	1434.48
483.558	1563.78
484.015	1637.48
484.472	1584.08
484.929	1538.18
485.385	1498.68
485.842	1457.88
486.299	1380.68
486.755	1330.88
487.212	1114.08
487.668	937.38
488.125	872.08
488.582	786.48
489.038	754.98
489.494	721.98
489.951	702.58
490.407	679.88
490.864	651.68
491.32	654.58
491.776	645.28
492.233	653.18
492.689	625.18
493.145	619.88
493.602	605.88
494.058	622.78
494.514	617.78
494.97	634.78
495.426	656.38
495.882	627.48
496.338	619.38
496.794	641.98
497.251	633.68
497.707	652.78
498.163	643.38
498.618	654.78
499.074	664.58
499.53	690.38
499.986	681.28
500.442	663.18
500.898	645.38
501.354	632.28
501.809	644.48
502.265	654.98
502.721	678.48
503.177	687.08
503.632	663.68
504.088	682.18
504.543	723.48
504.999	720.78
505.455	671.58
505.91	649.98
506.366	642.98
506.821	632.28
507.277	630.68
507.732	637.48
508.187	635.78
508.643	642.28
509.098	643.68
509.553	658.78
510.009	662.68
510.464	674.98
510.919	696.28
511.375	704.58
511.83	712.48
512.285	724.78
512.74	767.38
513.195	796.58
513.65	785.18
514.105	784.28
514.56	783.38
515.015	798.48
515.47	816.68
515.925	815.98
516.38	800.58
516.835	799.78
517.29	796.98
517.745	781.78
518.2	770.98
518.655	756.28
519.109	749.28
519.564	751.58
520.019	739.58
520.474	734.88
520.928	728.28
521.383	739.18
521.838	716.98
522.292	726.58
522.747	715.38
523.201	706.18
523.656	701.68
524.11	704.48
524.565	700.98
525.019	703.18
525.474	711.78
525.928	704.98
526.382	697.08
526.837	698.58
527.291	712.38
527.745	714.28
528.2	700.68
528.654	697.08
529.108	694.88
529.562	694.98
530.016	694.88
530.47	697.98
530.925	703.68
531.379	713.98
531.833	723.38
532.287	716.48
532.741	710.58
533.195	714.68
533.649	725.58
534.103	725.08
534.556	720.78
535.01	706.78
535.464	711.88
535.918	734.48
536.372	730.98
536.826	725.68
537.279	714.38
537.733	725.38
538.187	718.98
538.64	720.58
539.094	732.18
539.548	732.28
540.001	728.88
540.455	725.98
540.908	729.98
541.362	735.78
541.815	737.68
542.269	758.18
542.722	767.18
543.175	769.68
543.629	774.48
544.082	797.18
544.536	789.58
544.989	784.58
545.442	789.68
545.895	787.48
546.349	793.18
546.802	805.38
547.255	801.68
547.708	797.98
548.161	819.98
548.614	828.08
549.067	836.58
549.52	831.58
549.973	807.38
550.426	809.78
550.879	792.48
551.332	800.18
551.785	809.58
552.238	816.08
552.691	817.88
553.144	831.68
553.596	837.28
554.049	860.18
554.502	888.38
554.955	913.68
555.407	919.58
555.86	912.68
556.313	891.28
556.765	877.08
557.218	893.68
557.67	891.78
558.123	876.18
558.576	880.08
559.028	889.68
559.48	893.58
559.933	874.48
560.385	844.78
560.838	810.58
561.29	775.58
561.742	779.58
562.195	772.58
562.647	772.88
563.099	771.18
563.551	766.38
564.004	782.78
564.456	777.88
564.908	764.08
565.36	739.18
565.812	736.08
566.264	729.18
566.716	727.68
567.168	711.08
567.62	727.28
568.072	706.38
568.524	694.28
568.976	687.38
569.428	676.48
569.88	674.98
570.332	685.68
570.784	683.68
571.235	682.08
571.687	696.88
572.139	707.28
572.59	712.88
573.042	704.78
573.494	711.68
573.945	707.68
574.397	688.08
574.849	687.48
575.3	691.18
575.752	684.38
576.203	681.88
576.655	690.08
577.106	671.58
577.557	667.18
578.009	671.48
578.46	667.58
578.912	660.98
579.363	668.98
579.814	666.78
580.265	657.08
580.717	670.08
581.168	668.68
581.619	676.88
582.07	687.88
582.521	672.38
582.972	661.48
583.423	673.78
583.875	679.48
584.326	696.88
584.777	740.88
585.227	814.08
585.678	907.18
586.129	985.08
586.58	1056.08
587.031	1140.58
587.482	1293.68
587.933	1478.38
588.384	1282.38
588.834	965.38
589.285	791.88
589.736	770.28
590.186	767.88
590.637	755.98
591.088	745.98
591.538	722.98
591.989	730.28
592.439	720.18
592.89	716.98
593.34	701.78
593.791	703.18
594.241	701.98
594.692	693.38
595.142	707.28
595.593	697.28
596.043	693.98
596.493	704.88
596.943	709.58
597.394	712.88
597.844	708.98
598.294	719.28
598.744	737.78
599.195	768.88
599.645	803.48
600.095	847.88
600.545	906.38
600.995	955.48
601.445	1018.18
601.895	1074.18
602.345	1121.78
602.795	1102.08
603.245	1059.78
603.695	995.88
604.145	951.78
604.594	907.08
605.044	848.08
605.494	802.18
605.944	736.68
606.393	736.38
606.843	720.48
607.293	723.18
607.743	728.18
608.192	742.78
608.642	750.28
609.091	742.18
609.541	755.98
609.99	753.68
610.44	754.88
610.889	715.78
611.339	673.78
611.788	677.88
612.238	682.98
612.687	710.58
613.136	704.18
613.586	721.88
614.035	730.48
614.484	742.88
614.933	743.78
615.383	742.08
615.832	724.08
616.281	711.48
616.73	679.48
617.179	656.48
617.628	628.38
618.077	618.18
618.526	613.58
618.975	604.68
619.424	602.38
619.873	604.78
620.322	603.78
620.771	599.48
621.22	591.08
621.669	587.68
622.118	575.38
622.567	574.08
623.015	552.88
623.464	556.58
623.913	548.38
624.361	543.78
624.81	545.98
625.259	539.98
625.707	556.08
626.156	545.58
626.604	562.38
627.053	557.08
627.501	558.78
627.95	562.98
628.398	563.48
628.847	564.48
629.295	545.58
629.744	566.38
630.192	564.58
630.64	552.18
631.089	545.68
631.537	563.78
631.985	571.98
632.433	583.88
632.881	592.18
633.33	638.48
633.778	619.78
634.226	545.58
634.674	551.18
635.122	560.18
635.57	582.68
636.018	604.68
636.466	560.88
636.914	545.58
637.362	550.98
637.81	561.18
638.258	561.78
638.705	565.08
639.153	589.48
639.601	592.88
640.049	625.78
640.497	649.48
640.944	672.58
641.392	626.68
641.84	598.78
642.287	575.28
642.735	559.68
643.182	561.48
643.63	559.18
644.078	559.78
644.525	577.88
644.973	580.28
645.42	583.48
645.867	611.88
646.315	618.68
646.762	643.98
647.21	676.58
647.657	690.58
648.104	724.18
648.551	751.68
648.999	815.78
649.446	894.68
649.893	977.38
650.34	1131.18
650.787	1357.18
651.234	1669.88
651.682	2175.78
652.129	2983.78
652.576	4288.88
653.023	6315.18
653.47	8669.18
653.917	10891.48
654.363	12680.28
654.81	14058.88
655.257	13385.78
655.704	8759.18
656.151	5169.48
656.598	3351.18
657.044	2363.78
657.491	1810.58
657.938	1461.88
658.385	1220.38
658.831	1050.68
659.278	945.78
659.724	822.78
660.171	765.88
660.618	700.88
661.064	666.28
661.511	654.18
661.957	640.78
662.404	637.88
662.85	634.38
663.296	602.78
663.743	545.58
664.189	525.28
664.635	512.08
665.082	512.78
665.528	513.08
665.974	505.88
666.42	497.28
666.867	495.68
667.313	479.38
667.759	470.18
668.205	462.98
668.651	469.68
669.097	467.48
669.543	479.98
669.989	454.88
670.435	431.08
670.881	429.38
671.327	438.18
671.773	453.78
672.219	472.58
672.665	513.98
673.11	557.98
673.556	602.78
674.002	638.48
674.448	630.58
674.893	532.68
675.339	459.78
675.785	420.58
676.23	398.48
676.676	385.08
677.122	371.98
677.567	354.68
678.013	347.68
678.458	348.28
678.904	346.38
679.349	328.88
679.794	346.18
680.24	338.48
680.685	335.18
681.131	334.78
681.576	335.28
682.021	341.08
682.466	335.78
682.912	327.68
683.357	342.48
683.802	367.88
684.247	392.78
684.692	430.78
685.137	479.48
685.583	512.38
686.028	548.78
686.473	497.78
686.918	430.88
687.363	402.48
687.807	378.48
688.252	351.48
688.697	337.68
689.142	317.88
689.587	325.28
690.032	308.68
690.477	325.18
690.921	335.68
691.366	366.38
691.811	385.58
692.255	414.28
692.7	443.98
693.145	472.08
693.589	659.28
694.034	1067.88
694.478	1464.78
694.923	1679.58
695.367	2200.78
695.812	1154.58
696.256	478.18
696.701	357.48
697.145	322.48
697.59	312.98
698.034	309.38
698.478	317.68
698.922	311.68
699.367	313.48
699.811	321.08
700.255	343.28
700.699	376.28
701.143	405.28
701.588	457.78
702.032	496.88
702.476	495.68
702.92	468.88
703.364	460.28
703.808	593.58
704.252	974.48
704.696	1386.68
705.14	1606.88
705.584	2050.08
706.027	1025.88
706.471	505.28
706.915	377.88
707.359	341.68
707.803	306.08
708.246	294.18
708.69	299.68
709.134	304.68
709.577	305.58
710.021	298.18
710.465	296.88
710.908	285.78
711.352	288.98
711.795	296.38
712.239	335.08
712.682	371.88
713.126	407.38
713.569	448.48
714.012	354.68
714.456	308.88
714.899	288.38
715.342	268.88
715.786	252.88
716.229	249.18
716.672	240.48
717.115	238.48
717.558	236.68
718.002	234.08
718.445	255.38
718.888	269.58
719.331	275.28
719.774	290.48
720.217	294.78
720.66	269.98
721.103	256.58
721.546	241.08
721.989	239.08
722.432	213.68
722.874	226.98
723.317	222.78
723.76	225.18
724.203	245.18
724.645	302.58
725.088	421.88
725.531	543.18
725.974	616.88
726.416	520.88
726.859	297.58
727.301	232.58
727.744	234.48
728.187	224.18
728.629	227.08
729.071	225.08
729.514	241.78
729.956	256.18
730.399	278.28
730.841	271.38
731.283	263.68
731.726	257.58
732.168	250.88
732.61	247.98
733.053	271.48
733.495	304.18
733.937	333.18
734.379	376.28
734.821	409.88
735.263	508.68
735.705	775.88
736.148	1457.68
736.59	2444.38
737.032	2924.88
737.474	2396.18
737.916	768.38
738.357	417.28
738.799	304.78
739.241	283.58
739.683	270.28
740.125	279.88
740.567	280.28
741.008	302.68
741.45	300.78
741.892	298.28
742.334	325.88
742.775	335.68
743.217	321.68
743.658	261.78
744.1	245.78
744.542	245.28
744.983	292.98
745.425	332.38
745.866	325.18
746.307	271.58
746.749	267.18
747.19	311.98
747.632	429.68
748.073	819.68
748.514	1745.78
748.956	2702.88
749.397	3375.18
749.838	2821.18
750.279	2846.78
750.72	1430.68
751.162	523.28
751.603	310.08
752.044	236.78
752.485	200.78
752.926	202.58
753.367	187.98
753.808	179.08
754.249	188.78
754.69	170.58
755.131	171.98
755.572	173.58
756.013	171.18
756.453	171.48
756.894	177.68
757.335	177.78
757.776	182.28
758.216	187.78
758.657	192.58
759.098	193.28
759.538	215.08
759.979	252.88
760.42	343.88
760.86	647.98
761.301	1686.18
761.741	4142.48
762.182	6187.48
762.622	4361.88
763.063	1254.48
763.503	515.48
763.943	324.78
764.384	329.38
764.824	386.88
765.264	420.48
765.705	288.68
766.145	204.68
766.585	175.88
767.025	170.88
767.465	174.98
767.906	228.58
768.346	303.28
768.786	332.18
769.226	245.28
769.666	297.28
770.106	566.58
770.546	1437.58
770.986	2525.68
771.426	2291.28
771.866	752.88
772.306	303.48
772.745	198.78
773.185	170.78
773.625	157.38
774.065	158.38
774.505	186.58
774.944	284.68
775.384	622.08
775.824	1151.08
776.263	1143.18
776.703	482.18
777.142	204.68
777.582	152.08
778.021	134.48
778.461	128.48
778.9	129.18
779.34	126.18
779.779	108.98
780.219	105.28
780.658	104.98
781.097	105.78
781.537	106.58
781.976	101.68
782.415	100.48
782.855	99.28
783.294	96.08
783.733	92.38
784.172	102.68
784.611	102.38
785.05	103.68
785.489	107.88
785.928	114.18
786.367	113.88
786.806	114.88
787.245	128.18
787.684	132.18
788.123	143.28
788.562	130.58
789.001	118.18
789.44	115.18
789.879	114.98
790.317	115.28
790.756	124.68
791.195	125.08
791.634	140.48
792.072	188.18
792.511	338.38
792.95	924.48
793.388	2009.48
793.827	1868.08
794.265	650.78
794.704	268.38
795.142	170.48
795.581	146.58
796.019	126.78
796.458	121.68
796.896	113.08
797.334	126.78
797.773	143.88
798.211	203.98
798.649	404.38
799.087	952.68
799.526	1500.78
799.964	1898.98
800.402	1936.88
800.84	718.48
801.278	289.18
801.716	175.78
802.154	144.58
802.592	133.28
803.03	131.18
803.468	124.58
803.906	136.28
804.344	137.78
804.782	138.98
805.22	127.18
805.658	122.48
806.096	131.88
806.533	154.28
806.971	168.68
807.409	208.18
807.847	303.68
808.284	605.48
808.722	1747.68
809.16	3141.88
809.597	2930.78
810.035	5095.78
810.472	5568.88
810.91	1991.68
811.347	755.28
811.785	383.68
812.222	246.78
812.66	182.98
813.097	161.58
813.535	137.38
813.972	126.88
814.409	111.38
814.846	102.38
815.284	102.98
815.721	90.58
816.158	97.38
816.595	113.18
817.032	171.08
817.47	185.98
817.907	159.88
818.344	138.98
818.781	110.08
819.218	90.88
819.655	120.98
820.092	180.28
820.529	206.08
820.966	167.68
821.403	131.88
821.839	110.28
822.276	99.88
822.713	116.48
823.15	127.98
823.587	104.78
824.023	140.68
824.46	278.68
824.897	830.48
825.333	1313.88
825.77	559.88
826.206	219.08
826.643	129.58
827.08	100.18
827.516	83.28
827.953	70.58
828.389	74.58
828.825	71.98
829.262	65.68
829.698	62.58
830.135	60.18
830.571	60.98
831.007	59.78
831.443	59.08
831.88	55.98
832.316	57.08
832.752	62.68
833.188	64.98
833.624	56.38
834.06	55.18
834.497	66.88
834.933	74.78
835.369	71.38
835.805	64.98
836.241	75.38
836.677	78.18
837.112	89.58
837.548	98.38
837.984	127.38
838.42	190.18
838.856	457.18
839.292	1403.48
839.727	2210.68
840.163	1022.58
840.599	860.98
841.034	1918.98
841.47	2034.98
841.906	741.58
842.341	317.18
842.777	221.48
843.212	295.38
843.648	299.78
844.083	145.78
844.519	93.08
844.954	68.98
845.39	56.68
845.825	56.68
846.261	52.28
846.696	52.58
847.131	52.28
847.566	55.08
848.002	45.98
848.437	55.88
848.872	57.68
849.307	65.78
849.742	77.78
850.177	168.28
850.613	515.68
851.048	843.38
851.483	367.18
851.918	141.28
852.353	86.58
852.788	56.48
853.223	49.98
853.657	50.88
854.092	44.38
854.527	46.18
854.962	36.78
855.397	42.68
855.832	44.88
856.266	38.48
856.701	33.38
857.136	37.58
857.57	39.38
858.005	50.68
858.44	56.08
858.874	42.08
859.309	47.28
859.743	38.08
860.178	45.28
860.612	39.18
861.047	51.88
861.481	65.88
861.915	64.98
862.35	45.98
862.784	30.58
863.218	35.78
863.653	34.48
864.087	44.48
864.521	51.58
864.955	67.28
865.39	143.98
865.824	160.48
866.258	104.08
866.692	150.48
867.126	172.38
867.56	99.38
867.994	56.98
868.428	40.28
868.862	43.08
869.296	53.98
869.73	53.18
870.164	49.98
870.598	43.78
871.031	36.48
871.465	24.98
871.899	28.38
872.333	24.38
872.766	28.58
873.2	20.78
873.634	26.48
874.067	26.88
874.501	25.48
874.935	35.48
875.368	27.38
875.802	26.38
876.235	20.38
876.669	26.78
877.102	23.88
877.535	22.18
877.969	16.48
878.402	25.08
878.836	19.18
879.269	24.18
879.702	26.48
880.135	17.38
880.569	23.68
881.002	26.68
881.435	25.28
881.868	11.68
882.301	17.88
882.734	13.88
883.167	19.98
883.601	22.08
884.034	21.68
884.467	15.18
884.899	22.88
885.332	14.18
885.765	15.78
886.198	13.28
886.631	10.48
887.064	17.28
887.497	21.88
887.929	24.98
888.362	15.98
888.795	10.68
889.228	20.18
889.66	24.48
890.093	12.58
890.526	13.98
890.958	13.68
891.391	17.58
891.823	17.98
892.256	8.98
892.688	13.98
893.121	14.28
893.553	16.08
893.985	21.78
894.418	23.98
894.85	12.78
895.282	12.98
895.715	12.68
896.147	16.78
896.579	14.58
897.011	11.58
897.444	16.18
897.876	11.68
898.308	14.78
898.74	11.28
899.172	11.38
899.604	13.28
900.036	17.58
900.468	10.78
900.9	12.18
901.332	16.08
901.764	10.98
902.196	14.88
902.628	12.38
903.06	17.28
903.491	30.38
903.923	19.88
904.355	15.18
904.787	21.58
905.218	23.08
905.65	17.78
906.082	1.38
906.513	9.08
906.945	18.88
907.376	14.08
907.808	20.68
908.239	24.18
908.671	13.18
909.102	19.98
909.534	28.78
909.965	41.28
910.397	90.88
910.828	293.58
911.259	455.38
911.691	214.38
912.122	103.08
912.553	50.98
912.984	29.78
913.415	19.68
913.847	23.88
914.278	16.68
914.709	15.58
915.14	15.18
915.571	23.48
916.002	10.88
916.433	16.28
916.864	20.88
917.295	15.48
917.726	20.38
918.157	8.78
918.587	31.48
919.018	18.88
919.449	17.58
919.88	20.18
920.311	29.18
920.741	39.78
921.172	154.68
921.603	144.28
922.033	68.48
922.464	42.88
922.895	16.78
923.325	16.28
923.756	19.78
924.186	17.68
924.617	20.38
925.047	42.78
925.478	47.98
925.908	45.38
926.338	20.78
926.769	15.78
927.199	20.48
927.629	4.08
928.06	16.18
928.49	14.38
928.92	14.88
929.35	9.58
929.78	9.68
930.21	8.68
930.641	8.28
931.071	5.98
931.501	4.28
931.931	4.58
932.361	4.88
932.791	4.38
933.221	8.08
933.651	0.28
934.08	18.08
934.51	31.68
934.94	4.98
935.37	8.38
935.8	9.38
936.229	9.88
936.659	6.38
937.089	-0.82
937.519	15.18
937.948	17.68
938.378	14.58
938.807	3.28
939.237	5.08
939.666	10.38
940.096	-3.72
940.525	1.08
940.955	3.68
941.384	-2.52
941.814	-4.72
942.243	-1.32
942.672	0.38
943.102	-4.22
943.531	6.28
943.96	4.28
944.39	6.98
944.819	-1.92
945.248	2.38
945.677	1.18
946.106	10.28
946.535	5.88
946.964	-3.42
947.393	3.68
947.822	2.58
948.251	-1.52
948.68	3.88
949.109	2.68
949.538	9.58
949.967	2.48
950.396	0.98
950.825	-1.32
951.254	0.58
951.682	0.88
952.111	2.58
952.54	3.58
952.969	-7.12
953.397	-2.02
953.826	-2.42
954.254	-6.52
954.683	5.58
955.112	0.18
955.54	5.38
955.969	-1.92
956.397	-2.12
956.826	-10.02
957.254	-0.42
957.682	1.38
958.111	1.58
958.539	-1.82
958.967	3.18
959.396	5.98
959.824	-0.42
960.252	5.08
960.68	-9.82
961.109	-0.62
961.537	-7.12
961.965	-1.32
962.393	9.08
962.821	-3.42
963.249	-0.22
963.677	9.88
964.105	9.28
964.533	42.78
964.961	40.18
965.389	16.38
965.817	8.48
966.245	0.38
966.672	1.98
967.1	-6.72
967.528	-2.52
967.956	-0.52
968.383	0.38
968.811	-5.52
969.239	2.98
969.666	-4.52
970.094	2.88
970.522	-0.42
970.949	1.58
971.377	1.98
971.804	-1.62
972.232	-3.02
972.659	-4.72
973.087	-0.42
973.514	-3.42
973.941	-5.92
974.369	1.08
974.796	3.38
975.223	3.88
975.651	-1.72
976.078	4.38
976.505	-3.32
976.932	2.58
977.359	13.78
977.786	17.28
978.214	-0.52
978.641	-1.82
979.068	-3.82
979.495	-5.42
979.922	0.08
980.349	-5.12
980.776	1.88
981.202	-0.52
981.629	0.98
982.056	-1.72
982.483	2.68
982.91	2.48
983.337	-6.82
983.763	0.98
984.19	-6.02
984.617	-6.52
985.043	-4.52
985.47	-1.22
985.897	-3.02
986.323	-11.02
986.75	-3.92
987.176	-2.42
987.603	-4.42
988.029	-2.42
988.456	-3.32
988.882	0.78
989.308	-9.62
989.735	-4.62
990.161	5.08
990.587	-5.12
991.014	1.78
991.44	5.68
991.866	-4.72
992.292	-9.42
992.719	0.18
993.145	-1.42
993.571	-7.02
993.997	-8.62
994.423	-5.32
994.849	-8.12
995.275	2.78
995.701	-3.62
996.127	0.38
996.553	7.48
996.979	-0.82
997.405	-2.72
997.83	-5.82
998.256	-8.32
998.682	-7.12
999.108	-7.12
999.534	-4.02
999.959	0.48
1000.385	-3.02
1000.811	2.88
1001.236	-7.02
1001.662	-4.62
1002.087	-13.02
1002.513	7.18
1002.938	4.38
1003.364	0.38
1003.789	0.18
1004.215	2.58
1004.64	0.88
1005.066	4.48
1005.491	1.88
1005.916	0.18
1006.342	-4.92
1006.767	-8.22
1007.192	5.78
1007.617	-1.62
1008.042	-7.62
1008.468	-2.02
1008.893	-2.22
1009.318	-3.52
1009.743	-0.72
1010.168	6.08
1010.593	-3.42
1011.018	-13.92
1011.443	-1.72
1011.868	-1.92
1012.293	-1.02
1012.718	-6.52
1013.143	0.38
1013.567	2.58
1013.992	-4.92
1014.417	-17.92
1014.842	3.58
1015.267	-1.42
1015.691	0.08
1016.116	2.48
1016.541	2.58
1016.965	1.98
1017.39	-2.52
1017.814	-3.32
1018.239	0.38
1018.663	-7.42
1019.088	-10.32
1019.512	-3.42
1019.937	-5.12
1020.361	-6.92
1020.785	-11.82
1021.21	-2.92
1021.634	-0.12
1022.058	-1.62
1022.483	-0.42
1022.907	-2.92
1023.331	-2.22
1023.755	-3.22
1024.179	-0.52
1024.604	-3.82
1025.028	-3.12
1025.452	-3.72
1025.876	-1.62
1026.3	-2.52
1026.724	-6.82
1027.148	-4.52
1027.572	-8.32
1027.996	-3.52
1028.42	-1.52
1028.843	-8.32
1029.267	-1.32
1029.691	0.78
1030.115	-2.22
1030.539	-3.82
1030.962	-7.72
1031.386	-11.12
1031.81	0.18
1032.233	-2.82
1032.657	-7.32
1033.08	-6.52
1033.504	-5.62
1033.927	-6.32
1034.351	4.98
1034.774	-11.52
1035.198	3.38
1035.621	-6.52
1036.045	-7.52
1036.468	-2.22
1036.891	-17.32
1037.315	-12.62
1037.738	-10.42
1038.161	0.98
1038.584	-5.12
1039.008	-5.42
1039.431	-3.92
1039.854	-0.72
1040.277	-5.42
1040.7	-6.32
1041.123	0.08
1041.546	-11.42
1041.969	-2.52
1042.392	-7.52
1042.815	-5.02
1043.238	-1.12
1043.661	0.98
1044.084	-4.72
1044.507	-3.12
1044.93	-1.32
1045.352	-6.12
1045.775	-4.72
1046.198	-1.82
1046.621	-7.02
1047.043	-7.12
1047.466	1.48
1047.889	-6.02
1048.311	-8.12
1048.734	-8.92
1049.156	-4.02
1049.579	0.08
1050.001	-6.62
1050.424	0.98
1050.846	-0.92
1051.269	-4.62
1051.691	-8.62
1052.113	-7.32
1052.536	1.48
1052.958	-7.92
1053.38	-8.22
1053.802	-8.72
1054.225	1.98
1054.647	-5.82
1055.069	-7.62
1055.491	0.18
1055.913	-7.12
1056.335	-0.02
1056.757	-7.82
1057.179	-8.92
1057.601	-3.12
1058.023	-3.92
1058.445	-3.02
1058.867	-1.12
1059.289	-0.92
1059.711	-7.42
1060.133	-1.02
1060.555	-7.52
1060.976	-10.72
1061.398	-9.62
1061.82	-8.62
1062.241	-2.32
1062.663	-1.42
1063.085	-6.12
1063.506	1.38
1063.928	-4.02
1064.35	-4.42
1064.771	-10.02
1065.193	1.08
1065.614	-13.12
1066.035	-8.12
1066.457	-3.62
1066.878	3.18
1067.3	-5.52
1067.721	-11.82
1068.142	-7.52
1068.564	-5.62
1068.985	-4.72
1069.406	-2.32
1069.827	-4.02
1070.248	4.38
1070.67	-5.02
1071.091	-6.02
1071.512	-9.82
1071.933	-4.92
1072.354	-9.02
1072.775	-6.02
1073.196	-9.12
1073.617	-5.72
1074.038	-6.92
1074.459	-2.92
1074.88	-11.22
1075.3	-8.72
1075.721	-6.92
1076.142	1.88
1076.563	0.58
1076.983	-9.22
1077.404	-4.42
1077.825	-10.62
1078.246	-3.32
1078.666	-14.52
1079.087	-15.42
1079.507	-6.02
1079.928	-0.52
1080.348	-2.52
1080.769	-9.02
1081.189	-4.72
1081.61	-5.42
1082.03	-7.12
1082.451	-9.42
1082.871	-1.62
1083.291	-6.32
1083.711	-7.22
1084.132	-4.12
1084.552	-5.82
1084.972	-2.82
1085.392	-12.32
1085.813	-11.02
1086.233	-4.92
1086.653	-0.52
1087.073	1.08
1087.493	-8.62
1087.913	-6.92
1088.333	-5.92
1088.753	-6.82
1089.173	-0.42
1089.593	-3.62
1090.013	-2.52
1090.433	1.18
1090.852	-5.72
1091.272	-1.82
1091.692	-2.42
1092.112	-6.12
1092.531	-8.22
1092.951	-13.52
1093.371	-2.82
1093.79	-2.32
1094.21	-5.82
1094.63	-2.72
1095.049	-8.52
1095.469	-2.12
1095.888	-4.32
1096.308	-1.92
1096.727	0.28
1097.146	-3.42
1097.566	-4.52
1097.985	-7.02
1098.405	1.28
1098.824	-5.12
1099.243	-6.02
1099.662	-14.52
1100.082	-3.12
1100.501	2.48
1100.92	-5.22
1101.339	-5.72
1101.758	-7.82
