Data from 20171114-ORNL-Ar_H_NY_Subt18_08-08-25-213.txt Node
Date: Tue Nov 14 08:08:25 EST 2017
User: Ender
Spectrometer: HR+D1039
Trigger mode: 0
Integration Time (sec): 2.730000E-2
Scans to average: 10
Electric dark correction enabled: true
Nonlinearity correction enabled: false
Boxcar width: 0
XAxis mode: Wavelengths
Number of Pixels in Spectrum: 2048
>>>>>Begin Spectral Data<<<<<
187.836	-1.33
188.309	-1.33
188.782	-1.33
189.255	0.97
189.728	-2.72
190.201	10.48
190.674	1.98
191.147	6.57
191.619	-8.73
192.092	-0.02
192.565	4.17
193.038	-1.93
193.511	-1.83
193.984	0.67
194.456	-1.62
194.929	-0.42
195.402	-1.62
195.874	-4.62
196.347	1.88
196.82	-5.42
197.292	8.88
197.765	0.48
198.237	-8.02
198.71	2.38
199.182	-3.92
199.655	-2.23
200.127	-1.93
200.6	0.38
201.072	-8.12
201.544	-5.42
202.017	-3.92
202.489	-0.43
202.961	-0.22
203.433	-6.12
203.906	-3.52
204.378	-7.52
204.85	-6.23
205.322	-10.43
205.794	-1.93
206.266	-4.33
206.739	-6.12
207.211	3.18
207.683	-10.62
208.155	-5.73
208.627	-4.02
209.099	-3.52
209.57	-8.02
210.042	-2.93
210.514	-3.42
210.986	-2.82
211.458	-11.93
211.93	-4.93
212.402	4.48
212.873	-6.83
213.345	-12.02
213.817	-6.33
214.288	-6.83
214.76	-15.23
215.232	-6.92
215.703	-7.62
216.175	-8.42
216.646	-5.42
217.118	-13.43
217.589	-5.12
218.061	-6.83
218.532	-6.42
219.004	-6.33
219.475	-4.23
219.946	-5.93
220.418	-6.52
220.889	2.27
221.36	-4.52
221.832	0.88
222.303	-6.42
222.774	-0.52
223.245	-12.52
223.717	-7.93
224.188	-6.02
224.659	-13.93
225.13	-6.42
225.601	-7.12
226.072	0.58
226.543	-0.33
227.014	-0.12
227.485	-6.83
227.956	-8.42
228.427	-3.73
228.898	2.68
229.369	4.27
229.839	-6.73
230.31	-6.33
230.781	0.27
231.252	-3.52
231.722	-8.12
232.193	-6.82
232.664	4.18
233.135	0.27
233.605	-1.22
234.076	-3.83
234.546	0.17
235.017	9.77
235.487	0.08
235.958	-3.42
236.428	-4.02
236.899	2.68
237.369	1.68
237.84	-8.83
238.31	-0.23
238.78	-0.32
239.251	-3.62
239.721	-1.02
240.191	-1.02
240.662	-2.62
241.132	-2.62
241.602	-4.93
242.072	-5.33
242.542	7.27
243.013	-2.43
243.483	7.18
243.953	5.18
244.423	2.98
244.893	-3.73
245.363	0.27
245.833	-0.33
246.303	-1.73
246.773	1.27
247.243	-2.23
247.712	2.77
248.182	1.67
248.652	2.77
249.122	-8.03
249.592	-1.33
250.061	0.08
250.531	15.68
251.001	2.18
251.471	11.67
251.94	6.67
252.41	2.18
252.879	-0.52
253.349	9.47
253.818	2.48
254.288	-3.72
254.757	2.18
255.227	-1.22
255.696	-0.93
256.166	2.58
256.635	2.88
257.105	0.38
257.574	-0.43
258.043	5.08
258.513	1.67
258.982	5.98
259.451	5.67
259.92	11.48
260.389	2.18
260.859	10.27
261.328	2.58
261.797	5.38
262.266	4.08
262.735	11.08
263.204	7.67
263.673	-2.42
264.142	-1.52
264.611	-10.23
265.08	-4.23
265.549	-0.02
266.018	0.28
266.487	-2.83
266.955	-1.52
267.424	-2.32
267.893	9.78
268.362	0.28
268.83	3.58
269.299	6.18
269.768	4.27
270.236	10.27
270.705	-1.33
271.174	7.68
271.642	6.17
272.111	-2.02
272.579	6.97
273.048	11.07
273.516	14.27
273.985	10.98
274.453	13.88
274.922	13.67
275.39	6.57
275.858	-0.52
276.327	9.38
276.795	18.58
277.263	4.67
277.731	19.88
278.2	24.88
278.668	23.18
279.136	29.27
279.604	16.58
280.072	6.08
280.54	8.68
281.008	11.57
281.477	12.48
281.945	12.17
282.413	10.88
282.881	15.18
283.348	8.38
283.816	14.77
284.284	18.98
284.752	11.57
285.22	9.58
285.688	14.47
286.156	9.48
286.623	25.77
287.091	19.18
287.559	16.77
288.026	14.77
288.494	16.98
288.962	8.38
289.429	7.17
289.897	14.18
290.364	14.38
290.832	15.18
291.3	15.77
291.767	16.78
292.234	15.38
292.702	14.77
293.169	15.88
293.637	18.77
294.104	19.77
294.571	8.27
295.039	11.57
295.506	15.67
295.973	18.48
296.44	8.77
296.908	11.28
297.375	14.27
297.842	16.88
298.309	9.58
298.776	10.88
299.243	14.07
299.71	14.77
300.177	21.48
300.644	18.68
301.111	17.38
301.578	23.48
302.045	17.18
302.512	24.38
302.979	23.38
303.446	22.07
303.913	20.88
304.379	14.58
304.846	26.48
305.313	24.48
305.78	20.17
306.246	25.67
306.713	25.47
307.18	21.68
307.646	22.47
308.113	24.57
308.579	22.98
309.046	25.88
309.512	24.78
309.979	19.88
310.445	26.77
310.912	29.88
311.378	35.58
311.845	25.58
312.311	33.27
312.777	28.67
313.244	26.08
313.71	36.58
314.176	30.38
314.642	27.08
315.109	27.98
315.575	38.18
316.041	37.18
316.507	28.27
316.973	38.48
317.439	28.77
317.905	36.68
318.371	32.88
318.837	35.48
319.303	32.77
319.769	32.18
320.235	29.07
320.701	36.27
321.167	29.57
321.633	33.48
322.099	37.57
322.564	38.48
323.03	39.07
323.496	38.38
323.962	37.58
324.427	35.88
324.893	42.38
325.359	34.67
325.824	39.77
326.29	36.77
326.755	39.27
327.221	43.77
327.686	38.17
328.152	48.08
328.617	38.88
329.083	45.07
329.548	44.98
330.014	46.58
330.479	46.27
330.944	48.17
331.41	47.77
331.875	45.68
332.34	44.58
332.805	45.67
333.271	36.08
333.736	36.88
334.201	51.48
334.666	52.97
335.131	50.98
335.596	49.97
336.061	42.88
336.526	39.67
336.991	43.78
337.456	52.78
337.921	48.38
338.386	46.17
338.851	50.88
339.316	52.17
339.781	49.98
340.246	54.18
340.711	46.88
341.175	49.27
341.64	50.88
342.105	52.98
342.569	54.88
343.034	50.57
343.499	56.08
343.963	54.88
344.428	54.98
344.893	62.17
345.357	62.07
345.822	62.77
346.286	69.27
346.751	75.38
347.215	72.58
347.679	79.88
348.144	95.77
348.608	85.68
349.073	72.48
349.537	73.58
350.001	80.88
350.465	90.98
350.93	88.77
351.394	73.18
351.858	78.28
352.322	86.18
352.786	79.98
353.25	105.48
353.715	108.77
354.179	105.27
354.643	122.48
355.107	127.77
355.571	110.68
356.035	107.08
356.498	119.98
356.962	121.47
357.426	137.27
357.89	112.18
358.354	84.77
358.818	84.17
359.281	80.68
359.745	80.98
360.209	76.88
360.673	76.88
361.136	79.18
361.6	82.17
362.064	84.28
362.527	84.97
362.991	90.98
363.454	76.08
363.918	80.77
364.381	80.67
364.845	92.07
365.308	89.98
365.772	94.48
366.235	88.67
366.698	80.27
367.162	85.77
367.625	90.98
368.088	88.17
368.552	89.98
369.015	82.58
369.478	96.27
369.941	104.98
370.404	95.38
370.867	105.57
371.331	105.27
371.794	114.38
372.257	99.38
372.72	110.38
373.183	107.88
373.646	99.48
374.109	94.68
374.572	104.47
375.035	101.98
375.497	109.38
375.96	111.77
376.423	102.88
376.886	111.08
377.349	110.57
377.811	104.27
378.274	109.68
378.737	109.07
379.199	121.88
379.662	106.27
380.125	109.48
380.587	111.58
381.05	119.28
381.512	124.38
381.975	126.17
382.437	121.88
382.9	120.27
383.362	128.17
383.825	142.98
384.287	133.27
384.75	129.67
385.212	130.17
385.674	139.27
386.136	132.68
386.599	132.17
387.061	126.18
387.523	128.98
387.985	132.77
388.447	139.88
388.91	133.48
389.372	137.98
389.834	142.38
390.296	137.88
390.758	149.67
391.22	152.17
391.682	180.88
392.144	205.57
392.606	184.77
393.068	157.28
393.529	152.47
393.991	147.68
394.453	144.67
394.915	143.38
395.377	156.48
395.838	167.57
396.3	149.17
396.762	144.68
397.224	140.27
397.685	135.27
398.147	140.18
398.608	141.68
399.07	126.18
399.531	139.27
399.993	148.18
400.454	160.77
400.916	154.57
401.377	149.98
401.839	156.88
402.3	156.88
402.762	176.08
403.223	184.07
403.684	176.57
404.145	167.17
404.607	171.27
405.068	176.48
405.529	173.68
405.99	194.27
406.451	183.77
406.913	178.67
407.374	171.67
407.835	166.48
408.296	178.68
408.757	182.38
409.218	197.88
409.679	185.18
410.14	187.88
410.601	181.98
411.062	182.48
411.522	191.98
411.983	189.48
412.444	180.68
412.905	189.48
413.366	197.58
413.826	204.88
414.287	232.48
414.748	279.48
415.208	267.77
415.669	218.58
416.13	222.67
416.59	211.58
417.051	225.58
417.511	234.88
417.972	250.08
418.432	260.38
418.893	305.77
419.353	261.48
419.814	211.87
420.274	198.67
420.734	193.67
421.195	213.47
421.655	213.28
422.115	200.67
422.576	202.17
423.036	212.67
423.496	220.17
423.956	228.67
424.416	245.58
424.876	275.38
425.336	277.47
425.797	273.88
426.257	265.88
426.717	254.48
427.177	244.68
427.637	231.47
428.097	252.38
428.556	261.98
429.016	286.57
429.476	274.97
429.936	283.78
430.396	287.48
430.856	303.67
431.315	319.88
431.775	368.88
432.235	400.27
432.694	367.78
433.154	370.38
433.614	404.27
434.073	355.47
434.533	289.67
434.993	278.88
435.452	294.77
435.912	307.08
436.371	303.38
436.83	298.58
437.29	274.08
437.749	256.38
438.209	262.37
438.668	288.57
439.127	302.98
439.587	282.58
440.046	265.68
440.505	270.48
440.964	300.08
441.424	350.08
441.883	331.88
442.342	280.28
442.801	247.88
443.26	237.48
443.719	238.18
444.178	234.98
444.637	227.98
445.096	234.08
445.555	239.18
446.014	234.47
446.473	239.88
446.932	246.38
447.391	245.77
447.849	237.47
448.308	229.18
448.767	244.08
449.226	249.78
449.685	250.37
450.143	252.18
450.602	256.77
451.061	248.18
451.519	247.08
451.978	245.48
452.436	250.27
452.895	252.58
453.353	264.78
453.812	252.98
454.27	265.87
454.729	255.78
455.187	261.48
455.646	264.97
456.104	264.18
456.562	274.78
457.021	283.77
457.479	273.37
457.937	282.28
458.395	279.17
458.854	273.98
459.312	269.57
459.77	289.68
460.228	273.27
460.686	258.87
461.144	268.68
461.602	262.58
462.06	268.17
462.518	268.28
462.976	277.47
463.434	273.18
463.892	277.88
464.35	297.97
464.808	308.57
465.266	280.88
465.724	287.78
466.181	294.57
466.639	289.57
467.097	310.18
467.555	323.38
468.012	319.68
468.47	335.88
468.928	344.97
469.385	369.28
469.843	374.37
470.3	372.38
470.758	382.18
471.215	411.68
471.673	431.77
472.13	428.58
472.588	439.88
473.045	401.28
473.503	399.98
473.96	418.87
474.417	426.37
474.875	466.67
475.332	504.98
475.789	482.97
476.246	495.58
476.704	513.38
477.161	533.88
477.618	556.77
478.075	587.67
478.532	645.38
478.989	723.98
479.446	846.38
479.903	796.67
480.36	822.87
480.817	864.97
481.274	965.07
481.731	1055.17
482.188	1148.47
482.645	1268.08
483.102	1370.88
483.558	1494.68
484.015	1537.47
484.472	1508.38
484.929	1466.78
485.385	1425.37
485.842	1387.38
486.299	1346.08
486.755	1289.48
487.212	1102.78
487.668	936.97
488.125	866.48
488.582	795.28
489.038	763.57
489.494	736.38
489.951	707.57
490.407	696.48
490.864	671.97
491.32	672.18
491.776	677.38
492.233	678.77
492.689	638.38
493.145	630.58
493.602	630.57
494.058	635.77
494.514	649.48
494.97	673.88
495.426	682.98
495.882	646.88
496.338	633.77
496.794	652.77
497.251	645.48
497.707	668.88
498.163	662.87
498.618	671.77
499.074	678.68
499.53	706.38
499.986	704.08
500.442	674.98
500.898	666.58
501.354	651.88
501.809	661.67
502.265	662.57
502.721	671.08
503.177	670.17
503.632	679.68
504.088	689.67
504.543	711.28
504.999	728.98
505.455	693.58
505.91	657.48
506.366	668.98
506.821	671.17
507.277	664.17
507.732	656.08
508.187	659.27
508.643	675.68
509.098	671.18
509.553	691.67
510.009	708.97
510.464	714.57
510.919	729.18
511.375	730.08
511.83	746.17
512.285	770.08
512.74	803.18
513.195	829.18
513.65	813.38
514.105	801.38
514.56	807.38
515.015	839.08
515.47	850.57
515.925	824.98
516.38	823.07
516.835	829.57
517.29	814.67
517.745	816.08
518.2	804.67
518.655	774.58
519.109	777.88
519.564	782.67
520.019	763.27
520.474	763.58
520.928	768.88
521.383	748.67
521.838	744.68
522.292	749.48
522.747	753.57
523.201	743.97
523.656	745.18
524.11	729.38
524.565	728.57
525.019	724.67
525.474	739.98
525.928	731.78
526.382	743.07
526.837	734.68
527.291	741.48
527.745	730.38
528.2	738.88
528.654	730.77
529.108	718.77
529.562	730.87
530.016	724.78
530.47	730.98
530.925	721.98
531.379	732.18
531.833	739.78
532.287	741.58
532.741	736.38
533.195	736.78
533.649	744.07
534.103	757.98
534.556	735.38
535.01	737.38
535.464	740.27
535.918	754.67
536.372	755.78
536.826	753.17
537.279	747.28
537.733	746.57
538.187	753.37
538.64	753.77
539.094	763.38
539.548	775.78
540.001	755.58
540.455	760.58
540.908	777.18
541.362	771.77
541.815	791.18
542.269	796.67
542.722	801.18
543.175	793.57
543.629	813.58
544.082	826.57
544.536	830.57
544.989	826.67
545.442	831.48
545.895	835.58
546.349	834.98
546.802	834.67
547.255	847.37
547.708	848.98
548.161	860.27
548.614	869.67
549.067	881.77
549.52	862.77
549.973	860.57
550.426	853.97
550.879	836.68
551.332	849.97
551.785	856.07
552.238	850.27
552.691	875.38
553.144	883.58
553.596	904.98
554.049	911.27
554.502	934.37
554.955	940.17
555.407	967.98
555.86	961.27
556.313	937.68
556.765	929.47
557.218	927.38
557.67	936.88
558.123	925.08
558.576	919.07
559.028	921.38
559.48	929.17
559.933	922.77
560.385	887.88
560.838	858.88
561.29	835.48
561.742	824.17
562.195	818.77
562.647	816.08
563.099	822.08
563.551	821.57
564.004	826.17
564.456	801.28
564.908	810.88
565.36	785.68
565.812	777.67
566.264	764.58
566.716	759.28
567.168	750.38
567.62	757.58
568.072	737.68
568.524	739.38
568.976	735.47
569.428	715.98
569.88	721.57
570.332	724.98
570.784	722.47
571.235	730.58
571.687	736.18
572.139	741.58
572.59	759.17
573.042	749.47
573.494	749.78
573.945	750.38
574.397	727.98
574.849	734.68
575.3	731.18
575.752	727.48
576.203	718.97
576.655	724.27
577.106	711.18
577.557	707.28
578.009	712.78
578.46	712.78
578.912	703.08
579.363	700.88
579.814	713.58
580.265	710.08
580.717	709.98
581.168	704.07
581.619	724.88
582.07	721.28
582.521	718.38
582.972	706.47
583.423	706.38
583.875	716.27
584.326	728.88
584.777	752.78
585.227	795.87
585.678	819.18
586.129	850.78
586.58	894.17
587.031	936.68
587.482	994.58
587.933	1062.57
588.384	1001.28
588.834	878.98
589.285	831.17
589.736	815.18
590.186	822.38
590.637	806.48
591.088	791.58
591.538	775.88
591.989	761.38
592.439	762.97
592.89	764.27
593.34	747.87
593.791	739.67
594.241	740.28
594.692	746.27
595.142	739.68
595.593	735.27
596.043	743.97
596.493	740.88
596.943	741.48
597.394	764.98
597.844	754.27
598.294	772.58
598.744	796.68
599.195	814.18
599.645	874.98
600.095	916.38
600.545	982.58
600.995	1025.28
601.445	1089.38
601.895	1144.17
602.345	1194.97
602.795	1172.68
603.245	1132.17
603.695	1078.67
604.145	1022.18
604.594	966.67
605.044	912.77
605.494	850.28
605.944	800.27
606.393	789.17
606.843	767.27
607.293	776.17
607.743	768.07
608.192	781.97
608.642	801.38
609.091	805.58
609.541	815.37
609.99	816.88
610.44	800.28
610.889	757.58
611.339	742.67
611.788	715.48
612.238	733.78
612.687	741.27
613.136	745.98
613.586	758.78
614.035	746.98
614.484	759.98
614.933	747.48
615.383	760.57
615.832	753.78
616.281	748.17
616.73	711.57
617.179	693.47
617.628	677.17
618.077	658.98
618.526	659.17
618.975	644.97
619.424	649.27
619.873	643.67
620.322	649.57
620.771	637.98
621.22	639.77
621.669	639.28
622.118	621.67
622.567	616.88
623.015	606.98
623.464	609.37
623.913	595.88
624.361	580.58
624.81	575.77
625.259	585.58
625.707	592.88
626.156	580.57
626.604	601.97
627.053	599.67
627.501	586.08
627.95	602.88
628.398	605.27
628.847	597.98
629.295	604.27
629.744	594.67
630.192	596.58
630.64	596.38
631.089	590.27
631.537	577.27
631.985	573.68
632.433	587.07
632.881	574.38
633.33	593.38
633.778	598.48
634.226	563.17
634.674	579.28
635.122	574.17
635.57	598.58
636.018	602.98
636.466	607.68
636.914	591.18
637.362	610.78
637.81	609.17
638.258	609.28
638.705	620.87
639.153	646.07
639.601	651.48
640.049	679.27
640.497	709.97
640.944	729.78
641.392	677.98
641.84	639.88
642.287	615.27
642.735	597.08
643.182	594.58
643.63	594.27
644.078	598.58
644.525	609.67
644.973	616.87
645.42	631.28
645.867	656.48
646.315	669.38
646.762	687.17
647.21	729.98
647.657	739.27
648.104	770.07
648.551	796.57
648.999	850.88
649.446	940.48
649.893	1024.47
650.34	1180.97
650.787	1399.88
651.234	1732.68
651.682	2232.17
652.129	3050.07
652.576	4354.08
653.023	6354.37
653.47	8554.38
653.917	10569.17
654.363	12106.48
654.81	13240.08
655.257	12614.77
655.704	8346.77
656.151	4997.27
656.598	3296.97
657.044	2389.68
657.491	1836.88
657.938	1484.97
658.385	1249.17
658.831	1090.48
659.278	980.48
659.724	871.28
660.171	814.67
660.618	740.68
661.064	714.38
661.511	693.48
661.957	677.38
662.404	667.18
662.85	677.48
663.296	659.77
663.743	589.77
664.189	569.58
664.635	567.77
665.082	553.57
665.528	551.47
665.974	542.57
666.42	534.88
666.867	539.77
667.313	520.07
667.759	486.47
668.205	478.28
668.651	485.08
669.097	480.58
669.543	477.77
669.989	463.48
670.435	473.67
670.881	477.48
671.327	477.07
671.773	495.58
672.219	525.67
672.665	578.58
673.11	623.97
673.556	671.37
674.002	711.77
674.448	704.67
674.893	583.18
675.339	507.88
675.785	466.18
676.23	444.28
676.676	420.48
677.122	405.67
677.567	400.98
678.013	396.37
678.458	374.77
678.904	386.48
679.349	363.88
679.794	375.57
680.24	367.67
680.685	374.87
681.131	374.77
681.576	376.77
682.021	381.07
682.466	369.47
682.912	373.17
683.357	382.98
683.802	409.28
684.247	438.27
684.692	496.97
685.137	524.27
685.583	574.87
686.028	595.88
686.473	554.97
686.918	476.17
687.363	445.88
687.807	416.58
688.252	392.28
688.697	371.47
689.142	360.37
689.587	353.28
690.032	346.77
690.477	366.88
690.921	370.67
691.366	405.57
691.811	429.97
692.255	461.98
692.7	495.68
693.145	541.38
693.589	764.47
694.034	1236.88
694.478	1655.98
694.923	1845.58
695.367	2400.97
695.812	1273.68
696.256	530.47
696.701	396.78
697.145	366.38
697.59	350.08
698.034	344.77
698.478	347.48
698.922	330.98
699.367	348.57
699.811	357.98
700.255	378.98
700.699	417.18
701.143	454.28
701.588	502.78
702.032	545.68
702.476	535.58
702.92	522.58
703.364	535.47
703.808	701.08
704.252	1144.18
704.696	1582.38
705.14	1789.67
705.584	2239.47
706.027	1134.47
706.471	559.97
706.915	430.08
707.359	378.68
707.803	344.77
708.246	324.88
708.69	335.17
709.134	325.27
709.577	328.57
710.021	336.97
710.465	329.08
710.908	314.07
711.352	314.38
711.795	338.08
712.239	374.18
712.682	411.38
713.126	432.58
713.569	478.37
714.012	384.57
714.456	330.17
714.899	315.57
715.342	299.38
715.786	286.77
716.229	272.58
716.672	274.57
717.115	269.38
717.558	264.38
718.002	266.17
718.445	279.18
718.888	310.38
719.331	307.17
719.774	328.07
720.217	328.07
720.66	304.67
721.103	285.78
721.546	266.67
721.989	266.97
722.432	252.68
722.874	258.38
723.317	238.27
723.76	253.27
724.203	273.88
724.645	344.88
725.088	485.08
725.531	608.47
725.974	677.38
726.416	573.47
726.859	321.88
727.301	265.18
727.744	250.88
728.187	246.48
728.629	255.88
729.071	255.07
729.514	282.77
729.956	289.47
730.399	301.07
730.841	314.47
731.283	298.88
731.726	286.58
732.168	281.07
732.61	289.77
733.053	302.38
733.495	349.28
733.937	375.48
734.379	424.38
734.821	472.38
735.263	599.28
735.705	922.48
736.148	1754.78
736.59	2792.48
737.032	3221.68
737.474	2626.48
737.916	872.27
738.357	456.07
738.799	351.68
739.241	317.18
739.683	306.97
740.125	318.18
740.567	322.77
741.008	331.17
741.45	341.68
741.892	342.68
742.334	380.28
742.775	378.77
743.217	365.47
743.658	298.88
744.1	273.08
744.542	282.18
744.983	335.98
745.425	370.78
745.866	365.98
746.307	311.18
746.749	297.18
747.19	343.08
747.632	501.48
748.073	983.28
748.514	2059.07
748.956	3039.47
749.397	3829.68
749.838	3186.77
750.279	3096.28
750.72	1599.37
751.162	591.07
751.603	352.58
752.044	272.78
752.485	238.98
752.926	228.38
753.367	217.97
753.808	213.08
754.249	196.38
754.69	195.38
755.131	196.68
755.572	193.08
756.013	191.98
756.453	197.38
756.894	205.98
757.335	208.67
757.776	210.78
758.216	212.67
758.657	213.28
759.098	217.38
759.538	246.18
759.979	290.38
760.42	409.68
760.86	787.77
761.301	2053.97
761.741	4821.48
762.182	6749.38
762.622	4772.17
763.063	1402.28
763.503	575.67
763.943	354.78
764.384	315.88
764.824	314.88
765.264	319.07
765.705	250.38
766.145	207.98
766.585	187.07
767.025	184.17
767.465	183.27
767.906	212.68
768.346	250.67
768.786	264.47
769.226	251.48
769.666	334.67
770.106	682.97
770.546	1708.88
770.986	2792.27
771.426	2490.98
771.866	847.17
772.306	346.48
772.745	223.18
773.185	181.07
773.625	172.38
774.065	166.58
774.505	175.07
774.944	242.97
775.384	449.58
775.824	744.88
776.263	714.77
776.703	345.97
777.142	186.58
777.582	141.17
778.021	134.48
778.461	130.38
778.9	135.77
779.34	136.98
779.779	124.68
780.219	125.08
780.658	119.88
781.097	114.77
781.537	118.67
781.976	109.97
782.415	107.47
782.855	109.27
783.294	108.58
783.733	109.67
784.172	118.48
784.611	106.27
785.05	119.57
785.489	111.48
785.928	122.27
786.367	124.27
786.806	121.38
787.245	132.17
787.684	141.88
788.123	161.17
788.562	144.48
789.001	139.48
789.44	130.27
789.879	122.17
790.317	122.88
790.756	133.08
791.195	134.38
791.634	164.58
792.072	223.67
792.511	408.78
792.95	1115.28
793.388	2255.38
793.827	2010.07
794.265	714.48
794.704	300.48
795.142	190.58
795.581	163.88
796.019	140.88
796.458	136.88
796.896	129.98
797.334	139.27
797.773	164.77
798.211	235.57
798.649	483.27
799.087	1111.17
799.526	1718.68
799.964	2155.78
800.402	2098.47
800.84	815.67
801.278	322.68
801.716	195.88
802.154	159.77
802.592	159.58
803.03	156.58
803.468	142.08
803.906	157.68
804.344	163.48
804.782	148.58
805.22	142.97
805.658	135.48
806.096	152.28
806.533	168.88
806.971	186.38
807.409	239.17
807.847	347.28
808.284	742.58
808.722	2044.58
809.16	3479.88
809.597	3426.77
810.035	5801.88
810.472	6024.38
810.91	2215.58
811.347	862.78
811.785	438.88
812.222	277.97
812.66	216.17
813.097	177.88
813.535	149.17
813.972	143.27
814.409	126.88
814.846	114.08
815.284	109.58
815.721	109.67
816.158	106.88
816.595	116.48
817.032	168.67
817.47	195.38
817.907	139.48
818.344	115.57
818.781	108.48
819.218	102.38
819.655	133.88
820.092	205.68
820.529	228.38
820.966	179.88
821.403	136.57
821.839	105.08
822.276	101.27
822.713	136.07
823.15	141.58
823.587	127.38
824.023	155.88
824.46	334.28
824.897	972.48
825.333	1427.58
825.77	609.47
826.206	245.47
826.643	145.67
827.08	106.98
827.516	77.88
827.953	78.88
828.389	81.38
828.825	72.77
829.262	66.77
829.698	69.88
830.135	65.48
830.571	64.17
831.007	72.48
831.443	70.08
831.88	72.58
832.316	64.88
832.752	63.08
833.188	68.98
833.624	63.68
834.06	69.88
834.497	70.98
834.933	77.08
835.369	78.67
835.805	70.48
836.241	78.57
836.677	85.38
837.112	97.38
837.548	110.08
837.984	141.98
838.42	219.38
838.856	547.77
839.292	1641.28
839.727	2428.27
840.163	1136.28
840.599	1016.18
841.034	2172.68
841.47	2213.78
841.906	829.78
842.341	357.27
842.777	223.78
843.212	234.67
843.648	218.47
844.083	128.67
844.519	92.18
844.954	73.38
845.39	58.88
845.825	63.27
846.261	57.78
846.696	55.88
847.131	55.77
847.566	58.38
848.002	58.58
848.437	55.27
848.872	64.77
849.307	65.28
849.742	91.28
850.177	190.58
850.613	602.78
851.048	925.97
851.483	408.17
851.918	161.47
852.353	90.88
852.788	55.57
853.223	59.47
853.657	50.17
854.092	48.88
854.527	44.17
854.962	41.88
855.397	46.58
855.832	61.48
856.266	46.38
856.701	40.48
857.136	38.98
857.57	49.18
858.005	53.18
858.44	63.88
858.874	44.08
859.309	53.28
859.743	42.77
860.178	51.17
860.612	45.38
861.047	57.17
861.481	72.98
861.915	75.38
862.35	53.27
862.784	35.07
863.218	35.88
863.653	32.27
864.087	47.17
864.521	58.77
864.955	74.38
865.39	164.67
865.824	190.68
866.258	126.88
866.692	176.48
867.126	189.38
867.56	108.77
867.994	62.27
868.428	36.17
868.862	51.58
869.296	67.78
869.73	62.07
870.164	60.07
870.598	50.48
871.031	36.98
871.465	34.77
871.899	37.48
872.333	25.68
872.766	21.58
873.2	31.27
873.634	29.98
874.067	28.67
874.501	33.07
874.935	35.97
875.368	32.97
875.802	29.08
876.235	25.38
876.669	21.88
877.102	23.58
877.535	23.28
877.969	26.08
878.402	27.98
878.836	21.77
879.269	22.88
879.702	19.67
880.135	29.67
880.569	26.67
881.002	32.18
881.435	20.67
881.868	23.77
882.301	21.88
882.734	15.07
883.167	22.58
883.601	17.68
884.034	26.47
884.467	9.28
884.899	23.17
885.332	13.77
885.765	18.68
886.198	17.98
886.631	16.77
887.064	17.58
887.497	15.57
887.929	26.57
888.362	12.77
888.795	12.77
889.228	17.17
889.66	25.17
890.093	16.27
890.526	22.38
890.958	14.78
891.391	25.48
891.823	24.88
892.256	16.08
892.688	13.67
893.121	17.68
893.553	14.77
893.985	16.97
894.418	22.77
894.85	10.98
895.282	13.07
895.715	13.48
896.147	14.48
896.579	17.07
897.011	14.08
897.444	18.08
897.876	18.88
898.308	13.38
898.74	15.78
899.172	16.27
899.604	20.18
900.036	24.17
900.468	17.48
900.9	21.67
901.332	21.57
901.764	10.88
902.196	20.08
902.628	23.77
903.06	14.67
903.491	26.17
903.923	22.88
904.355	21.18
904.787	20.88
905.218	24.28
905.65	23.48
906.082	9.88
906.513	13.38
906.945	19.48
907.376	11.17
907.808	24.27
908.239	23.38
908.671	18.38
909.102	27.58
909.534	30.28
909.965	55.38
910.397	96.27
910.828	339.18
911.259	489.88
911.691	226.98
912.122	110.98
912.553	54.27
912.984	34.28
913.415	27.08
913.847	24.48
914.278	17.58
914.709	21.98
915.14	15.48
915.571	17.98
916.002	11.58
916.433	19.88
916.864	16.27
917.295	10.48
917.726	19.58
918.157	12.38
918.587	36.08
919.018	22.48
919.449	20.78
919.88	32.57
920.311	35.38
920.741	53.17
921.172	177.88
921.603	157.38
922.033	73.57
922.464	49.18
922.895	24.38
923.325	24.08
923.756	21.07
924.186	11.18
924.617	20.88
925.047	25.58
925.478	25.98
925.908	23.17
926.338	14.48
926.769	14.48
927.199	19.08
927.629	10.88
928.06	15.48
928.49	14.28
928.92	14.48
929.35	14.48
929.78	10.57
930.21	7.67
930.641	9.88
931.071	15.17
931.501	7.18
931.931	9.18
932.361	11.88
932.791	9.58
933.221	12.18
933.651	7.88
934.08	23.07
934.51	33.58
934.94	15.18
935.37	12.88
935.8	12.48
936.229	0.98
936.659	7.38
937.089	5.48
937.519	14.77
937.948	23.38
938.378	17.58
938.807	1.57
939.237	3.88
939.666	7.48
940.096	1.17
940.525	3.77
940.955	1.98
941.384	5.88
941.814	-10.12
942.243	-2.62
942.672	0.27
943.102	-3.42
943.531	-4.32
943.96	5.08
944.39	1.97
944.819	2.17
945.248	-1.73
945.677	0.77
946.106	6.58
946.535	7.67
946.964	1.08
947.393	5.08
947.822	-0.22
948.251	1.17
948.68	7.58
949.109	0.67
949.538	4.88
949.967	-1.62
950.396	0.77
950.825	-2.73
951.254	3.38
951.682	-7.73
952.111	1.18
952.54	6.08
952.969	-3.12
953.397	-1.33
953.826	3.38
954.254	-6.73
954.683	1.07
955.112	-9.23
955.54	-1.22
955.969	0.77
956.397	-1.73
956.826	-4.92
957.254	-4.22
957.682	2.38
958.111	7.88
958.539	-2.12
958.967	0.88
959.396	3.17
959.824	1.58
960.252	2.07
960.68	-9.43
961.109	-3.62
961.537	-4.62
961.965	-4.93
962.393	0.38
962.821	-3.22
963.249	4.38
963.677	1.18
964.105	9.17
964.533	45.38
964.961	47.07
965.389	15.68
965.817	11.27
966.245	3.88
966.672	1.88
967.1	-7.82
967.528	4.07
967.956	4.48
968.383	3.77
968.811	0.58
969.239	-2.03
969.666	-6.12
970.094	3.08
970.522	2.67
970.949	-2.53
971.377	-3.92
971.804	-3.62
972.232	2.08
972.659	-1.02
973.087	-4.03
973.514	-3.83
973.941	-6.12
974.369	1.77
974.796	4.08
975.223	1.38
975.651	0.98
976.078	-0.42
976.505	-3.43
976.932	4.88
977.359	19.48
977.786	19.48
978.214	-4.83
978.641	-5.83
979.068	-4.23
979.495	-5.52
979.922	-1.33
980.349	-3.73
980.776	4.27
981.202	-0.02
981.629	0.67
982.056	9.38
982.483	1.77
982.91	10.27
983.337	-6.02
983.763	3.07
984.19	-3.83
984.617	-4.82
985.043	-4.83
985.47	-2.42
985.897	0.77
986.323	-3.83
986.75	2.48
987.176	0.77
987.603	-6.53
988.029	-5.53
988.456	-0.93
988.882	5.88
989.308	-3.62
989.735	-1.12
990.161	-3.42
990.587	-6.53
991.014	-1.33
991.44	5.48
991.866	1.18
992.292	-4.32
992.719	-6.02
993.145	2.58
993.571	-4.62
993.997	-1.52
994.423	-1.62
994.849	-3.93
995.275	-1.02
995.701	4.67
996.127	0.07
996.553	-1.12
996.979	-4.23
997.405	-3.72
997.83	-7.83
998.256	-4.53
998.682	-3.42
999.108	-8.33
999.534	-3.23
999.959	-4.52
1000.385	-5.73
1000.811	-1.73
1001.236	-13.03
1001.662	-7.42
1002.087	-12.22
1002.513	-3.23
1002.938	8.88
1003.364	-0.92
1003.789	-1.92
1004.215	-0.32
1004.64	-3.52
1005.066	-0.12
1005.491	-4.92
1005.916	-0.93
1006.342	-4.62
1006.767	-5.12
1007.192	5.08
1007.617	-2.12
1008.042	-0.73
1008.468	-9.33
1008.893	-6.72
1009.318	-5.33
1009.743	-6.12
1010.168	3.27
1010.593	-1.92
1011.018	-8.42
1011.443	-0.73
1011.868	-2.52
1012.293	-2.82
1012.718	-9.42
1013.143	3.27
1013.567	-0.42
1013.992	-4.23
1014.417	-8.73
1014.842	1.47
1015.267	-2.33
1015.691	-2.42
1016.116	1.38
1016.541	2.88
1016.965	-1.83
1017.39	1.57
1017.814	-2.92
1018.239	-3.62
1018.663	-4.02
1019.088	-13.23
1019.512	-4.02
1019.937	-1.52
1020.361	-4.83
1020.785	-8.43
1021.21	-1.92
1021.634	1.27
1022.058	-2.02
1022.483	7.38
1022.907	-4.73
1023.331	-7.62
1023.755	-4.93
1024.179	-1.92
1024.604	-4.42
1025.028	-4.83
1025.452	1.27
1025.876	1.67
1026.3	2.77
1026.724	-9.62
1027.148	2.08
1027.572	-5.73
1027.996	-6.73
1028.42	-0.93
1028.843	-9.12
1029.267	-8.73
1029.691	-6.12
1030.115	-2.73
1030.539	-5.23
1030.962	-5.93
1031.386	-9.62
1031.81	-0.72
1032.233	-3.32
1032.657	0.58
1033.08	-1.83
1033.504	-7.03
1033.927	-3.22
1034.351	-2.72
1034.774	-9.02
1035.198	-5.42
1035.621	-7.82
1036.045	-8.73
1036.468	3.38
1036.891	-9.23
1037.315	-9.62
1037.738	-11.12
1038.161	-1.03
1038.584	-2.62
1039.008	-10.83
1039.431	-4.33
1039.854	0.57
1040.277	-10.32
1040.7	-16.12
1041.123	1.98
1041.546	-9.92
1041.969	-9.52
1042.392	-4.02
1042.815	-3.83
1043.238	2.88
1043.661	0.88
1044.084	-12.52
1044.507	-6.12
1044.93	-5.92
1045.352	-7.12
1045.775	-0.73
1046.198	-1.62
1046.621	-1.02
1047.043	-3.82
1047.466	8.38
1047.889	-12.62
1048.311	-9.52
1048.734	-3.62
1049.156	-1.62
1049.579	-4.33
1050.001	-2.82
1050.424	-0.23
1050.846	-2.93
1051.269	-6.72
1051.691	-9.42
1052.113	-8.73
1052.536	-0.52
1052.958	-3.92
1053.38	-3.33
1053.802	-5.52
1054.225	0.67
1054.647	-7.12
1055.069	-7.73
1055.491	-4.23
1055.913	-9.12
1056.335	-1.93
1056.757	-7.62
1057.179	-5.02
1057.601	-5.52
1058.023	-6.12
1058.445	-4.33
1058.867	-2.52
1059.289	-4.23
1059.711	-7.92
1060.133	-4.52
1060.555	-3.12
1060.976	-7.43
1061.398	-3.83
1061.82	-10.12
1062.241	-9.43
1062.663	-14.33
1063.085	-7.33
1063.506	0.68
1063.928	-4.33
1064.35	0.48
1064.771	-10.43
1065.193	-6.03
1065.614	-12.73
1066.035	-5.92
1066.457	-4.73
1066.878	0.38
1067.3	-6.23
1067.721	-3.52
1068.142	-5.93
1068.564	-0.12
1068.985	-10.33
1069.406	-3.82
1069.827	-1.92
1070.248	2.27
1070.67	-4.83
1071.091	-8.82
1071.512	-6.23
1071.933	-8.12
1072.354	-6.02
1072.775	-6.82
1073.196	-7.92
1073.617	-5.43
1074.038	-10.92
1074.459	-4.52
1074.88	-7.62
1075.3	-1.73
1075.721	-1.33
1076.142	-2.22
1076.563	-2.03
1076.983	-11.42
1077.404	-4.62
1077.825	-11.92
1078.246	-2.62
1078.666	-8.73
1079.087	-1.42
1079.507	-6.53
1079.928	-4.83
1080.348	-5.92
1080.769	-10.83
1081.189	-1.62
1081.61	-7.73
1082.03	-10.92
1082.451	-9.33
1082.871	-6.12
1083.291	-4.23
1083.711	-8.52
1084.132	-7.82
1084.552	-0.83
1084.972	-4.32
1085.392	-11.33
1085.813	-7.73
1086.233	-10.23
1086.653	-1.92
1087.073	-3.12
1087.493	-3.33
1087.913	-4.73
1088.333	-13.83
1088.753	-3.12
1089.173	-3.73
1089.593	-5.32
1090.013	0.98
1090.433	0.27
1090.852	-2.62
1091.272	1.27
1091.692	-1.92
1092.112	-0.12
1092.531	-15.93
1092.951	-12.32
1093.371	-1.83
1093.79	2.48
1094.21	-5.82
1094.63	-3.92
1095.049	-7.82
1095.469	-6.23
1095.888	-0.23
1096.308	-9.73
1096.727	3.48
1097.146	-11.62
1097.566	-0.12
1097.985	-3.23
1098.405	-3.72
1098.824	-7.42
1099.243	-8.62
1099.662	-9.33
1100.082	-9.22
1100.501	-3.83
1100.92	-0.23
1101.339	-7.93
1101.758	-11.22
