Data from 20171114-ORNL-Ar_H_NY_Subt18_08-07-33-345.txt Node
Date: Tue Nov 14 08:07:33 EST 2017
User: Ender
Spectrometer: HR+D1039
Trigger mode: 0
Integration Time (sec): 2.730000E-2
Scans to average: 10
Electric dark correction enabled: true
Nonlinearity correction enabled: false
Boxcar width: 0
XAxis mode: Wavelengths
Number of Pixels in Spectrum: 2048
>>>>>Begin Spectral Data<<<<<
187.836	-5.64
188.309	-5.64
188.782	-5.64
189.255	-4.54
189.728	-1.54
190.201	7.06
190.674	0.36
191.147	0.06
191.619	-5.94
192.092	1.46
192.565	4.06
193.038	-0.94
193.511	-2.44
193.984	1.46
194.456	1.56
194.929	3.16
195.402	-2.44
195.874	4.26
196.347	-5.94
196.82	-4.94
197.292	2.46
197.765	-5.14
198.237	-1.94
198.71	0.66
199.182	-0.74
199.655	2.66
200.127	-1.44
200.6	-2.14
201.072	-2.24
201.544	3.06
202.017	-6.84
202.489	1.46
202.961	-6.14
203.433	-6.74
203.906	-5.04
204.378	-5.34
204.85	-4.84
205.322	-4.04
205.794	0.76
206.266	-2.44
206.739	-7.84
207.211	5.46
207.683	-3.74
208.155	-7.24
208.627	-8.14
209.099	-6.04
209.57	-6.94
210.042	-7.84
210.514	-8.24
210.986	-1.24
211.458	-9.64
211.93	-2.74
212.402	1.06
212.873	-8.04
213.345	-12.04
213.817	-12.14
214.288	-8.34
214.76	-12.44
215.232	-2.14
215.703	1.46
216.175	-3.74
216.646	-8.24
217.118	-6.84
217.589	1.56
218.061	-4.84
218.532	-4.94
219.004	-4.74
219.475	-9.44
219.946	-11.24
220.418	-3.64
220.889	-1.44
221.36	-5.84
221.832	-5.24
222.303	-7.94
222.774	7.46
223.245	-3.94
223.717	-3.04
224.188	-5.84
224.659	-4.64
225.13	-6.64
225.601	-2.44
226.072	0.56
226.543	-3.24
227.014	-2.04
227.485	-2.94
227.956	-6.14
228.427	-3.54
228.898	3.46
229.369	4.56
229.839	-0.34
230.31	-3.74
230.781	5.36
231.252	-4.04
231.722	-7.34
232.193	-1.54
232.664	0.16
233.135	3.76
233.605	-0.64
234.076	-15.54
234.546	-3.24
235.017	-2.54
235.487	-0.34
235.958	-2.14
236.428	1.86
236.899	8.06
237.369	3.86
237.84	-1.64
238.31	2.66
238.78	3.46
239.251	-4.84
239.721	-8.34
240.191	-2.24
240.662	-0.14
241.132	0.66
241.602	-2.64
242.072	1.46
242.542	3.36
243.013	-1.04
243.483	6.36
243.953	-0.54
244.423	1.76
244.893	-6.84
245.363	-0.04
245.833	-4.54
246.303	-0.84
246.773	5.86
247.243	-2.04
247.712	2.66
248.182	12.66
248.652	4.36
249.122	-3.44
249.592	5.66
250.061	11.96
250.531	30.16
251.001	11.86
251.471	17.06
251.94	15.56
252.41	0.96
252.879	1.36
253.349	9.06
253.818	8.36
254.288	5.96
254.757	4.36
255.227	-6.14
255.696	2.46
256.166	-1.14
256.635	-1.24
257.105	8.46
257.574	2.86
258.043	7.76
258.513	10.06
258.982	13.86
259.451	4.66
259.92	9.56
260.389	3.26
260.859	12.06
261.328	9.86
261.797	15.66
262.266	7.86
262.735	12.36
263.204	2.06
263.673	-2.84
264.142	3.46
264.611	-3.94
265.08	3.26
265.549	-0.34
266.018	4.66
266.487	-1.64
266.955	-4.94
267.424	2.56
267.893	4.56
268.362	5.56
268.83	2.96
269.299	4.56
269.768	4.96
270.236	2.86
270.705	-1.44
271.174	2.66
271.642	5.26
272.111	9.06
272.579	12.76
273.048	17.16
273.516	19.56
273.985	17.66
274.453	18.06
274.922	10.46
275.39	14.66
275.858	4.56
276.327	8.66
276.795	17.66
277.263	8.06
277.731	23.66
278.2	37.16
278.668	48.56
279.136	39.66
279.604	13.66
280.072	8.26
280.54	4.56
281.008	0.56
281.477	14.46
281.945	8.86
282.413	11.56
282.881	10.66
283.348	7.36
283.816	9.46
284.284	10.46
284.752	10.46
285.22	9.56
285.688	18.26
286.156	10.46
286.623	39.86
287.091	42.26
287.559	20.66
288.026	3.56
288.494	12.96
288.962	1.66
289.429	2.56
289.897	14.66
290.364	12.86
290.832	14.06
291.3	7.06
291.767	6.86
292.234	18.46
292.702	11.26
293.169	17.96
293.637	16.76
294.104	17.76
294.571	3.86
295.039	12.66
295.506	5.56
295.973	12.46
296.44	8.66
296.908	11.86
297.375	14.16
297.842	6.36
298.309	15.06
298.776	3.06
299.243	14.56
299.71	11.96
300.177	21.56
300.644	12.66
301.111	12.86
301.578	18.76
302.045	11.46
302.512	15.66
302.979	15.96
303.446	18.06
303.913	7.86
304.379	9.16
304.846	19.66
305.313	17.56
305.78	15.06
306.246	25.36
306.713	21.86
307.18	21.66
307.646	20.66
308.113	16.96
308.579	20.96
309.046	16.16
309.512	18.26
309.979	9.26
310.445	25.06
310.912	23.06
311.378	30.96
311.845	26.66
312.311	25.56
312.777	26.66
313.244	19.76
313.71	31.46
314.176	21.26
314.642	24.36
315.109	31.66
315.575	26.46
316.041	28.56
316.507	22.36
316.973	24.26
317.439	28.46
317.905	28.66
318.371	25.66
318.837	23.86
319.303	34.06
319.769	24.26
320.235	25.56
320.701	27.86
321.167	24.16
321.633	27.16
322.099	29.16
322.564	42.36
323.03	34.36
323.496	28.96
323.962	30.46
324.427	30.26
324.893	33.96
325.359	30.76
325.824	27.16
326.29	32.06
326.755	30.36
327.221	33.26
327.686	30.86
328.152	34.36
328.617	33.46
329.083	34.06
329.548	39.76
330.014	34.76
330.479	34.36
330.944	35.36
331.41	37.76
331.875	41.46
332.34	32.06
332.805	32.56
333.271	35.56
333.736	35.06
334.201	37.66
334.666	37.76
335.131	42.56
335.596	40.86
336.061	38.46
336.526	30.66
336.991	40.26
337.456	47.06
337.921	34.76
338.386	35.26
338.851	35.86
339.316	40.76
339.781	40.86
340.246	42.96
340.711	38.86
341.175	45.86
341.64	40.96
342.105	39.36
342.569	44.66
343.034	46.16
343.499	46.46
343.963	43.76
344.428	53.96
344.893	50.36
345.357	49.66
345.822	48.26
346.286	54.86
346.751	53.06
347.215	50.86
347.679	56.46
348.144	76.16
348.608	65.16
349.073	51.66
349.537	61.76
350.001	62.86
350.465	71.26
350.93	66.66
351.394	69.16
351.858	57.36
352.322	62.66
352.786	65.76
353.25	80.36
353.715	91.06
354.179	83.56
354.643	99.76
355.107	98.56
355.571	84.66
356.035	89.36
356.498	95.66
356.962	98.86
357.426	109.46
357.89	96.56
358.354	76.86
358.818	75.56
359.281	69.06
359.745	61.96
360.209	63.66
360.673	66.06
361.136	63.76
361.6	75.16
362.064	69.06
362.527	68.26
362.991	81.86
363.454	66.66
363.918	64.66
364.381	64.86
364.845	67.76
365.308	73.96
365.772	75.36
366.235	73.76
366.698	73.76
367.162	72.76
367.625	76.16
368.088	75.66
368.552	74.56
369.015	75.36
369.478	81.86
369.941	85.06
370.404	85.46
370.867	93.06
371.331	95.06
371.794	100.46
372.257	95.86
372.72	96.86
373.183	98.36
373.646	87.66
374.109	84.06
374.572	96.76
375.035	87.16
375.497	92.26
375.96	92.36
376.423	84.16
376.886	97.36
377.349	84.46
377.811	90.46
378.274	95.16
378.737	95.66
379.199	95.26
379.662	88.86
380.125	98.36
380.587	101.06
381.05	111.56
381.512	109.16
381.975	123.56
382.437	119.16
382.9	116.26
383.362	111.36
383.825	120.66
384.287	136.86
384.75	127.86
385.212	122.66
385.674	125.66
386.136	123.06
386.599	115.46
387.061	108.26
387.523	117.36
387.985	122.06
388.447	130.76
388.91	124.86
389.372	141.66
389.834	134.86
390.296	130.26
390.758	139.86
391.22	151.46
391.682	191.36
392.144	270.16
392.606	209.36
393.068	147.26
393.529	152.66
393.991	137.56
394.453	134.76
394.915	135.76
395.377	170.56
395.838	194.66
396.3	134.76
396.762	125.36
397.224	122.76
397.685	110.36
398.147	112.16
398.608	119.66
399.07	110.76
399.531	119.36
399.993	134.06
400.454	137.66
400.916	128.46
401.377	124.06
401.839	134.16
402.3	133.96
402.762	149.26
403.223	160.56
403.684	149.36
404.145	140.66
404.607	139.06
405.068	140.06
405.529	155.46
405.99	163.16
406.451	157.46
406.913	149.26
407.374	142.86
407.835	148.26
408.296	156.66
408.757	156.86
409.218	171.56
409.679	164.06
410.14	159.56
410.601	155.36
411.062	166.66
411.522	167.16
411.983	170.96
412.444	161.96
412.905	164.36
413.366	158.76
413.826	168.06
414.287	193.86
414.748	241.26
415.208	216.36
415.669	193.06
416.13	181.96
416.59	184.16
417.051	193.86
417.511	193.36
417.972	213.76
418.432	225.96
418.893	260.76
419.353	229.86
419.814	183.56
420.274	167.86
420.734	162.76
421.195	180.76
421.655	173.16
422.115	174.56
422.576	174.76
423.036	181.36
423.496	182.16
423.956	194.96
424.416	204.26
424.876	240.16
425.336	234.46
425.797	235.86
426.257	234.06
426.717	225.26
427.177	216.96
427.637	207.56
428.097	218.26
428.556	226.76
429.016	239.76
429.476	238.86
429.936	257.16
430.396	254.26
430.856	272.56
431.315	291.66
431.775	314.06
432.235	344.06
432.694	322.36
433.154	332.66
433.614	353.96
434.073	309.76
434.533	267.06
434.993	247.96
435.452	256.96
435.912	274.26
436.371	254.56
436.83	260.66
437.29	250.96
437.749	228.26
438.209	223.76
438.668	253.16
439.127	266.76
439.587	244.36
440.046	224.76
440.505	238.56
440.964	258.36
441.424	295.86
441.883	282.86
442.342	238.76
442.801	204.56
443.26	200.46
443.719	204.76
444.178	206.06
444.637	200.46
445.096	201.56
445.555	211.46
446.014	203.86
446.473	211.76
446.932	217.16
447.391	206.46
447.849	212.26
448.308	205.26
448.767	205.46
449.226	213.96
449.685	220.06
450.143	231.16
450.602	214.36
451.061	198.16
451.519	213.96
451.978	217.16
452.436	218.36
452.895	220.56
453.353	235.16
453.812	224.86
454.27	225.66
454.729	220.36
455.187	221.66
455.646	222.46
456.104	231.36
456.562	235.96
457.021	248.26
457.479	241.26
457.937	253.76
458.395	242.06
458.854	227.96
459.312	235.16
459.77	249.96
460.228	234.76
460.686	224.36
461.144	234.26
461.602	223.86
462.06	226.46
462.518	233.96
462.976	236.56
463.434	240.16
463.892	240.86
464.35	257.06
464.808	273.16
465.266	242.36
465.724	248.26
466.181	256.96
466.639	252.06
467.097	270.76
467.555	276.66
468.012	281.16
468.47	293.16
468.928	305.06
469.385	318.26
469.843	319.76
470.3	323.46
470.758	343.96
471.215	369.36
471.673	378.46
472.13	378.76
472.588	392.06
473.045	343.26
473.503	350.26
473.96	365.16
474.417	371.06
474.875	398.26
475.332	446.26
475.789	430.66
476.246	446.46
476.704	462.86
477.161	478.46
477.618	482.66
478.075	525.66
478.532	574.86
478.989	649.96
479.446	761.26
479.903	723.26
480.36	757.06
480.817	813.46
481.274	919.86
481.731	1018.16
482.188	1101.56
482.645	1231.36
483.102	1322.36
483.558	1463.96
484.015	1509.36
484.472	1490.56
484.929	1445.06
485.385	1398.26
485.842	1351.86
486.299	1277.46
486.755	1222.56
487.212	1035.46
487.668	874.76
488.125	803.26
488.582	733.06
489.038	696.16
489.494	672.36
489.951	644.36
490.407	611.16
490.864	611.06
491.32	607.76
491.776	606.66
492.233	609.86
492.689	574.86
493.145	569.96
493.602	560.16
494.058	581.96
494.514	580.46
494.97	601.36
495.426	604.26
495.882	590.66
496.338	568.26
496.794	586.36
497.251	571.66
497.707	588.56
498.163	596.36
498.618	599.76
499.074	610.76
499.53	636.56
499.986	642.56
500.442	609.46
500.898	595.96
501.354	591.46
501.809	603.96
502.265	604.26
502.721	633.66
503.177	641.86
503.632	634.96
504.088	640.76
504.543	668.66
504.999	665.26
505.455	621.26
505.91	591.66
506.366	593.96
506.821	586.96
507.277	589.46
507.732	590.16
508.187	588.86
508.643	598.66
509.098	606.86
509.553	620.26
510.009	627.66
510.464	633.56
510.919	653.06
511.375	651.86
511.83	667.86
512.285	683.56
512.74	717.36
513.195	739.26
513.65	732.46
514.105	728.36
514.56	731.76
515.015	750.06
515.47	766.06
515.925	754.36
516.38	749.96
516.835	748.96
517.29	743.26
517.745	738.26
518.2	721.76
518.655	710.66
519.109	695.86
519.564	699.06
520.019	679.56
520.474	686.56
520.928	687.26
521.383	682.16
521.838	675.76
522.292	676.86
522.747	680.66
523.201	657.26
523.656	664.66
524.11	658.36
524.565	654.56
525.019	659.96
525.474	665.46
525.928	658.16
526.382	656.76
526.837	652.26
527.291	669.46
527.745	665.66
528.2	658.56
528.654	654.46
529.108	656.86
529.562	647.36
530.016	663.16
530.47	658.56
530.925	663.56
531.379	657.96
531.833	678.96
532.287	663.96
532.741	667.86
533.195	670.26
533.649	683.16
534.103	679.86
534.556	674.56
535.01	687.46
535.464	665.16
535.918	675.26
536.372	679.26
536.826	687.06
537.279	671.66
537.733	677.96
538.187	686.56
538.64	684.56
539.094	679.56
539.548	688.66
540.001	691.16
540.455	684.46
540.908	698.76
541.362	706.06
541.815	716.26
542.269	720.16
542.722	727.46
543.175	735.06
543.629	730.86
544.082	751.66
544.536	760.86
544.989	753.16
545.442	764.56
545.895	757.76
546.349	758.56
546.802	754.36
547.255	754.76
547.708	766.26
548.161	783.06
548.614	784.16
549.067	790.26
549.52	782.16
549.973	769.46
550.426	766.86
550.879	761.46
551.332	766.86
551.785	760.66
552.238	773.36
552.691	782.06
553.144	799.06
553.596	810.76
554.049	831.96
554.502	847.86
554.955	857.86
555.407	872.66
555.86	859.16
556.313	843.86
556.765	838.26
557.218	844.96
557.67	842.06
558.123	829.86
558.576	829.46
559.028	831.66
559.48	848.16
559.933	834.46
560.385	798.96
560.838	771.46
561.29	745.46
561.742	747.26
562.195	738.26
562.647	729.06
563.099	727.76
563.551	739.96
564.004	749.36
564.456	742.46
564.908	732.36
565.36	725.76
565.812	705.36
566.264	700.46
566.716	696.26
567.168	696.16
567.62	696.46
568.072	680.86
568.524	671.86
568.976	658.36
569.428	647.16
569.88	642.16
570.332	655.66
570.784	657.26
571.235	655.76
571.687	663.86
572.139	668.16
572.59	676.86
573.042	683.66
573.494	684.06
573.945	676.66
574.397	665.26
574.849	658.76
575.3	658.56
575.752	659.86
576.203	652.76
576.655	652.96
577.106	643.76
577.557	646.36
578.009	640.86
578.46	639.96
578.912	633.46
579.363	636.36
579.814	625.76
580.265	630.46
580.717	640.36
581.168	634.06
581.619	647.46
582.07	659.56
582.521	650.66
582.972	641.56
583.423	648.26
583.875	661.86
584.326	681.26
584.777	731.86
585.227	800.76
585.678	886.66
586.129	988.46
586.58	1053.96
587.031	1136.66
587.482	1291.56
587.933	1466.76
588.384	1273.76
588.834	934.36
589.285	773.76
589.736	756.76
590.186	755.96
590.637	735.06
591.088	713.76
591.538	716.46
591.989	705.86
592.439	699.06
592.89	702.46
593.34	683.16
593.791	689.86
594.241	677.46
594.692	690.16
595.142	673.26
595.593	676.56
596.043	688.76
596.493	689.16
596.943	698.46
597.394	694.76
597.844	689.36
598.294	705.86
598.744	727.96
599.195	759.66
599.645	782.46
600.095	829.56
600.545	881.66
600.995	942.46
601.445	984.76
601.895	1052.06
602.345	1091.76
602.795	1062.56
603.245	1025.26
603.695	985.56
604.145	916.66
604.594	873.86
605.044	828.76
605.494	767.16
605.944	724.36
606.393	721.26
606.843	706.96
607.293	709.66
607.743	704.06
608.192	716.86
608.642	733.66
609.091	750.46
609.541	741.96
609.99	736.96
610.44	737.76
610.889	698.66
611.339	681.86
611.788	664.56
612.238	674.66
612.687	693.86
613.136	698.76
613.586	718.06
614.035	719.06
614.484	730.06
614.933	742.86
615.383	726.86
615.832	719.26
616.281	698.46
616.73	667.16
617.179	645.86
617.628	626.96
618.077	616.36
618.526	601.06
618.975	591.06
619.424	595.06
619.873	599.66
620.322	597.26
620.771	596.36
621.22	581.06
621.669	574.76
622.118	563.06
622.567	551.46
623.015	554.76
623.464	558.06
623.913	556.36
624.361	535.76
624.81	528.46
625.259	538.06
625.707	533.96
626.156	536.96
626.604	550.06
627.053	546.96
627.501	540.96
627.95	554.36
628.398	558.46
628.847	553.56
629.295	543.66
629.744	556.86
630.192	549.66
630.64	549.96
631.089	546.86
631.537	567.36
631.985	568.16
632.433	586.36
632.881	596.86
633.33	644.26
633.778	618.56
634.226	554.06
634.674	558.26
635.122	562.76
635.57	584.76
636.018	616.96
636.466	566.76
636.914	539.66
637.362	547.56
637.81	555.56
638.258	552.96
638.705	560.96
639.153	591.06
639.601	602.66
640.049	620.46
640.497	650.66
640.944	676.66
641.392	621.56
641.84	595.16
642.287	571.86
642.735	548.76
643.182	556.16
643.63	557.26
644.078	560.76
644.525	580.66
644.973	583.66
645.42	596.26
645.867	604.36
646.315	619.56
646.762	641.66
647.21	674.86
647.657	693.06
648.104	732.86
648.551	755.96
648.999	810.86
649.446	890.86
649.893	976.86
650.34	1145.66
650.787	1372.16
651.234	1705.66
651.682	2209.76
652.129	3047.56
652.576	4408.06
653.023	6499.66
653.47	8883.76
653.917	11080.16
654.363	12770.46
654.81	14068.16
655.257	13347.26
655.704	8717.46
656.151	5147.56
656.598	3332.26
657.044	2357.76
657.491	1802.56
657.938	1447.06
658.385	1204.96
658.831	1050.76
659.278	940.76
659.724	828.16
660.171	766.46
660.618	699.96
661.064	673.86
661.511	647.66
661.957	631.16
662.404	624.36
662.85	632.26
663.296	602.16
663.743	549.16
664.189	523.46
664.635	516.26
665.082	509.46
665.528	515.86
665.974	502.16
666.42	501.06
666.867	485.96
667.313	473.46
667.759	462.66
668.205	466.56
668.651	476.26
669.097	472.66
669.543	489.16
669.989	460.86
670.435	431.76
670.881	426.66
671.327	432.36
671.773	457.56
672.219	482.16
672.665	529.36
673.11	567.46
673.556	610.86
674.002	649.46
674.448	640.36
674.893	522.46
675.339	455.46
675.785	433.86
676.23	404.16
676.676	385.56
677.122	367.86
677.567	356.96
678.013	351.66
678.458	348.06
678.904	349.76
679.349	333.76
679.794	343.46
680.24	341.46
680.685	342.16
681.131	339.66
681.576	337.26
682.021	346.66
682.466	332.96
682.912	342.76
683.357	348.16
683.802	369.46
684.247	402.66
684.692	436.46
685.137	481.76
685.583	524.96
686.028	547.46
686.473	507.56
686.918	435.36
687.363	404.06
687.807	382.06
688.252	352.26
688.697	340.86
689.142	322.96
689.587	320.66
690.032	316.56
690.477	341.16
690.921	340.16
691.366	370.56
691.811	389.26
692.255	418.96
692.7	449.26
693.145	493.36
693.589	687.36
694.034	1099.46
694.478	1487.96
694.923	1684.86
695.367	2188.56
695.812	1154.36
696.256	479.76
696.701	359.66
697.145	328.36
697.59	315.56
698.034	315.96
698.478	317.06
698.922	310.26
699.367	323.66
699.811	332.06
700.255	349.46
700.699	375.86
701.143	417.06
701.588	463.16
702.032	500.16
702.476	499.86
702.92	480.16
703.364	477.26
703.808	628.86
704.252	1013.26
704.696	1408.66
705.14	1608.06
705.584	2055.16
706.027	1024.46
706.471	503.76
706.915	383.56
707.359	333.56
707.803	322.46
708.246	300.06
708.69	300.46
709.134	304.76
709.577	305.36
710.021	306.96
710.465	299.46
710.908	294.56
711.352	286.96
711.795	303.26
712.239	341.86
712.682	373.86
713.126	404.26
713.569	455.56
714.012	358.36
714.456	313.66
714.899	293.56
715.342	259.36
715.786	250.26
716.229	251.36
716.672	252.56
717.115	242.06
717.558	242.06
718.002	243.66
718.445	251.96
718.888	277.36
719.331	283.86
719.774	298.56
720.217	297.56
720.66	274.26
721.103	262.16
721.546	246.06
721.989	242.76
722.432	224.46
722.874	226.06
723.317	223.26
723.76	236.16
724.203	246.56
724.645	308.36
725.088	435.86
725.531	547.36
725.974	618.46
726.416	529.86
726.859	295.66
727.301	237.06
727.744	228.86
728.187	220.86
728.629	230.46
729.071	237.16
729.514	243.36
729.956	262.96
730.399	277.36
730.841	280.66
731.283	264.16
731.726	262.86
732.168	252.66
732.61	258.86
733.053	269.46
733.495	304.76
733.937	349.76
734.379	386.86
734.821	431.46
735.263	528.06
735.705	811.66
736.148	1549.76
736.59	2509.86
737.032	2931.36
737.474	2388.46
737.916	779.36
738.357	414.06
738.799	313.56
739.241	283.56
739.683	273.56
740.125	278.36
740.567	294.76
741.008	304.76
741.45	300.16
741.892	305.16
742.334	331.66
742.775	350.16
743.217	327.66
743.658	260.36
744.1	245.56
744.542	257.66
744.983	304.86
745.425	326.76
745.866	327.16
746.307	276.66
746.749	279.96
747.19	309.96
747.632	453.36
748.073	885.96
748.514	1837.96
748.956	2761.46
749.397	3469.96
749.838	2866.76
750.279	2827.96
750.72	1440.36
751.162	528.56
751.603	307.26
752.044	244.86
752.485	211.86
752.926	200.86
753.367	196.76
753.808	186.46
754.249	190.06
754.69	182.36
755.131	172.46
755.572	182.16
756.013	174.96
756.453	182.86
756.894	185.36
757.335	187.26
757.776	184.46
758.216	189.26
758.657	189.06
759.098	198.26
759.538	214.56
759.979	260.76
760.42	368.26
760.86	698.96
761.301	1806.86
761.741	4327.66
762.182	6175.86
762.622	4332.76
763.063	1274.56
763.503	533.56
763.943	331.96
764.384	332.06
764.824	390.76
765.264	425.06
765.705	296.86
766.145	209.46
766.585	186.36
767.025	178.36
767.465	186.56
767.906	246.16
768.346	305.16
768.786	326.56
769.226	260.16
769.666	305.46
770.106	621.76
770.546	1529.46
770.986	2549.86
771.426	2268.66
771.866	772.66
772.306	322.06
772.745	202.56
773.185	167.16
773.625	164.26
774.065	168.56
774.505	191.16
774.944	311.96
775.384	696.46
775.824	1228.66
776.263	1183.46
776.703	504.16
777.142	218.96
777.582	155.36
778.021	140.16
778.461	138.96
778.9	135.36
779.34	129.16
779.779	112.56
780.219	108.86
780.658	101.56
781.097	106.46
781.537	112.86
781.976	109.16
782.415	97.96
782.855	105.26
783.294	106.36
783.733	106.26
784.172	105.36
784.611	103.66
785.05	109.36
785.489	108.06
785.928	117.56
786.367	117.96
786.806	113.66
787.245	125.26
787.684	135.86
788.123	143.16
788.562	127.86
789.001	126.76
789.44	122.66
789.879	120.56
790.317	116.46
790.756	127.26
791.195	126.96
791.634	145.96
792.072	199.46
792.511	364.86
792.95	1004.96
793.388	2077.36
793.827	1853.36
794.265	659.46
794.704	272.96
795.142	178.86
795.581	144.06
796.019	133.46
796.458	122.96
796.896	122.16
797.334	123.66
797.773	149.26
798.211	215.26
798.649	434.06
799.087	1003.66
799.526	1539.86
799.964	1971.36
800.402	1929.36
800.84	732.16
801.278	287.06
801.716	184.66
802.154	139.76
802.592	134.86
803.03	133.56
803.468	129.06
803.906	138.76
804.344	142.06
804.782	137.96
805.22	129.86
805.658	129.16
806.096	142.76
806.533	150.36
806.971	171.46
807.409	213.66
807.847	312.86
808.284	654.16
808.722	1830.26
809.16	3168.86
809.597	3044.36
810.035	5258.96
810.472	5528.66
810.91	2009.36
811.347	770.36
811.785	390.96
812.222	241.36
812.66	185.16
813.097	159.06
813.535	132.76
813.972	126.06
814.409	114.36
814.846	109.56
815.284	107.06
815.721	100.46
816.158	99.56
816.595	115.86
817.032	167.86
817.47	190.36
817.907	157.26
818.344	147.26
818.781	115.66
819.218	98.76
819.655	120.16
820.092	181.16
820.529	202.66
820.966	167.76
821.403	131.56
821.839	104.26
822.276	103.36
822.713	123.06
823.15	126.46
823.587	111.76
824.023	147.16
824.46	298.86
824.897	885.46
825.333	1315.06
825.77	557.66
826.206	221.36
826.643	133.76
827.08	103.56
827.516	79.96
827.953	68.16
828.389	82.26
828.825	63.46
829.262	64.76
829.698	65.06
830.135	61.86
830.571	63.36
831.007	57.06
831.443	61.16
831.88	60.66
832.316	66.16
832.752	61.86
833.188	65.36
833.624	58.26
834.06	65.86
834.497	67.96
834.933	66.06
835.369	75.46
835.805	62.26
836.241	75.46
836.677	78.86
837.112	89.76
837.548	101.36
837.984	127.76
838.42	193.46
838.856	492.16
839.292	1487.56
839.727	2212.86
840.163	1035.56
840.599	912.36
841.034	1989.46
841.47	2044.46
841.906	756.06
842.341	325.56
842.777	228.76
843.212	319.56
843.648	304.86
844.083	153.36
844.519	97.06
844.954	77.76
845.39	55.76
845.825	59.76
846.261	55.76
846.696	54.66
847.131	56.66
847.566	58.46
848.002	51.46
848.437	53.96
848.872	61.96
849.307	61.16
849.742	76.16
850.177	182.26
850.613	541.86
851.048	848.66
851.483	371.06
851.918	150.46
852.353	83.76
852.788	60.26
853.223	56.66
853.657	60.26
854.092	45.36
854.527	38.86
854.962	39.66
855.397	45.06
855.832	55.96
856.266	42.26
856.701	40.16
857.136	36.16
857.57	38.96
858.005	50.66
858.44	57.36
858.874	48.26
859.309	49.46
859.743	34.66
860.178	45.96
860.612	33.26
861.047	49.36
861.481	62.86
861.915	62.36
862.35	39.16
862.784	28.76
863.218	35.86
863.653	36.66
864.087	49.96
864.521	57.36
864.955	76.96
865.39	149.86
865.824	171.76
866.258	110.86
866.692	153.36
867.126	168.56
867.56	96.46
867.994	52.16
868.428	41.56
868.862	44.96
869.296	52.06
869.73	51.36
870.164	50.56
870.598	46.06
871.031	39.16
871.465	29.46
871.899	29.76
872.333	22.36
872.766	28.26
873.2	20.66
873.634	30.06
874.067	23.26
874.501	26.16
874.935	39.36
875.368	32.26
875.802	30.96
876.235	21.56
876.669	25.46
877.102	19.46
877.535	28.36
877.969	22.26
878.402	20.16
878.836	17.16
879.269	24.96
879.702	25.46
880.135	19.66
880.569	19.06
881.002	31.96
881.435	24.86
881.868	19.26
882.301	23.06
882.734	18.36
883.167	24.76
883.601	17.86
884.034	21.96
884.467	11.16
884.899	23.56
885.332	18.26
885.765	15.26
886.198	16.16
886.631	15.26
887.064	17.66
887.497	21.36
887.929	26.06
888.362	13.76
888.795	8.36
889.228	12.96
889.66	20.46
890.093	16.66
890.526	15.86
890.958	18.56
891.391	14.66
891.823	20.36
892.256	11.76
892.688	7.96
893.121	12.76
893.553	20.46
893.985	20.36
894.418	18.46
894.85	13.96
895.282	14.76
895.715	18.06
896.147	12.66
896.579	18.56
897.011	13.06
897.444	22.76
897.876	13.86
898.308	17.36
898.74	14.96
899.172	9.56
899.604	21.96
900.036	17.16
900.468	13.36
900.9	11.26
901.332	20.86
901.764	15.86
902.196	20.36
902.628	20.26
903.06	16.96
903.491	32.66
903.923	19.86
904.355	23.86
904.787	20.96
905.218	23.36
905.65	17.96
906.082	16.06
906.513	10.66
906.945	13.76
907.376	13.06
907.808	17.26
908.239	19.86
908.671	20.86
909.102	26.06
909.534	23.96
909.965	44.66
910.397	97.36
910.828	306.36
911.259	459.76
911.691	205.86
912.122	104.36
912.553	50.66
912.984	38.26
913.415	25.16
913.847	22.96
914.278	12.76
914.709	15.46
915.14	15.46
915.571	16.86
916.002	15.26
916.433	19.76
916.864	14.56
917.295	15.56
917.726	20.36
918.157	17.76
918.587	27.46
919.018	26.16
919.449	21.36
919.88	18.86
920.311	26.46
920.741	51.06
921.172	158.26
921.603	145.66
922.033	75.26
922.464	44.26
922.895	21.26
923.325	19.56
923.756	19.96
924.186	13.86
924.617	26.36
925.047	43.26
925.478	55.66
925.908	48.36
926.338	25.36
926.769	19.66
927.199	25.76
927.629	12.36
928.06	12.36
928.49	17.86
928.92	12.56
929.35	13.26
929.78	6.46
930.21	6.96
930.641	4.06
931.071	8.16
931.501	1.16
931.931	6.16
932.361	12.56
932.791	-0.14
933.221	7.56
933.651	5.56
934.08	12.36
934.51	24.36
934.94	11.66
935.37	6.06
935.8	8.26
936.229	10.16
936.659	12.36
937.089	-0.64
937.519	14.96
937.948	23.66
938.378	13.56
938.807	0.66
939.237	2.66
939.666	3.36
940.096	1.66
940.525	3.06
940.955	2.06
941.384	8.16
941.814	-3.24
942.243	2.86
942.672	2.06
943.102	1.66
943.531	-2.94
943.96	3.86
944.39	1.06
944.819	-0.74
945.248	4.06
945.677	5.56
946.106	0.66
946.535	4.86
946.964	-0.84
947.393	0.06
947.822	2.76
948.251	-2.34
948.68	6.16
949.109	6.76
949.538	8.36
949.967	-0.44
950.396	-0.14
950.825	-4.04
951.254	-1.54
951.682	-5.64
952.111	3.26
952.54	5.66
952.969	-6.24
953.397	-2.64
953.826	-0.94
954.254	-0.34
954.683	2.96
955.112	-0.64
955.54	0.56
955.969	1.86
956.397	3.06
956.826	-4.74
957.254	-0.94
957.682	-2.04
958.111	1.46
958.539	4.86
958.967	-2.94
959.396	-2.94
959.824	-0.44
960.252	5.16
960.68	-5.94
961.109	-4.04
961.537	-5.84
961.965	4.96
962.393	2.06
962.821	0.26
963.249	3.06
963.677	2.36
964.105	1.36
964.533	43.66
964.961	39.86
965.389	17.76
965.817	5.36
966.245	1.86
966.672	6.66
967.1	-2.14
967.528	5.36
967.956	-2.34
968.383	-0.34
968.811	-4.34
969.239	-2.94
969.666	-6.04
970.094	-2.14
970.522	3.46
970.949	-3.24
971.377	-4.34
971.804	-2.44
972.232	-2.34
972.659	-1.44
973.087	-0.94
973.514	-5.54
973.941	0.56
974.369	6.16
974.796	7.66
975.223	-4.54
975.651	-1.04
976.078	-2.64
976.505	-3.64
976.932	3.96
977.359	16.56
977.786	10.76
978.214	-5.34
978.641	-0.54
979.068	0.56
979.495	-7.34
979.922	-3.34
980.349	-1.34
980.776	-0.24
981.202	1.26
981.629	5.86
982.056	2.76
982.483	-2.64
982.91	-0.04
983.337	-8.84
983.763	1.56
984.19	-0.64
984.617	-5.84
985.043	-11.04
985.47	-5.44
985.897	-2.74
986.323	-3.24
986.75	-0.84
987.176	-3.44
987.603	-0.34
988.029	-0.24
988.456	-5.04
988.882	0.86
989.308	-7.24
989.735	-5.54
990.161	6.16
990.587	-2.44
991.014	3.06
991.44	3.56
991.866	-1.04
992.292	-6.64
992.719	-4.24
993.145	1.96
993.571	-9.14
993.997	-0.84
994.423	0.46
994.849	0.96
995.275	-1.74
995.701	-3.34
996.127	-6.94
996.553	3.66
996.979	-8.44
997.405	-1.54
997.83	-5.24
998.256	-3.64
998.682	-0.44
999.108	-4.44
999.534	2.66
999.959	-4.64
1000.385	-1.64
1000.811	-0.04
1001.236	-6.74
1001.662	-5.14
1002.087	-5.04
1002.513	0.06
1002.938	-6.74
1003.364	-2.24
1003.789	-3.84
1004.215	7.96
1004.64	-8.34
1005.066	6.56
1005.491	-0.64
1005.916	-0.74
1006.342	-4.74
1006.767	-8.54
1007.192	6.06
1007.617	-4.14
1008.042	-11.44
1008.468	-7.34
1008.893	-3.24
1009.318	-4.04
1009.743	1.86
1010.168	-0.64
1010.593	-6.74
1011.018	-7.44
1011.443	-4.54
1011.868	-0.84
1012.293	-4.84
1012.718	-8.34
1013.143	-1.54
1013.567	0.36
1013.992	-2.94
1014.417	-16.54
1014.842	0.86
1015.267	-7.64
1015.691	0.66
1016.116	1.76
1016.541	0.16
1016.965	0.36
1017.39	4.76
1017.814	-1.64
1018.239	-3.04
1018.663	-5.74
1019.088	-12.64
1019.512	1.16
1019.937	-4.94
1020.361	-1.84
1020.785	-11.94
1021.21	-2.94
1021.634	0.36
1022.058	1.46
1022.483	7.46
1022.907	-2.14
1023.331	-2.04
1023.755	-4.44
1024.179	-6.94
1024.604	-11.04
1025.028	-9.74
1025.452	-7.64
1025.876	5.96
1026.3	3.96
1026.724	-7.34
1027.148	-7.64
1027.572	-8.04
1027.996	-6.04
1028.42	-1.04
1028.843	-8.74
1029.267	-11.44
1029.691	-6.44
1030.115	-3.74
1030.539	-10.34
1030.962	-5.14
1031.386	-12.04
1031.81	2.06
1032.233	3.66
1032.657	-5.34
1033.08	-5.34
1033.504	-7.94
1033.927	-5.14
1034.351	-1.84
1034.774	-0.54
1035.198	2.56
1035.621	-7.24
1036.045	-9.54
1036.468	-1.34
1036.891	-4.84
1037.315	-8.84
1037.738	-12.64
1038.161	-0.34
1038.584	-6.14
1039.008	-8.34
1039.431	-4.44
1039.854	-4.34
1040.277	-9.04
1040.7	-11.74
1041.123	0.16
1041.546	-4.74
1041.969	-5.74
1042.392	-1.14
1042.815	-8.54
1043.238	2.96
1043.661	-4.34
1044.084	-3.54
1044.507	-6.64
1044.93	-4.94
1045.352	-3.34
1045.775	-4.74
1046.198	0.26
1046.621	-3.34
1047.043	-0.24
1047.466	6.56
1047.889	-5.54
1048.311	-2.24
1048.734	-3.34
1049.156	-2.74
1049.579	-1.04
1050.001	1.86
1050.424	-3.64
1050.846	-4.84
1051.269	-5.54
1051.691	-5.54
1052.113	-1.34
1052.536	-3.84
1052.958	0.56
1053.38	-4.44
1053.802	-11.64
1054.225	4.36
1054.647	-6.44
1055.069	-2.84
1055.491	1.36
1055.913	-9.34
1056.335	-0.54
1056.757	-5.64
1057.179	-9.14
1057.601	-7.04
1058.023	-6.54
1058.445	-6.04
1058.867	-3.54
1059.289	-3.14
1059.711	-5.94
1060.133	-4.24
1060.555	-3.74
1060.976	-5.74
1061.398	-7.54
1061.82	-9.64
1062.241	-5.24
1062.663	-9.24
1063.085	-6.54
1063.506	-1.54
1063.928	-2.64
1064.35	-1.14
1064.771	-17.44
1065.193	-2.94
1065.614	-8.54
1066.035	1.36
1066.457	-5.54
1066.878	4.16
1067.3	-3.54
1067.721	-4.84
1068.142	-6.54
1068.564	-1.34
1068.985	-4.44
1069.406	-6.04
1069.827	-3.24
1070.248	-4.94
1070.67	-9.64
1071.091	-12.44
1071.512	-3.74
1071.933	-0.64
1072.354	-3.64
1072.775	-6.44
1073.196	-5.44
1073.617	-8.24
1074.038	-12.04
1074.459	-2.34
1074.88	-11.84
1075.3	1.26
1075.721	-11.34
1076.142	3.36
1076.563	1.26
1076.983	-11.44
1077.404	-5.94
1077.825	-7.84
1078.246	-2.84
1078.666	-9.24
1079.087	-6.64
1079.507	-6.44
1079.928	0.26
1080.348	-0.34
1080.769	-9.94
1081.189	-4.24
1081.61	-2.64
1082.03	-6.64
1082.451	-8.24
1082.871	0.26
1083.291	-8.84
1083.711	-8.34
1084.132	-6.64
1084.552	-7.44
1084.972	-1.64
1085.392	-14.64
1085.813	-15.34
1086.233	-8.04
1086.653	-3.34
1087.073	-0.14
1087.493	-9.34
1087.913	-11.24
1088.333	-7.94
1088.753	-5.24
1089.173	-1.44
1089.593	-1.74
1090.013	1.56
1090.433	1.96
1090.852	-1.14
1091.272	-5.64
1091.692	-3.44
1092.112	-4.94
1092.531	-9.64
1092.951	-14.54
1093.371	1.76
1093.79	1.86
1094.21	-6.04
1094.63	-7.44
1095.049	-7.14
1095.469	-1.34
1095.888	-4.44
1096.308	1.16
1096.727	4.36
1097.146	-5.14
1097.566	-4.64
1097.985	-2.84
1098.405	-0.74
1098.824	-5.34
1099.243	-5.44
1099.662	-8.54
1100.082	-3.44
1100.501	-7.74
1100.92	-12.34
1101.339	-10.94
1101.758	-2.14
