Data from 20171114-ORNL-Ar_H_NY_Subt18_08-09-04-306.txt Node
Date: Tue Nov 14 08:09:04 EST 2017
User: Ender
Spectrometer: HR+D1039
Trigger mode: 0
Integration Time (sec): 2.730000E-2
Scans to average: 10
Electric dark correction enabled: true
Nonlinearity correction enabled: false
Boxcar width: 0
XAxis mode: Wavelengths
Number of Pixels in Spectrum: 2048
>>>>>Begin Spectral Data<<<<<
187.836	-4.87
188.309	-4.87
188.782	-4.87
189.255	-1.97
189.728	-2.77
190.201	5.83
190.674	3.23
191.147	6.13
191.619	-5.27
192.092	-2.27
192.565	-0.37
193.038	4.63
193.511	1.33
193.984	1.13
194.456	-0.87
194.929	1.03
195.402	-3.87
195.874	-1.07
196.347	-3.07
196.82	-1.67
197.292	4.53
197.765	-0.37
198.237	-12.87
198.71	3.03
199.182	0.63
199.655	4.13
200.127	7.03
200.6	-5.27
201.072	-1.27
201.544	-3.47
202.017	-0.57
202.489	6.23
202.961	1.63
203.433	-3.37
203.906	-9.07
204.378	-8.07
204.85	-0.67
205.322	-5.77
205.794	-3.17
206.266	-1.67
206.739	-9.27
207.211	-0.07
207.683	-2.77
208.155	-5.67
208.627	-8.27
209.099	-4.17
209.57	-9.17
210.042	-7.27
210.514	-5.77
210.986	-5.87
211.458	-8.47
211.93	-4.97
212.402	3.23
212.873	-8.77
213.345	-8.27
213.817	-13.97
214.288	-3.47
214.76	-9.97
215.232	-5.77
215.703	-3.97
216.175	-3.47
216.646	-2.77
217.118	-4.07
217.589	-4.57
218.061	3.53
218.532	-4.47
219.004	-0.37
219.475	-2.37
219.946	-2.57
220.418	-5.17
220.889	5.03
221.36	-0.77
221.832	-0.67
222.303	-2.57
222.774	0.73
223.245	-8.57
223.717	-5.87
224.188	-3.27
224.659	-8.17
225.13	-8.37
225.601	0.33
226.072	4.13
226.543	6.03
227.014	-2.17
227.485	-0.77
227.956	-5.37
228.427	1.13
228.898	-0.27
229.369	2.13
229.839	-3.67
230.31	-4.87
230.781	1.23
231.252	-3.57
231.722	-6.77
232.193	-4.67
232.664	-5.07
233.135	-1.77
233.605	-0.07
234.076	-2.17
234.546	-2.27
235.017	-0.77
235.487	0.43
235.958	-1.37
236.428	-3.37
236.899	-0.97
237.369	2.33
237.84	-7.07
238.31	0.53
238.78	0.13
239.251	-6.47
239.721	-4.87
240.191	-4.67
240.662	2.13
241.132	-4.17
241.602	-8.37
242.072	-4.97
242.542	0.03
243.013	-3.67
243.483	1.33
243.953	-0.97
244.423	-2.57
244.893	-11.37
245.363	-2.47
245.833	-0.47
246.303	-7.67
246.773	4.43
247.243	-0.77
247.712	-0.77
248.182	3.43
248.652	2.53
249.122	-6.77
249.592	1.03
250.061	0.03
250.531	5.33
251.001	-2.97
251.471	3.63
251.94	4.73
252.41	-1.17
252.879	-3.67
253.349	5.93
253.818	3.63
254.288	2.73
254.757	4.73
255.227	-3.37
255.696	5.23
256.166	3.13
256.635	4.43
257.105	1.03
257.574	-5.77
258.043	-4.37
258.513	-4.37
258.982	-1.17
259.451	-6.97
259.92	-6.07
260.389	1.13
260.859	5.03
261.328	0.33
261.797	-1.47
262.266	1.43
262.735	7.23
263.204	3.03
263.673	3.23
264.142	4.43
264.611	-7.97
265.08	-2.87
265.549	-3.87
266.018	7.33
266.487	-6.17
266.955	-6.57
267.424	-1.87
267.893	4.83
268.362	-1.97
268.83	0.53
269.299	8.53
269.768	2.03
270.236	-1.77
270.705	-3.37
271.174	-3.97
271.642	1.43
272.111	-3.47
272.579	-1.47
273.048	4.83
273.516	2.43
273.985	3.43
274.453	7.03
274.922	10.03
275.39	9.43
275.858	-8.37
276.327	6.83
276.795	13.83
277.263	-0.67
277.731	8.43
278.2	11.03
278.668	5.93
279.136	5.03
279.604	-1.37
280.072	3.33
280.54	4.33
281.008	6.03
281.477	13.93
281.945	8.73
282.413	8.53
282.881	14.43
283.348	3.03
283.816	6.33
284.284	5.73
284.752	9.23
285.22	-0.27
285.688	6.13
286.156	8.13
286.623	17.73
287.091	3.73
287.559	5.73
288.026	5.83
288.494	9.33
288.962	2.93
289.429	4.33
289.897	12.83
290.364	5.03
290.832	7.93
291.3	14.43
291.767	15.13
292.234	14.73
292.702	0.83
293.169	10.73
293.637	16.33
294.104	17.13
294.571	4.93
295.039	14.83
295.506	10.53
295.973	5.03
296.44	10.93
296.908	12.13
297.375	10.63
297.842	11.23
298.309	12.93
298.776	4.53
299.243	13.03
299.71	9.73
300.177	15.93
300.644	14.83
301.111	14.83
301.578	19.33
302.045	9.93
302.512	11.93
302.979	14.93
303.446	17.73
303.913	11.03
304.379	8.53
304.846	20.13
305.313	19.33
305.78	12.93
306.246	23.13
306.713	15.33
307.18	15.63
307.646	23.53
308.113	19.73
308.579	19.23
309.046	13.23
309.512	18.73
309.979	13.13
310.445	25.83
310.912	14.23
311.378	31.73
311.845	18.73
312.311	13.73
312.777	20.43
313.244	23.63
313.71	24.63
314.176	25.03
314.642	20.63
315.109	21.03
315.575	22.23
316.041	25.63
316.507	21.43
316.973	27.53
317.439	25.03
317.905	27.23
318.371	28.13
318.837	23.33
319.303	24.73
319.769	23.03
320.235	23.93
320.701	21.83
321.167	29.73
321.633	22.73
322.099	28.93
322.564	32.03
323.03	29.93
323.496	30.93
323.962	30.53
324.427	25.13
324.893	28.63
325.359	28.33
325.824	23.83
326.29	28.13
326.755	27.63
327.221	26.43
327.686	29.63
328.152	34.43
328.617	29.13
329.083	35.33
329.548	32.03
330.014	39.83
330.479	35.03
330.944	37.73
331.41	33.03
331.875	38.33
332.34	33.03
332.805	32.13
333.271	34.83
333.736	27.83
334.201	39.13
334.666	40.83
335.131	41.53
335.596	36.03
336.061	38.13
336.526	29.63
336.991	33.83
337.456	44.63
337.921	35.53
338.386	34.83
338.851	36.13
339.316	40.93
339.781	33.43
340.246	45.63
340.711	36.23
341.175	41.53
341.64	38.63
342.105	42.13
342.569	46.93
343.034	49.33
343.499	47.23
343.963	44.03
344.428	52.33
344.893	42.53
345.357	52.73
345.822	50.03
346.286	56.53
346.751	59.73
347.215	60.33
347.679	55.43
348.144	72.73
348.608	66.83
349.073	55.23
349.537	59.83
350.001	61.33
350.465	68.03
350.93	69.33
351.394	66.03
351.858	61.33
352.322	68.53
352.786	72.33
353.25	80.63
353.715	80.83
354.179	80.13
354.643	89.73
355.107	96.33
355.571	91.73
356.035	77.93
356.498	85.03
356.962	94.23
357.426	104.13
357.89	95.03
358.354	80.63
358.818	70.43
359.281	64.13
359.745	63.03
360.209	66.53
360.673	61.53
361.136	64.23
361.6	71.43
362.064	78.93
362.527	69.23
362.991	75.23
363.454	66.33
363.918	69.33
364.381	69.83
364.845	64.03
365.308	72.13
365.772	79.73
366.235	73.93
366.698	69.13
367.162	78.73
367.625	73.53
368.088	79.53
368.552	80.03
369.015	73.93
369.478	74.13
369.941	84.73
370.404	78.63
370.867	81.53
371.331	90.83
371.794	90.63
372.257	84.83
372.72	95.93
373.183	87.43
373.646	80.23
374.109	84.83
374.572	92.93
375.035	91.63
375.497	96.83
375.96	92.33
376.423	94.93
376.886	101.83
377.349	89.53
377.811	91.53
378.274	89.93
378.737	90.43
379.199	96.23
379.662	96.73
380.125	103.73
380.587	100.43
381.05	91.13
381.512	98.73
381.975	112.13
382.437	110.13
382.9	105.03
383.362	113.73
383.825	121.73
384.287	113.23
384.75	107.43
385.212	117.63
385.674	119.93
386.136	124.43
386.599	111.93
387.061	111.83
387.523	112.03
387.985	117.03
388.447	116.63
388.91	118.03
389.372	117.43
389.834	127.63
390.296	106.83
390.758	117.63
391.22	126.93
391.682	137.53
392.144	138.23
392.606	132.03
393.068	125.13
393.529	136.33
393.991	118.63
394.453	121.13
394.915	124.53
395.377	124.73
395.838	128.43
396.3	124.13
396.762	132.53
397.224	125.73
397.685	129.43
398.147	126.43
398.608	121.63
399.07	116.73
399.531	131.03
399.993	132.93
400.454	144.23
400.916	129.63
401.377	131.23
401.839	143.83
402.3	144.03
402.762	158.33
403.223	161.83
403.684	158.23
404.145	152.43
404.607	143.53
405.068	153.23
405.529	160.83
405.99	169.43
406.451	159.63
406.913	160.83
407.374	163.13
407.835	152.33
408.296	156.63
408.757	163.83
409.218	176.73
409.679	168.83
410.14	171.73
410.601	170.23
411.062	172.13
411.522	174.43
411.983	170.23
412.444	164.13
412.905	176.23
413.366	178.33
413.826	192.53
414.287	212.43
414.748	254.03
415.208	243.83
415.669	207.43
416.13	205.23
416.59	201.13
417.051	209.73
417.511	227.23
417.972	234.83
418.432	241.93
418.893	286.73
419.353	241.33
419.814	195.13
420.274	179.83
420.734	178.03
421.195	196.63
421.655	186.83
422.115	197.03
422.576	191.33
423.036	191.23
423.496	205.13
423.956	212.23
424.416	223.43
424.876	263.63
425.336	249.23
425.797	254.93
426.257	244.93
426.717	235.43
427.177	228.33
427.637	215.33
428.097	224.63
428.556	236.63
429.016	257.43
429.476	258.03
429.936	254.23
430.396	262.83
430.856	279.73
431.315	295.63
431.775	330.23
432.235	363.13
432.694	337.93
433.154	345.63
433.614	365.03
434.073	317.73
434.533	279.03
434.993	253.63
435.452	271.43
435.912	281.63
436.371	278.83
436.83	271.03
437.29	255.43
437.749	241.73
438.209	250.53
438.668	272.33
439.127	281.63
439.587	256.03
440.046	242.73
440.505	254.73
440.964	273.03
441.424	313.03
441.883	306.43
442.342	256.03
442.801	224.73
443.26	219.43
443.719	228.83
444.178	223.13
444.637	207.03
445.096	220.53
445.555	224.73
446.014	223.03
446.473	234.33
446.932	237.33
447.391	226.83
447.849	233.73
448.308	226.23
448.767	229.03
449.226	241.53
449.685	246.63
450.143	254.23
450.602	244.23
451.061	226.63
451.519	238.33
451.978	232.83
452.436	234.33
452.895	238.83
453.353	255.13
453.812	244.23
454.27	238.63
454.729	243.83
455.187	245.13
455.646	244.33
456.104	247.03
456.562	260.13
457.021	271.83
457.479	265.23
457.937	279.33
458.395	266.63
458.854	249.33
459.312	255.73
459.77	276.03
460.228	257.63
460.686	249.43
461.144	262.63
461.602	252.83
462.06	258.33
462.518	265.13
462.976	260.23
463.434	263.43
463.892	262.73
464.35	271.93
464.808	291.13
465.266	275.13
465.724	271.13
466.181	283.03
466.639	274.23
467.097	293.83
467.555	305.53
468.012	308.33
468.47	311.43
468.928	333.83
469.385	338.13
469.843	354.73
470.3	358.73
470.758	370.73
471.215	387.63
471.673	414.93
472.13	419.03
472.588	422.53
473.045	374.53
473.503	383.43
473.96	393.93
474.417	417.93
474.875	440.23
475.332	478.53
475.789	472.53
476.246	478.23
476.704	488.03
477.161	511.03
477.618	525.03
478.075	558.43
478.532	613.93
478.989	677.53
479.446	781.73
479.903	752.53
480.36	781.73
480.817	832.03
481.274	915.43
481.731	1008.53
482.188	1078.93
482.645	1195.83
483.102	1295.73
483.558	1403.33
484.015	1445.23
484.472	1413.73
484.929	1365.03
485.385	1330.73
485.842	1309.13
486.299	1252.53
486.755	1210.53
487.212	1042.23
487.668	896.33
488.125	827.33
488.582	765.13
489.038	739.13
489.494	702.13
489.951	677.73
490.407	668.13
490.864	651.23
491.32	643.13
491.776	646.53
492.233	646.23
492.689	618.23
493.145	610.13
493.602	608.13
494.058	614.53
494.514	613.63
494.97	640.43
495.426	655.23
495.882	624.33
496.338	615.13
496.794	632.83
497.251	628.63
497.707	628.73
498.163	634.23
498.618	647.43
499.074	642.63
499.53	673.63
499.986	672.33
500.442	645.53
500.898	623.93
501.354	613.93
501.809	635.73
502.265	623.63
502.721	636.83
503.177	650.43
503.632	655.33
504.088	657.83
504.543	673.93
504.999	703.93
505.455	672.83
505.91	649.33
506.366	657.13
506.821	643.53
507.277	641.63
507.732	645.53
508.187	647.33
508.643	659.43
509.098	650.33
509.553	664.23
510.009	678.23
510.464	687.43
510.919	701.93
511.375	711.83
511.83	730.13
512.285	738.33
512.74	777.93
513.195	788.43
513.65	782.53
514.105	787.93
514.56	790.23
515.015	803.93
515.47	809.13
515.925	798.23
516.38	796.83
516.835	796.03
517.29	789.73
517.745	796.33
518.2	776.93
518.655	767.23
519.109	758.43
519.564	754.43
520.019	744.13
520.474	739.93
520.928	744.53
521.383	733.13
521.838	721.03
522.292	728.73
522.747	729.03
523.201	723.43
523.656	718.13
524.11	719.03
524.565	716.73
525.019	711.23
525.474	710.13
525.928	710.83
526.382	720.03
526.837	721.13
527.291	720.83
527.745	718.63
528.2	726.13
528.654	707.03
529.108	713.93
529.562	700.73
530.016	703.23
530.47	709.63
530.925	701.13
531.379	713.23
531.833	711.93
532.287	710.73
532.741	714.83
533.195	727.03
533.649	719.93
534.103	736.83
534.556	714.53
535.01	729.63
535.464	718.33
535.918	733.83
536.372	729.93
536.826	736.63
537.279	726.43
537.733	734.73
538.187	726.93
538.64	728.83
539.094	742.33
539.548	741.23
540.001	740.73
540.455	739.43
540.908	748.53
541.362	753.73
541.815	775.43
542.269	781.33
542.722	785.13
543.175	790.93
543.629	789.23
544.082	809.13
544.536	806.13
544.989	804.53
545.442	823.33
545.895	814.93
546.349	815.03
546.802	816.23
547.255	824.63
547.708	822.93
548.161	841.63
548.614	836.83
549.067	855.53
549.52	850.33
549.973	837.63
550.426	832.53
550.879	819.73
551.332	818.23
551.785	840.33
552.238	835.63
552.691	850.13
553.144	855.93
553.596	879.13
554.049	894.43
554.502	937.53
554.955	926.23
555.407	933.53
555.86	930.93
556.313	913.23
556.765	908.43
557.218	905.63
557.67	899.43
558.123	915.93
558.576	898.03
559.028	908.13
559.48	916.13
559.933	909.93
560.385	861.93
560.838	834.83
561.29	817.93
561.742	810.43
562.195	800.53
562.647	788.73
563.099	802.63
563.551	798.83
564.004	808.43
564.456	792.13
564.908	781.23
565.36	766.13
565.812	748.63
566.264	740.23
566.716	737.43
567.168	728.33
567.62	739.83
568.072	731.73
568.524	717.73
568.976	708.83
569.428	700.53
569.88	702.93
570.332	706.43
570.784	708.43
571.235	711.53
571.687	720.73
572.139	725.63
572.59	737.93
573.042	736.83
573.494	742.13
573.945	728.93
574.397	714.63
574.849	715.33
575.3	715.33
575.752	712.63
576.203	707.53
576.655	707.83
577.106	696.23
577.557	679.23
578.009	691.03
578.46	694.33
578.912	690.13
579.363	682.53
579.814	694.43
580.265	679.23
580.717	691.23
581.168	699.93
581.619	708.73
582.07	700.03
582.521	698.03
582.972	708.23
583.423	704.13
583.875	694.13
584.326	712.93
584.777	718.93
585.227	745.13
585.678	746.83
586.129	760.03
586.58	795.33
587.031	810.73
587.482	839.53
587.933	866.83
588.384	847.23
588.834	800.33
589.285	797.93
589.736	809.93
590.186	790.63
590.637	795.53
591.088	764.33
591.538	770.13
591.989	759.43
592.439	747.63
592.89	752.33
593.34	732.93
593.791	730.63
594.241	720.63
594.692	722.93
595.142	722.33
595.593	719.93
596.043	736.33
596.493	732.13
596.943	734.73
597.394	738.53
597.844	745.73
598.294	759.83
598.744	777.53
599.195	811.63
599.645	857.03
600.095	887.33
600.545	960.03
600.995	1009.63
601.445	1078.53
601.895	1122.43
602.345	1170.23
602.795	1162.53
603.245	1118.33
603.695	1059.73
604.145	1008.63
604.594	943.43
605.044	899.53
605.494	831.93
605.944	781.43
606.393	781.63
606.843	756.83
607.293	762.43
607.743	753.93
608.192	769.73
608.642	777.33
609.091	787.83
609.541	786.13
609.99	788.13
610.44	785.43
610.889	737.53
611.339	724.23
611.788	710.43
612.238	721.43
612.687	726.73
613.136	717.63
613.586	743.23
614.035	726.13
614.484	735.63
614.933	740.33
615.383	725.43
615.832	735.63
616.281	733.13
616.73	702.23
617.179	687.83
617.628	665.53
618.077	655.33
618.526	639.93
618.975	652.63
619.424	641.43
619.873	636.23
620.322	642.83
620.771	628.83
621.22	624.53
621.669	608.53
622.118	609.93
622.567	600.33
623.015	590.23
623.464	595.43
623.913	576.13
624.361	582.63
624.81	579.23
625.259	576.13
625.707	584.03
626.156	572.13
626.604	591.03
627.053	582.23
627.501	584.63
627.95	600.53
628.398	609.63
628.847	588.83
629.295	593.93
629.744	609.53
630.192	593.93
630.64	585.13
631.089	557.23
631.537	557.33
631.985	548.13
632.433	557.43
632.881	550.53
633.33	552.43
633.778	536.83
634.226	544.93
634.674	556.93
635.122	557.03
635.57	577.53
636.018	583.93
636.466	594.63
636.914	583.53
637.362	592.03
637.81	604.43
638.258	615.63
638.705	611.13
639.153	646.83
639.601	652.03
640.049	673.23
640.497	707.13
640.944	728.43
641.392	668.83
641.84	636.73
642.287	609.93
642.735	581.03
643.182	583.53
643.63	592.93
644.078	582.43
644.525	596.23
644.973	606.83
645.42	617.53
645.867	640.13
646.315	660.63
646.762	679.73
647.21	704.63
647.657	734.23
648.104	751.53
648.551	778.33
648.999	833.73
649.446	915.13
649.893	1003.53
650.34	1141.53
650.787	1366.23
651.234	1688.73
651.682	2180.63
652.129	2954.63
652.576	4208.43
653.023	6118.63
653.47	8247.33
653.917	10130.23
654.363	11625.53
654.81	12704.23
655.257	12014.13
655.704	8002.13
656.151	4837.83
656.598	3161.23
657.044	2299.03
657.491	1777.93
657.938	1435.73
658.385	1211.93
658.831	1060.93
659.278	961.23
659.724	855.53
660.171	788.83
660.618	721.83
661.064	707.53
661.511	689.33
661.957	674.83
662.404	654.73
662.85	659.93
663.296	636.73
663.743	578.03
664.189	553.73
664.635	558.83
665.082	549.13
665.528	538.13
665.974	536.63
666.42	534.23
666.867	514.33
667.313	503.03
667.759	485.53
668.205	482.83
668.651	477.63
669.097	464.73
669.543	462.93
669.989	463.33
670.435	473.93
670.881	463.43
671.327	469.83
671.773	493.03
672.219	525.73
672.665	577.83
673.11	621.43
673.556	666.43
674.002	701.83
674.448	692.93
674.893	577.33
675.339	508.43
675.785	466.03
676.23	435.23
676.676	418.73
677.122	400.83
677.567	390.93
678.013	389.63
678.458	384.63
678.904	385.73
679.349	374.33
679.794	379.53
680.24	367.33
680.685	369.23
681.131	371.03
681.576	367.63
682.021	379.73
682.466	365.53
682.912	373.53
683.357	372.93
683.802	405.13
684.247	441.43
684.692	479.13
685.137	523.93
685.583	570.73
686.028	595.23
686.473	542.43
686.918	474.43
687.363	439.33
687.807	413.03
688.252	385.93
688.697	378.53
689.142	360.83
689.587	352.33
690.032	350.53
690.477	369.13
690.921	375.13
691.366	408.83
691.811	429.93
692.255	451.63
692.7	495.83
693.145	550.83
693.589	758.93
694.034	1240.73
694.478	1662.93
694.923	1824.93
695.367	2369.33
695.812	1259.03
696.256	528.73
696.701	398.23
697.145	369.43
697.59	348.83
698.034	336.93
698.478	343.63
698.922	347.33
699.367	344.53
699.811	356.53
700.255	380.53
700.699	409.03
701.143	447.83
701.588	501.13
702.032	544.53
702.476	542.53
702.92	523.03
703.364	536.63
703.808	707.13
704.252	1140.93
704.696	1574.33
705.14	1758.23
705.584	2251.33
706.027	1131.73
706.471	553.03
706.915	417.53
707.359	362.03
707.803	344.23
708.246	326.33
708.69	331.53
709.134	337.93
709.577	333.33
710.021	324.43
710.465	322.33
710.908	317.63
711.352	312.23
711.795	331.83
712.239	374.43
712.682	410.33
713.126	426.63
713.569	476.33
714.012	371.13
714.456	316.33
714.899	303.33
715.342	289.93
715.786	270.93
716.229	282.53
716.672	272.83
717.115	264.53
717.558	266.43
718.002	268.43
718.445	278.63
718.888	307.13
719.331	311.13
719.774	323.83
720.217	326.33
720.66	298.33
721.103	284.03
721.546	276.83
721.989	268.33
722.432	253.93
722.874	249.43
723.317	239.83
723.76	255.03
724.203	280.03
724.645	348.83
725.088	485.73
725.531	607.53
725.974	680.33
726.416	581.13
726.859	333.83
727.301	262.93
727.744	252.53
728.187	248.13
728.629	255.43
729.071	258.83
729.514	270.43
729.956	289.13
730.399	301.03
730.841	309.23
731.283	290.03
731.726	283.83
732.168	279.33
732.61	289.93
733.053	307.23
733.495	339.23
733.937	375.13
734.379	431.33
734.821	470.03
735.263	595.13
735.705	928.93
736.148	1767.83
736.59	2804.63
737.032	3225.03
737.474	2625.13
737.916	889.13
738.357	464.03
738.799	349.33
739.241	312.83
739.683	305.53
740.125	317.73
740.567	319.83
741.008	339.13
741.45	328.23
741.892	338.03
742.334	372.63
742.775	381.53
743.217	367.23
743.658	286.73
744.1	277.63
744.542	283.43
744.983	340.93
745.425	369.33
745.866	364.73
746.307	298.63
746.749	297.13
747.19	354.43
747.632	504.33
748.073	992.93
748.514	2064.23
748.956	3056.73
749.397	3882.43
749.838	3196.03
750.279	3114.03
750.72	1607.63
751.162	595.43
751.603	345.33
752.044	272.03
752.485	230.03
752.926	224.03
753.367	215.13
753.808	205.23
754.249	208.83
754.69	197.53
755.131	196.43
755.572	192.03
756.013	186.83
756.453	185.83
756.894	204.43
757.335	208.33
757.776	210.83
758.216	208.23
758.657	206.03
759.098	214.93
759.538	245.43
759.979	288.83
760.42	417.53
760.86	805.63
761.301	2097.83
761.741	4929.63
762.182	6764.33
762.622	4805.03
763.063	1426.93
763.503	587.13
763.943	355.53
764.384	293.13
764.824	258.03
765.264	246.63
765.705	219.83
766.145	198.03
766.585	190.53
767.025	187.53
767.465	175.13
767.906	192.93
768.346	202.63
768.786	213.13
769.226	234.23
769.666	338.23
770.106	702.43
770.546	1755.53
770.986	2807.83
771.426	2497.03
771.866	851.83
772.306	353.03
772.745	219.43
773.185	186.33
773.625	163.83
774.065	153.83
774.505	169.23
774.944	221.43
775.384	381.13
775.824	602.23
776.263	572.83
776.703	284.33
777.142	170.93
777.582	143.43
778.021	126.33
778.461	131.43
778.9	129.73
779.34	132.13
779.779	120.63
780.219	112.53
780.658	118.23
781.097	110.83
781.537	117.63
781.976	115.63
782.415	112.93
782.855	114.33
783.294	105.73
783.733	109.33
784.172	114.13
784.611	107.63
785.05	120.03
785.489	118.93
785.928	124.33
786.367	124.63
786.806	125.63
787.245	142.33
787.684	139.63
788.123	153.13
788.562	146.23
789.001	136.73
789.44	133.83
789.879	125.53
790.317	123.93
790.756	139.93
791.195	148.73
791.634	164.63
792.072	228.93
792.511	414.63
792.95	1127.53
793.388	2261.83
793.827	2002.93
794.265	712.73
794.704	299.73
795.142	196.43
795.581	167.33
796.019	151.33
796.458	139.83
796.896	130.83
797.334	142.73
797.773	175.43
798.211	236.13
798.649	505.23
799.087	1119.73
799.526	1741.93
799.964	2196.93
800.402	2107.63
800.84	818.43
801.278	326.43
801.716	201.23
802.154	165.43
802.592	157.03
803.03	153.03
803.468	142.13
803.906	151.23
804.344	164.83
804.782	147.33
805.22	139.93
805.658	138.33
806.096	157.33
806.533	176.03
806.971	186.43
807.409	234.53
807.847	347.33
808.284	758.03
808.722	2081.73
809.16	3535.63
809.597	3494.33
810.035	5880.33
810.472	6046.03
810.91	2246.93
811.347	873.23
811.785	440.23
812.222	277.93
812.66	216.73
813.097	183.33
813.535	157.93
813.972	136.43
814.409	121.83
814.846	119.23
815.284	120.43
815.721	109.93
816.158	120.33
816.595	123.23
817.032	170.93
817.47	195.73
817.907	128.23
818.344	107.43
818.781	102.43
819.218	102.53
819.655	137.33
820.092	203.13
820.529	225.93
820.966	181.43
821.403	139.03
821.839	105.53
822.276	111.33
822.713	131.63
823.15	151.43
823.587	131.53
824.023	168.43
824.46	344.43
824.897	996.43
825.333	1416.53
825.77	620.53
826.206	257.83
826.643	146.73
827.08	112.93
827.516	95.53
827.953	79.13
828.389	82.53
828.825	80.23
829.262	79.63
829.698	70.13
830.135	74.33
830.571	69.53
831.007	70.63
831.443	68.33
831.88	67.13
832.316	63.33
832.752	67.73
833.188	70.53
833.624	68.03
834.06	65.33
834.497	72.43
834.933	76.63
835.369	77.93
835.805	63.43
836.241	81.63
836.677	87.43
837.112	101.23
837.548	118.63
837.984	150.03
838.42	234.73
838.856	565.53
839.292	1673.13
839.727	2418.23
840.163	1159.33
840.599	1044.43
841.034	2220.43
841.47	2228.33
841.906	839.53
842.341	362.13
842.777	213.23
843.212	214.63
843.648	190.43
844.083	113.83
844.519	86.93
844.954	72.83
845.39	61.43
845.825	62.43
846.261	63.53
846.696	57.93
847.131	57.63
847.566	66.43
848.002	58.93
848.437	57.53
848.872	60.43
849.307	70.53
849.742	95.73
850.177	208.33
850.613	613.53
851.048	927.63
851.483	405.53
851.918	171.43
852.353	94.53
852.788	57.43
853.223	53.93
853.657	52.93
854.092	55.43
854.527	46.83
854.962	43.83
855.397	46.73
855.832	52.03
856.266	46.33
856.701	46.43
857.136	33.33
857.57	44.93
858.005	65.53
858.44	64.43
858.874	50.53
859.309	54.73
859.743	39.43
860.178	53.53
860.612	49.33
861.047	61.53
861.481	78.93
861.915	77.73
862.35	46.63
862.784	39.93
863.218	48.73
863.653	42.43
864.087	45.33
864.521	64.53
864.955	81.23
865.39	173.13
865.824	192.73
866.258	130.23
866.692	185.63
867.126	200.83
867.56	115.53
867.994	57.83
868.428	47.23
868.862	53.53
869.296	55.13
869.73	64.23
870.164	56.03
870.598	54.73
871.031	41.33
871.465	31.93
871.899	39.33
872.333	31.03
872.766	30.03
873.2	26.53
873.634	33.13
874.067	24.33
874.501	26.83
874.935	38.03
875.368	27.93
875.802	32.23
876.235	29.13
876.669	24.53
877.102	29.53
877.535	28.03
877.969	24.73
878.402	22.83
878.836	22.13
879.269	25.63
879.702	27.13
880.135	21.63
880.569	24.13
881.002	19.03
881.435	15.73
881.868	19.33
882.301	20.03
882.734	20.93
883.167	27.13
883.601	18.33
884.034	23.53
884.467	19.53
884.899	19.63
885.332	17.13
885.765	21.83
886.198	19.83
886.631	22.23
887.064	19.53
887.497	23.53
887.929	24.03
888.362	20.13
888.795	16.43
889.228	23.93
889.66	26.63
890.093	19.13
890.526	18.93
890.958	17.43
891.391	17.23
891.823	20.13
892.256	14.53
892.688	17.03
893.121	12.33
893.553	13.63
893.985	26.23
894.418	21.93
894.85	16.03
895.282	16.13
895.715	19.43
896.147	19.93
896.579	20.73
897.011	15.93
897.444	22.13
897.876	14.13
898.308	19.63
898.74	19.93
899.172	15.63
899.604	22.73
900.036	19.53
900.468	14.23
900.9	9.73
901.332	23.23
901.764	15.13
902.196	18.23
902.628	16.23
903.06	17.43
903.491	36.13
903.923	24.83
904.355	26.63
904.787	32.13
905.218	26.73
905.65	22.03
906.082	14.13
906.513	19.93
906.945	19.83
907.376	10.03
907.808	22.73
908.239	19.73
908.671	22.53
909.102	20.93
909.534	33.03
909.965	59.73
910.397	103.33
910.828	350.33
911.259	503.93
911.691	238.23
912.122	117.63
912.553	55.53
912.984	37.13
913.415	25.43
913.847	30.23
914.278	18.53
914.709	16.33
915.14	20.33
915.571	19.63
916.002	16.83
916.433	23.43
916.864	23.13
917.295	17.23
917.726	24.43
918.157	19.63
918.587	32.13
919.018	25.13
919.449	22.13
919.88	20.13
920.311	33.23
920.741	54.43
921.172	182.73
921.603	157.53
922.033	76.33
922.464	52.53
922.895	21.63
923.325	24.43
923.756	11.93
924.186	12.53
924.617	23.63
925.047	22.23
925.478	28.73
925.908	27.13
926.338	10.13
926.769	7.23
927.199	16.03
927.629	6.53
928.06	20.93
928.49	17.43
928.92	15.73
929.35	17.33
929.78	12.23
930.21	14.53
930.641	13.03
931.071	12.93
931.501	5.63
931.931	9.23
932.361	9.23
932.791	4.13
933.221	6.73
933.651	5.93
934.08	22.93
934.51	31.73
934.94	9.93
935.37	6.93
935.8	11.33
936.229	12.43
936.659	7.73
937.089	6.03
937.519	16.63
937.948	25.23
938.378	18.93
938.807	7.23
939.237	4.93
939.666	6.83
940.096	1.93
940.525	6.73
940.955	3.23
941.384	4.13
941.814	-4.57
942.243	0.73
942.672	6.03
943.102	-6.37
943.531	3.23
943.96	7.53
944.39	4.63
944.819	-3.87
945.248	-0.47
945.677	3.53
946.106	7.13
946.535	2.53
946.964	-1.57
947.393	0.13
947.822	0.63
948.251	-4.27
948.68	9.83
949.109	8.53
949.538	4.63
949.967	3.13
950.396	5.13
950.825	-0.57
951.254	2.83
951.682	-4.07
952.111	2.73
952.54	4.93
952.969	-6.57
953.397	-1.87
953.826	3.53
954.254	-2.17
954.683	1.63
955.112	1.83
955.54	-0.17
955.969	-3.47
956.397	4.23
956.826	-0.67
957.254	1.93
957.682	1.43
958.111	8.63
958.539	1.33
958.967	1.93
959.396	-0.07
959.824	-6.17
960.252	0.73
960.68	-3.27
961.109	1.43
961.537	-7.27
961.965	-2.17
962.393	-3.37
962.821	-1.87
963.249	-3.07
963.677	3.83
964.105	4.73
964.533	40.13
964.961	42.33
965.389	26.43
965.817	14.43
966.245	0.43
966.672	1.73
967.1	-9.67
967.528	2.43
967.956	0.43
968.383	2.33
968.811	0.93
969.239	-0.97
969.666	-4.27
970.094	-0.37
970.522	2.43
970.949	2.13
971.377	-1.67
971.804	0.53
972.232	-5.47
972.659	-0.87
973.087	-3.07
973.514	-0.17
973.941	-7.97
974.369	6.43
974.796	-0.17
975.223	-3.77
975.651	2.03
976.078	1.03
976.505	-0.47
976.932	1.23
977.359	18.83
977.786	12.33
978.214	-1.87
978.641	-2.47
979.068	-0.17
979.495	0.13
979.922	1.83
980.349	-0.67
980.776	1.43
981.202	-2.17
981.629	10.03
982.056	10.73
982.483	-5.97
982.91	-1.97
983.337	-3.57
983.763	4.23
984.19	-2.17
984.617	0.93
985.043	-6.97
985.47	-0.17
985.897	0.23
986.323	-5.77
986.75	4.03
987.176	-0.77
987.603	-6.17
988.029	-2.27
988.456	-4.37
988.882	-0.67
989.308	-11.67
989.735	-3.97
990.161	-1.77
990.587	-7.37
991.014	2.43
991.44	5.33
991.866	1.23
992.292	-5.87
992.719	0.13
993.145	3.53
993.571	-6.27
993.997	-3.47
994.423	1.63
994.849	-2.27
995.275	0.03
995.701	0.83
996.127	-4.77
996.553	3.83
996.979	-0.37
997.405	-3.17
997.83	-2.77
998.256	-6.67
998.682	-4.07
999.108	-8.57
999.534	0.03
999.959	0.53
1000.385	-5.37
1000.811	0.43
1001.236	-6.27
1001.662	-6.97
1002.087	-10.37
1002.513	-0.27
1002.938	3.93
1003.364	1.13
1003.789	-3.57
1004.215	2.43
1004.64	-7.47
1005.066	1.53
1005.491	-1.47
1005.916	-4.87
1006.342	-0.07
1006.767	-4.67
1007.192	9.73
1007.617	-8.97
1008.042	-2.27
1008.468	-0.87
1008.893	-4.47
1009.318	-7.27
1009.743	-0.47
1010.168	0.73
1010.593	-0.77
1011.018	-7.37
1011.443	-1.47
1011.868	-4.97
1012.293	-6.27
1012.718	-6.27
1013.143	0.23
1013.567	6.23
1013.992	-7.07
1014.417	-8.57
1014.842	2.13
1015.267	-6.77
1015.691	-7.07
1016.116	1.33
1016.541	-5.27
1016.965	8.83
1017.39	0.13
1017.814	-0.67
1018.239	-4.17
1018.663	-4.17
1019.088	-8.17
1019.512	-5.37
1019.937	-2.97
1020.361	-5.57
1020.785	-10.77
1021.21	1.63
1021.634	-6.67
1022.058	0.63
1022.483	1.43
1022.907	-6.17
1023.331	-4.77
1023.755	-3.17
1024.179	-2.97
1024.604	-7.17
1025.028	-3.87
1025.452	-4.97
1025.876	-0.07
1026.3	-1.67
1026.724	-12.37
1027.148	-1.57
1027.572	-10.77
1027.996	2.63
1028.42	-2.87
1028.843	0.63
1029.267	-0.67
1029.691	-1.07
1030.115	-5.37
1030.539	-6.87
1030.962	-6.37
1031.386	-6.57
1031.81	3.93
1032.233	0.03
1032.657	3.43
1033.08	0.83
1033.504	1.93
1033.927	-1.27
1034.351	5.13
1034.774	-0.87
1035.198	-2.57
1035.621	-4.37
1036.045	-6.47
1036.468	3.53
1036.891	-6.97
1037.315	-3.77
1037.738	-10.47
1038.161	-0.37
1038.584	-4.47
1039.008	-9.97
1039.431	-1.77
1039.854	-6.07
1040.277	-4.57
1040.7	-8.07
1041.123	-0.97
1041.546	-7.67
1041.969	-1.57
1042.392	-9.47
1042.815	-4.37
1043.238	-1.67
1043.661	2.23
1044.084	-9.27
1044.507	-5.17
1044.93	-9.27
1045.352	-7.47
1045.775	-0.67
1046.198	-1.17
1046.621	-5.87
1047.043	-0.77
1047.466	8.13
1047.889	-2.57
1048.311	-10.17
1048.734	0.03
1049.156	-3.27
1049.579	-6.37
1050.001	-5.27
1050.424	-4.47
1050.846	0.33
1051.269	2.63
1051.691	-3.57
1052.113	-13.37
1052.536	-1.97
1052.958	-2.17
1053.38	-4.17
1053.802	-8.17
1054.225	-3.57
1054.647	-5.47
1055.069	-12.57
1055.491	-1.87
1055.913	-17.67
1056.335	-3.67
1056.757	-4.07
1057.179	-4.17
1057.601	-6.77
1058.023	-7.77
1058.445	-7.47
1058.867	-3.47
1059.289	-7.37
1059.711	-7.37
1060.133	-0.97
1060.555	-6.87
1060.976	-4.67
1061.398	-5.57
1061.82	-5.97
1062.241	-5.27
1062.663	-8.37
1063.085	-4.97
1063.506	2.23
1063.928	2.63
1064.35	0.73
1064.771	-12.67
1065.193	-0.07
1065.614	-9.97
1066.035	-2.37
1066.457	-3.27
1066.878	0.43
1067.3	-5.37
1067.721	-2.97
1068.142	-3.37
1068.564	-0.37
1068.985	-8.97
1069.406	-3.97
1069.827	-3.77
1070.248	-0.97
1070.67	-5.17
1071.091	-4.57
1071.512	0.73
1071.933	-4.17
1072.354	-6.17
1072.775	-10.17
1073.196	-8.47
1073.617	-1.47
1074.038	-10.47
1074.459	-3.47
1074.88	-14.57
1075.3	-2.57
1075.721	-7.77
1076.142	1.13
1076.563	-2.47
1076.983	-10.07
1077.404	-5.97
1077.825	-16.77
1078.246	-5.17
1078.666	-13.57
1079.087	-5.77
1079.507	-7.97
1079.928	-1.17
1080.348	-4.07
1080.769	-5.37
1081.189	-5.27
1081.61	-10.87
1082.03	-10.57
1082.451	-10.87
1082.871	-4.27
1083.291	-7.47
1083.711	-13.77
1084.132	-6.07
1084.552	-10.37
1084.972	2.93
1085.392	-11.87
1085.813	-2.77
1086.233	-8.57
1086.653	-5.17
1087.073	-8.47
1087.493	-5.27
1087.913	-6.17
1088.333	-7.17
1088.753	3.43
1089.173	2.03
1089.593	-4.67
1090.013	-2.17
1090.433	-2.47
1090.852	1.23
1091.272	-6.27
1091.692	-4.57
1092.112	-3.87
1092.531	-9.57
1092.951	-15.47
1093.371	-6.97
1093.79	-0.07
1094.21	-6.07
1094.63	-3.87
1095.049	-6.97
1095.469	-2.47
1095.888	-9.87
1096.308	1.23
1096.727	-1.37
1097.146	-8.47
1097.566	-0.47
1097.985	-2.47
1098.405	-0.27
1098.824	-5.87
1099.243	-8.47
1099.662	-10.07
1100.082	-6.97
1100.501	-2.37
1100.92	-7.67
1101.339	-6.07
1101.758	-8.77
