Data from 20171114-ORNL-Ar_H_NY_Subt18_08-06-58-405.txt Node
Date: Tue Nov 14 08:06:58 EST 2017
User: Ender
Spectrometer: HR+D1039
Trigger mode: 0
Integration Time (sec): 2.730000E-2
Scans to average: 10
Electric dark correction enabled: true
Nonlinearity correction enabled: false
Boxcar width: 0
XAxis mode: Wavelengths
Number of Pixels in Spectrum: 2048
>>>>>Begin Spectral Data<<<<<
187.836	-10.98
188.309	-10.98
188.782	-10.98
189.255	1.12
189.728	-3.08
190.201	6.72
190.674	-1.98
191.147	5.62
191.619	-7.68
192.092	-0.48
192.565	4.62
193.038	0.82
193.511	0.42
193.984	0.02
194.456	0.82
194.929	0.92
195.402	2.32
195.874	0.72
196.347	-3.68
196.82	0.92
197.292	7.32
197.765	-5.98
198.237	-5.18
198.71	2.32
199.182	-4.58
199.655	0.92
200.127	5.02
200.6	-1.58
201.072	-4.38
201.544	-9.08
202.017	-0.38
202.489	7.22
202.961	1.52
203.433	-1.78
203.906	-4.38
204.378	-5.27
204.85	-1.28
205.322	-9.18
205.794	-1.68
206.266	-7.38
206.739	-11.58
207.211	7.92
207.683	-11.77
208.155	-3.78
208.627	-10.18
209.099	0.82
209.57	-8.48
210.042	-4.38
210.514	-1.58
210.986	-1.98
211.458	-7.98
211.93	-1.48
212.402	0.82
212.873	-6.28
213.345	-8.18
213.817	-8.48
214.288	-4.68
214.76	-12.88
215.232	-5.77
215.703	-0.08
216.175	-4.38
216.646	0.12
217.118	-12.08
217.589	-1.68
218.061	-1.18
218.532	-4.18
219.004	-2.88
219.475	-7.18
219.946	-2.68
220.418	-6.88
220.889	1.22
221.36	-4.68
221.832	-1.48
222.303	-6.38
222.774	7.32
223.245	-9.88
223.717	-7.58
224.188	-0.98
224.659	-8.68
225.13	-4.98
225.601	-0.08
226.072	3.72
226.543	-0.98
227.014	0.82
227.485	3.92
227.956	-4.18
228.427	-0.18
228.898	-3.18
229.369	8.72
229.839	-3.48
230.31	-4.68
230.781	1.32
231.252	-4.28
231.722	-6.78
232.193	-6.58
232.664	-2.78
233.135	-4.08
233.605	-4.77
234.076	-9.18
234.546	0.02
235.017	4.02
235.487	1.02
235.958	-4.38
236.428	-10.58
236.899	0.73
237.369	3.42
237.84	-3.78
238.31	1.42
238.78	1.32
239.251	-8.27
239.721	-6.78
240.191	-3.58
240.662	-7.38
241.132	-0.38
241.602	-5.18
242.072	-4.18
242.542	3.12
243.013	-2.18
243.483	5.72
243.953	0.82
244.423	-1.48
244.893	-10.18
245.363	-2.18
245.833	-4.48
246.303	-3.18
246.773	1.22
247.243	6.72
247.712	-2.98
248.182	1.82
248.652	4.42
249.122	-6.08
249.592	2.52
250.061	2.32
250.531	4.52
251.001	-0.48
251.471	3.92
251.94	0.42
252.41	3.62
252.879	-8.58
253.349	7.82
253.818	2.42
254.288	4.52
254.757	1.02
255.227	-0.98
255.696	2.42
256.166	0.12
256.635	3.92
257.105	4.02
257.574	1.22
258.043	1.73
258.513	-6.28
258.982	2.73
259.451	-5.88
259.92	-1.88
260.389	-4.58
260.859	5.82
261.328	0.82
261.797	2.52
262.266	3.72
262.735	2.12
263.204	3.42
263.673	-6.28
264.142	1.73
264.611	-5.28
265.08	0.22
265.549	-3.88
266.018	4.92
266.487	-0.78
266.955	-5.78
267.424	-2.48
267.893	-2.38
268.362	-1.18
268.83	-2.08
269.299	8.02
269.768	3.02
270.236	0.82
270.705	1.82
271.174	1.82
271.642	1.42
272.111	3.42
272.579	2.02
273.048	0.92
273.516	-1.68
273.985	0.62
274.453	3.92
274.922	7.92
275.39	3.92
275.858	-0.38
276.327	7.52
276.795	13.52
277.263	2.82
277.731	14.82
278.2	7.32
278.668	10.22
279.136	8.52
279.604	4.42
280.072	7.22
280.54	7.32
281.008	12.12
281.477	12.82
281.945	3.92
282.413	9.22
282.881	11.12
283.348	3.42
283.816	7.62
284.284	6.32
284.752	17.12
285.22	13.42
285.688	5.82
286.156	5.42
286.623	10.02
287.091	11.92
287.559	11.12
288.026	11.62
288.494	17.82
288.962	0.42
289.429	6.92
289.897	10.42
290.364	12.22
290.832	9.23
291.3	14.52
291.767	10.02
292.234	12.92
292.702	12.12
293.169	11.23
293.637	17.92
294.104	12.52
294.571	6.82
295.039	5.12
295.506	9.62
295.973	12.62
296.44	12.32
296.908	14.23
297.375	12.22
297.842	14.82
298.309	13.82
298.776	10.32
299.243	13.82
299.71	8.72
300.177	11.12
300.644	16.42
301.111	18.32
301.578	19.22
302.045	12.22
302.512	17.62
302.979	20.92
303.446	19.12
303.913	14.52
304.379	14.72
304.846	26.82
305.313	21.42
305.78	17.52
306.246	17.92
306.713	14.32
307.18	19.42
307.646	18.62
308.113	25.22
308.579	18.52
309.046	22.32
309.512	26.82
309.979	15.52
310.445	21.92
310.912	27.72
311.378	33.12
311.845	20.62
312.311	27.62
312.777	26.62
313.244	26.92
313.71	33.82
314.176	29.82
314.642	17.22
315.109	22.12
315.575	26.82
316.041	33.52
316.507	24.42
316.973	30.52
317.439	33.42
317.905	33.32
318.371	28.62
318.837	26.73
319.303	27.82
319.769	34.23
320.235	31.12
320.701	29.62
321.167	28.52
321.633	25.92
322.099	38.52
322.564	31.62
323.03	25.02
323.496	31.52
323.962	34.32
324.427	27.42
324.893	36.92
325.359	36.92
325.824	31.12
326.29	29.02
326.755	39.02
327.221	32.12
327.686	35.02
328.152	41.82
328.617	37.72
329.083	44.92
329.548	43.32
330.014	53.22
330.479	39.32
330.944	43.22
331.41	34.02
331.875	37.92
332.34	38.72
332.805	34.82
333.271	32.52
333.736	32.52
334.201	43.42
334.666	40.62
335.131	50.02
335.596	46.12
336.061	34.92
336.526	34.12
336.991	46.52
337.456	42.92
337.921	42.92
338.386	46.22
338.851	42.62
339.316	48.92
339.781	42.52
340.246	50.12
340.711	41.22
341.175	47.52
341.64	36.02
342.105	45.82
342.569	51.22
343.034	49.02
343.499	47.92
343.963	45.32
344.428	50.82
344.893	53.92
345.357	59.62
345.822	58.22
346.286	57.52
346.751	60.02
347.215	58.32
347.679	67.02
348.144	83.72
348.608	69.32
349.073	69.62
349.537	66.22
350.001	71.52
350.465	81.72
350.93	72.22
351.394	68.82
351.858	65.92
352.322	76.92
352.786	76.52
353.25	86.22
353.715	101.62
354.179	91.42
354.643	101.92
355.107	107.42
355.571	92.22
356.035	89.72
356.498	93.32
356.962	99.22
357.426	110.92
357.89	97.42
358.354	79.62
358.818	73.02
359.281	73.82
359.745	69.73
360.209	69.02
360.673	59.12
361.136	77.52
361.6	70.42
362.064	80.23
362.527	75.72
362.991	76.42
363.454	70.42
363.918	66.12
364.381	73.72
364.845	80.92
365.308	84.02
365.772	84.22
366.235	77.22
366.698	75.22
367.162	76.62
367.625	76.32
368.088	80.82
368.552	87.12
369.015	78.12
369.478	84.82
369.941	92.92
370.404	84.62
370.867	87.42
371.331	96.92
371.794	97.72
372.257	89.92
372.72	98.32
373.183	95.32
373.646	93.52
374.109	88.32
374.572	95.32
375.035	90.12
375.497	99.72
375.96	104.62
376.423	97.42
376.886	100.62
377.349	105.82
377.811	91.42
378.274	97.02
378.737	96.92
379.199	100.23
379.662	103.82
380.125	103.02
380.587	100.02
381.05	107.02
381.512	113.02
381.975	120.32
382.437	113.32
382.9	116.12
383.362	119.72
383.825	123.12
384.287	118.02
384.75	110.42
385.212	121.82
385.674	123.52
386.136	125.12
386.599	112.22
387.061	113.12
387.523	117.42
387.985	119.22
388.447	126.72
388.91	117.72
389.372	127.32
389.834	129.02
390.296	123.12
390.758	126.32
391.22	129.92
391.682	137.52
392.144	144.22
392.606	144.32
393.068	135.82
393.529	148.72
393.991	134.52
394.453	121.92
394.915	128.72
395.377	131.42
395.838	133.22
396.3	132.72
396.762	139.62
397.224	124.32
397.685	129.42
398.147	130.02
398.608	127.52
399.07	130.92
399.531	130.52
399.993	143.73
400.454	147.22
400.916	149.22
401.377	146.92
401.839	152.42
402.3	147.42
402.762	170.12
403.223	177.72
403.684	167.62
404.145	154.82
404.607	159.42
405.068	158.32
405.529	163.02
405.99	182.92
406.451	178.52
406.913	173.42
407.374	166.52
407.835	162.22
408.296	169.23
408.757	169.02
409.218	180.92
409.679	165.23
410.14	173.23
410.601	164.52
411.062	180.92
411.522	172.12
411.983	176.92
412.444	171.82
412.905	180.73
413.366	182.52
413.826	201.92
414.287	217.52
414.748	264.92
415.208	251.92
415.669	216.92
416.13	218.32
416.59	207.82
417.051	223.32
417.511	223.72
417.972	244.82
418.432	247.33
418.893	290.42
419.353	261.12
419.814	202.42
420.274	181.82
420.734	182.12
421.195	199.42
421.655	189.62
422.115	197.22
422.576	197.22
423.036	202.92
423.496	215.92
423.956	217.12
424.416	237.62
424.876	270.73
425.336	263.12
425.797	266.32
426.257	258.73
426.717	241.82
427.177	229.42
427.637	222.32
428.097	230.52
428.556	245.42
429.016	270.72
429.476	263.42
429.936	270.32
430.396	274.52
430.856	294.92
431.315	305.62
431.775	346.32
432.235	371.62
432.694	346.82
433.154	352.22
433.614	388.02
434.073	332.23
434.533	279.32
434.993	272.83
435.452	280.22
435.912	296.62
436.371	289.62
436.83	284.93
437.29	268.52
437.749	251.33
438.209	255.92
438.668	282.72
439.127	287.92
439.587	258.12
440.046	246.33
440.505	263.43
440.964	282.52
441.424	323.32
441.883	314.02
442.342	265.52
442.801	235.72
443.26	235.72
443.719	237.52
444.178	232.52
444.637	218.02
445.096	225.42
445.555	229.12
446.014	233.82
446.473	237.83
446.932	244.02
447.391	234.02
447.849	234.42
448.308	227.42
448.767	233.82
449.226	243.02
449.685	248.22
450.143	259.22
450.602	251.12
451.061	236.32
451.519	246.12
451.978	245.82
452.436	243.72
452.895	251.02
453.353	261.42
453.812	245.62
454.27	253.62
454.729	246.82
455.187	250.32
455.646	255.12
456.104	259.52
456.562	280.73
457.021	271.92
457.479	271.72
457.937	288.62
458.395	273.82
458.854	260.02
459.312	266.83
459.77	282.62
460.228	272.52
460.686	262.22
461.144	262.52
461.602	259.32
462.06	258.23
462.518	263.02
462.976	267.52
463.434	270.12
463.892	273.02
464.35	292.42
464.808	301.62
465.266	269.02
465.724	286.52
466.181	288.02
466.639	289.32
467.097	299.42
467.555	306.83
468.012	316.72
468.47	330.42
468.928	346.32
469.385	359.23
469.843	367.82
470.3	369.43
470.758	379.42
471.215	394.22
471.673	424.72
472.13	431.32
472.588	440.02
473.045	392.12
473.503	401.23
473.96	409.32
474.417	422.32
474.875	447.82
475.332	487.12
475.789	482.42
476.246	478.62
476.704	505.32
477.161	528.33
477.618	533.72
478.075	580.23
478.532	634.52
478.989	700.42
479.446	808.73
479.903	786.62
480.36	812.72
480.817	865.62
481.274	952.02
481.731	1045.82
482.188	1108.22
482.645	1239.53
483.102	1338.82
483.558	1455.22
484.015	1491.62
484.472	1462.72
484.929	1422.52
485.385	1396.02
485.842	1357.92
486.299	1304.22
486.755	1261.52
487.212	1073.42
487.668	921.02
488.125	869.42
488.582	790.93
489.038	765.72
489.494	730.73
489.951	711.22
490.407	690.82
490.864	666.82
491.32	663.02
491.776	664.62
492.233	677.12
492.689	645.72
493.145	639.82
493.602	620.52
494.058	639.62
494.514	652.62
494.97	658.73
495.426	674.92
495.882	654.72
496.338	645.12
496.794	654.12
497.251	649.62
497.707	662.02
498.163	666.42
498.618	675.32
499.074	670.83
499.53	705.12
499.986	703.02
500.442	672.52
500.898	655.42
501.354	642.72
501.809	654.62
502.265	656.33
502.721	661.52
503.177	668.73
503.632	675.72
504.088	679.12
504.543	698.82
504.999	723.42
505.455	691.82
505.91	677.02
506.366	667.62
506.821	672.82
507.277	659.52
507.732	664.62
508.187	659.32
508.643	661.42
509.098	672.62
509.553	698.12
510.009	709.12
510.464	710.22
510.919	729.33
511.375	735.92
511.83	758.62
512.285	769.12
512.74	799.12
513.195	815.72
513.65	814.73
514.105	800.82
514.56	810.52
515.015	833.43
515.47	844.12
515.925	820.82
516.38	828.82
516.835	833.72
517.29	826.02
517.745	811.12
518.2	804.72
518.655	790.72
519.109	784.32
519.564	775.02
520.019	766.22
520.474	777.12
520.928	773.82
521.383	754.32
521.838	751.72
522.292	759.62
522.747	752.72
523.201	741.32
523.656	732.72
524.11	733.62
524.565	735.12
525.019	734.82
525.474	737.42
525.928	736.43
526.382	733.22
526.837	735.72
527.291	745.32
527.745	750.22
528.2	734.92
528.654	725.92
529.108	721.92
529.562	728.52
530.016	714.93
530.47	717.02
530.925	729.62
531.379	726.83
531.833	741.73
532.287	740.52
532.741	745.43
533.195	740.82
533.649	742.32
534.103	763.12
534.556	739.82
535.01	748.12
535.464	744.02
535.918	750.23
536.372	751.62
536.826	750.32
537.279	737.02
537.733	749.02
538.187	753.22
538.64	751.92
539.094	772.83
539.548	768.32
540.001	761.12
540.455	766.02
540.908	774.52
541.362	782.33
541.815	787.02
542.269	804.52
542.722	796.92
543.175	809.92
543.629	810.22
544.082	835.82
544.536	832.83
544.989	824.02
545.442	844.12
545.895	841.32
546.349	845.12
546.802	830.42
547.255	833.82
547.708	848.83
548.161	868.12
548.614	878.62
549.067	883.72
549.52	855.72
549.973	861.22
550.426	856.72
550.879	842.82
551.332	848.42
551.785	846.52
552.238	861.72
552.691	878.62
553.144	883.92
553.596	903.32
554.049	916.82
554.502	945.93
554.955	968.72
555.407	968.72
555.86	951.93
556.313	944.63
556.765	936.92
557.218	932.32
557.67	931.82
558.123	916.52
558.576	929.22
559.028	932.12
559.48	940.12
559.933	921.33
560.385	891.82
560.838	868.02
561.29	841.62
561.742	835.23
562.195	814.83
562.647	814.12
563.099	818.32
563.551	811.92
564.004	838.42
564.456	823.52
564.908	807.02
565.36	795.32
565.812	772.02
566.264	767.12
566.716	768.12
567.168	747.82
567.62	751.52
568.072	742.12
568.524	737.02
568.976	736.52
569.428	715.12
569.88	704.12
570.332	722.52
570.784	727.42
571.235	732.23
571.687	742.33
572.139	744.32
572.59	761.62
573.042	757.12
573.494	755.73
573.945	755.02
574.397	724.12
574.849	728.02
575.3	730.72
575.752	721.22
576.203	706.52
576.655	724.52
577.106	713.62
577.557	706.12
578.009	707.52
578.46	702.02
578.912	702.62
579.363	697.42
579.814	704.02
580.265	696.12
580.717	709.82
581.168	708.72
581.619	718.93
582.07	717.12
582.521	710.22
582.972	713.52
583.423	703.32
583.875	716.42
584.326	714.02
584.777	741.23
585.227	749.32
585.678	773.52
586.129	778.62
586.58	807.23
587.031	821.22
587.482	860.02
587.933	882.12
588.384	858.92
588.834	837.72
589.285	819.12
589.736	823.72
590.186	812.62
590.637	807.22
591.088	788.52
591.538	780.92
591.989	766.83
592.439	761.32
592.89	751.92
593.34	750.92
593.791	745.32
594.241	734.92
594.692	730.12
595.142	733.62
595.593	726.12
596.043	735.02
596.493	741.22
596.943	741.32
597.394	746.72
597.844	748.33
598.294	777.73
598.744	790.32
599.195	822.02
599.645	866.52
600.095	906.42
600.545	967.62
600.995	1010.62
601.445	1077.42
601.895	1141.92
602.345	1195.32
602.795	1174.53
603.245	1127.03
603.695	1067.92
604.145	1017.63
604.594	973.73
605.044	915.92
605.494	852.12
605.944	802.52
606.393	783.62
606.843	767.72
607.293	777.23
607.743	755.42
608.192	765.72
608.642	789.92
609.091	798.62
609.541	793.72
609.99	809.93
610.44	789.32
610.889	753.93
611.339	738.72
611.788	716.82
612.238	729.32
612.687	722.32
613.136	729.22
613.586	746.42
614.035	733.02
614.484	742.92
614.933	742.52
615.383	740.83
615.832	735.52
616.281	741.73
616.73	702.72
617.179	683.92
617.628	676.82
618.077	660.82
618.526	653.22
618.975	644.02
619.424	642.22
619.873	646.12
620.322	644.72
620.771	625.52
621.22	634.52
621.669	612.52
622.118	623.52
622.567	597.82
623.015	600.42
623.464	594.72
623.913	584.23
624.361	577.52
624.81	571.32
625.259	583.32
625.707	585.82
626.156	574.02
626.604	594.62
627.053	586.02
627.501	594.02
627.95	593.52
628.398	619.12
628.847	600.93
629.295	599.62
629.744	598.02
630.192	592.42
630.64	590.92
631.089	578.52
631.537	566.62
631.985	555.92
632.433	547.72
632.881	547.23
633.33	547.62
633.778	543.82
634.226	548.43
634.674	565.73
635.122	563.92
635.57	571.42
636.018	585.52
636.466	583.62
636.914	581.92
637.362	595.43
637.81	600.52
638.258	606.02
638.705	604.32
639.153	643.32
639.601	645.42
640.049	664.62
640.497	701.73
640.944	729.73
641.392	675.52
641.84	643.52
642.287	611.22
642.735	595.92
643.182	592.93
643.63	581.52
644.078	590.12
644.525	595.02
644.973	604.02
645.42	613.82
645.867	639.12
646.315	660.43
646.762	676.93
647.21	712.62
647.657	729.02
648.104	756.92
648.551	774.52
648.999	837.12
649.446	920.83
649.893	1002.72
650.34	1144.03
650.787	1354.42
651.234	1658.82
651.682	2141.72
652.129	2906.22
652.576	4121.33
653.023	5994.62
653.47	8131.83
653.917	10121.62
654.363	11661.23
654.81	12848.53
655.257	12181.33
655.704	8068.73
656.151	4870.62
656.598	3185.62
657.044	2296.12
657.491	1789.42
657.938	1452.92
658.385	1213.23
658.831	1060.33
659.278	959.43
659.724	854.23
660.171	794.72
660.618	725.82
661.064	686.73
661.511	669.02
661.957	660.73
662.404	652.02
662.85	665.62
663.296	633.62
663.743	572.12
664.189	557.12
664.635	555.42
665.082	547.42
665.528	547.73
665.974	537.42
666.42	530.73
666.867	528.82
667.313	505.33
667.759	477.12
668.205	465.12
668.651	461.93
669.097	463.02
669.543	450.42
669.989	460.52
670.435	473.62
670.881	464.62
671.327	472.72
671.773	493.52
672.219	511.22
672.665	569.12
673.11	614.42
673.556	660.42
674.002	701.12
674.448	684.32
674.893	574.02
675.339	505.52
675.785	464.12
676.23	441.92
676.676	413.72
677.122	400.42
677.567	388.42
678.013	385.92
678.458	377.33
678.904	381.82
679.349	364.52
679.794	370.12
680.24	376.92
680.685	368.12
681.131	373.02
681.576	367.12
682.021	372.33
682.466	367.82
682.912	363.22
683.357	370.83
683.802	393.12
684.247	433.02
684.692	487.92
685.137	527.42
685.583	563.42
686.028	598.52
686.473	537.32
686.918	476.32
687.363	446.42
687.807	413.23
688.252	386.82
688.697	370.23
689.142	353.72
689.587	352.02
690.032	348.22
690.477	357.42
690.921	369.42
691.366	403.42
691.811	426.12
692.255	446.52
692.7	482.22
693.145	526.23
693.589	739.23
694.034	1192.12
694.478	1631.42
694.923	1830.03
695.367	2402.12
695.812	1264.02
696.256	523.32
696.701	394.42
697.145	367.02
697.59	340.72
698.034	340.82
698.478	344.82
698.922	333.93
699.367	346.33
699.811	354.42
700.255	372.12
700.699	402.62
701.143	436.52
701.588	496.12
702.032	542.52
702.476	532.62
702.92	508.23
703.364	520.72
703.808	678.62
704.252	1100.82
704.696	1523.72
705.14	1758.32
705.584	2252.22
706.027	1118.12
706.471	549.32
706.915	409.52
707.359	375.12
707.803	337.42
708.246	333.52
708.69	325.73
709.134	327.02
709.577	319.12
710.021	324.82
710.465	322.73
710.908	315.22
711.352	315.33
711.795	326.02
712.239	371.12
712.682	408.52
713.126	428.32
713.569	474.32
714.012	377.02
714.456	322.23
714.899	307.12
715.342	287.02
715.786	277.02
716.229	272.73
716.672	262.82
717.115	266.92
717.558	258.73
718.002	265.02
718.445	274.42
718.888	298.92
719.331	299.23
719.774	320.82
720.217	320.32
720.66	293.12
721.103	286.82
721.546	272.52
721.989	259.22
722.432	241.72
722.874	250.02
723.317	241.33
723.76	244.52
724.203	274.52
724.645	328.02
725.088	470.92
725.531	600.62
725.974	677.12
726.416	573.02
726.859	319.42
727.301	254.02
727.744	248.12
728.187	237.02
728.629	249.92
729.071	260.83
729.514	273.42
729.956	282.62
730.399	300.12
730.841	299.42
731.283	289.93
731.726	274.93
732.168	276.92
732.61	278.82
733.053	302.32
733.495	328.23
733.937	368.93
734.379	413.82
734.821	455.92
735.263	570.52
735.705	897.12
736.148	1685.12
736.59	2752.52
737.032	3250.93
737.474	2631.82
737.916	861.12
738.357	454.42
738.799	344.52
739.241	318.52
739.683	296.32
740.125	310.22
740.567	310.12
741.008	339.32
741.45	334.33
741.892	331.92
742.334	374.73
742.775	375.12
743.217	370.72
743.658	287.12
744.1	273.62
744.542	285.33
744.983	340.52
745.425	369.52
745.866	364.12
746.307	299.42
746.749	290.42
747.19	345.73
747.632	483.32
748.073	939.03
748.514	1975.12
748.956	3027.22
749.397	3792.22
749.838	3177.32
750.279	3130.12
750.72	1590.02
751.162	582.22
751.603	348.52
752.044	270.82
752.485	233.42
752.926	221.23
753.367	206.12
753.808	207.12
754.249	197.73
754.69	201.72
755.131	190.72
755.572	194.23
756.013	187.52
756.453	192.92
756.894	192.23
757.335	194.93
757.776	198.92
758.216	204.62
758.657	210.43
759.098	207.92
759.538	237.52
759.979	284.32
760.42	399.92
760.86	750.72
761.301	1957.72
761.741	4731.53
762.182	6795.23
762.622	4798.33
763.063	1393.52
763.503	564.32
763.943	342.12
764.384	288.62
764.824	265.52
765.264	254.92
765.705	218.23
766.145	194.72
766.585	185.92
767.025	173.22
767.465	170.72
767.906	178.42
768.346	200.52
768.786	214.92
769.226	221.83
769.666	326.42
770.106	652.32
770.546	1657.03
770.986	2802.32
771.426	2493.93
771.866	840.02
772.306	351.72
772.745	214.62
773.185	175.82
773.625	171.12
774.065	151.52
774.505	170.12
774.944	213.92
775.384	372.82
775.824	609.43
776.263	591.92
776.703	293.82
777.142	162.82
777.582	139.02
778.021	128.22
778.461	132.82
778.9	130.92
779.34	127.42
779.779	118.12
780.219	115.52
780.658	109.22
781.097	117.82
781.537	118.42
781.976	112.62
782.415	109.32
782.855	109.12
783.294	99.82
783.733	105.42
784.172	110.92
784.611	108.72
785.05	108.32
785.489	122.42
785.928	119.02
786.367	126.72
786.806	123.22
787.245	131.32
787.684	134.72
788.123	150.02
788.562	138.22
789.001	133.62
789.44	127.32
789.879	120.22
790.317	127.52
790.756	137.22
791.195	139.52
791.634	153.32
792.072	216.12
792.511	381.93
792.95	1070.62
793.388	2237.72
793.827	2023.72
794.265	714.42
794.704	294.22
795.142	194.52
795.581	158.52
796.019	144.42
796.458	138.32
796.896	131.62
797.334	130.62
797.773	160.72
798.211	234.72
798.649	463.22
799.087	1083.83
799.526	1677.12
799.964	2135.32
800.402	2126.12
800.84	796.72
801.278	321.72
801.716	199.92
802.154	167.32
802.592	157.02
803.03	145.42
803.468	142.23
803.906	150.22
804.344	154.62
804.782	140.82
805.22	147.82
805.658	141.02
806.096	157.92
806.533	166.02
806.971	176.82
807.409	231.92
807.847	343.42
808.284	711.42
808.722	1988.22
809.16	3497.72
809.597	3351.22
810.035	5764.43
810.472	6121.23
810.91	2213.22
811.347	855.23
811.785	437.43
812.222	278.12
812.66	208.32
813.097	173.52
813.535	152.42
813.972	131.72
814.409	126.52
814.846	115.32
815.284	116.52
815.721	111.12
816.158	108.62
816.595	117.62
817.032	155.52
817.47	196.62
817.907	143.32
818.344	104.82
818.781	99.92
819.218	100.32
819.655	129.62
820.092	200.82
820.529	229.42
820.966	176.92
821.403	132.52
821.839	106.92
822.276	101.72
822.713	130.52
823.15	139.32
823.587	128.62
824.023	154.22
824.46	318.23
824.897	956.73
825.333	1442.53
825.77	622.02
826.206	244.02
826.643	146.82
827.08	113.32
827.516	90.12
827.953	83.22
828.389	81.72
828.825	69.22
829.262	71.12
829.698	58.82
830.135	67.02
830.571	67.82
831.007	65.62
831.443	63.92
831.88	66.73
832.316	71.22
832.752	64.02
833.188	69.32
833.624	67.62
834.06	69.72
834.497	75.92
834.933	76.42
835.369	79.02
835.805	63.82
836.241	83.52
836.677	82.92
837.112	99.72
837.548	113.52
837.984	146.62
838.42	214.23
838.856	533.12
839.292	1616.82
839.727	2444.52
840.163	1137.82
840.599	991.63
841.034	2160.12
841.47	2245.72
841.906	816.62
842.341	359.82
842.777	215.93
843.212	215.92
843.648	190.72
844.083	118.02
844.519	86.32
844.954	67.92
845.39	58.92
845.825	61.12
846.261	65.62
846.696	56.52
847.131	56.42
847.566	59.12
848.002	55.82
848.437	55.62
848.872	61.12
849.307	65.92
849.742	93.02
850.177	196.32
850.613	583.02
851.048	928.73
851.483	406.23
851.918	168.12
852.353	90.32
852.788	58.52
853.223	49.92
853.657	48.92
854.092	48.32
854.527	43.32
854.962	42.92
855.397	41.62
855.832	50.22
856.266	43.73
856.701	40.42
857.136	36.72
857.57	45.92
858.005	58.73
858.44	62.92
858.874	47.62
859.309	51.82
859.743	46.12
860.178	50.72
860.612	39.82
861.047	56.02
861.481	67.02
861.915	76.32
862.35	57.72
862.784	36.02
863.218	42.02
863.653	35.12
864.087	49.32
864.521	55.52
864.955	66.12
865.39	164.62
865.824	183.23
866.258	124.12
866.692	188.02
867.126	193.12
867.56	125.02
867.994	59.12
868.428	46.62
868.862	46.73
869.296	60.82
869.73	60.42
870.164	63.52
870.598	48.02
871.031	37.12
871.465	33.22
871.899	28.82
872.333	30.42
872.766	26.02
873.2	28.82
873.634	31.62
874.067	31.72
874.501	28.22
874.935	34.62
875.368	34.62
875.802	27.52
876.235	29.72
876.669	22.32
877.102	25.52
877.535	27.52
877.969	19.72
878.402	23.92
878.836	26.62
879.269	25.32
879.702	25.92
880.135	24.82
880.569	24.22
881.002	24.62
881.435	28.52
881.868	21.72
882.301	26.22
882.734	16.02
883.167	25.42
883.601	22.92
884.034	22.72
884.467	12.82
884.899	21.02
885.332	19.22
885.765	19.02
886.198	19.12
886.631	14.42
887.064	23.92
887.497	23.32
887.929	23.92
888.362	14.42
888.795	16.42
889.228	14.42
889.66	22.32
890.093	21.72
890.526	17.02
890.958	13.32
891.391	15.73
891.823	20.72
892.256	16.72
892.688	13.52
893.121	16.52
893.553	9.72
893.985	19.42
894.418	22.52
894.85	10.12
895.282	16.12
895.715	17.42
896.147	13.62
896.579	18.92
897.011	7.62
897.444	17.42
897.876	15.23
898.308	17.32
898.74	12.32
899.172	17.82
899.604	17.12
900.036	18.92
900.468	13.42
900.9	10.92
901.332	16.92
901.764	13.02
902.196	22.12
902.628	19.42
903.06	17.52
903.491	32.82
903.923	24.32
904.355	21.62
904.787	21.32
905.218	21.62
905.65	21.62
906.082	21.42
906.513	15.12
906.945	21.32
907.376	16.82
907.808	20.12
908.239	27.12
908.671	15.52
909.102	20.62
909.534	25.52
909.965	46.12
910.397	95.72
910.828	336.12
911.259	500.52
911.691	227.12
912.122	109.02
912.553	56.22
912.984	29.82
913.415	29.12
913.847	26.42
914.278	15.82
914.709	11.92
915.14	21.52
915.571	12.42
916.002	11.12
916.433	26.62
916.864	16.62
917.295	13.02
917.726	21.32
918.157	20.82
918.587	24.42
919.018	22.62
919.449	19.32
919.88	22.82
920.311	29.92
920.741	52.52
921.172	172.42
921.603	159.42
922.033	74.82
922.464	41.23
922.895	28.12
923.325	24.62
923.756	17.32
924.186	16.23
924.617	22.52
925.047	17.42
925.478	24.52
925.908	27.42
926.338	20.62
926.769	12.92
927.199	18.73
927.629	6.82
928.06	16.92
928.49	16.12
928.92	17.12
929.35	5.82
929.78	8.32
930.21	1.92
930.641	12.72
931.071	12.52
931.501	5.92
931.931	9.12
932.361	6.92
932.791	0.22
933.221	2.32
933.651	2.12
934.08	17.92
934.51	30.92
934.94	8.32
935.37	14.02
935.8	7.62
936.229	12.22
936.659	12.62
937.089	3.92
937.519	21.52
937.948	26.72
938.378	22.42
938.807	9.52
939.237	0.42
939.666	10.42
940.096	-4.48
940.525	4.82
940.955	3.42
941.384	-0.88
941.814	-8.18
942.243	3.12
942.672	5.62
943.102	2.52
943.531	3.92
943.96	7.72
944.39	0.92
944.819	1.82
945.248	0.52
945.677	4.12
946.106	7.32
946.535	5.22
946.964	5.22
947.393	5.72
947.822	-3.27
948.251	-6.68
948.68	4.82
949.109	10.62
949.538	3.82
949.967	3.72
950.396	0.72
950.825	-0.68
951.254	-0.38
951.682	-6.68
952.111	4.02
952.54	9.72
952.969	-4.78
953.397	-1.78
953.826	4.52
954.254	-4.78
954.683	2.22
955.112	3.42
955.54	-1.48
955.969	1.52
956.397	8.32
956.826	-1.78
957.254	6.62
957.682	4.32
958.111	5.22
958.539	-0.08
958.967	0.22
959.396	-0.48
959.824	-2.27
960.252	7.82
960.68	-6.88
961.109	-1.98
961.537	-3.98
961.965	-0.68
962.393	1.82
962.821	-3.38
963.249	1.72
963.677	6.62
964.105	6.42
964.533	46.12
964.961	37.22
965.389	18.52
965.817	11.32
966.245	6.22
966.672	1.82
967.1	-5.08
967.528	2.52
967.956	-4.88
968.383	-6.28
968.811	1.62
969.239	-3.98
969.666	-5.98
970.094	-0.88
970.522	-2.18
970.949	-3.78
971.377	-1.48
971.804	-0.28
972.232	-0.68
972.659	-7.98
973.087	-2.88
973.514	-1.18
973.941	4.82
974.369	3.52
974.796	4.23
975.223	-1.88
975.651	-0.77
976.078	-1.08
976.505	-2.18
976.932	4.42
977.359	17.02
977.786	15.12
978.214	-0.88
978.641	0.32
979.068	-1.58
979.495	0.02
979.922	-4.18
980.349	-5.38
980.776	3.42
981.202	-4.68
981.629	4.72
982.056	6.92
982.483	1.02
982.91	4.92
983.337	-2.58
983.763	-2.68
984.19	-9.78
984.617	-3.28
985.043	-6.28
985.47	-5.98
985.897	-1.28
986.323	-7.68
986.75	0.02
987.176	-2.48
987.603	1.72
988.029	-1.58
988.456	-2.18
988.882	10.02
989.308	-2.08
989.735	-0.38
990.161	-0.58
990.587	-2.48
991.014	0.92
991.44	5.52
991.866	-3.58
992.292	0.62
992.719	-5.38
993.145	-0.28
993.571	-5.38
993.997	-0.98
994.423	-3.98
994.849	-1.18
995.275	-1.48
995.701	-0.78
996.127	-0.08
996.553	3.82
996.979	-2.28
997.405	-1.48
997.83	-1.68
998.256	-3.18
998.682	-8.38
999.108	-11.78
999.534	-3.38
999.959	-0.98
1000.385	-11.88
1000.811	2.72
1001.236	-5.58
1001.662	-5.58
1002.087	-8.88
1002.513	0.62
1002.938	3.52
1003.364	-2.27
1003.789	-0.48
1004.215	7.52
1004.64	-4.58
1005.066	3.62
1005.491	1.02
1005.916	-3.88
1006.342	-1.98
1006.767	-12.58
1007.192	6.12
1007.617	-8.88
1008.042	-4.68
1008.468	-5.28
1008.893	-2.18
1009.318	-2.08
1009.743	-4.18
1010.168	1.92
1010.593	10.22
1011.018	-4.58
1011.443	-3.58
1011.868	0.02
1012.293	-5.58
1012.718	-7.98
1013.143	2.02
1013.567	-0.88
1013.992	0.92
1014.417	-12.68
1014.842	2.12
1015.267	1.42
1015.691	-4.78
1016.116	5.12
1016.541	-2.78
1016.965	10.12
1017.39	-0.48
1017.814	-1.18
1018.239	2.82
1018.663	-5.78
1019.088	-8.28
1019.512	1.52
1019.937	-6.48
1020.361	-7.18
1020.785	-10.08
1021.21	-9.08
1021.634	0.92
1022.058	0.82
1022.483	2.92
1022.907	-1.38
1023.331	-3.48
1023.755	-2.48
1024.179	-2.58
1024.604	-5.38
1025.028	-9.48
1025.452	-7.38
1025.876	-1.68
1026.3	-4.38
1026.724	-15.08
1027.148	-10.98
1027.572	-9.38
1027.996	-6.78
1028.42	-2.38
1028.843	-3.68
1029.267	-2.98
1029.691	-2.28
1030.115	-2.88
1030.539	-7.58
1030.962	-1.38
1031.386	-11.38
1031.81	-1.88
1032.233	-5.18
1032.657	0.02
1033.08	2.02
1033.504	-8.48
1033.927	-3.58
1034.351	-2.77
1034.774	0.22
1035.198	-8.38
1035.621	-8.18
1036.045	-7.78
1036.468	3.92
1036.891	-12.18
1037.315	-9.18
1037.738	-8.48
1038.161	0.02
1038.584	-9.58
1039.008	-7.08
1039.431	-5.38
1039.854	-1.88
1040.277	-10.68
1040.7	-14.18
1041.123	-3.58
1041.546	-5.18
1041.969	-4.28
1042.392	-10.28
1042.815	-4.88
1043.238	1.82
1043.661	-3.18
1044.084	-10.98
1044.507	-7.78
1044.93	-6.48
1045.352	-5.28
1045.775	-1.18
1046.198	-4.98
1046.621	-3.77
1047.043	3.42
1047.466	5.82
1047.889	-5.68
1048.311	-7.98
1048.734	-4.08
1049.156	-1.18
1049.579	-1.28
1050.001	-3.88
1050.424	-1.68
1050.846	-0.98
1051.269	-5.58
1051.691	-7.27
1052.113	-6.08
1052.536	-2.58
1052.958	-0.58
1053.38	-6.88
1053.802	-5.88
1054.225	1.92
1054.647	-11.58
1055.069	-10.98
1055.491	-2.68
1055.913	-6.68
1056.335	2.42
1056.757	-2.38
1057.179	-4.38
1057.601	-5.68
1058.023	-6.88
1058.445	-5.28
1058.867	-7.38
1059.289	-6.98
1059.711	-3.48
1060.133	-4.38
1060.555	-7.28
1060.976	-5.88
1061.398	-4.18
1061.82	-7.38
1062.241	-4.78
1062.663	-9.48
1063.085	-2.88
1063.506	-1.27
1063.928	-1.58
1064.35	0.92
1064.771	-6.18
1065.193	-1.58
1065.614	-10.88
1066.035	-2.08
1066.457	-6.58
1066.878	4.22
1067.3	-10.88
1067.721	-3.88
1068.142	-4.48
1068.564	-6.08
1068.985	-4.08
1069.406	-7.48
1069.827	-10.38
1070.248	-2.28
1070.67	-2.78
1071.091	-9.58
1071.512	1.82
1071.933	-5.48
1072.354	-14.68
1072.775	-5.78
1073.196	-7.68
1073.617	-2.18
1074.038	-7.88
1074.459	-3.48
1074.88	-7.38
1075.3	0.72
1075.721	-4.68
1076.142	2.23
1076.563	-3.38
1076.983	-6.88
1077.404	-4.88
1077.825	-9.77
1078.246	-7.38
1078.666	-11.58
1079.087	-6.08
1079.507	-6.18
1079.928	-2.78
1080.348	-3.27
1080.769	-11.38
1081.189	-1.58
1081.61	-7.48
1082.03	-9.38
1082.451	-6.68
1082.871	-2.98
1083.291	-7.18
1083.711	-11.58
1084.132	-7.88
1084.552	-3.08
1084.972	-1.28
1085.392	-6.28
1085.813	-6.88
1086.233	-5.08
1086.653	-6.08
1087.073	-4.98
1087.493	-13.18
1087.913	0.62
1088.333	-3.68
1088.753	-7.48
1089.173	1.92
1089.593	-1.88
1090.013	-1.68
1090.433	6.42
1090.852	-2.18
1091.272	-0.08
1091.692	0.82
1092.112	-0.48
1092.531	-9.98
1092.951	-12.38
1093.371	-2.08
1093.79	4.92
1094.21	-4.48
1094.63	-6.38
1095.049	-7.28
1095.469	-1.78
1095.888	-1.48
1096.308	-6.28
1096.727	8.82
1097.146	-0.18
1097.566	0.82
1097.985	-5.18
1098.405	2.92
1098.824	-7.48
1099.243	-5.58
1099.662	-7.18
1100.082	0.32
1100.501	-0.68
1100.92	-6.88
1101.339	-4.88
1101.758	-2.77
