Data from 20171114-ORNL-Ar_H_NY_Subt18_08-05-16-585.txt Node
Date: Tue Nov 14 08:05:16 EST 2017
User: Ender
Spectrometer: HR+D1039
Trigger mode: 0
Integration Time (sec): 2.730000E-2
Scans to average: 10
Electric dark correction enabled: true
Nonlinearity correction enabled: false
Boxcar width: 0
XAxis mode: Wavelengths
Number of Pixels in Spectrum: 2048
>>>>>Begin Spectral Data<<<<<
187.836	-1.71
188.309	-1.71
188.782	-1.71
189.255	-1.91
189.728	7.69
190.201	5.29
190.674	2.19
191.147	1.79
191.619	-5.51
192.092	1.79
192.565	4.59
193.038	-2.41
193.511	2.19
193.984	-1.71
194.456	-1.61
194.929	-3.51
195.402	-7.81
195.874	0.59
196.347	-3.51
196.82	-2.21
197.292	3.29
197.765	-4.41
198.237	-8.21
198.71	1.19
199.182	1.59
199.655	-0.01
200.127	1.89
200.6	1.69
201.072	-0.31
201.544	-2.01
202.017	-1.71
202.489	1.59
202.961	0.79
203.433	-4.11
203.906	-7.21
204.378	-1.21
204.85	-4.01
205.322	-10.31
205.794	-1.81
206.266	-1.61
206.739	-6.11
207.211	-3.01
207.683	-10.71
208.155	-4.21
208.627	-3.61
209.099	-2.11
209.57	-6.61
210.042	0.29
210.514	-0.61
210.986	-3.71
211.458	-4.31
211.93	-2.11
212.402	0.39
212.873	-8.21
213.345	-4.91
213.817	-13.11
214.288	-7.61
214.76	-12.11
215.232	-2.51
215.703	0.89
216.175	-3.01
216.646	-6.01
217.118	-6.51
217.589	3.79
218.061	-5.01
218.532	-5.51
219.004	-6.71
219.475	-1.31
219.946	-2.81
220.418	-9.41
220.889	-0.21
221.36	2.59
221.832	1.69
222.303	-8.91
222.774	-0.51
223.245	-3.51
223.717	-5.51
224.188	-3.51
224.659	-9.81
225.13	-4.11
225.601	-2.01
226.072	1.19
226.543	-0.01
227.014	2.99
227.485	-0.81
227.956	-5.31
228.427	-3.71
228.898	2.19
229.369	4.39
229.839	-1.41
230.31	-7.51
230.781	-1.31
231.252	0.79
231.722	-5.31
232.193	4.59
232.664	-1.71
233.135	-0.41
233.605	3.59
234.076	-2.61
234.546	1.19
235.017	2.99
235.487	4.99
235.958	-0.81
236.428	-2.11
236.899	0.29
237.369	5.19
237.84	9.99
238.31	10.69
238.78	5.09
239.251	2.69
239.721	2.69
240.191	-1.41
240.662	-0.51
241.132	-3.21
241.602	-0.31
242.072	2.89
242.542	6.49
243.013	2.29
243.483	8.59
243.953	2.49
244.423	0.19
244.893	-2.31
245.363	5.59
245.833	0.99
246.303	2.79
246.773	13.69
247.243	5.29
247.712	4.09
248.182	9.29
248.652	13.29
249.122	6.29
249.592	12.39
250.061	23.79
250.531	35.19
251.001	15.29
251.471	25.29
251.94	17.59
252.41	10.19
252.879	0.39
253.349	11.19
253.818	3.29
254.288	7.09
254.757	9.89
255.227	1.59
255.696	4.29
256.166	5.79
256.635	8.99
257.105	9.09
257.574	4.49
258.043	9.59
258.513	14.49
258.982	17.29
259.451	8.99
259.92	18.69
260.389	10.19
260.859	16.99
261.328	14.29
261.797	22.39
262.266	11.99
262.735	11.79
263.204	3.49
263.673	7.19
264.142	8.79
264.611	2.89
265.08	-6.11
265.549	3.49
266.018	3.79
266.487	1.09
266.955	-1.21
267.424	3.09
267.893	7.19
268.362	1.19
268.83	4.29
269.299	10.99
269.768	9.09
270.236	10.29
270.705	-0.51
271.174	10.99
271.642	12.49
272.111	14.09
272.579	20.09
273.048	26.49
273.516	31.39
273.985	31.49
274.453	26.09
274.922	16.89
275.39	15.19
275.858	1.69
276.327	14.69
276.795	19.69
277.263	10.69
277.731	29.49
278.2	55.39
278.668	66.29
279.136	54.29
279.604	19.09
280.072	21.29
280.54	15.09
281.008	6.89
281.477	19.49
281.945	9.49
282.413	17.49
282.881	20.89
283.348	10.79
283.816	17.79
284.284	15.89
284.752	22.59
285.22	16.69
285.688	17.49
286.156	21.39
286.623	48.79
287.091	56.49
287.559	31.99
288.026	20.69
288.494	14.79
288.962	5.59
289.429	9.69
289.897	22.39
290.364	15.29
290.832	18.19
291.3	18.29
291.767	17.69
292.234	24.99
292.702	18.89
293.169	19.39
293.637	26.99
294.104	19.99
294.571	10.09
295.039	13.39
295.506	20.69
295.973	20.79
296.44	18.09
296.908	19.79
297.375	17.39
297.842	16.39
298.309	22.29
298.776	16.39
299.243	26.49
299.71	9.89
300.177	21.59
300.644	21.19
301.111	24.89
301.578	29.19
302.045	22.29
302.512	30.89
302.979	22.59
303.446	25.59
303.913	18.49
304.379	17.99
304.846	29.09
305.313	21.99
305.78	23.09
306.246	26.39
306.713	30.89
307.18	26.89
307.646	32.79
308.113	26.09
308.579	27.49
309.046	29.49
309.512	32.29
309.979	26.09
310.445	28.79
310.912	26.39
311.378	31.59
311.845	35.59
312.311	34.49
312.777	34.69
313.244	33.09
313.71	42.49
314.176	37.19
314.642	32.29
315.109	34.09
315.575	41.49
316.041	42.19
316.507	34.89
316.973	36.99
317.439	39.79
317.905	37.39
318.371	38.09
318.837	34.89
319.303	33.59
319.769	33.59
320.235	37.49
320.701	43.69
321.167	38.09
321.633	33.29
322.099	40.39
322.564	46.09
323.03	43.19
323.496	37.49
323.962	41.89
324.427	32.69
324.893	41.69
325.359	43.49
325.824	37.49
326.29	41.59
326.755	36.79
327.221	46.59
327.686	39.59
328.152	47.29
328.617	41.09
329.083	50.99
329.548	58.99
330.014	54.89
330.479	46.19
330.944	40.79
331.41	45.39
331.875	48.39
332.34	43.19
332.805	46.29
333.271	50.49
333.736	47.49
334.201	63.09
334.666	60.99
335.131	57.79
335.596	58.69
336.061	54.69
336.526	41.99
336.991	49.59
337.456	51.59
337.921	55.49
338.386	50.59
338.851	50.79
339.316	51.59
339.781	49.59
340.246	49.89
340.711	51.19
341.175	51.79
341.64	44.79
342.105	53.49
342.569	58.79
343.034	61.99
343.499	57.99
343.963	56.89
344.428	64.99
344.893	64.09
345.357	61.59
345.822	62.69
346.286	72.69
346.751	70.69
347.215	69.79
347.679	72.79
348.144	99.69
348.608	85.19
349.073	74.69
349.537	76.69
350.001	84.69
350.465	94.89
350.93	87.19
351.394	84.49
351.858	72.79
352.322	84.69
352.786	91.39
353.25	107.59
353.715	116.89
354.179	108.09
354.643	130.99
355.107	132.19
355.571	113.89
356.035	105.89
356.498	119.69
356.962	123.09
357.426	134.09
357.89	121.19
358.354	86.99
358.818	82.49
359.281	80.39
359.745	81.79
360.209	79.69
360.673	77.09
361.136	78.39
361.6	82.09
362.064	89.09
362.527	88.79
362.991	88.39
363.454	84.89
363.918	81.49
364.381	79.39
364.845	89.19
365.308	91.49
365.772	91.79
366.235	80.49
366.698	86.69
367.162	97.09
367.625	89.19
368.088	93.49
368.552	92.09
369.015	92.79
369.478	99.19
369.941	100.09
370.404	100.59
370.867	107.79
371.331	111.59
371.794	109.99
372.257	115.29
372.72	123.19
373.183	110.69
373.646	105.09
374.109	107.69
374.572	110.29
375.035	113.09
375.497	104.49
375.96	104.29
376.423	103.99
376.886	115.29
377.349	116.09
377.811	105.39
378.274	111.89
378.737	109.49
379.199	111.19
379.662	107.99
380.125	116.59
380.587	122.99
381.05	133.89
381.512	135.79
381.975	141.19
382.437	132.89
382.9	128.09
383.362	134.49
383.825	143.99
384.287	149.59
384.75	142.19
385.212	138.79
385.674	142.59
386.136	134.29
386.599	124.09
387.061	128.89
387.523	130.39
387.985	140.59
388.447	144.29
388.91	147.59
389.372	161.09
389.834	144.49
390.296	141.99
390.758	149.79
391.22	173.59
391.682	207.49
392.144	295.29
392.606	229.19
393.068	168.69
393.529	169.29
393.991	154.49
394.453	145.69
394.915	158.29
395.377	195.29
395.838	217.29
396.3	156.69
396.762	145.39
397.224	129.89
397.685	129.59
398.147	128.39
398.608	129.49
399.07	133.79
399.531	133.69
399.993	145.59
400.454	151.29
400.916	141.09
401.377	139.69
401.839	150.99
402.3	144.89
402.762	167.49
403.223	182.09
403.684	167.89
404.145	166.79
404.607	159.99
405.068	170.59
405.529	171.69
405.99	178.79
406.451	178.49
406.913	168.59
407.374	155.39
407.835	169.29
408.296	169.89
408.757	171.09
409.218	182.09
409.679	173.39
410.14	170.09
410.601	175.89
411.062	182.39
411.522	182.99
411.983	191.89
412.444	173.59
412.905	180.69
413.366	178.29
413.826	191.09
414.287	219.39
414.748	256.69
415.208	248.99
415.669	211.79
416.13	204.39
416.59	200.29
417.051	213.09
417.511	217.79
417.972	227.59
418.432	244.29
418.893	283.79
419.353	252.09
419.814	193.79
420.274	183.19
420.734	172.79
421.195	199.19
421.655	200.89
422.115	183.79
422.576	195.99
423.036	199.09
423.496	214.39
423.956	217.09
424.416	230.09
424.876	270.29
425.336	267.99
425.797	266.19
426.257	253.29
426.717	237.09
427.177	232.69
427.637	224.19
428.097	245.29
428.556	250.29
429.016	263.89
429.476	257.29
429.936	275.89
430.396	281.69
430.856	292.39
431.315	313.39
431.775	343.09
432.235	380.29
432.694	348.09
433.154	360.19
433.614	377.99
434.073	339.99
434.533	292.09
434.993	267.89
435.452	284.79
435.912	293.09
436.371	286.39
436.83	283.89
437.29	263.59
437.749	251.49
438.209	246.89
438.668	272.39
439.127	285.49
439.587	267.99
440.046	247.49
440.505	259.49
440.964	278.89
441.424	330.19
441.883	309.19
442.342	268.79
442.801	223.59
443.26	216.59
443.719	221.39
444.178	219.09
444.637	212.99
445.096	220.99
445.555	222.39
446.014	224.39
446.473	227.69
446.932	235.39
447.391	222.79
447.849	223.19
448.308	216.99
448.767	218.89
449.226	236.79
449.685	241.39
450.143	248.09
450.602	231.39
451.061	225.09
451.519	236.19
451.978	233.39
452.436	227.69
452.895	233.09
453.353	256.29
453.812	239.49
454.27	236.49
454.729	237.59
455.187	243.69
455.646	249.29
456.104	248.69
456.562	263.19
457.021	266.09
457.479	253.99
457.937	270.59
458.395	264.49
458.854	247.29
459.312	254.99
459.77	274.49
460.228	252.79
460.686	242.39
461.144	247.99
461.602	237.39
462.06	237.59
462.518	260.39
462.976	258.39
463.434	254.39
463.892	256.59
464.35	277.39
464.808	288.69
465.266	275.29
465.724	270.69
466.181	275.69
466.639	269.79
467.097	284.19
467.555	304.39
468.012	303.09
468.47	302.79
468.928	331.89
469.385	346.39
469.843	345.79
470.3	357.49
470.758	369.19
471.215	375.29
471.673	404.29
472.13	403.29
472.588	412.89
473.045	377.19
473.503	369.59
473.96	391.69
474.417	401.99
474.875	436.89
475.332	470.99
475.789	455.99
476.246	472.19
476.704	481.79
477.161	502.39
477.618	519.09
478.075	551.99
478.532	613.89
478.989	690.79
479.446	810.59
479.903	768.59
480.36	807.89
480.817	865.79
481.274	965.49
481.731	1071.89
482.188	1162.99
482.645	1301.09
483.102	1404.79
483.558	1549.99
484.015	1597.79
484.472	1582.79
484.929	1513.19
485.385	1497.49
485.842	1446.99
486.299	1367.99
486.755	1302.39
487.212	1083.19
487.668	925.79
488.125	854.39
488.582	783.09
489.038	749.09
489.494	710.69
489.951	688.89
490.407	670.29
490.864	645.99
491.32	638.89
491.776	633.49
492.233	649.59
492.689	609.69
493.145	596.69
493.602	595.49
494.058	611.19
494.514	618.29
494.97	643.89
495.426	641.89
495.882	623.19
496.338	616.69
496.794	631.59
497.251	619.79
497.707	625.79
498.163	639.19
498.618	634.69
499.074	647.79
499.53	673.69
499.986	669.89
500.442	645.99
500.898	626.79
501.354	628.79
501.809	626.99
502.265	645.19
502.721	652.19
503.177	664.99
503.632	663.59
504.088	682.89
504.543	712.29
504.999	708.49
505.455	659.59
505.91	631.59
506.366	636.39
506.821	617.69
507.277	618.89
507.732	620.69
508.187	612.19
508.643	619.69
509.098	634.99
509.553	646.49
510.009	657.99
510.464	661.89
510.919	683.29
511.375	694.39
511.83	701.79
512.285	721.49
512.74	747.19
513.195	780.59
513.65	775.59
514.105	776.29
514.56	776.69
515.015	781.69
515.47	810.09
515.925	789.09
516.38	793.99
516.835	798.39
517.29	791.09
517.745	775.99
518.2	755.89
518.655	748.59
519.109	736.49
519.564	743.79
520.019	719.39
520.474	722.29
520.928	734.09
521.383	715.99
521.838	704.89
522.292	708.49
522.747	703.99
523.201	693.99
523.656	687.19
524.11	678.89
524.565	677.29
525.019	686.79
525.474	701.39
525.928	695.39
526.382	694.69
526.837	701.09
527.291	700.59
527.745	695.99
528.2	687.59
528.654	687.69
529.108	691.29
529.562	682.29
530.016	686.89
530.47	678.09
530.925	691.09
531.379	693.49
531.833	696.49
532.287	699.39
532.741	702.89
533.195	706.69
533.649	703.19
534.103	719.69
534.556	709.19
535.01	701.79
535.464	706.79
535.918	714.19
536.372	718.99
536.826	710.39
537.279	697.99
537.733	707.69
538.187	707.89
538.64	702.79
539.094	709.49
539.548	720.09
540.001	721.09
540.455	714.39
540.908	710.49
541.362	724.09
541.815	734.99
542.269	746.79
542.722	749.99
543.175	752.99
543.629	762.79
544.082	778.19
544.536	771.89
544.989	775.39
545.442	779.39
545.895	779.89
546.349	780.99
546.802	770.79
547.255	780.09
547.708	792.79
548.161	802.19
548.614	803.69
549.067	808.59
549.52	812.39
549.973	803.39
550.426	798.29
550.879	776.09
551.332	788.59
551.785	792.99
552.238	790.59
552.691	807.99
553.144	811.89
553.596	841.69
554.049	850.49
554.502	877.29
554.955	895.59
555.407	899.79
555.86	896.49
556.313	874.09
556.765	869.69
557.218	869.39
557.67	876.79
558.123	872.39
558.576	860.29
559.028	866.79
559.48	862.19
559.933	857.69
560.385	838.59
560.838	791.29
561.29	766.29
561.742	768.39
562.195	751.89
562.647	753.19
563.099	767.39
563.551	753.39
564.004	763.29
564.456	755.89
564.908	748.79
565.36	733.29
565.812	722.09
566.264	708.59
566.716	705.19
567.168	697.39
567.62	713.69
568.072	675.49
568.524	676.99
568.976	664.89
569.428	656.49
569.88	653.39
570.332	669.59
570.784	666.79
571.235	670.99
571.687	680.39
572.139	679.29
572.59	691.59
573.042	685.69
573.494	685.89
573.945	694.29
574.397	671.79
574.849	668.09
575.3	675.19
575.752	669.09
576.203	663.29
576.655	670.79
577.106	658.09
577.557	647.99
578.009	650.99
578.46	648.09
578.912	648.59
579.363	653.29
579.814	646.39
580.265	644.99
580.717	659.39
581.168	648.89
581.619	660.49
582.07	662.19
582.521	667.19
582.972	651.79
583.423	662.09
583.875	665.19
584.326	682.99
584.777	723.29
585.227	799.39
585.678	882.29
586.129	980.69
586.58	1046.59
587.031	1129.79
587.482	1276.69
587.933	1467.69
588.384	1267.49
588.834	944.99
589.285	780.49
589.736	755.49
590.186	748.59
590.637	738.09
591.088	723.09
591.538	716.49
591.989	713.39
592.439	709.69
592.89	692.79
593.34	684.29
593.791	687.19
594.241	685.69
594.692	687.29
595.142	681.89
595.593	678.49
596.043	683.59
596.493	687.29
596.943	690.89
597.394	685.49
597.844	694.69
598.294	703.69
598.744	727.99
599.195	752.29
599.645	785.99
600.095	823.79
600.545	885.79
600.995	932.29
601.445	986.39
601.895	1052.59
602.345	1087.29
602.795	1075.69
603.245	1028.19
603.695	971.89
604.145	930.19
604.594	883.79
605.044	826.59
605.494	772.49
605.944	721.79
606.393	721.79
606.843	701.09
607.293	708.19
607.743	706.09
608.192	710.39
608.642	730.89
609.091	729.69
609.541	745.19
609.99	744.99
610.44	741.29
610.889	696.19
611.339	671.19
611.788	662.79
612.238	676.19
612.687	695.49
613.136	688.89
613.586	701.89
614.035	710.49
614.484	723.49
614.933	724.89
615.383	706.99
615.832	717.79
616.281	700.39
616.73	660.79
617.179	638.39
617.628	625.59
618.077	610.89
618.526	593.39
618.975	588.89
619.424	585.69
619.873	590.99
620.322	590.29
620.771	577.29
621.22	574.49
621.669	568.19
622.118	559.79
622.567	553.49
623.015	543.49
623.464	549.09
623.913	536.89
624.361	526.49
624.81	523.99
625.259	532.59
625.707	530.19
626.156	529.39
626.604	539.59
627.053	534.19
627.501	534.09
627.95	538.09
628.398	562.89
628.847	548.89
629.295	544.39
629.744	554.09
630.192	544.29
630.64	537.49
631.089	535.19
631.537	553.29
631.985	556.69
632.433	562.49
632.881	573.69
633.33	625.19
633.778	603.99
634.226	537.79
634.674	546.09
635.122	561.69
635.57	573.89
636.018	602.29
636.466	553.69
636.914	530.89
637.362	549.49
637.81	540.89
638.258	550.99
638.705	547.39
639.153	577.39
639.601	583.69
640.049	599.09
640.497	639.99
640.944	660.39
641.392	600.59
641.84	579.09
642.287	554.29
642.735	543.39
643.182	538.89
643.63	542.99
644.078	542.69
644.525	555.09
644.973	557.09
645.42	564.09
645.867	582.79
646.315	603.59
646.762	620.19
647.21	653.89
647.657	671.29
648.104	705.59
648.551	728.29
648.999	781.79
649.446	862.49
649.893	949.69
650.34	1082.69
650.787	1305.39
651.234	1625.59
651.682	2120.99
652.129	2886.99
652.576	4147.89
653.023	6152.69
653.47	8475.69
653.917	10625.09
654.363	12393.99
654.81	13839.89
655.257	13115.99
655.704	8568.39
656.151	5033.89
656.598	3253.19
657.044	2317.49
657.491	1764.89
657.938	1415.29
658.385	1184.29
658.831	1024.09
659.278	910.19
659.724	811.49
660.171	745.49
660.618	696.39
661.064	651.09
661.511	633.49
661.957	617.99
662.404	608.59
662.85	617.89
663.296	588.19
663.743	537.19
664.189	501.69
664.635	501.39
665.082	496.29
665.528	496.79
665.974	481.89
666.42	482.89
666.867	478.69
667.313	468.49
667.759	450.79
668.205	449.49
668.651	454.49
669.097	452.09
669.543	469.89
669.989	441.99
670.435	419.39
670.881	419.19
671.327	415.99
671.773	433.59
672.219	455.99
672.665	508.59
673.11	544.39
673.556	586.59
674.002	623.39
674.448	604.99
674.893	514.29
675.339	444.09
675.785	407.59
676.23	397.29
676.676	364.99
677.122	354.29
677.567	351.89
678.013	342.99
678.458	336.89
678.904	339.59
679.349	335.29
679.794	333.59
680.24	328.89
680.685	332.69
681.131	312.89
681.576	325.99
682.021	329.59
682.466	327.09
682.912	323.69
683.357	326.39
683.802	358.89
684.247	376.39
684.692	421.19
685.137	456.09
685.583	498.09
686.028	522.69
686.473	483.59
686.918	403.19
687.363	390.79
687.807	370.19
688.252	350.79
688.697	326.89
689.142	314.59
689.587	311.99
690.032	304.49
690.477	317.09
690.921	326.29
691.366	359.29
691.811	370.39
692.255	394.89
692.7	431.09
693.145	457.89
693.589	634.19
694.034	1022.99
694.478	1435.09
694.923	1615.59
695.367	2130.29
695.812	1121.09
696.256	469.49
696.701	340.49
697.145	327.09
697.59	307.99
698.034	302.49
698.478	317.39
698.922	304.49
699.367	302.29
699.811	310.09
700.255	325.49
700.699	352.79
701.143	393.29
701.588	449.69
702.032	477.29
702.476	478.09
702.92	461.39
703.364	450.59
703.808	585.19
704.252	925.99
704.696	1340.39
705.14	1560.39
705.584	1991.79
706.027	987.29
706.471	479.59
706.915	369.59
707.359	326.69
707.803	289.69
708.246	290.09
708.69	292.49
709.134	295.59
709.577	287.49
710.021	294.39
710.465	283.19
710.908	282.79
711.352	277.69
711.795	286.79
712.239	329.59
712.682	355.29
713.126	389.29
713.569	420.09
714.012	341.49
714.456	297.79
714.899	280.89
715.342	254.89
715.786	239.09
716.229	244.59
716.672	241.09
717.115	225.09
717.558	222.99
718.002	235.49
718.445	244.59
718.888	258.19
719.331	273.59
719.774	288.89
720.217	280.09
720.66	259.39
721.103	245.49
721.546	233.49
721.989	228.99
722.432	212.89
722.874	223.59
723.317	211.19
723.76	217.19
724.203	233.99
724.645	286.79
725.088	413.99
725.531	524.19
725.974	603.59
726.416	518.39
726.859	292.39
727.301	228.59
727.744	220.79
728.187	213.79
728.629	219.89
729.071	223.49
729.514	240.69
729.956	256.19
730.399	257.89
730.841	266.69
731.283	254.89
731.726	247.99
732.168	239.19
732.61	250.79
733.053	265.69
733.495	293.59
733.937	326.79
734.379	370.39
734.821	400.89
735.263	494.09
735.705	753.19
736.148	1418.99
736.59	2359.89
737.032	2856.99
737.474	2313.29
737.916	747.69
738.357	392.89
738.799	303.59
739.241	276.59
739.683	260.09
740.125	266.29
740.567	275.69
741.008	288.99
741.45	284.69
741.892	289.09
742.334	317.09
742.775	328.89
743.217	320.29
743.658	249.39
744.1	239.29
744.542	241.79
744.983	282.19
745.425	308.09
745.866	320.19
746.307	265.89
746.749	261.29
747.19	291.49
747.632	407.29
748.073	777.79
748.514	1655.79
748.956	2632.79
749.397	3284.19
749.838	2744.89
750.279	2760.09
750.72	1401.09
751.162	506.49
751.603	293.39
752.044	234.59
752.485	198.49
752.926	193.89
753.367	188.49
753.808	178.79
754.249	180.39
754.69	173.59
755.131	167.79
755.572	170.79
756.013	163.59
756.453	165.89
756.894	176.39
757.335	181.79
757.776	178.29
758.216	175.29
758.657	179.19
759.098	186.19
759.538	207.69
759.979	239.49
760.42	338.59
760.86	634.49
761.301	1611.39
761.741	4013.99
762.182	6030.69
762.622	4242.29
763.063	1214.39
763.503	495.39
763.943	315.39
764.384	309.69
764.824	373.39
765.264	395.39
765.705	283.09
766.145	199.89
766.585	174.69
767.025	170.29
767.465	167.09
767.906	222.99
768.346	293.29
768.786	310.99
769.226	238.59
769.666	291.99
770.106	545.89
770.546	1389.79
770.986	2442.09
771.426	2225.69
771.866	737.19
772.306	304.69
772.745	197.89
773.185	167.09
773.625	157.09
774.065	150.19
774.505	177.79
774.944	279.39
775.384	618.59
775.824	1128.49
776.263	1118.39
776.703	468.89
777.142	207.39
777.582	144.69
778.021	135.39
778.461	130.29
778.9	122.29
779.34	119.19
779.779	99.09
780.219	95.89
780.658	97.49
781.097	103.89
781.537	104.49
781.976	98.49
782.415	100.89
782.855	95.89
783.294	98.19
783.733	94.79
784.172	106.89
784.611	97.49
785.05	94.79
785.489	102.09
785.928	105.49
786.367	107.29
786.806	107.49
787.245	122.69
787.684	121.69
788.123	134.89
788.562	117.49
789.001	118.99
789.44	107.09
789.879	111.29
790.317	111.99
790.756	113.19
791.195	113.39
791.634	131.39
792.072	191.99
792.511	316.29
792.95	883.59
793.388	1966.29
793.827	1811.39
794.265	621.79
794.704	263.79
795.142	169.09
795.581	141.89
796.019	128.39
796.458	108.29
796.896	110.69
797.334	121.09
797.773	136.29
798.211	200.09
798.649	390.99
799.087	924.89
799.526	1464.49
799.964	1843.79
800.402	1883.49
800.84	713.89
801.278	275.99
801.716	167.19
802.154	142.29
802.592	131.39
803.03	121.39
803.468	124.29
803.906	135.49
804.344	136.89
804.782	124.19
805.22	113.59
805.658	115.29
806.096	136.49
806.533	143.09
806.971	157.89
807.409	191.69
807.847	279.89
808.284	584.59
808.722	1675.29
809.16	3050.89
809.597	2831.69
810.035	4998.19
810.472	5435.59
810.91	1950.19
811.347	728.69
811.785	372.49
812.222	234.49
812.66	179.69
813.097	148.89
813.535	131.79
813.972	115.79
814.409	112.39
814.846	102.19
815.284	100.49
815.721	93.09
816.158	97.79
816.595	111.49
817.032	167.49
817.47	181.09
817.907	160.59
818.344	136.29
818.781	110.59
819.218	95.49
819.655	114.29
820.092	167.89
820.529	203.89
820.966	164.29
821.403	123.99
821.839	104.19
822.276	87.89
822.713	112.29
823.15	120.49
823.587	110.99
824.023	132.69
824.46	271.69
824.897	802.79
825.333	1263.89
825.77	540.99
826.206	210.59
826.643	125.39
827.08	90.59
827.516	79.89
827.953	73.19
828.389	72.89
828.825	66.09
829.262	60.59
829.698	61.99
830.135	58.99
830.571	59.59
831.007	61.29
831.443	65.99
831.88	57.89
832.316	55.49
832.752	54.29
833.188	64.19
833.624	57.19
834.06	65.49
834.497	61.19
834.933	64.09
835.369	69.59
835.805	57.89
836.241	65.49
836.677	73.69
837.112	86.29
837.548	92.29
837.984	119.19
838.42	179.29
838.856	447.39
839.292	1360.39
839.727	2149.99
840.163	989.69
840.599	826.39
841.034	1862.69
841.47	1994.99
841.906	730.39
842.341	314.79
842.777	203.39
843.212	291.39
843.648	291.49
844.083	142.39
844.519	88.89
844.954	64.69
845.39	56.89
845.825	48.29
846.261	53.29
846.696	48.59
847.131	54.79
847.566	58.19
848.002	53.09
848.437	50.09
848.872	60.69
849.307	56.49
849.742	76.89
850.177	164.69
850.613	499.99
851.048	819.69
851.483	354.69
851.918	146.39
852.353	80.69
852.788	61.39
853.223	47.09
853.657	49.59
854.092	50.99
854.527	41.79
854.962	35.29
855.397	41.49
855.832	49.19
856.266	41.79
856.701	35.59
857.136	34.59
857.57	45.69
858.005	49.99
858.44	54.89
858.874	39.99
859.309	47.79
859.743	37.09
860.178	44.49
860.612	40.59
861.047	51.19
861.481	56.09
861.915	67.49
862.35	46.39
862.784	36.59
863.218	35.09
863.653	28.79
864.087	48.89
864.521	49.89
864.955	60.89
865.39	144.39
865.824	164.69
866.258	103.59
866.692	148.39
867.126	159.29
867.56	98.29
867.994	49.79
868.428	31.29
868.862	44.19
869.296	49.09
869.73	56.49
870.164	49.09
870.598	47.29
871.031	37.89
871.465	34.49
871.899	31.59
872.333	21.59
872.766	22.39
873.2	22.79
873.634	31.39
874.067	26.09
874.501	24.89
874.935	26.39
875.368	29.09
875.802	21.59
876.235	23.49
876.669	28.59
877.102	17.59
877.535	34.79
877.969	20.79
878.402	22.39
878.836	21.59
879.269	27.89
879.702	25.99
880.135	19.99
880.569	17.79
881.002	26.69
881.435	24.49
881.868	16.59
882.301	21.09
882.734	12.39
883.167	19.99
883.601	20.29
884.034	25.19
884.467	9.39
884.899	19.69
885.332	13.99
885.765	12.79
886.198	18.19
886.631	13.29
887.064	12.89
887.497	16.99
887.929	27.29
888.362	14.79
888.795	14.89
889.228	18.59
889.66	22.49
890.093	12.09
890.526	12.39
890.958	14.19
891.391	13.09
891.823	20.49
892.256	11.89
892.688	10.79
893.121	16.89
893.553	15.29
893.985	20.59
894.418	17.49
894.85	11.19
895.282	13.79
895.715	13.99
896.147	10.49
896.579	17.69
897.011	17.59
897.444	15.19
897.876	17.99
898.308	18.39
898.74	14.39
899.172	6.29
899.604	25.69
900.036	17.09
900.468	20.59
900.9	16.29
901.332	16.69
901.764	10.19
902.196	19.69
902.628	15.89
903.06	14.79
903.491	26.69
903.923	19.69
904.355	17.79
904.787	24.39
905.218	26.19
905.65	19.99
906.082	6.29
906.513	9.49
906.945	14.69
907.376	5.79
907.808	14.99
908.239	19.09
908.671	16.89
909.102	22.79
909.534	28.29
909.965	42.29
910.397	84.39
910.828	288.99
911.259	444.19
911.691	200.69
912.122	90.49
912.553	46.39
912.984	33.99
913.415	22.49
913.847	28.69
914.278	20.69
914.709	20.79
915.14	20.69
915.571	22.49
916.002	17.59
916.433	14.99
916.864	14.59
917.295	8.39
917.726	17.39
918.157	18.49
918.587	26.69
919.018	16.99
919.449	17.49
919.88	25.49
920.311	28.99
920.741	44.39
921.172	148.29
921.603	140.39
922.033	69.59
922.464	42.19
922.895	26.09
923.325	14.89
923.756	14.99
924.186	20.39
924.617	24.99
925.047	40.39
925.478	48.89
925.908	39.79
926.338	19.69
926.769	12.19
927.199	20.79
927.629	11.69
928.06	14.79
928.49	11.99
928.92	9.69
929.35	15.19
929.78	11.29
930.21	7.89
930.641	9.09
931.071	2.59
931.501	8.09
931.931	7.89
932.361	9.29
932.791	3.59
933.221	1.39
933.651	6.29
934.08	18.69
934.51	29.59
934.94	9.89
935.37	8.49
935.8	13.09
936.229	8.09
936.659	11.09
937.089	2.19
937.519	6.99
937.948	19.49
938.378	12.79
938.807	8.49
939.237	3.89
939.666	11.99
940.096	-7.01
940.525	3.09
940.955	2.89
941.384	3.69
941.814	-6.21
942.243	0.49
942.672	2.99
943.102	-4.21
943.531	-1.41
943.96	9.19
944.39	3.39
944.819	-3.41
945.248	5.09
945.677	3.59
946.106	1.19
946.535	7.19
946.964	-1.71
947.393	1.39
947.822	0.69
948.251	-0.31
948.68	12.19
949.109	5.89
949.538	4.69
949.967	1.99
950.396	2.29
950.825	0.39
951.254	3.59
951.682	-5.61
952.111	6.79
952.54	7.89
952.969	-5.91
953.397	-5.41
953.826	3.39
954.254	0.09
954.683	1.09
955.112	-3.41
955.54	-0.11
955.969	2.99
956.397	0.49
956.826	-4.81
957.254	2.89
957.682	1.69
958.111	-1.91
958.539	2.99
958.967	0.99
959.396	2.79
959.824	5.99
960.252	4.79
960.68	-3.41
961.109	-0.21
961.537	-2.51
961.965	-4.51
962.393	3.49
962.821	0.69
963.249	-1.91
963.677	0.89
964.105	6.39
964.533	40.69
964.961	42.29
965.389	17.29
965.817	8.89
966.245	-1.21
966.672	-0.81
967.1	-5.51
967.528	-2.71
967.956	-3.11
968.383	-1.71
968.811	-3.21
969.239	-3.81
969.666	-3.31
970.094	4.49
970.522	0.39
970.949	-6.41
971.377	-4.91
971.804	-6.21
972.232	-2.61
972.659	-1.31
973.087	-3.61
973.514	-1.81
973.941	1.19
974.369	-3.11
974.796	3.39
975.223	5.69
975.651	5.39
976.078	3.79
976.505	-1.71
976.932	6.69
977.359	11.69
977.786	7.59
978.214	1.39
978.641	-0.71
979.068	-0.41
979.495	-1.11
979.922	1.39
980.349	-1.01
980.776	7.29
981.202	3.69
981.629	-0.01
982.056	7.49
982.483	-0.71
982.91	6.49
983.337	-8.61
983.763	3.79
984.19	-2.61
984.617	-6.51
985.043	-2.91
985.47	-0.41
985.897	-3.31
986.323	-8.81
986.75	0.29
987.176	-1.11
987.603	-0.11
988.029	0.49
988.456	-6.01
988.882	4.59
989.308	-4.31
989.735	1.99
990.161	-1.31
990.587	-6.91
991.014	-2.71
991.44	8.89
991.866	-2.41
992.292	-8.91
992.719	-3.81
993.145	-1.61
993.571	-0.91
993.997	-4.41
994.423	-3.61
994.849	-0.51
995.275	-2.71
995.701	2.59
996.127	-1.01
996.553	6.59
996.979	0.69
997.405	-0.01
997.83	0.79
998.256	-3.91
998.682	-6.51
999.108	-7.41
999.534	2.09
999.959	-1.61
1000.385	-3.91
1000.811	-1.41
1001.236	-1.61
1001.662	-3.31
1002.087	-8.71
1002.513	1.29
1002.938	1.19
1003.364	-2.71
1003.789	-0.91
1004.215	5.19
1004.64	-3.61
1005.066	0.69
1005.491	0.99
1005.916	-2.51
1006.342	-2.81
1006.767	-2.61
1007.192	5.69
1007.617	-2.11
1008.042	-5.11
1008.468	-1.61
1008.893	-2.91
1009.318	-5.91
1009.743	-4.61
1010.168	-0.91
1010.593	9.99
1011.018	-10.61
1011.443	-2.01
1011.868	3.59
1012.293	-10.61
1012.718	-9.51
1013.143	-4.31
1013.567	2.69
1013.992	3.59
1014.417	-9.61
1014.842	1.99
1015.267	-5.61
1015.691	-2.11
1016.116	6.69
1016.541	2.39
1016.965	-1.61
1017.39	-0.01
1017.814	3.69
1018.239	1.59
1018.663	-11.11
1019.088	-13.31
1019.512	-1.61
1019.937	-1.21
1020.361	-3.81
1020.785	-8.31
1021.21	-2.01
1021.634	1.39
1022.058	0.69
1022.483	5.69
1022.907	0.69
1023.331	-1.81
1023.755	-6.71
1024.179	-0.41
1024.604	-6.51
1025.028	-3.61
1025.452	-1.81
1025.876	1.69
1026.3	-0.51
1026.724	-12.51
1027.148	1.49
1027.572	-9.11
1027.996	-1.81
1028.42	-4.51
1028.843	-3.21
1029.267	-3.41
1029.691	-4.31
1030.115	-4.11
1030.539	-10.51
1030.962	-7.51
1031.386	-8.71
1031.81	2.49
1032.233	-2.41
1032.657	-0.31
1033.08	1.99
1033.504	-2.31
1033.927	-5.71
1034.351	-0.21
1034.774	-2.31
1035.198	-3.41
1035.621	-5.31
1036.045	-5.51
1036.468	2.09
1036.891	-8.11
1037.315	-9.31
1037.738	-8.41
1038.161	-2.01
1038.584	-3.41
1039.008	-5.81
1039.431	-2.11
1039.854	-3.01
1040.277	-9.21
1040.7	-7.31
1041.123	6.29
1041.546	-7.91
1041.969	-4.01
1042.392	-1.21
1042.815	4.69
1043.238	-4.61
1043.661	-0.21
1044.084	-11.61
1044.507	-6.81
1044.93	-8.71
1045.352	-7.61
1045.775	0.19
1046.198	-2.01
1046.621	1.19
1047.043	-3.51
1047.466	4.19
1047.889	3.29
1048.311	-3.11
1048.734	-3.51
1049.156	-2.41
1049.579	-1.01
1050.001	-5.31
1050.424	-3.31
1050.846	-4.71
1051.269	-1.51
1051.691	-7.51
1052.113	-3.31
1052.536	0.79
1052.958	2.29
1053.38	-0.51
1053.802	-9.51
1054.225	-0.71
1054.647	-8.01
1055.069	-6.71
1055.491	2.29
1055.913	-6.01
1056.335	-1.31
1056.757	0.49
1057.179	-3.11
1057.601	-4.31
1058.023	-5.31
1058.445	-5.31
1058.867	-4.61
1059.289	-5.31
1059.711	-2.61
1060.133	-1.91
1060.555	0.29
1060.976	2.79
1061.398	-1.81
1061.82	-8.21
1062.241	-7.21
1062.663	-7.11
1063.085	0.29
1063.506	-2.71
1063.928	-0.11
1064.35	-0.51
1064.771	-9.21
1065.193	-3.21
1065.614	-9.21
1066.035	3.19
1066.457	-0.61
1066.878	-3.61
1067.3	-5.21
1067.721	2.69
1068.142	-2.61
1068.564	0.89
1068.985	-1.31
1069.406	-4.51
1069.827	-3.61
1070.248	0.49
1070.67	-14.31
1071.091	-2.31
1071.512	-4.71
1071.933	-6.01
1072.354	-7.21
1072.775	-4.11
1073.196	-4.51
1073.617	-1.01
1074.038	-7.81
1074.459	2.09
1074.88	-7.61
1075.3	0.69
1075.721	-5.51
1076.142	1.79
1076.563	3.19
1076.983	-11.41
1077.404	-10.21
1077.825	-9.91
1078.246	-6.21
1078.666	-10.51
1079.087	-2.71
1079.507	-4.21
1079.928	-4.41
1080.348	-0.01
1080.769	-2.91
1081.189	-0.81
1081.61	-1.51
1082.03	-2.51
1082.451	-8.01
1082.871	-3.11
1083.291	-7.21
1083.711	-6.01
1084.132	-5.71
1084.552	-1.91
1084.972	7.19
1085.392	-0.21
1085.813	-10.91
1086.233	-5.01
1086.653	-5.11
1087.073	-0.91
1087.493	-3.81
1087.913	-0.41
1088.333	-7.11
1088.753	-1.01
1089.173	2.29
1089.593	-1.51
1090.013	8.09
1090.433	4.09
1090.852	-1.51
1091.272	-3.41
1091.692	-2.61
1092.112	-5.01
1092.531	-7.61
1092.951	-8.91
1093.371	-2.01
1093.79	6.89
1094.21	-4.31
1094.63	-7.61
1095.049	-4.51
1095.469	-2.21
1095.888	-2.11
1096.308	2.09
1096.727	3.59
1097.146	-4.41
1097.566	-3.41
1097.985	-4.61
1098.405	-6.91
1098.824	-5.21
1099.243	-0.11
1099.662	-2.11
1100.082	-2.01
1100.501	2.99
1100.92	-12.71
1101.339	-4.81
1101.758	-4.21
