Data from 20171114-ORNL-Ar_H_NY_Subt18_08-07-24-064.txt Node
Date: Tue Nov 14 08:07:24 EST 2017
User: Ender
Spectrometer: HR+D1039
Trigger mode: 0
Integration Time (sec): 2.730000E-2
Scans to average: 10
Electric dark correction enabled: true
Nonlinearity correction enabled: false
Boxcar width: 0
XAxis mode: Wavelengths
Number of Pixels in Spectrum: 2048
>>>>>Begin Spectral Data<<<<<
187.836	-0.62
188.309	-0.62
188.782	-0.62
189.255	-1.42
189.728	3.88
190.201	3.48
190.674	0.78
191.147	3.58
191.619	-8.42
192.092	0.88
192.565	6.78
193.038	-1.22
193.511	0.88
193.984	-2.42
194.456	-2.52
194.929	2.78
195.402	-2.62
195.874	-3.82
196.347	3.28
196.82	-11.92
197.292	5.48
197.765	-1.02
198.237	-7.62
198.71	1.78
199.182	-3.22
199.655	2.98
200.127	-3.02
200.6	-4.12
201.072	-1.92
201.544	-5.92
202.017	-3.32
202.489	2.18
202.961	-5.22
203.433	-2.92
203.906	-3.52
204.378	-8.42
204.85	-5.32
205.322	-12.92
205.794	2.18
206.266	-10.42
206.739	-8.02
207.211	-0.12
207.683	-10.32
208.155	-6.72
208.627	-9.42
209.099	-4.62
209.57	-7.22
210.042	-3.92
210.514	-9.52
210.986	-1.92
211.458	-5.92
211.93	-6.62
212.402	2.28
212.873	-7.62
213.345	-9.72
213.817	-6.12
214.288	-9.52
214.76	-11.92
215.232	-6.32
215.703	-4.52
216.175	-5.42
216.646	-10.12
217.118	-5.92
217.589	-6.82
218.061	-2.52
218.532	-9.52
219.004	-3.32
219.475	-5.92
219.946	-8.12
220.418	-0.62
220.889	6.28
221.36	3.18
221.832	-5.72
222.303	-12.32
222.774	-2.32
223.245	-10.22
223.717	-8.72
224.188	-3.72
224.659	-9.52
225.13	-7.12
225.601	-9.52
226.072	3.88
226.543	-4.62
227.014	-1.02
227.485	-3.52
227.956	-3.82
228.427	-2.82
228.898	-4.92
229.369	1.88
229.839	-5.22
230.31	-5.92
230.781	-1.92
231.252	-4.12
231.722	-4.52
232.193	-4.32
232.664	-3.42
233.135	-6.52
233.605	-5.92
234.076	-11.82
234.546	-4.02
235.017	-0.02
235.487	5.18
235.958	-4.32
236.428	-5.82
236.899	4.28
237.369	-1.02
237.84	-8.82
238.31	0.88
238.78	-3.92
239.251	-2.92
239.721	-3.42
240.191	-1.62
240.662	-8.12
241.132	-0.72
241.602	-9.42
242.072	1.48
242.542	1.68
243.013	-2.52
243.483	0.78
243.953	-3.42
244.423	-12.42
244.893	-7.02
245.363	2.38
245.833	-0.32
246.303	-3.72
246.773	0.98
247.243	1.08
247.712	-0.82
248.182	5.38
248.652	-0.42
249.122	-7.82
249.592	6.18
250.061	12.98
250.531	23.68
251.001	7.18
251.471	11.58
251.94	9.58
252.41	4.28
252.879	-9.02
253.349	6.58
253.818	8.28
254.288	7.38
254.757	2.08
255.227	-4.32
255.696	-4.12
256.166	2.78
256.635	-0.22
257.105	2.28
257.574	1.28
258.043	0.38
258.513	9.38
258.982	13.18
259.451	-1.92
259.92	11.78
260.389	1.58
260.859	13.08
261.328	4.18
261.797	6.38
262.266	2.38
262.735	3.98
263.204	0.08
263.673	-4.12
264.142	2.18
264.611	-11.32
265.08	-6.42
265.549	-5.22
266.018	2.88
266.487	-8.82
266.955	-9.32
267.424	-3.12
267.893	0.88
268.362	-2.22
268.83	-0.72
269.299	2.58
269.768	-2.82
270.236	6.08
270.705	-2.92
271.174	-3.82
271.642	1.18
272.111	4.78
272.579	7.88
273.048	7.28
273.516	19.08
273.985	15.28
274.453	18.58
274.922	10.58
275.39	5.38
275.858	-6.32
276.327	2.88
276.795	10.98
277.263	4.28
277.731	22.18
278.2	36.28
278.668	38.48
279.136	35.78
279.604	11.78
280.072	5.88
280.54	5.68
281.008	8.08
281.477	7.08
281.945	6.18
282.413	8.68
282.881	7.78
283.348	2.08
283.816	8.78
284.284	6.38
284.752	10.68
285.22	6.18
285.688	10.88
286.156	12.18
286.623	28.08
287.091	40.38
287.559	18.58
288.026	13.18
288.494	8.18
288.962	-4.02
289.429	6.78
289.897	9.28
290.364	2.88
290.832	9.18
291.3	6.28
291.767	8.38
292.234	5.38
292.702	9.38
293.169	8.18
293.637	11.08
294.104	5.78
294.571	-1.92
295.039	4.88
295.506	3.78
295.973	1.18
296.44	0.48
296.908	8.88
297.375	12.58
297.842	11.08
298.309	9.18
298.776	6.18
299.243	6.18
299.71	3.78
300.177	13.58
300.644	14.08
301.111	11.38
301.578	14.38
302.045	10.18
302.512	9.28
302.979	13.98
303.446	13.08
303.913	6.48
304.379	4.28
304.846	22.28
305.313	17.08
305.78	15.48
306.246	20.38
306.713	16.28
307.18	17.48
307.646	13.98
308.113	17.78
308.579	18.38
309.046	16.48
309.512	15.58
309.979	15.18
310.445	16.38
310.912	19.68
311.378	24.78
311.845	17.58
312.311	17.88
312.777	16.08
313.244	20.08
313.71	20.58
314.176	17.98
314.642	23.58
315.109	16.48
315.575	26.48
316.041	28.08
316.507	19.18
316.973	23.48
317.439	22.98
317.905	29.98
318.371	24.28
318.837	23.38
319.303	21.78
319.769	29.08
320.235	21.48
320.701	23.48
321.167	20.58
321.633	20.68
322.099	26.28
322.564	30.38
323.03	32.28
323.496	22.68
323.962	30.38
324.427	24.28
324.893	28.78
325.359	27.88
325.824	29.58
326.29	21.88
326.755	26.58
327.221	32.98
327.686	27.48
328.152	31.78
328.617	28.98
329.083	36.08
329.548	38.78
330.014	31.28
330.479	23.88
330.944	33.88
331.41	30.38
331.875	30.48
332.34	27.88
332.805	30.08
333.271	35.68
333.736	33.08
334.201	40.48
334.666	38.18
335.131	44.48
335.596	38.08
336.061	42.18
336.526	33.98
336.991	33.78
337.456	37.28
337.921	37.68
338.386	33.58
338.851	36.48
339.316	32.58
339.781	27.28
340.246	43.58
340.711	37.58
341.175	40.28
341.64	29.88
342.105	39.68
342.569	39.98
343.034	41.78
343.499	45.98
343.963	33.08
344.428	50.88
344.893	53.28
345.357	49.98
345.822	47.18
346.286	48.78
346.751	50.18
347.215	48.98
347.679	51.28
348.144	68.68
348.608	58.18
349.073	53.78
349.537	55.88
350.001	61.48
350.465	72.38
350.93	65.08
351.394	62.18
351.858	51.88
352.322	67.78
352.786	64.88
353.25	75.98
353.715	87.48
354.179	77.88
354.643	90.38
355.107	95.88
355.571	83.18
356.035	78.08
356.498	89.78
356.962	95.38
357.426	100.48
357.89	87.38
358.354	71.78
358.818	65.18
359.281	61.88
359.745	63.48
360.209	61.88
360.673	61.68
361.136	61.58
361.6	70.38
362.064	70.38
362.527	65.18
362.991	73.58
363.454	62.68
363.918	65.88
364.381	59.78
364.845	60.68
365.308	78.38
365.772	68.18
366.235	61.28
366.698	62.48
367.162	71.78
367.625	68.18
368.088	71.58
368.552	74.78
369.015	67.08
369.478	76.08
369.941	78.08
370.404	72.68
370.867	85.98
371.331	83.98
371.794	97.28
372.257	91.08
372.72	102.38
373.183	88.78
373.646	91.58
374.109	88.18
374.572	89.08
375.035	91.88
375.497	89.38
375.96	83.38
376.423	86.38
376.886	101.48
377.349	91.08
377.811	87.78
378.274	89.58
378.737	83.18
379.199	92.58
379.662	98.38
380.125	103.38
380.587	100.68
381.05	106.48
381.512	107.58
381.975	114.18
382.437	105.58
382.9	109.68
383.362	111.98
383.825	117.48
384.287	120.48
384.75	117.28
385.212	121.88
385.674	113.88
386.136	119.68
386.599	113.98
387.061	112.58
387.523	111.38
387.985	115.08
388.447	129.68
388.91	126.58
389.372	142.68
389.834	133.08
390.296	126.98
390.758	135.58
391.22	145.18
391.682	184.08
392.144	251.88
392.606	196.68
393.068	138.68
393.529	149.68
393.991	135.38
394.453	134.58
394.915	132.38
395.377	166.78
395.838	183.98
396.3	132.18
396.762	127.68
397.224	117.78
397.685	117.48
398.147	117.98
398.608	115.08
399.07	112.28
399.531	117.28
399.993	123.48
400.454	134.88
400.916	133.68
401.377	123.98
401.839	129.08
402.3	132.28
402.762	152.08
403.223	160.28
403.684	151.48
404.145	141.18
404.607	144.78
405.068	148.88
405.529	155.28
405.99	169.38
406.451	153.58
406.913	155.98
407.374	147.18
407.835	148.68
408.296	148.18
408.757	153.88
409.218	167.78
409.679	164.08
410.14	163.18
410.601	165.88
411.062	163.08
411.522	172.98
411.983	176.68
412.444	157.68
412.905	162.28
413.366	162.98
413.826	171.98
414.287	206.78
414.748	240.48
415.208	228.38
415.669	195.18
416.13	184.18
416.59	185.48
417.051	202.28
417.511	205.88
417.972	215.28
418.432	233.68
418.893	259.78
419.353	225.68
419.814	183.88
420.274	169.68
420.734	162.08
421.195	186.38
421.655	186.98
422.115	176.68
422.576	176.98
423.036	184.68
423.496	193.48
423.956	194.78
424.416	213.28
424.876	250.28
425.336	243.08
425.797	241.58
426.257	231.68
426.717	222.18
427.177	217.28
427.637	211.78
428.097	216.98
428.556	227.38
429.016	244.58
429.476	252.08
429.936	253.68
430.396	255.28
430.856	270.18
431.315	296.98
431.775	326.48
432.235	353.18
432.694	330.58
433.154	342.78
433.614	364.48
434.073	307.58
434.533	259.78
434.993	253.88
435.452	261.38
435.912	275.98
436.371	261.78
436.83	253.48
437.29	255.58
437.749	228.68
438.209	228.58
438.668	253.98
439.127	259.28
439.587	240.68
440.046	230.58
440.505	246.18
440.964	250.28
441.424	286.68
441.883	291.68
442.342	242.98
442.801	208.08
443.26	210.88
443.719	204.78
444.178	211.28
444.637	193.28
445.096	207.88
445.555	200.18
446.014	205.88
446.473	210.28
446.932	214.58
447.391	206.98
447.849	207.58
448.308	207.38
448.767	208.88
449.226	223.28
449.685	225.28
450.143	232.08
450.602	217.88
451.061	216.68
451.519	223.68
451.978	217.58
452.436	227.98
452.895	222.98
453.353	237.68
453.812	222.78
454.27	231.38
454.729	231.48
455.187	221.78
455.646	233.48
456.104	233.58
456.562	244.68
457.021	252.58
457.479	238.78
457.937	250.98
458.395	249.98
458.854	235.28
459.312	240.38
459.77	257.78
460.228	235.38
460.686	220.88
461.144	236.38
461.602	227.38
462.06	232.68
462.518	239.88
462.976	241.08
463.434	239.08
463.892	245.08
464.35	257.88
464.808	270.98
465.266	248.78
465.724	257.78
466.181	258.08
466.639	257.88
467.097	266.98
467.555	281.78
468.012	281.88
468.47	291.78
468.928	314.68
469.385	324.18
469.843	325.18
470.3	330.98
470.758	342.68
471.215	369.28
471.673	377.08
472.13	379.48
472.588	393.28
473.045	351.58
473.503	351.98
473.96	372.08
474.417	381.08
474.875	403.38
475.332	446.98
475.789	441.08
476.246	445.08
476.704	462.58
477.161	486.98
477.618	495.18
478.075	539.18
478.532	586.18
478.989	657.18
479.446	753.58
479.903	728.48
480.36	770.08
480.817	816.48
481.274	917.88
481.731	1012.38
482.188	1112.08
482.645	1229.88
483.102	1326.98
483.558	1466.38
484.015	1520.18
484.472	1490.58
484.929	1458.88
485.385	1409.98
485.842	1369.58
486.299	1284.88
486.755	1224.78
487.212	1051.58
487.668	898.58
488.125	809.28
488.582	736.98
489.038	701.28
489.494	672.68
489.951	655.68
490.407	628.68
490.864	615.68
491.32	607.08
491.776	604.28
492.233	614.08
492.689	586.98
493.145	578.58
493.602	572.08
494.058	582.28
494.514	579.98
494.97	609.68
495.426	618.08
495.882	589.28
496.338	581.48
496.794	588.48
497.251	576.68
497.707	598.78
498.163	596.38
498.618	610.38
499.074	606.48
499.53	633.58
499.986	638.58
500.442	619.48
500.898	599.18
501.354	598.68
501.809	605.38
502.265	612.78
502.721	632.68
503.177	634.68
503.632	631.18
504.088	645.98
504.543	677.28
504.999	675.58
505.455	628.98
505.91	602.68
506.366	601.98
506.821	597.68
507.277	592.38
507.732	601.28
508.187	596.48
508.643	607.88
509.098	602.18
509.553	624.78
510.009	635.48
510.464	646.28
510.919	649.88
511.375	666.48
511.83	674.08
512.285	688.68
512.74	732.18
513.195	747.58
513.65	730.48
514.105	735.18
514.56	733.68
515.015	759.18
515.47	770.08
515.925	745.48
516.38	746.08
516.835	757.98
517.29	752.98
517.745	742.78
518.2	723.68
518.655	721.78
519.109	715.98
519.564	716.08
520.019	698.98
520.474	700.88
520.928	696.28
521.383	689.38
521.838	685.28
522.292	682.28
522.747	671.68
523.201	680.08
523.656	669.18
524.11	666.98
524.565	665.58
525.019	661.78
525.474	674.58
525.928	674.88
526.382	670.28
526.837	674.88
527.291	674.18
527.745	666.78
528.2	681.38
528.654	667.58
529.108	652.18
529.562	661.18
530.016	663.58
530.47	665.78
530.925	664.48
531.379	667.88
531.833	675.88
532.287	666.78
532.741	667.28
533.195	671.08
533.649	676.78
534.103	682.48
534.556	670.98
535.01	677.08
535.464	681.28
535.918	682.78
536.372	691.38
536.826	689.48
537.279	674.18
537.733	680.08
538.187	686.78
538.64	680.18
539.094	694.98
539.548	694.28
540.001	699.38
540.455	696.68
540.908	706.08
541.362	711.58
541.815	724.58
542.269	724.58
542.722	719.48
543.175	732.98
543.629	735.58
544.082	756.58
544.536	759.68
544.989	751.88
545.442	760.58
545.895	757.98
546.349	764.28
546.802	756.98
547.255	769.78
547.708	775.08
548.161	772.78
548.614	784.88
549.067	802.08
549.52	785.18
549.973	776.08
550.426	777.98
550.879	763.18
551.332	765.78
551.785	782.58
552.238	780.18
552.691	782.68
553.144	798.58
553.596	820.98
554.049	825.68
554.502	867.68
554.955	870.08
555.407	873.48
555.86	855.28
556.313	860.08
556.765	840.88
557.218	856.18
557.67	842.98
558.123	835.68
558.576	837.88
559.028	824.68
559.48	850.08
559.933	835.58
560.385	792.38
560.838	775.28
561.29	750.88
561.742	750.58
562.195	726.88
562.647	734.88
563.099	749.98
563.551	743.38
564.004	759.08
564.456	734.78
564.908	733.68
565.36	710.48
565.812	705.08
566.264	686.68
566.716	700.78
567.168	687.48
567.62	693.48
568.072	677.08
568.524	674.18
568.976	664.48
569.428	647.48
569.88	644.78
570.332	661.98
570.784	657.38
571.235	651.78
571.687	667.58
572.139	674.58
572.59	685.58
573.042	686.38
573.494	689.18
573.945	682.48
574.397	660.98
574.849	670.28
575.3	656.08
575.752	663.78
576.203	651.18
576.655	644.08
577.106	641.38
577.557	640.18
578.009	652.08
578.46	636.98
578.912	633.48
579.363	634.98
579.814	640.98
580.265	630.58
580.717	651.58
581.168	643.18
581.619	648.88
582.07	651.38
582.521	641.78
582.972	649.28
583.423	653.08
583.875	656.78
584.326	669.68
584.777	706.08
585.227	783.98
585.678	872.18
586.129	954.68
586.58	1021.68
587.031	1094.28
587.482	1237.28
587.933	1405.28
588.384	1226.88
588.834	912.18
589.285	767.18
589.736	755.78
590.186	745.98
590.637	726.28
591.088	714.68
591.538	718.38
591.989	704.68
592.439	700.18
592.89	693.58
593.34	681.28
593.791	676.88
594.241	676.88
594.692	680.38
595.142	676.58
595.593	676.28
596.043	688.98
596.493	683.58
596.943	687.38
597.394	696.08
597.844	684.98
598.294	706.18
598.744	716.58
599.195	750.48
599.645	794.38
600.095	823.88
600.545	885.88
600.995	935.98
601.445	992.48
601.895	1043.18
602.345	1093.08
602.795	1074.78
603.245	1030.28
603.695	969.08
604.145	919.18
604.594	865.98
605.044	828.38
605.494	759.78
605.944	726.78
606.393	710.58
606.843	704.88
607.293	711.98
607.743	705.58
608.192	717.08
608.642	732.58
609.091	741.08
609.541	744.28
609.99	742.78
610.44	747.48
610.889	698.38
611.339	677.38
611.788	665.78
612.238	679.68
612.687	687.48
613.136	678.98
613.586	710.28
614.035	705.88
614.484	724.08
614.933	727.98
615.383	723.08
615.832	722.18
616.281	697.48
616.73	656.98
617.179	648.98
617.628	617.88
618.077	609.18
618.526	602.58
618.975	589.98
619.424	595.88
619.873	586.68
620.322	592.28
620.771	580.38
621.22	585.28
621.669	574.68
622.118	566.98
622.567	556.48
623.015	548.88
623.464	553.38
623.913	537.68
624.361	533.08
624.81	525.58
625.259	531.28
625.707	533.48
626.156	530.28
626.604	544.98
627.053	542.78
627.501	536.28
627.95	552.98
628.398	561.28
628.847	540.58
629.295	550.08
629.744	551.88
630.192	543.08
630.64	540.08
631.089	538.78
631.537	546.48
631.985	551.48
632.433	568.58
632.881	569.88
633.33	614.38
633.778	595.48
634.226	545.68
634.674	544.58
635.122	548.48
635.57	565.88
636.018	594.98
636.466	559.98
636.914	536.28
637.362	550.88
637.81	556.08
638.258	561.78
638.705	563.08
639.153	587.58
639.601	598.88
640.049	618.58
640.497	647.28
640.944	668.48
641.392	614.48
641.84	594.18
642.287	564.88
642.735	543.88
643.182	559.48
643.63	550.28
644.078	555.98
644.525	574.68
644.973	584.08
645.42	587.18
645.867	601.88
646.315	613.78
646.762	632.88
647.21	665.78
647.657	681.38
648.104	732.08
648.551	751.08
648.999	801.88
649.446	882.88
649.893	967.78
650.34	1114.98
650.787	1337.78
651.234	1667.98
651.682	2184.48
652.129	3018.08
652.576	4340.08
653.023	6412.58
653.47	8752.78
653.917	10922.78
654.363	12614.28
654.81	13885.08
655.257	13244.28
655.704	8621.38
656.151	5056.58
656.598	3275.88
657.044	2308.88
657.491	1777.38
657.938	1427.48
658.385	1203.18
658.831	1028.68
659.278	920.18
659.724	825.68
660.171	760.38
660.618	686.78
661.064	667.88
661.511	647.48
661.957	622.58
662.404	611.38
662.85	617.58
663.296	597.08
663.743	536.28
664.189	518.78
664.635	517.18
665.082	511.48
665.528	505.08
665.974	497.48
666.42	488.98
666.867	480.38
667.313	467.38
667.759	456.98
668.205	455.78
668.651	467.68
669.097	459.98
669.543	479.48
669.989	455.88
670.435	428.88
670.881	422.18
671.327	430.08
671.773	451.78
672.219	477.88
672.665	520.18
673.11	563.38
673.556	603.38
674.002	637.88
674.448	626.58
674.893	527.78
675.339	460.18
675.785	421.98
676.23	403.68
676.676	379.08
677.122	368.28
677.567	348.28
678.013	352.88
678.458	347.28
678.904	346.98
679.349	338.78
679.794	341.98
680.24	343.38
680.685	332.38
681.131	332.18
681.576	339.38
682.021	334.48
682.466	334.78
682.912	334.88
683.357	342.68
683.802	367.08
684.247	396.28
684.692	441.58
685.137	470.08
685.583	514.98
686.028	534.48
686.473	504.78
686.918	425.38
687.363	395.48
687.807	387.28
688.252	346.48
688.697	346.48
689.142	319.38
689.587	315.78
690.032	318.58
690.477	325.08
690.921	332.28
691.366	374.28
691.811	382.28
692.255	416.88
692.7	447.28
693.145	484.68
693.589	676.38
694.034	1103.88
694.478	1503.88
694.923	1691.28
695.367	2188.08
695.812	1143.48
696.256	477.18
696.701	351.68
697.145	330.88
697.59	314.78
698.034	304.98
698.478	318.98
698.922	316.98
699.367	315.38
699.811	321.28
700.255	343.08
700.699	370.88
701.143	410.48
701.588	457.78
702.032	490.48
702.476	495.18
702.92	479.18
703.364	474.88
703.808	628.08
704.252	1017.48
704.696	1410.28
705.14	1623.08
705.584	2061.28
706.027	1027.08
706.471	493.88
706.915	377.78
707.359	338.28
707.803	305.08
708.246	305.38
708.69	304.88
709.134	305.68
709.577	294.48
710.021	303.48
710.465	295.78
710.908	286.18
711.352	291.28
711.795	294.68
712.239	337.98
712.682	368.88
713.126	398.48
713.569	454.18
714.012	358.18
714.456	294.78
714.899	286.98
715.342	269.08
715.786	249.78
716.229	248.78
716.672	248.58
717.115	240.98
717.558	237.98
718.002	242.68
718.445	257.38
718.888	272.78
719.331	283.48
719.774	299.68
720.217	296.28
720.66	270.28
721.103	256.78
721.546	238.28
721.989	231.58
722.432	223.78
722.874	231.18
723.317	226.38
723.76	221.78
724.203	254.18
724.645	310.38
725.088	433.08
725.531	556.48
725.974	627.58
726.416	533.38
726.859	290.68
727.301	233.58
727.744	235.48
728.187	233.48
728.629	227.18
729.071	235.58
729.514	250.08
729.956	260.58
730.399	274.98
730.841	275.28
731.283	260.18
731.726	255.08
732.168	257.38
732.61	254.28
733.053	277.48
733.495	304.98
733.937	331.28
734.379	380.48
734.821	427.18
735.263	526.18
735.705	827.28
736.148	1548.78
736.59	2528.98
737.032	2943.08
737.474	2376.48
737.916	776.58
738.357	408.08
738.799	309.68
739.241	281.98
739.683	271.98
740.125	278.18
740.567	284.38
741.008	307.18
741.45	306.18
741.892	309.58
742.334	338.38
742.775	353.38
743.217	327.88
743.658	257.48
744.1	247.48
744.542	254.38
744.983	293.68
745.425	326.38
745.866	332.68
746.307	276.08
746.749	272.48
747.19	318.98
747.632	449.58
748.073	872.08
748.514	1828.88
748.956	2765.58
749.397	3472.38
749.838	2876.18
750.279	2852.38
750.72	1448.58
751.162	529.68
751.603	305.88
752.044	246.78
752.485	205.88
752.926	199.48
753.367	193.88
753.808	181.58
754.249	178.78
754.69	170.68
755.131	174.68
755.572	175.18
756.013	170.98
756.453	173.28
756.894	178.08
757.335	185.28
757.776	184.68
758.216	186.68
758.657	190.48
759.098	196.18
759.538	215.38
759.979	263.98
760.42	367.98
760.86	708.58
761.301	1818.18
761.741	4372.18
762.182	6246.58
762.622	4359.68
763.063	1271.38
763.503	519.88
763.943	332.38
764.384	319.18
764.824	375.28
765.264	385.48
765.705	284.08
766.145	205.98
766.585	180.08
767.025	171.58
767.465	175.68
767.906	232.48
768.346	296.48
768.786	310.48
769.226	248.78
769.666	307.88
770.106	609.18
770.546	1527.68
770.986	2551.68
771.426	2284.78
771.866	761.18
772.306	317.38
772.745	198.28
773.185	165.18
773.625	162.18
774.065	155.58
774.505	187.18
774.944	290.08
775.384	639.18
775.824	1137.98
776.263	1110.38
776.703	469.78
777.142	203.88
777.582	147.38
778.021	128.18
778.461	135.28
778.9	139.78
779.34	130.88
779.779	114.78
780.219	106.58
780.658	100.28
781.097	103.88
781.537	107.38
781.976	103.08
782.415	96.88
782.855	103.38
783.294	103.28
783.733	104.58
784.172	106.38
784.611	103.68
785.05	105.98
785.489	117.98
785.928	112.18
786.367	115.98
786.806	111.18
787.245	120.28
787.684	133.08
788.123	143.18
788.562	134.68
789.001	123.98
789.44	119.28
789.879	107.88
790.317	112.78
790.756	123.38
791.195	127.18
791.634	145.68
792.072	201.68
792.511	356.18
792.95	981.68
793.388	2080.88
793.827	1866.48
794.265	653.98
794.704	266.48
795.142	169.38
795.581	142.48
796.019	129.18
796.458	132.68
796.896	119.68
797.334	129.18
797.773	144.58
798.211	212.98
798.649	427.78
799.087	996.48
799.526	1563.18
799.964	1966.38
800.402	1942.88
800.84	728.18
801.278	290.38
801.716	174.18
802.154	151.98
802.592	144.48
803.03	139.98
803.468	129.98
803.906	138.98
804.344	147.38
804.782	129.98
805.22	135.58
805.658	124.48
806.096	137.58
806.533	149.48
806.971	175.58
807.409	207.68
807.847	307.18
808.284	650.88
808.722	1838.08
809.16	3195.18
809.597	3077.78
810.035	5315.28
810.472	5578.58
810.91	2016.68
811.347	772.98
811.785	391.58
812.222	249.58
812.66	187.58
813.097	155.28
813.535	134.88
813.972	126.18
814.409	118.48
814.846	108.08
815.284	103.38
815.721	98.48
816.158	104.18
816.595	115.68
817.032	173.18
817.47	178.68
817.907	146.08
818.344	127.08
818.781	107.58
819.218	95.78
819.655	126.68
820.092	178.98
820.529	203.78
820.966	165.68
821.403	120.98
821.839	108.18
822.276	97.48
822.713	117.58
823.15	126.98
823.587	108.28
824.023	145.08
824.46	299.98
824.897	879.08
825.333	1309.68
825.77	566.38
826.206	216.58
826.643	127.78
827.08	95.78
827.516	77.78
827.953	75.78
828.389	72.18
828.825	65.88
829.262	67.18
829.698	65.48
830.135	58.88
830.571	59.18
831.007	52.78
831.443	56.08
831.88	59.68
832.316	56.68
832.752	65.28
833.188	64.78
833.624	55.38
834.06	66.48
834.497	68.08
834.933	65.48
835.369	71.38
835.805	61.38
836.241	67.98
836.677	72.98
837.112	85.18
837.548	96.18
837.984	126.78
838.42	198.18
838.856	489.68
839.292	1496.88
839.727	2218.08
840.163	1029.98
840.599	914.48
841.034	2006.48
841.47	2054.68
841.906	750.18
842.341	328.58
842.777	221.08
843.212	300.08
843.648	292.48
844.083	137.68
844.519	87.78
844.954	68.28
845.39	53.28
845.825	53.08
846.261	54.58
846.696	54.48
847.131	51.28
847.566	61.18
848.002	47.68
848.437	54.08
848.872	61.68
849.307	55.38
849.742	81.68
850.177	179.18
850.613	540.58
851.048	849.68
851.483	363.58
851.918	149.18
852.353	83.48
852.788	59.68
853.223	61.58
853.657	45.48
854.092	50.58
854.527	41.78
854.962	38.18
855.397	44.18
855.832	51.18
856.266	41.48
856.701	40.18
857.136	36.08
857.57	44.78
858.005	56.28
858.44	50.88
858.874	40.28
859.309	54.08
859.743	41.28
860.178	45.08
860.612	40.08
861.047	53.18
861.481	64.98
861.915	69.98
862.35	48.38
862.784	36.88
863.218	33.58
863.653	34.58
864.087	44.78
864.521	47.78
864.955	63.58
865.39	152.58
865.824	171.78
866.258	110.98
866.692	158.08
867.126	163.58
867.56	102.18
867.994	44.88
868.428	32.68
868.862	41.38
869.296	51.68
869.73	54.38
870.164	51.78
870.598	41.08
871.031	35.68
871.465	28.18
871.899	26.08
872.333	20.28
872.766	23.78
873.2	18.18
873.634	29.78
874.067	26.98
874.501	21.48
874.935	33.18
875.368	26.68
875.802	27.18
876.235	21.08
876.669	20.78
877.102	22.08
877.535	25.28
877.969	23.28
878.402	22.68
878.836	15.18
879.269	24.58
879.702	18.78
880.135	19.98
880.569	21.38
881.002	24.68
881.435	21.68
881.868	14.38
882.301	28.08
882.734	15.88
883.167	23.18
883.601	18.08
884.034	21.78
884.467	12.88
884.899	15.88
885.332	12.68
885.765	12.08
886.198	14.68
886.631	16.28
887.064	23.38
887.497	17.98
887.929	24.78
888.362	10.78
888.795	12.38
889.228	16.98
889.66	18.48
890.093	14.98
890.526	16.38
890.958	13.68
891.391	16.18
891.823	18.58
892.256	13.18
892.688	12.08
893.121	20.18
893.553	10.08
893.985	18.88
894.418	10.78
894.85	10.38
895.282	11.88
895.715	15.78
896.147	16.28
896.579	10.18
897.011	10.78
897.444	15.18
897.876	13.88
898.308	15.28
898.74	12.28
899.172	10.38
899.604	21.98
900.036	13.78
900.468	3.48
900.9	12.48
901.332	16.68
901.764	18.08
902.196	14.68
902.628	14.98
903.06	17.78
903.491	32.28
903.923	22.68
904.355	17.58
904.787	24.18
905.218	20.88
905.65	17.88
906.082	6.38
906.513	13.78
906.945	13.88
907.376	11.48
907.808	15.98
908.239	17.78
908.671	14.68
909.102	15.28
909.534	26.18
909.965	46.78
910.397	89.78
910.828	310.98
911.259	459.78
911.691	216.68
912.122	108.38
912.553	52.48
912.984	34.98
913.415	22.78
913.847	19.98
914.278	15.18
914.709	8.38
915.14	20.98
915.571	17.68
916.002	7.18
916.433	15.18
916.864	17.38
917.295	13.68
917.726	18.68
918.157	14.08
918.587	27.98
919.018	21.98
919.449	22.58
919.88	14.58
920.311	26.98
920.741	52.28
921.172	166.08
921.603	147.08
922.033	70.18
922.464	43.58
922.895	26.28
923.325	21.18
923.756	12.58
924.186	15.98
924.617	21.28
925.047	44.48
925.478	51.48
925.908	40.18
926.338	26.48
926.769	15.68
927.199	19.78
927.629	12.08
928.06	14.48
928.49	11.08
928.92	9.78
929.35	6.48
929.78	17.08
930.21	5.58
930.641	7.78
931.071	8.18
931.501	-0.92
931.931	4.38
932.361	5.98
932.791	2.78
933.221	0.98
933.651	10.68
934.08	15.88
934.51	26.48
934.94	10.28
935.37	8.18
935.8	12.08
936.229	11.58
936.659	10.28
937.089	3.58
937.519	16.48
937.948	21.28
938.378	17.88
938.807	1.88
939.237	-1.22
939.666	7.78
940.096	-4.02
940.525	2.88
940.955	-3.42
941.384	-1.42
941.814	-3.92
942.243	-2.02
942.672	-3.92
943.102	-6.62
943.531	3.98
943.96	-0.82
944.39	-0.22
944.819	-1.92
945.248	2.08
945.677	0.78
946.106	-1.02
946.535	2.78
946.964	2.08
947.393	0.68
947.822	1.58
948.251	-0.12
948.68	1.18
949.109	4.58
949.538	3.88
949.967	-3.22
950.396	0.48
950.825	-0.22
951.254	0.48
951.682	-7.42
952.111	6.48
952.54	4.58
952.969	-5.32
953.397	-10.92
953.826	0.98
954.254	-6.72
954.683	-1.32
955.112	-4.52
955.54	3.68
955.969	2.78
956.397	-3.32
956.826	-2.72
957.254	1.98
957.682	4.78
958.111	1.28
958.539	3.18
958.967	2.08
959.396	-1.62
959.824	3.98
960.252	-0.92
960.68	-5.12
961.109	-2.82
961.537	-4.82
961.965	-3.12
962.393	-3.32
962.821	-1.62
963.249	0.78
963.677	-1.22
964.105	0.18
964.533	45.38
964.961	37.48
965.389	22.08
965.817	10.18
966.245	4.78
966.672	0.28
967.1	1.18
967.528	1.28
967.956	-4.92
968.383	-5.52
968.811	-1.72
969.239	5.38
969.666	-6.72
970.094	-6.72
970.522	-5.52
970.949	-4.02
971.377	-3.52
971.804	-0.82
972.232	-4.12
972.659	-3.62
973.087	0.18
973.514	-5.32
973.941	-9.32
974.369	3.08
974.796	0.88
975.223	-0.32
975.651	2.08
976.078	6.48
976.505	-2.02
976.932	2.08
977.359	13.48
977.786	15.08
978.214	0.58
978.641	-2.92
979.068	-5.32
979.495	-6.62
979.922	-6.22
980.349	-2.82
980.776	-1.82
981.202	-1.22
981.629	2.08
982.056	5.18
982.483	-3.82
982.91	0.78
983.337	-4.72
983.763	0.68
984.19	-3.82
984.617	-8.12
985.043	-10.62
985.47	-2.92
985.897	-5.12
986.323	-10.92
986.75	5.58
987.176	1.28
987.603	-0.02
988.029	1.18
988.456	-2.12
988.882	5.98
989.308	-0.72
989.735	-6.42
990.161	3.68
990.587	-6.32
991.014	-2.52
991.44	5.58
991.866	-4.52
992.292	-6.62
992.719	-4.62
993.145	5.48
993.571	-14.72
993.997	-10.02
994.423	-6.22
994.849	-8.42
995.275	6.08
995.701	1.78
996.127	-2.92
996.553	3.08
996.979	-7.62
997.405	-5.22
997.83	-4.12
998.256	-3.22
998.682	-7.62
999.108	-8.32
999.534	0.18
999.959	-3.72
1000.385	-7.52
1000.811	-3.92
1001.236	-7.42
1001.662	-8.22
1002.087	-7.42
1002.513	1.78
1002.938	-0.12
1003.364	-5.12
1003.789	-4.92
1004.215	1.28
1004.64	0.98
1005.066	-3.02
1005.491	-4.22
1005.916	-7.22
1006.342	-5.02
1006.767	-10.32
1007.192	-2.32
1007.617	-2.22
1008.042	-6.12
1008.468	-8.52
1008.893	-7.52
1009.318	-3.12
1009.743	-2.32
1010.168	4.28
1010.593	-3.22
1011.018	-7.92
1011.443	-5.92
1011.868	0.08
1012.293	-9.02
1012.718	-10.42
1013.143	0.98
1013.567	-2.82
1013.992	-10.72
1014.417	-15.22
1014.842	-3.62
1015.267	-8.02
1015.691	-4.02
1016.116	6.58
1016.541	-0.32
1016.965	0.38
1017.39	0.28
1017.814	-3.82
1018.239	-1.62
1018.663	-13.82
1019.088	-11.22
1019.512	-8.82
1019.937	-4.42
1020.361	-9.12
1020.785	-11.52
1021.21	-8.52
1021.634	-6.52
1022.058	-6.72
1022.483	5.88
1022.907	-3.92
1023.331	-0.92
1023.755	-6.02
1024.179	-2.22
1024.604	-5.92
1025.028	-9.92
1025.452	-8.12
1025.876	-3.52
1026.3	5.98
1026.724	-9.32
1027.148	-2.82
1027.572	-4.22
1027.996	-2.12
1028.42	-7.62
1028.843	-9.72
1029.267	-6.02
1029.691	-3.42
1030.115	-6.32
1030.539	-10.52
1030.962	-10.72
1031.386	-8.52
1031.81	-0.52
1032.233	0.68
1032.657	-4.72
1033.08	-8.52
1033.504	-5.12
1033.927	-4.52
1034.351	-0.82
1034.774	-13.42
1035.198	-3.72
1035.621	-9.82
1036.045	-5.32
1036.468	-1.62
1036.891	-15.82
1037.315	-12.52
1037.738	-18.02
1038.161	-3.22
1038.584	-7.92
1039.008	-8.72
1039.431	-5.92
1039.854	-2.82
1040.277	-16.32
1040.7	-7.02
1041.123	2.18
1041.546	-4.62
1041.969	-3.82
1042.392	-4.72
1042.815	-4.22
1043.238	2.78
1043.661	-0.52
1044.084	-8.42
1044.507	-3.92
1044.93	-3.32
1045.352	-3.42
1045.775	-5.22
1046.198	-4.92
1046.621	-1.82
1047.043	-4.12
1047.466	0.68
1047.889	-2.02
1048.311	-1.82
1048.734	-3.92
1049.156	-7.72
1049.579	-4.52
1050.001	-2.32
1050.424	0.78
1050.846	-5.02
1051.269	-5.02
1051.691	-7.42
1052.113	-6.02
1052.536	-2.02
1052.958	-2.02
1053.38	-7.92
1053.802	-12.12
1054.225	-1.62
1054.647	-10.42
1055.069	-10.52
1055.491	-4.72
1055.913	-6.42
1056.335	-4.52
1056.757	-6.82
1057.179	-5.92
1057.601	-9.72
1058.023	-4.82
1058.445	-6.82
1058.867	-1.72
1059.289	-1.52
1059.711	-7.62
1060.133	0.68
1060.555	-9.32
1060.976	-12.12
1061.398	-5.32
1061.82	-9.52
1062.241	-8.22
1062.663	-11.52
1063.085	-4.02
1063.506	2.98
1063.928	-5.32
1064.35	-2.32
1064.771	-10.12
1065.193	-3.02
1065.614	-9.82
1066.035	-7.52
1066.457	-1.32
1066.878	1.68
1067.3	-11.82
1067.721	-0.32
1068.142	-8.12
1068.564	-5.62
1068.985	-3.32
1069.406	0.68
1069.827	-6.52
1070.248	0.48
1070.67	-5.22
1071.091	-2.52
1071.512	-4.72
1071.933	-5.92
1072.354	-2.52
1072.775	-2.72
1073.196	-7.72
1073.617	-7.32
1074.038	-10.32
1074.459	-3.22
1074.88	-13.32
1075.3	-0.32
1075.721	-5.62
1076.142	0.88
1076.563	-1.42
1076.983	-5.12
1077.404	-4.02
1077.825	-7.12
1078.246	-13.02
1078.666	-10.92
1079.087	-6.32
1079.507	-10.92
1079.928	-4.62
1080.348	1.48
1080.769	-6.72
1081.189	-4.92
1081.61	-5.12
1082.03	-6.72
1082.451	-7.92
1082.871	-8.72
1083.291	-3.52
1083.711	-9.02
1084.132	-7.22
1084.552	-7.92
1084.972	-5.62
1085.392	-9.62
1085.813	-12.32
1086.233	-5.22
1086.653	-5.62
1087.073	0.88
1087.493	-11.32
1087.913	-8.72
1088.333	-3.52
1088.753	-2.22
1089.173	-5.02
1089.593	-7.52
1090.013	-0.62
1090.433	1.88
1090.852	0.28
1091.272	-4.12
1091.692	-5.82
1092.112	-4.52
1092.531	-13.62
1092.951	-13.52
1093.371	-7.22
1093.79	-5.02
1094.21	-1.02
1094.63	-5.42
1095.049	-7.92
1095.469	0.28
1095.888	-6.82
1096.308	-4.72
1096.727	5.18
1097.146	-7.42
1097.566	1.48
1097.985	-8.62
1098.405	-2.82
1098.824	-3.72
1099.243	-5.32
1099.662	-10.02
1100.082	-5.92
1100.501	-2.02
1100.92	-14.12
1101.339	-9.72
1101.758	-6.52
