Data from 20171114-ORNL-Ar_H_NY_Subt18_08-05-44-428.txt Node
Date: Tue Nov 14 08:05:44 EST 2017
User: Ender
Spectrometer: HR+D1039
Trigger mode: 0
Integration Time (sec): 2.730000E-2
Scans to average: 10
Electric dark correction enabled: true
Nonlinearity correction enabled: false
Boxcar width: 0
XAxis mode: Wavelengths
Number of Pixels in Spectrum: 2048
>>>>>Begin Spectral Data<<<<<
187.836	2.51
188.309	2.51
188.782	2.51
189.255	1.71
189.728	1.11
190.201	4.01
190.674	3.21
191.147	4.71
191.619	-5.89
192.092	1.61
192.565	7.21
193.038	-1.09
193.511	-2.49
193.984	-2.39
194.456	-5.89
194.929	-4.39
195.402	-4.09
195.874	0.21
196.347	-6.09
196.82	-9.69
197.292	5.41
197.765	-3.09
198.237	-7.49
198.71	5.11
199.182	0.01
199.655	2.41
200.127	4.11
200.6	-2.19
201.072	-3.09
201.544	-11.29
202.017	-5.89
202.489	6.11
202.961	0.81
203.433	-1.79
203.906	-5.89
204.378	-1.39
204.85	-7.29
205.322	-6.69
205.794	-4.59
206.266	-8.09
206.739	-3.89
207.211	-2.19
207.683	-8.99
208.155	-5.29
208.627	-2.59
209.099	1.31
209.57	-9.09
210.042	-2.69
210.514	-0.09
210.986	0.01
211.458	-6.89
211.93	3.51
212.402	-1.39
212.873	-6.19
213.345	-13.99
213.817	-10.29
214.288	-4.09
214.76	-7.79
215.232	-1.09
215.703	-6.29
216.175	-1.09
216.646	-2.49
217.118	-3.99
217.589	-7.39
218.061	-1.19
218.532	-7.09
219.004	-5.09
219.475	-2.59
219.946	-6.39
220.418	-4.79
220.889	0.11
221.36	1.81
221.832	-5.59
222.303	-2.39
222.774	1.51
223.245	-14.09
223.717	-0.29
224.188	-2.89
224.659	-12.69
225.13	-6.09
225.601	-2.79
226.072	2.21
226.543	-0.39
227.014	-1.79
227.485	-3.89
227.956	-2.99
228.427	-4.49
228.898	1.51
229.369	-1.39
229.839	1.51
230.31	-4.19
230.781	3.81
231.252	-5.69
231.722	-4.09
232.193	-8.49
232.664	2.11
233.135	9.31
233.605	-6.59
234.076	-0.69
234.546	-1.69
235.017	3.01
235.487	0.41
235.958	5.01
236.428	3.21
236.899	7.31
237.369	-0.29
237.84	-2.99
238.31	4.71
238.78	-2.89
239.251	4.91
239.721	8.61
240.191	1.91
240.662	-3.69
241.132	-2.59
241.602	-0.29
242.072	1.81
242.542	13.71
243.013	-1.29
243.483	5.91
243.953	-0.39
244.423	7.91
244.893	-4.09
245.363	4.81
245.833	-2.49
246.303	-2.69
246.773	6.01
247.243	5.61
247.712	4.71
248.182	9.61
248.652	8.61
249.122	-2.79
249.592	7.41
250.061	18.91
250.531	35.41
251.001	14.31
251.471	17.51
251.94	26.61
252.41	13.31
252.879	1.71
253.349	13.11
253.818	8.91
254.288	9.81
254.757	6.51
255.227	0.51
255.696	-1.69
256.166	3.91
256.635	8.31
257.105	17.71
257.574	4.61
258.043	11.01
258.513	13.01
258.982	16.41
259.451	10.11
259.92	13.31
260.389	8.81
260.859	13.21
261.328	11.01
261.797	17.61
262.266	13.11
262.735	9.91
263.204	4.41
263.673	-0.59
264.142	6.01
264.611	1.11
265.08	4.31
265.549	2.11
266.018	5.51
266.487	-0.99
266.955	-4.89
267.424	-0.79
267.893	3.11
268.362	2.91
268.83	5.21
269.299	14.81
269.768	8.51
270.236	8.21
270.705	5.11
271.174	7.11
271.642	3.51
272.111	5.61
272.579	20.31
273.048	30.91
273.516	26.41
273.985	30.21
274.453	27.21
274.922	19.81
275.39	10.41
275.858	4.11
276.327	13.01
276.795	19.41
277.263	18.01
277.731	31.91
278.2	59.71
278.668	54.51
279.136	48.91
279.604	19.41
280.072	11.91
280.54	16.41
281.008	11.81
281.477	19.81
281.945	8.61
282.413	20.71
282.881	13.11
283.348	12.01
283.816	16.71
284.284	14.11
284.752	16.21
285.22	8.01
285.688	15.91
286.156	20.61
286.623	44.51
287.091	52.11
287.559	24.21
288.026	18.11
288.494	23.01
288.962	7.11
289.429	12.31
289.897	19.81
290.364	9.01
290.832	17.81
291.3	16.51
291.767	22.11
292.234	22.01
292.702	13.01
293.169	21.21
293.637	25.71
294.104	22.71
294.571	12.61
295.039	17.11
295.506	12.81
295.973	22.11
296.44	17.61
296.908	20.91
297.375	18.71
297.842	19.51
298.309	20.31
298.776	14.71
299.243	25.11
299.71	17.01
300.177	19.81
300.644	24.51
301.111	23.31
301.578	24.81
302.045	19.71
302.512	23.21
302.979	29.01
303.446	22.81
303.913	12.41
304.379	20.41
304.846	26.91
305.313	30.91
305.78	27.01
306.246	29.91
306.713	23.11
307.18	25.31
307.646	31.41
308.113	25.61
308.579	24.01
309.046	21.41
309.512	30.01
309.979	18.91
310.445	31.51
310.912	26.71
311.378	34.41
311.845	30.51
312.311	32.41
312.777	33.21
313.244	30.01
313.71	37.61
314.176	28.61
314.642	34.51
315.109	30.51
315.575	35.21
316.041	39.71
316.507	32.01
316.973	49.21
317.439	33.71
317.905	39.31
318.371	35.31
318.837	38.91
319.303	28.71
319.769	33.81
320.235	39.81
320.701	33.91
321.167	40.31
321.633	35.51
322.099	41.11
322.564	48.51
323.03	41.61
323.496	35.51
323.962	41.21
324.427	35.81
324.893	44.01
325.359	43.41
325.824	37.91
326.29	42.71
326.755	39.21
327.221	38.21
327.686	39.01
328.152	46.41
328.617	39.91
329.083	43.31
329.548	50.51
330.014	43.51
330.479	39.01
330.944	47.61
331.41	42.41
331.875	46.21
332.34	43.31
332.805	47.41
333.271	47.11
333.736	49.71
334.201	52.81
334.666	54.91
335.131	57.01
335.596	55.61
336.061	50.31
336.526	46.61
336.991	43.71
337.456	60.31
337.921	46.41
338.386	45.71
338.851	53.31
339.316	48.01
339.781	50.21
340.246	50.51
340.711	41.11
341.175	46.81
341.64	42.71
342.105	49.71
342.569	58.11
343.034	56.41
343.499	59.91
343.963	58.11
344.428	70.31
344.893	64.11
345.357	63.51
345.822	61.91
346.286	72.81
346.751	75.81
347.215	68.11
347.679	73.81
348.144	106.61
348.608	84.41
349.073	75.41
349.537	77.71
350.001	79.61
350.465	88.21
350.93	78.51
351.394	82.71
351.858	76.11
352.322	83.51
352.786	80.61
353.25	107.61
353.715	114.41
354.179	102.21
354.643	123.91
355.107	122.91
355.571	117.21
356.035	106.51
356.498	114.41
356.962	126.21
357.426	137.81
357.89	121.61
358.354	91.51
358.818	85.21
359.281	76.31
359.745	77.71
360.209	74.41
360.673	78.21
361.136	76.91
361.6	87.81
362.064	82.11
362.527	86.31
362.991	93.41
363.454	86.11
363.918	81.71
364.381	85.11
364.845	82.31
365.308	88.01
365.772	86.81
366.235	87.71
366.698	87.91
367.162	90.71
367.625	84.71
368.088	88.71
368.552	95.21
369.015	88.01
369.478	99.11
369.941	105.91
370.404	90.31
370.867	106.01
371.331	108.61
371.794	117.31
372.257	111.91
372.72	118.21
373.183	111.71
373.646	101.01
374.109	110.51
374.572	106.01
375.035	109.31
375.497	109.11
375.96	116.71
376.423	109.61
376.886	117.91
377.349	112.31
377.811	99.81
378.274	104.11
378.737	105.61
379.199	113.31
379.662	111.41
380.125	123.11
380.587	112.41
381.05	126.81
381.512	130.41
381.975	128.11
382.437	133.61
382.9	122.61
383.362	133.91
383.825	141.01
384.287	145.11
384.75	138.61
385.212	148.71
385.674	143.91
386.136	139.01
386.599	128.01
387.061	131.51
387.523	129.11
387.985	134.51
388.447	150.31
388.91	147.81
389.372	161.31
389.834	155.31
390.296	142.41
390.758	159.31
391.22	168.41
391.682	213.11
392.144	301.61
392.606	225.31
393.068	173.61
393.529	165.41
393.991	151.51
394.453	143.61
394.915	151.91
395.377	190.71
395.838	216.81
396.3	155.61
396.762	144.71
397.224	137.71
397.685	129.41
398.147	130.31
398.608	124.81
399.07	134.81
399.531	135.31
399.993	148.11
400.454	154.11
400.916	147.31
401.377	146.51
401.839	151.41
402.3	157.41
402.762	166.51
403.223	177.41
403.684	172.81
404.145	161.71
404.607	163.21
405.068	166.11
405.529	174.21
405.99	194.01
406.451	173.31
406.913	169.31
407.374	164.21
407.835	162.91
408.296	164.21
408.757	165.31
409.218	188.11
409.679	181.81
410.14	170.61
410.601	176.51
411.062	184.11
411.522	189.11
411.983	186.71
412.444	173.61
412.905	179.91
413.366	190.81
413.826	190.91
414.287	216.71
414.748	260.21
415.208	253.61
415.669	216.31
416.13	207.81
416.59	201.81
417.051	207.51
417.511	220.31
417.972	232.91
418.432	251.51
418.893	285.01
419.353	251.21
419.814	202.41
420.274	184.61
420.734	189.41
421.195	197.71
421.655	194.61
422.115	196.81
422.576	192.91
423.036	202.11
423.496	212.71
423.956	214.61
424.416	225.81
424.876	271.91
425.336	261.61
425.797	261.21
426.257	255.21
426.717	239.71
427.177	228.21
427.637	225.31
428.097	242.31
428.556	251.41
429.016	276.61
429.476	270.61
429.936	275.51
430.396	282.91
430.856	293.21
431.315	320.41
431.775	344.31
432.235	382.51
432.694	360.11
433.154	371.81
433.614	395.61
434.073	344.71
434.533	281.91
434.993	270.61
435.452	283.91
435.912	297.51
436.371	294.01
436.83	291.21
437.29	280.41
437.749	249.21
438.209	248.11
438.668	271.51
439.127	295.91
439.587	267.61
440.046	249.51
440.505	268.91
440.964	275.61
441.424	335.71
441.883	316.31
442.342	268.91
442.801	222.91
443.26	224.11
443.719	219.61
444.178	222.41
444.637	214.41
445.096	229.21
445.555	225.01
446.014	224.41
446.473	236.21
446.932	235.01
447.391	236.61
447.849	230.61
448.308	215.01
448.767	226.81
449.226	233.31
449.685	240.71
450.143	243.31
450.602	239.61
451.061	226.91
451.519	232.41
451.978	238.11
452.436	235.11
452.895	243.71
453.353	249.91
453.812	249.51
454.27	236.41
454.729	239.81
455.187	241.71
455.646	259.91
456.104	248.21
456.562	262.21
457.021	267.91
457.479	259.31
457.937	276.41
458.395	265.21
458.854	253.91
459.312	259.41
459.77	283.41
460.228	258.71
460.686	244.71
461.144	252.21
461.602	249.71
462.06	245.81
462.518	256.21
462.976	254.31
463.434	259.21
463.892	265.31
464.35	281.31
464.808	286.91
465.266	268.21
465.724	275.41
466.181	274.91
466.639	271.61
467.097	289.51
467.555	299.21
468.012	306.11
468.47	310.01
468.928	332.21
469.385	343.41
469.843	343.51
470.3	356.61
470.758	371.01
471.215	397.01
471.673	419.41
472.13	413.41
472.588	418.31
473.045	371.61
473.503	376.61
473.96	401.11
474.417	413.21
474.875	433.41
475.332	483.21
475.789	471.41
476.246	474.11
476.704	497.11
477.161	521.51
477.618	533.61
478.075	563.01
478.532	627.91
478.989	697.91
479.446	818.21
479.903	779.71
480.36	817.41
480.817	874.71
481.274	971.31
481.731	1075.91
482.188	1175.11
482.645	1318.71
483.102	1420.31
483.558	1563.41
484.015	1619.91
484.472	1585.21
484.929	1532.21
485.385	1477.61
485.842	1447.81
486.299	1383.71
486.755	1312.31
487.212	1119.41
487.668	941.71
488.125	862.01
488.582	792.21
489.038	765.61
489.494	721.21
489.951	696.11
490.407	679.81
490.864	661.91
491.32	651.31
491.776	652.41
492.233	652.21
492.689	619.51
493.145	614.01
493.602	602.21
494.058	618.71
494.514	624.81
494.97	650.11
495.426	658.01
495.882	625.71
496.338	612.81
496.794	645.81
497.251	627.71
497.707	652.21
498.163	650.81
498.618	643.41
499.074	653.71
499.53	685.51
499.986	688.41
500.442	659.81
500.898	645.91
501.354	636.11
501.809	639.51
502.265	654.51
502.721	668.51
503.177	676.91
503.632	671.31
504.088	682.41
504.543	715.51
504.999	712.11
505.455	664.81
505.91	639.81
506.366	644.81
506.821	632.51
507.277	626.01
507.732	633.41
508.187	627.81
508.643	637.21
509.098	650.81
509.553	665.41
510.009	665.61
510.464	668.91
510.919	694.31
511.375	699.51
511.83	716.51
512.285	728.61
512.74	771.61
513.195	793.81
513.65	775.21
514.105	776.91
514.56	771.41
515.015	795.11
515.47	811.21
515.925	797.01
516.38	798.91
516.835	805.11
517.29	805.71
517.745	776.31
518.2	770.51
518.655	753.51
519.109	752.91
519.564	747.71
520.019	736.81
520.474	741.91
520.928	736.81
521.383	730.11
521.838	716.81
522.292	719.41
522.747	708.11
523.201	706.01
523.656	705.01
524.11	698.01
524.565	701.01
525.019	699.91
525.474	704.11
525.928	708.31
526.382	698.71
526.837	695.91
527.291	707.31
527.745	703.91
528.2	707.91
528.654	698.91
529.108	689.61
529.562	695.61
530.016	704.81
530.47	698.31
530.925	691.41
531.379	698.11
531.833	713.71
532.287	712.21
532.741	716.21
533.195	710.91
533.649	725.41
534.103	719.81
534.556	720.31
535.01	717.41
535.464	719.71
535.918	734.31
536.372	724.11
536.826	717.81
537.279	707.01
537.733	721.21
538.187	717.91
538.64	721.51
539.094	719.21
539.548	734.31
540.001	722.31
540.455	735.01
540.908	740.51
541.362	743.51
541.815	743.81
542.269	765.41
542.722	763.01
543.175	768.41
543.629	777.31
544.082	793.21
544.536	793.11
544.989	782.11
545.442	795.81
545.895	783.21
546.349	799.21
546.802	798.91
547.255	800.21
547.708	801.31
548.161	821.81
548.614	834.81
549.067	826.01
549.52	831.31
549.973	818.31
550.426	819.31
550.879	802.61
551.332	803.71
551.785	812.81
552.238	806.21
552.691	825.81
553.144	833.91
553.596	847.21
554.049	859.01
554.502	905.21
554.955	916.11
555.407	907.11
555.86	906.31
556.313	889.91
556.765	884.51
557.218	881.01
557.67	883.51
558.123	880.01
558.576	879.11
559.028	879.01
559.48	878.31
559.933	879.01
560.385	839.21
560.838	808.21
561.29	784.31
561.742	785.11
562.195	769.11
562.647	770.61
563.099	773.91
563.551	777.51
564.004	787.51
564.456	779.41
564.908	766.31
565.36	751.91
565.812	734.11
566.264	724.71
566.716	724.41
567.168	716.51
567.62	720.01
568.072	701.71
568.524	697.01
568.976	691.01
569.428	669.41
569.88	674.41
570.332	679.71
570.784	682.41
571.235	682.51
571.687	689.31
572.139	701.61
572.59	714.31
573.042	712.91
573.494	706.71
573.945	713.01
574.397	688.21
574.849	692.11
575.3	688.61
575.752	686.31
576.203	685.61
576.655	685.91
577.106	668.81
577.557	666.01
578.009	668.01
578.46	656.21
578.912	665.91
579.363	667.81
579.814	666.41
580.265	665.91
580.717	675.71
581.168	673.41
581.619	670.71
582.07	684.31
582.521	676.51
582.972	668.51
583.423	670.11
583.875	676.41
584.326	698.31
584.777	742.31
585.227	816.31
585.678	907.21
586.129	991.31
586.58	1064.61
587.031	1149.51
587.482	1298.61
587.933	1469.21
588.384	1275.01
588.834	958.31
589.285	805.71
589.736	783.51
590.186	772.11
590.637	757.91
591.088	740.61
591.538	736.91
591.989	730.71
592.439	710.91
592.89	718.71
593.34	712.51
593.791	708.31
594.241	709.51
594.692	711.61
595.142	697.21
595.593	696.61
596.043	704.41
596.493	706.31
596.943	708.01
597.394	714.41
597.844	700.71
598.294	725.71
598.744	746.51
599.195	766.71
599.645	809.01
600.095	854.01
600.545	903.71
600.995	954.51
601.445	1017.21
601.895	1082.21
602.345	1134.31
602.795	1102.71
603.245	1052.61
603.695	994.41
604.145	949.11
604.594	888.21
605.044	847.21
605.494	795.81
605.944	745.81
606.393	729.41
606.843	718.11
607.293	719.01
607.743	726.21
608.192	745.21
608.642	755.21
609.091	759.41
609.541	762.71
609.99	767.61
610.44	761.81
610.889	712.81
611.339	700.21
611.788	686.71
612.238	687.71
612.687	711.21
613.136	709.91
613.586	730.11
614.035	721.41
614.484	744.21
614.933	750.61
615.383	746.41
615.832	732.51
616.281	709.61
616.73	678.51
617.179	661.51
617.628	642.61
618.077	622.51
618.526	624.71
618.975	600.01
619.424	592.81
619.873	607.41
620.322	609.81
620.771	605.71
621.22	596.01
621.669	583.41
622.118	584.81
622.567	573.31
623.015	560.21
623.464	568.11
623.913	553.31
624.361	545.81
624.81	541.91
625.259	548.51
625.707	546.61
626.156	546.51
626.604	559.01
627.053	554.71
627.501	549.61
627.95	560.81
628.398	568.01
628.847	559.51
629.295	562.71
629.744	554.81
630.192	560.01
630.64	550.31
631.089	553.41
631.537	558.31
631.985	569.41
632.433	586.31
632.881	588.41
633.33	646.61
633.778	631.21
634.226	557.11
634.674	560.21
635.122	567.91
635.57	585.21
636.018	608.91
636.466	570.41
636.914	544.01
637.362	560.71
637.81	572.81
638.258	568.81
638.705	569.11
639.153	602.51
639.601	599.21
640.049	616.61
640.497	649.11
640.944	669.01
641.392	624.01
641.84	603.81
642.287	579.11
642.735	570.61
643.182	569.11
643.63	564.11
644.078	572.21
644.525	582.21
644.973	581.51
645.42	592.61
645.867	615.61
646.315	631.51
646.762	652.21
647.21	677.61
647.657	709.51
648.104	740.41
648.551	758.71
648.999	825.91
649.446	891.21
649.893	975.01
650.34	1138.41
650.787	1371.91
651.234	1684.61
651.682	2189.41
652.129	2989.81
652.576	4312.31
653.023	6344.41
653.47	8724.71
653.917	10931.51
654.363	12666.91
654.81	14081.61
655.257	13396.21
655.704	8764.31
656.151	5188.11
656.598	3353.81
657.044	2375.31
657.491	1826.71
657.938	1468.91
658.385	1226.21
658.831	1054.71
659.278	941.91
659.724	836.51
660.171	775.81
660.618	701.11
661.064	670.51
661.511	658.81
661.957	647.41
662.404	635.81
662.85	633.01
663.296	607.31
663.743	555.01
664.189	528.51
664.635	517.91
665.082	507.91
665.528	515.41
665.974	504.01
666.42	499.41
666.867	496.21
667.313	477.81
667.759	467.21
668.205	474.51
668.651	465.41
669.097	472.21
669.543	481.21
669.989	459.71
670.435	432.81
670.881	426.81
671.327	434.61
671.773	457.81
672.219	471.51
672.665	531.51
673.11	560.71
673.556	613.01
674.002	653.91
674.448	636.81
674.893	533.81
675.339	457.41
675.785	431.71
676.23	405.11
676.676	383.71
677.122	375.01
677.567	372.11
678.013	355.51
678.458	350.81
678.904	349.21
679.349	333.61
679.794	335.31
680.24	340.31
680.685	343.71
681.131	335.51
681.576	333.71
682.021	338.71
682.466	342.81
682.912	329.41
683.357	347.21
683.802	363.41
684.247	400.81
684.692	436.91
685.137	474.71
685.583	515.21
686.028	547.11
686.473	491.21
686.918	432.91
687.363	400.91
687.807	380.81
688.252	349.51
688.697	346.81
689.142	322.81
689.587	318.11
690.032	317.11
690.477	323.41
690.921	331.51
691.366	372.91
691.811	382.41
692.255	420.91
692.7	448.31
693.145	486.11
693.589	666.11
694.034	1077.41
694.478	1472.01
694.923	1681.41
695.367	2198.21
695.812	1153.21
696.256	487.81
696.701	354.71
697.145	333.81
697.59	320.11
698.034	308.81
698.478	323.11
698.922	317.21
699.367	316.51
699.811	321.51
700.255	339.31
700.699	369.81
701.143	407.51
701.588	461.81
702.032	500.01
702.476	495.91
702.92	477.51
703.364	468.51
703.808	599.21
704.252	973.11
704.696	1382.71
705.14	1614.01
705.584	2066.41
706.027	1031.61
706.471	501.91
706.915	390.21
707.359	343.21
707.803	307.31
708.246	297.71
708.69	300.31
709.134	308.61
709.577	302.51
710.021	307.81
710.465	299.91
710.908	289.81
711.352	288.81
711.795	295.91
712.239	337.31
712.682	374.61
713.126	401.41
713.569	452.51
714.012	360.21
714.456	313.11
714.899	284.31
715.342	261.01
715.786	252.71
716.229	261.11
716.672	252.21
717.115	241.11
717.558	243.81
718.002	239.71
718.445	253.81
718.888	272.81
719.331	280.11
719.774	293.91
720.217	294.51
720.66	270.51
721.103	255.31
721.546	244.41
721.989	239.61
722.432	225.71
722.874	231.11
723.317	226.51
723.76	220.31
724.203	252.61
724.645	299.11
725.088	421.01
725.531	543.71
725.974	633.01
726.416	530.61
726.859	289.21
727.301	234.61
727.744	224.81
728.187	227.31
728.629	228.91
729.071	233.31
729.514	237.41
729.956	259.01
730.399	271.61
730.841	279.61
731.283	257.51
731.726	253.61
732.168	245.51
732.61	260.41
733.053	268.61
733.495	297.01
733.937	339.81
734.379	385.31
734.821	414.01
735.263	520.41
735.705	793.01
736.148	1481.01
736.59	2473.31
737.032	2962.01
737.474	2424.71
737.916	783.91
738.357	402.21
738.799	308.51
739.241	285.51
739.683	273.71
740.125	278.91
740.567	285.01
741.008	299.41
741.45	300.21
741.892	300.31
742.334	333.41
742.775	342.11
743.217	339.41
743.658	259.41
744.1	241.51
744.542	254.11
744.983	294.71
745.425	330.71
745.866	334.01
746.307	272.41
746.749	264.21
747.19	314.21
747.632	427.81
748.073	816.41
748.514	1756.01
748.956	2726.71
749.397	3407.61
749.838	2848.11
750.279	2871.71
750.72	1451.61
751.162	525.71
751.603	312.11
752.044	245.01
752.485	208.01
752.926	202.21
753.367	190.51
753.808	183.11
754.249	180.31
754.69	179.81
755.131	180.01
755.572	176.41
756.013	178.11
756.453	174.31
756.894	180.31
757.335	181.41
757.776	187.21
758.216	190.31
758.657	190.11
759.098	192.91
759.538	214.61
759.979	254.91
760.42	350.51
760.86	656.41
761.301	1696.61
761.741	4169.31
762.182	6225.31
762.622	4387.41
763.063	1269.11
763.503	520.31
763.943	331.21
764.384	319.01
764.824	375.11
765.264	413.01
765.705	287.01
766.145	200.61
766.585	183.11
767.025	169.11
767.465	179.71
767.906	226.91
768.346	300.21
768.786	324.21
769.226	244.71
769.666	299.21
770.106	582.81
770.546	1464.11
770.986	2554.21
771.426	2296.41
771.866	761.71
772.306	312.41
772.745	190.11
773.185	161.71
773.625	161.71
774.065	158.61
774.505	193.21
774.944	287.41
775.384	625.91
775.824	1160.31
776.263	1123.21
776.703	478.11
777.142	210.01
777.582	150.01
778.021	130.91
778.461	130.61
778.9	135.61
779.34	126.61
779.779	110.61
780.219	109.11
780.658	100.71
781.097	103.71
781.537	111.41
781.976	103.61
782.415	103.41
782.855	101.81
783.294	106.01
783.733	104.91
784.172	104.01
784.611	95.01
785.05	104.81
785.489	104.21
785.928	113.61
786.367	119.21
786.806	114.01
787.245	117.41
787.684	122.91
788.123	139.11
788.562	131.51
789.001	121.11
789.44	122.91
789.879	113.51
790.317	115.21
790.756	121.01
791.195	119.91
791.634	142.31
792.072	186.81
792.511	346.81
792.95	947.31
793.388	2042.01
793.827	1891.11
794.265	648.01
794.704	264.31
795.142	173.21
795.581	150.41
796.019	130.81
796.458	130.71
796.896	110.31
797.334	121.61
797.773	146.71
798.211	215.51
798.649	415.01
799.087	970.71
799.526	1506.91
799.964	1906.21
800.402	1959.11
800.84	727.81
801.278	286.41
801.716	178.91
802.154	150.71
802.592	141.91
803.03	135.31
803.468	127.11
803.906	131.31
804.344	139.11
804.782	131.61
805.22	130.71
805.658	125.81
806.096	139.51
806.533	147.71
806.971	163.81
807.409	206.61
807.847	301.61
808.284	622.21
808.722	1755.81
809.16	3134.51
809.597	2965.81
810.035	5156.91
810.472	5603.41
810.91	2006.61
811.347	767.31
811.785	384.61
812.222	243.91
812.66	194.31
813.097	161.81
813.535	133.61
813.972	126.61
814.409	113.91
814.846	106.81
815.284	112.91
815.721	103.51
816.158	97.71
816.595	117.61
817.032	167.61
817.47	192.51
817.907	164.41
818.344	135.01
818.781	109.41
819.218	98.01
819.655	114.51
820.092	174.41
820.529	207.21
820.966	173.11
821.403	126.31
821.839	98.71
822.276	99.41
822.713	116.31
823.15	127.01
823.587	113.81
824.023	138.11
824.46	274.61
824.897	836.81
825.333	1309.61
825.77	561.11
826.206	224.41
826.643	129.81
827.08	93.41
827.516	81.11
827.953	68.11
828.389	77.31
828.825	69.51
829.262	67.31
829.698	60.51
830.135	59.91
830.571	58.11
831.007	59.61
831.443	61.91
831.88	57.61
832.316	57.91
832.752	61.61
833.188	65.91
833.624	62.11
834.06	61.01
834.497	66.31
834.933	68.01
835.369	78.41
835.805	66.31
836.241	69.11
836.677	73.31
837.112	82.71
837.548	100.21
837.984	126.81
838.42	191.71
838.856	454.31
839.292	1427.81
839.727	2214.21
840.163	1016.01
840.599	858.51
841.034	1934.21
841.47	2052.11
841.906	744.71
842.341	312.91
842.777	223.31
843.212	294.31
843.648	301.81
844.083	146.31
844.519	93.31
844.954	72.81
845.39	62.01
845.825	56.11
846.261	54.41
846.696	49.21
847.131	48.21
847.566	54.71
848.002	49.41
848.437	54.31
848.872	57.11
849.307	56.91
849.742	75.11
850.177	168.31
850.613	529.01
851.048	847.61
851.483	361.11
851.918	144.21
852.353	86.81
852.788	59.91
853.223	54.61
853.657	54.61
854.092	49.91
854.527	41.81
854.962	36.51
855.397	40.11
855.832	45.21
856.266	41.21
856.701	35.31
857.136	40.71
857.57	39.11
858.005	48.41
858.44	55.31
858.874	39.91
859.309	45.21
859.743	38.81
860.178	40.81
860.612	37.21
861.047	48.51
861.481	63.31
861.915	69.51
862.35	50.41
862.784	33.71
863.218	35.21
863.653	35.91
864.087	45.31
864.521	49.31
864.955	64.61
865.39	148.11
865.824	174.51
866.258	108.21
866.692	159.51
867.126	175.81
867.56	102.71
867.994	53.71
868.428	35.01
868.862	41.71
869.296	51.51
869.73	59.11
870.164	43.91
870.598	42.61
871.031	38.41
871.465	31.31
871.899	25.91
872.333	26.01
872.766	26.71
873.2	22.51
873.634	30.81
874.067	27.31
874.501	24.21
874.935	33.41
875.368	30.61
875.802	28.51
876.235	24.11
876.669	24.41
877.102	22.91
877.535	27.71
877.969	18.41
878.402	25.81
878.836	11.61
879.269	23.71
879.702	26.51
880.135	19.31
880.569	23.71
881.002	26.21
881.435	19.51
881.868	15.01
882.301	23.41
882.734	14.51
883.167	19.81
883.601	12.91
884.034	19.31
884.467	16.31
884.899	17.61
885.332	12.11
885.765	12.01
886.198	17.91
886.631	12.01
887.064	21.21
887.497	18.51
887.929	27.31
888.362	13.51
888.795	15.41
889.228	18.81
889.66	17.71
890.093	15.51
890.526	12.51
890.958	20.21
891.391	13.11
891.823	19.31
892.256	17.51
892.688	8.91
893.121	13.21
893.553	12.71
893.985	15.11
894.418	9.91
894.85	14.51
895.282	14.61
895.715	18.01
896.147	13.81
896.579	15.61
897.011	10.71
897.444	14.81
897.876	11.81
898.308	12.11
898.74	13.71
899.172	16.11
899.604	24.71
900.036	24.11
900.468	19.81
900.9	14.71
901.332	11.41
901.764	16.81
902.196	15.61
902.628	15.81
903.06	15.81
903.491	25.31
903.923	17.71
904.355	16.01
904.787	21.51
905.218	20.51
905.65	16.21
906.082	10.21
906.513	15.71
906.945	10.21
907.376	17.21
907.808	17.61
908.239	23.61
908.671	12.41
909.102	16.01
909.534	22.51
909.965	42.31
910.397	82.21
910.828	300.91
911.259	453.31
911.691	203.61
912.122	103.11
912.553	48.41
912.984	35.91
913.415	29.11
913.847	25.21
914.278	12.11
914.709	13.11
915.14	17.31
915.571	14.61
916.002	7.81
916.433	15.61
916.864	16.21
917.295	11.01
917.726	16.81
918.157	15.81
918.587	27.11
919.018	18.81
919.449	18.61
919.88	22.41
920.311	25.91
920.741	49.91
921.172	166.71
921.603	141.41
922.033	66.01
922.464	41.91
922.895	20.01
923.325	21.61
923.756	15.51
924.186	13.91
924.617	28.91
925.047	45.71
925.478	50.81
925.908	44.01
926.338	23.51
926.769	18.61
927.199	21.31
927.629	10.61
928.06	21.21
928.49	11.21
928.92	15.01
929.35	17.81
929.78	10.11
930.21	9.21
930.641	8.21
931.071	1.71
931.501	5.51
931.931	7.71
932.361	4.91
932.791	5.41
933.221	8.01
933.651	4.71
934.08	16.51
934.51	31.11
934.94	17.41
935.37	10.51
935.8	14.51
936.229	5.61
936.659	11.31
937.089	1.51
937.519	16.01
937.948	19.41
938.378	15.51
938.807	3.81
939.237	3.01
939.666	10.21
940.096	-0.29
940.525	-4.49
940.955	3.31
941.384	8.41
941.814	-6.99
942.243	-4.09
942.672	7.11
943.102	3.01
943.531	3.11
943.96	1.31
944.39	4.81
944.819	5.11
945.248	2.51
945.677	1.21
946.106	4.41
946.535	5.71
946.964	1.11
947.393	7.31
947.822	3.41
948.251	-0.29
948.68	3.71
949.109	3.31
949.538	3.11
949.967	2.81
950.396	-1.59
950.825	-0.19
951.254	3.51
951.682	-9.39
952.111	-0.09
952.54	1.01
952.969	-9.09
953.397	-3.89
953.826	4.51
954.254	-5.29
954.683	-2.79
955.112	1.41
955.54	6.41
955.969	-1.09
956.397	2.41
956.826	-1.09
957.254	3.61
957.682	-2.09
958.111	1.91
958.539	2.81
958.967	1.81
959.396	-2.59
959.824	-2.99
960.252	3.81
960.68	-1.09
961.109	1.41
961.537	-5.69
961.965	-2.49
962.393	0.41
962.821	0.21
963.249	0.91
963.677	3.31
964.105	2.61
964.533	47.51
964.961	47.11
965.389	19.31
965.817	4.61
966.245	-2.39
966.672	0.11
967.1	-7.79
967.528	-2.69
967.956	1.91
968.383	5.11
968.811	0.81
969.239	-1.49
969.666	-7.59
970.094	7.01
970.522	3.71
970.949	0.91
971.377	-5.89
971.804	-9.09
972.232	-2.19
972.659	-2.99
973.087	-0.29
973.514	-1.79
973.941	-7.49
974.369	0.71
974.796	2.81
975.223	-1.19
975.651	0.81
976.078	3.91
976.505	-0.09
976.932	0.01
977.359	9.51
977.786	12.11
978.214	1.81
978.641	-5.99
979.068	-4.89
979.495	-5.49
979.922	-6.39
980.349	-5.49
980.776	2.21
981.202	1.31
981.629	8.11
982.056	4.01
982.483	-2.39
982.91	-1.79
983.337	-12.39
983.763	0.01
984.19	-3.49
984.617	-7.59
985.043	-2.09
985.47	-0.49
985.897	-4.39
986.323	-8.59
986.75	0.01
987.176	5.11
987.603	-0.59
988.029	2.71
988.456	-3.89
988.882	-1.99
989.308	-0.79
989.735	-8.29
990.161	-1.69
990.587	-9.59
991.014	0.31
991.44	4.01
991.866	1.11
992.292	-5.39
992.719	-3.49
993.145	2.31
993.571	-11.59
993.997	-5.39
994.423	-0.99
994.849	-3.49
995.275	0.31
995.701	2.31
996.127	-2.59
996.553	-0.39
996.979	-3.29
997.405	-3.19
997.83	-4.59
998.256	-7.79
998.682	-7.19
999.108	-7.89
999.534	-3.39
999.959	-1.19
1000.385	-3.09
1000.811	-1.49
1001.236	-15.39
1001.662	-8.09
1002.087	-10.99
1002.513	3.21
1002.938	-1.69
1003.364	-6.99
1003.789	-1.19
1004.215	2.11
1004.64	1.61
1005.066	5.21
1005.491	0.71
1005.916	-2.49
1006.342	-2.69
1006.767	-8.09
1007.192	6.71
1007.617	-4.79
1008.042	-1.09
1008.468	-7.69
1008.893	-6.59
1009.318	-1.39
1009.743	-1.99
1010.168	1.41
1010.593	-0.49
1011.018	-8.59
1011.443	-4.69
1011.868	-0.79
1012.293	-7.79
1012.718	-8.29
1013.143	4.61
1013.567	6.71
1013.992	-2.59
1014.417	-14.29
1014.842	0.91
1015.267	-2.89
1015.691	-2.49
1016.116	-1.49
1016.541	-1.09
1016.965	1.61
1017.39	0.71
1017.814	2.51
1018.239	-3.19
1018.663	-5.79
1019.088	-9.49
1019.512	-2.69
1019.937	-3.19
1020.361	-7.39
1020.785	-7.69
1021.21	-5.39
1021.634	-4.39
1022.058	-4.79
1022.483	-1.49
1022.907	-9.69
1023.331	-3.19
1023.755	-1.89
1024.179	-6.09
1024.604	-13.79
1025.028	-8.09
1025.452	-11.49
1025.876	-3.09
1026.3	3.21
1026.724	-8.59
1027.148	-5.69
1027.572	-12.69
1027.996	-7.59
1028.42	3.31
1028.843	-3.89
1029.267	-6.89
1029.691	-7.29
1030.115	-8.29
1030.539	-9.89
1030.962	-4.29
1031.386	-6.69
1031.81	10.31
1032.233	-4.49
1032.657	-5.09
1033.08	2.81
1033.504	-7.29
1033.927	-3.79
1034.351	-6.49
1034.774	-4.49
1035.198	-1.89
1035.621	-3.69
1036.045	-10.29
1036.468	-0.69
1036.891	-7.09
1037.315	-6.39
1037.738	-7.29
1038.161	0.01
1038.584	-2.49
1039.008	-2.09
1039.431	-1.09
1039.854	-1.09
1040.277	-12.79
1040.7	-10.29
1041.123	2.11
1041.546	-8.99
1041.969	-7.49
1042.392	-3.79
1042.815	-9.29
1043.238	2.21
1043.661	4.21
1044.084	-2.99
1044.507	-1.19
1044.93	-7.99
1045.352	-8.89
1045.775	-6.69
1046.198	0.61
1046.621	-3.79
1047.043	-2.49
1047.466	4.81
1047.889	-7.79
1048.311	-0.09
1048.734	-7.49
1049.156	-7.99
1049.579	-7.99
1050.001	-5.39
1050.424	-5.29
1050.846	-0.59
1051.269	-9.39
1051.691	-7.19
1052.113	-5.09
1052.536	1.31
1052.958	-5.99
1053.38	-10.09
1053.802	-6.79
1054.225	-4.79
1054.647	-11.69
1055.069	-4.59
1055.491	5.21
1055.913	-6.59
1056.335	1.61
1056.757	-3.79
1057.179	-8.49
1057.601	-6.59
1058.023	-6.99
1058.445	-0.09
1058.867	-4.29
1059.289	-2.69
1059.711	-5.19
1060.133	-0.79
1060.555	-5.39
1060.976	-6.49
1061.398	-3.39
1061.82	-6.29
1062.241	-5.29
1062.663	-5.99
1063.085	-9.59
1063.506	-1.49
1063.928	-7.69
1064.35	-1.09
1064.771	-13.19
1065.193	-5.49
1065.614	-10.69
1066.035	1.21
1066.457	-3.49
1066.878	2.61
1067.3	-3.99
1067.721	-4.39
1068.142	-4.49
1068.564	-1.79
1068.985	-0.99
1069.406	-8.19
1069.827	-4.99
1070.248	-1.49
1070.67	-5.99
1071.091	-6.09
1071.512	-3.49
1071.933	-10.19
1072.354	-3.09
1072.775	-1.09
1073.196	-4.49
1073.617	3.61
1074.038	-0.89
1074.459	-2.59
1074.88	-8.09
1075.3	2.91
1075.721	-6.99
1076.142	3.11
1076.563	1.01
1076.983	-14.59
1077.404	-2.69
1077.825	-10.69
1078.246	-6.79
1078.666	-9.79
1079.087	-5.69
1079.507	-7.89
1079.928	3.11
1080.348	-0.69
1080.769	-10.19
1081.189	0.51
1081.61	-3.29
1082.03	-2.49
1082.451	-7.29
1082.871	-0.59
1083.291	-4.09
1083.711	-6.19
1084.132	-2.89
1084.552	-3.69
1084.972	0.71
1085.392	-6.99
1085.813	-5.29
1086.233	-4.69
1086.653	-2.09
1087.073	-2.39
1087.493	-7.39
1087.913	-5.99
1088.333	-6.39
1088.753	-2.19
1089.173	1.11
1089.593	-3.89
1090.013	3.91
1090.433	1.11
1090.852	-1.49
1091.272	-3.09
1091.692	1.11
1092.112	-8.39
1092.531	-7.69
1092.951	-12.29
1093.371	-2.49
1093.79	3.51
1094.21	-2.19
1094.63	-3.59
1095.049	-7.59
1095.469	-7.99
1095.888	1.71
1096.308	2.51
1096.727	3.31
1097.146	-2.29
1097.566	-3.69
1097.985	-3.49
1098.405	-1.29
1098.824	-6.49
1099.243	-10.39
1099.662	-7.39
1100.082	1.61
1100.501	-2.39
1100.92	0.91
1101.339	-7.19
1101.758	-0.19
