Data from 20171114-ORNL-Ar_H_NY_Subt18_08-06-59-770.txt Node
Date: Tue Nov 14 08:06:59 EST 2017
User: Ender
Spectrometer: HR+D1039
Trigger mode: 0
Integration Time (sec): 2.730000E-2
Scans to average: 10
Electric dark correction enabled: true
Nonlinearity correction enabled: false
Boxcar width: 0
XAxis mode: Wavelengths
Number of Pixels in Spectrum: 2048
>>>>>Begin Spectral Data<<<<<
187.836	-3.43
188.309	-3.43
188.782	-3.43
189.255	1.37
189.728	-3.33
190.201	6.07
190.674	4.17
191.147	4.87
191.619	-11.13
192.092	-2.03
192.565	0.17
193.038	1.57
193.511	3.17
193.984	-0.73
194.456	0.37
194.929	2.27
195.402	-1.53
195.874	-1.83
196.347	0.27
196.82	-8.63
197.292	8.17
197.765	-3.83
198.237	-5.53
198.71	-0.63
199.182	-0.33
199.655	2.17
200.127	4.27
200.6	-3.63
201.072	-5.03
201.544	-6.63
202.017	2.47
202.489	8.87
202.961	-3.03
203.433	-3.53
203.906	-6.83
204.378	-4.63
204.85	-1.83
205.322	-3.93
205.794	-3.93
206.266	-3.33
206.739	-8.93
207.211	-0.83
207.683	-11.53
208.155	-2.03
208.627	-0.73
209.099	-2.83
209.57	-8.43
210.042	-4.93
210.514	-5.33
210.986	-2.73
211.458	-4.13
211.93	-4.23
212.402	2.37
212.873	-6.53
213.345	-6.33
213.817	-7.13
214.288	-0.43
214.76	-12.53
215.232	-6.33
215.703	-1.73
216.175	-3.03
216.646	-6.23
217.118	-10.63
217.589	-8.43
218.061	0.77
218.532	-0.03
219.004	-2.03
219.475	-4.23
219.946	-1.03
220.418	-7.43
220.889	2.37
221.36	2.67
221.832	-14.83
222.303	-8.83
222.774	-1.33
223.245	-6.33
223.717	-7.93
224.188	-4.13
224.659	-5.63
225.13	-8.23
225.601	-2.63
226.072	-1.83
226.543	-1.33
227.014	-2.43
227.485	-2.23
227.956	-8.73
228.427	1.97
228.898	-2.13
229.369	-1.23
229.839	0.47
230.31	-6.33
230.781	-2.23
231.252	-11.03
231.722	0.07
232.193	-1.23
232.664	-4.93
233.135	-4.93
233.605	-3.83
234.076	-3.83
234.546	-2.93
235.017	2.37
235.487	2.07
235.958	-0.93
236.428	-7.43
236.899	-5.93
237.369	1.07
237.84	-10.23
238.31	2.37
238.78	-4.33
239.251	-8.23
239.721	-3.63
240.191	-2.23
240.662	-6.73
241.132	-4.23
241.602	-7.03
242.072	-8.03
242.542	-2.33
243.013	-7.33
243.483	-0.93
243.953	2.77
244.423	-2.23
244.893	0.07
245.363	4.87
245.833	1.97
246.303	-5.03
246.773	4.57
247.243	-2.73
247.712	0.97
248.182	3.77
248.652	0.37
249.122	-13.43
249.592	-4.93
250.061	7.17
250.531	12.37
251.001	-5.33
251.471	2.37
251.94	7.87
252.41	-3.63
252.879	-7.03
253.349	6.47
253.818	2.27
254.288	2.17
254.757	-2.43
255.227	-6.63
255.696	-5.43
256.166	0.87
256.635	3.07
257.105	3.07
257.574	-2.23
258.043	-2.63
258.513	-5.43
258.982	-0.53
259.451	-6.83
259.92	-0.93
260.389	-0.43
260.859	7.97
261.328	0.17
261.797	3.17
262.266	0.37
262.735	6.17
263.204	3.27
263.673	-2.23
264.142	6.37
264.611	-3.53
265.08	-1.33
265.549	1.47
266.018	3.27
266.487	-5.33
266.955	-2.43
267.424	-3.43
267.893	0.27
268.362	-3.73
268.83	8.37
269.299	7.87
269.768	1.97
270.236	0.47
270.705	4.27
271.174	2.47
271.642	0.37
272.111	0.37
272.579	4.37
273.048	2.87
273.516	4.67
273.985	5.87
274.453	7.37
274.922	10.07
275.39	3.97
275.858	-5.93
276.327	6.67
276.795	15.67
277.263	-2.23
277.731	5.37
278.2	9.17
278.668	7.87
279.136	9.27
279.604	0.37
280.072	12.07
280.54	6.77
281.008	4.17
281.477	10.07
281.945	3.77
282.413	14.47
282.881	4.17
283.348	6.07
283.816	11.87
284.284	12.77
284.752	17.07
285.22	11.07
285.688	10.77
286.156	9.57
286.623	15.77
287.091	5.67
287.559	13.57
288.026	7.97
288.494	9.87
288.962	0.67
289.429	4.97
289.897	13.97
290.364	15.87
290.832	16.67
291.3	12.17
291.767	18.37
292.234	17.77
292.702	9.57
293.169	18.07
293.637	16.07
294.104	15.37
294.571	6.57
295.039	4.67
295.506	11.27
295.973	11.07
296.44	11.87
296.908	15.97
297.375	6.87
297.842	9.07
298.309	12.97
298.776	8.07
299.243	16.27
299.71	11.27
300.177	16.97
300.644	14.27
301.111	14.27
301.578	14.77
302.045	13.37
302.512	18.37
302.979	19.67
303.446	15.27
303.913	13.47
304.379	16.57
304.846	16.77
305.313	20.77
305.78	15.27
306.246	21.77
306.713	15.47
307.18	18.27
307.646	14.57
308.113	20.17
308.579	20.87
309.046	23.87
309.512	17.07
309.979	15.47
310.445	19.77
310.912	20.77
311.378	24.47
311.845	18.87
312.311	22.67
312.777	20.47
313.244	25.97
313.71	30.37
314.176	25.17
314.642	20.47
315.109	21.27
315.575	30.17
316.041	36.37
316.507	19.97
316.973	28.87
317.439	28.67
317.905	27.07
318.371	28.17
318.837	26.67
319.303	24.27
319.769	29.77
320.235	28.57
320.701	29.97
321.167	31.87
321.633	24.77
322.099	35.47
322.564	33.97
323.03	34.47
323.496	32.37
323.962	31.47
324.427	29.87
324.893	35.27
325.359	37.87
325.824	29.27
326.29	29.37
326.755	29.77
327.221	37.87
327.686	34.97
328.152	41.37
328.617	30.07
329.083	35.97
329.548	41.97
330.014	41.57
330.479	30.67
330.944	37.77
331.41	38.27
331.875	41.57
332.34	37.27
332.805	38.57
333.271	41.17
333.736	33.57
334.201	43.07
334.666	44.37
335.131	42.87
335.596	39.17
336.061	39.87
336.526	35.97
336.991	45.17
337.456	43.07
337.921	41.47
338.386	38.77
338.851	45.87
339.316	46.77
339.781	50.27
340.246	49.47
340.711	36.17
341.175	40.07
341.64	40.97
342.105	45.37
342.569	47.67
343.034	47.97
343.499	47.87
343.963	39.67
344.428	53.17
344.893	55.77
345.357	50.47
345.822	46.47
346.286	53.17
346.751	61.97
347.215	55.57
347.679	64.77
348.144	76.87
348.608	67.67
349.073	63.27
349.537	67.57
350.001	65.47
350.465	81.27
350.93	73.47
351.394	74.67
351.858	64.57
352.322	76.57
352.786	64.27
353.25	90.67
353.715	94.37
354.179	90.37
354.643	108.87
355.107	102.77
355.571	92.17
356.035	92.77
356.498	97.17
356.962	100.17
357.426	112.97
357.89	91.07
358.354	76.97
358.818	71.57
359.281	76.07
359.745	71.97
360.209	66.07
360.673	69.37
361.136	68.97
361.6	78.57
362.064	71.77
362.527	75.87
362.991	82.57
363.454	78.67
363.918	70.37
364.381	69.77
364.845	72.77
365.308	73.17
365.772	86.47
366.235	87.47
366.698	76.47
367.162	70.27
367.625	77.77
368.088	79.57
368.552	82.67
369.015	85.67
369.478	93.67
369.941	89.87
370.404	81.17
370.867	90.07
371.331	88.07
371.794	91.57
372.257	91.77
372.72	95.87
373.183	90.97
373.646	84.37
374.109	90.57
374.572	95.27
375.035	95.07
375.497	103.87
375.96	100.37
376.423	94.47
376.886	101.57
377.349	102.47
377.811	94.37
378.274	94.87
378.737	97.97
379.199	105.57
379.662	93.67
380.125	108.47
380.587	95.37
381.05	96.67
381.512	105.97
381.975	108.37
382.437	114.77
382.9	109.77
383.362	115.07
383.825	125.17
384.287	109.77
384.75	101.37
385.212	112.37
385.674	119.47
386.136	124.77
386.599	108.37
387.061	114.87
387.523	124.57
387.985	114.87
388.447	120.67
388.91	113.57
389.372	117.77
389.834	122.97
390.296	119.87
390.758	125.77
391.22	135.27
391.682	135.67
392.144	139.37
392.606	142.57
393.068	135.17
393.529	139.87
393.991	134.57
394.453	121.77
394.915	122.17
395.377	134.07
395.838	125.77
396.3	131.77
396.762	133.97
397.224	128.17
397.685	123.37
398.147	119.87
398.608	131.07
399.07	132.97
399.531	130.67
399.993	144.57
400.454	146.17
400.916	146.27
401.377	146.87
401.839	140.57
402.3	149.77
402.762	150.17
403.223	175.27
403.684	163.27
404.145	155.47
404.607	151.07
405.068	153.57
405.529	173.77
405.99	185.67
406.451	168.27
406.913	166.77
407.374	153.67
407.835	159.97
408.296	164.07
408.757	165.27
409.218	183.97
409.679	172.87
410.14	171.67
410.601	172.27
411.062	173.57
411.522	177.97
411.983	176.47
412.444	172.97
412.905	180.77
413.366	180.07
413.826	195.67
414.287	217.47
414.748	264.77
415.208	258.57
415.669	214.07
416.13	205.07
416.59	208.97
417.051	218.57
417.511	227.87
417.972	235.67
418.432	256.07
418.893	291.17
419.353	259.27
419.814	203.07
420.274	184.57
420.734	183.47
421.195	198.57
421.655	194.47
422.115	189.87
422.576	186.77
423.036	207.87
423.496	212.87
423.956	219.87
424.416	236.57
424.876	281.67
425.336	264.07
425.797	267.17
426.257	259.07
426.717	239.97
427.177	234.27
427.637	220.67
428.097	233.47
428.556	240.07
429.016	268.07
429.476	259.57
429.936	273.77
430.396	268.07
430.856	286.47
431.315	311.97
431.775	339.87
432.235	370.27
432.694	339.17
433.154	351.07
433.614	381.37
434.073	324.07
434.533	283.37
434.993	262.97
435.452	278.57
435.912	288.37
436.371	280.27
436.83	276.47
437.29	263.17
437.749	245.97
438.209	245.67
438.668	269.47
439.127	280.17
439.587	263.77
440.046	257.57
440.505	260.17
440.964	278.57
441.424	320.47
441.883	306.17
442.342	258.07
442.801	231.27
443.26	226.17
443.719	225.67
444.178	224.07
444.637	222.87
445.096	224.87
445.555	223.27
446.014	227.67
446.473	238.17
446.932	236.87
447.391	232.67
447.849	234.57
448.308	234.17
448.767	226.77
449.226	245.87
449.685	243.47
450.143	255.97
450.602	251.07
451.061	232.27
451.519	242.17
451.978	235.57
452.436	243.37
452.895	247.77
453.353	256.37
453.812	247.67
454.27	245.77
454.729	253.27
455.187	253.67
455.646	253.97
456.104	255.67
456.562	264.47
457.021	276.57
457.479	264.87
457.937	283.07
458.395	265.27
458.854	255.77
459.312	261.57
459.77	276.57
460.228	265.27
460.686	245.97
461.144	264.77
461.602	264.27
462.06	258.17
462.518	258.27
462.976	267.37
463.434	268.67
463.892	273.07
464.35	286.27
464.808	300.47
465.266	280.27
465.724	282.07
466.181	287.77
466.639	282.27
467.097	303.87
467.555	317.67
468.012	323.57
468.47	323.67
468.928	350.67
469.385	360.37
469.843	355.37
470.3	360.57
470.758	369.97
471.215	393.17
471.673	422.17
472.13	411.87
472.588	426.57
473.045	389.17
473.503	390.47
473.96	412.37
474.417	415.67
474.875	445.87
475.332	490.97
475.789	472.97
476.246	479.47
476.704	499.37
477.161	521.17
477.618	539.57
478.075	565.87
478.532	625.57
478.989	697.77
479.446	800.37
479.903	775.37
480.36	805.57
480.817	846.17
481.274	941.37
481.731	1035.97
482.188	1110.27
482.645	1238.87
483.102	1320.17
483.558	1443.97
484.015	1488.37
484.472	1455.67
484.929	1412.87
485.385	1377.77
485.842	1339.07
486.299	1288.57
486.755	1263.07
487.212	1067.67
487.668	922.57
488.125	852.77
488.582	784.87
489.038	754.47
489.494	724.97
489.951	704.17
490.407	688.37
490.864	662.17
491.32	657.17
491.776	665.57
492.233	665.77
492.689	634.87
493.145	623.07
493.602	624.97
494.058	635.57
494.514	634.27
494.97	656.27
495.426	669.67
495.882	645.27
496.338	625.47
496.794	647.67
497.251	646.37
497.707	649.07
498.163	650.87
498.618	660.37
499.074	669.27
499.53	685.57
499.986	690.97
500.442	666.97
500.898	654.87
501.354	634.57
501.809	643.17
502.265	642.47
502.721	661.67
503.177	666.07
503.632	662.57
504.088	676.67
504.543	700.77
504.999	714.47
505.455	686.17
505.91	661.47
506.366	666.57
506.821	670.17
507.277	648.97
507.732	653.47
508.187	657.97
508.643	675.57
509.098	672.57
509.553	688.17
510.009	708.17
510.464	700.17
510.919	728.87
511.375	723.87
511.83	740.67
512.285	755.57
512.74	787.57
513.195	807.27
513.65	797.87
514.105	796.87
514.56	808.77
515.015	827.77
515.47	837.57
515.925	816.47
516.38	823.17
516.835	827.47
517.29	810.27
517.745	809.97
518.2	796.87
518.655	775.57
519.109	767.67
519.564	782.87
520.019	771.67
520.474	760.27
520.928	764.47
521.383	762.47
521.838	742.47
522.292	738.57
522.747	746.57
523.201	736.07
523.656	727.77
524.11	724.37
524.565	724.07
525.019	720.37
525.474	724.67
525.928	725.57
526.382	722.47
526.837	723.67
527.291	732.37
527.745	735.17
528.2	729.97
528.654	717.07
529.108	718.17
529.562	724.47
530.016	724.77
530.47	717.17
530.925	717.67
531.379	719.97
531.833	730.27
532.287	735.07
532.741	732.97
533.195	734.97
533.649	744.17
534.103	747.77
534.556	738.77
535.01	743.57
535.464	731.87
535.918	745.67
536.372	751.57
536.826	753.47
537.279	737.27
537.733	741.07
538.187	749.87
538.64	748.27
539.094	757.17
539.548	769.27
540.001	760.37
540.455	754.87
540.908	768.37
541.362	761.67
541.815	780.27
542.269	800.47
542.722	797.87
543.175	807.37
543.629	807.37
544.082	826.17
544.536	828.97
544.989	826.47
545.442	822.57
545.895	828.17
546.349	828.77
546.802	833.97
547.255	841.07
547.708	840.67
548.161	858.57
548.614	868.67
549.067	879.47
549.52	865.97
549.973	854.77
550.426	848.97
550.879	841.77
551.332	846.17
551.785	849.77
552.238	842.17
552.691	867.17
553.144	880.67
553.596	896.37
554.049	910.67
554.502	943.67
554.955	958.07
555.407	947.07
555.86	939.57
556.313	935.87
556.765	932.07
557.218	922.57
557.67	923.67
558.123	919.47
558.576	924.47
559.028	913.77
559.48	932.27
559.933	915.37
560.385	891.77
560.838	856.07
561.29	827.97
561.742	830.47
562.195	797.37
562.647	799.67
563.099	816.97
563.551	821.27
564.004	829.37
564.456	809.27
564.908	797.57
565.36	782.07
565.812	765.47
566.264	759.97
566.716	750.87
567.168	735.27
567.62	744.37
568.072	730.57
568.524	738.37
568.976	718.77
569.428	705.07
569.88	706.37
570.332	714.37
570.784	710.87
571.235	718.07
571.687	732.47
572.139	741.67
572.59	753.67
573.042	746.67
573.494	734.87
573.945	740.97
574.397	719.37
574.849	728.57
575.3	732.77
575.752	720.07
576.203	714.37
576.655	718.57
577.106	705.87
577.557	700.27
578.009	701.97
578.46	688.57
578.912	686.57
579.363	695.77
579.814	699.87
580.265	693.37
580.717	701.27
581.168	701.77
581.619	709.17
582.07	719.87
582.521	705.77
582.972	702.97
583.423	709.27
583.875	697.47
584.326	707.47
584.777	723.87
585.227	748.27
585.678	760.97
586.129	774.47
586.58	798.37
587.031	815.87
587.482	842.17
587.933	868.97
588.384	848.27
588.834	824.07
589.285	811.07
589.736	800.87
590.186	803.37
590.637	799.87
591.088	776.97
591.538	764.17
591.989	769.17
592.439	754.07
592.89	747.17
593.34	731.67
593.791	737.17
594.241	723.87
594.692	727.07
595.142	730.17
595.593	723.57
596.043	729.77
596.493	734.37
596.943	734.27
597.394	739.47
597.844	754.47
598.294	758.57
598.744	793.07
599.195	812.47
599.645	857.07
600.095	900.47
600.545	951.27
600.995	1018.37
601.445	1061.77
601.895	1135.77
602.345	1186.77
602.795	1169.17
603.245	1118.17
603.695	1065.47
604.145	1007.77
604.594	961.37
605.044	891.27
605.494	840.97
605.944	791.17
606.393	777.17
606.843	754.97
607.293	761.87
607.743	750.97
608.192	760.07
608.642	778.37
609.091	785.07
609.541	789.17
609.99	788.97
610.44	794.77
610.889	739.57
611.339	723.57
611.788	701.97
612.238	724.07
612.687	733.87
613.136	724.97
613.586	730.77
614.035	726.87
614.484	731.57
614.933	734.67
615.383	732.07
615.832	732.27
616.281	732.07
616.73	696.27
617.179	678.47
617.628	659.57
618.077	657.07
618.526	643.57
618.975	649.47
619.424	646.27
619.873	642.87
620.322	634.97
620.771	621.07
621.22	631.97
621.669	612.27
622.118	611.17
622.567	605.07
623.015	584.07
623.464	584.27
623.913	583.47
624.361	576.57
624.81	577.27
625.259	570.27
625.707	567.47
626.156	573.27
626.604	587.17
627.053	584.57
627.501	590.47
627.95	588.17
628.398	606.57
628.847	588.27
629.295	588.17
629.744	592.07
630.192	595.47
630.64	578.17
631.089	566.07
631.537	555.67
631.985	549.17
632.433	543.97
632.881	542.47
633.33	546.37
633.778	542.47
634.226	534.57
634.674	563.77
635.122	563.77
635.57	572.07
636.018	578.77
636.466	577.87
636.914	572.87
637.362	596.37
637.81	597.77
638.258	601.67
638.705	608.57
639.153	631.27
639.601	641.77
640.049	657.07
640.497	704.67
640.944	716.27
641.392	671.17
641.84	637.27
642.287	609.07
642.735	582.87
643.182	574.17
643.63	579.17
644.078	578.27
644.525	593.87
644.973	595.57
645.42	608.07
645.867	632.07
646.315	652.77
646.762	673.47
647.21	692.27
647.657	723.07
648.104	759.67
648.551	774.97
648.999	835.97
649.446	898.27
649.893	996.67
650.34	1137.27
650.787	1342.27
651.234	1649.47
651.682	2117.17
652.129	2877.47
652.576	4072.97
653.023	5966.77
653.47	8086.97
653.917	10044.07
654.363	11569.17
654.81	12731.07
655.257	12077.27
655.704	8017.37
656.151	4815.07
656.598	3160.27
657.044	2262.87
657.491	1764.17
657.938	1421.57
658.385	1204.37
658.831	1050.37
659.278	948.17
659.724	847.77
660.171	780.97
660.618	715.47
661.064	694.07
661.511	674.87
661.957	662.07
662.404	661.67
662.85	664.67
663.296	635.67
663.743	577.97
664.189	550.57
664.635	549.47
665.082	544.17
665.528	533.57
665.974	530.27
666.42	535.37
666.867	513.27
667.313	499.47
667.759	486.87
668.205	466.87
668.651	466.57
669.097	454.87
669.543	456.17
669.989	454.97
670.435	458.37
670.881	459.77
671.327	468.77
671.773	495.47
672.219	504.77
672.665	565.47
673.11	609.07
673.556	659.17
674.002	704.87
674.448	688.77
674.893	570.47
675.339	504.97
675.785	460.47
676.23	432.67
676.676	411.87
677.122	399.27
677.567	394.27
678.013	377.97
678.458	370.47
678.904	373.37
679.349	365.57
679.794	368.17
680.24	357.87
680.685	362.47
681.131	358.77
681.576	358.17
682.021	364.67
682.466	368.07
682.912	355.07
683.357	368.47
683.802	399.17
684.247	430.27
684.692	478.57
685.137	516.27
685.583	559.47
686.028	590.47
686.473	538.47
686.918	462.67
687.363	429.57
687.807	406.57
688.252	378.17
688.697	374.67
689.142	360.07
689.587	349.47
690.032	343.17
690.477	360.87
690.921	372.27
691.366	397.67
691.811	413.67
692.255	452.47
692.7	482.67
693.145	530.67
693.589	743.57
694.034	1185.67
694.478	1616.67
694.923	1818.37
695.367	2391.97
695.812	1274.07
696.256	527.27
696.701	387.77
697.145	352.77
697.59	337.87
698.034	330.37
698.478	339.07
698.922	327.87
699.367	335.37
699.811	345.47
700.255	365.27
700.699	399.97
701.143	438.17
701.588	497.27
702.032	533.27
702.476	535.37
702.92	507.97
703.364	520.27
703.808	666.37
704.252	1076.07
704.696	1530.67
705.14	1760.07
705.584	2232.37
706.027	1111.97
706.471	546.67
706.915	413.17
707.359	362.67
707.803	332.57
708.246	318.27
708.69	324.17
709.134	328.07
709.577	321.07
710.021	329.57
710.465	319.47
710.908	313.37
711.352	309.27
711.795	322.97
712.239	369.17
712.682	401.17
713.126	432.27
713.569	477.17
714.012	366.67
714.456	314.97
714.899	303.07
715.342	283.27
715.786	271.87
716.229	268.37
716.672	270.27
717.115	259.57
717.558	263.67
718.002	260.07
718.445	271.07
718.888	293.07
719.331	309.67
719.774	324.77
720.217	321.77
720.66	290.97
721.103	280.87
721.546	263.37
721.989	260.37
722.432	244.67
722.874	246.17
723.317	236.07
723.76	240.17
724.203	267.97
724.645	331.07
725.088	458.67
725.531	592.37
725.974	666.47
726.416	574.87
726.859	319.87
727.301	261.37
727.744	244.47
728.187	239.07
728.629	248.47
729.071	250.97
729.514	269.07
729.956	280.77
730.399	295.47
730.841	299.07
731.283	284.27
731.726	270.17
732.168	274.17
732.61	269.27
733.053	295.37
733.495	326.37
733.937	375.27
734.379	420.87
734.821	459.17
735.263	573.07
735.705	884.47
736.148	1667.97
736.59	2719.27
737.032	3208.47
737.474	2604.17
737.916	857.37
738.357	453.07
738.799	344.17
739.241	319.07
739.683	298.87
740.125	306.97
740.567	313.57
741.008	326.27
741.45	327.87
741.892	327.37
742.334	361.77
742.775	379.87
743.217	366.07
743.658	280.17
744.1	267.77
744.542	276.77
744.983	329.97
745.425	368.37
745.866	364.97
746.307	292.87
746.749	291.37
747.19	339.27
747.632	476.47
748.073	933.27
748.514	1974.77
748.956	3016.97
749.397	3761.27
749.838	3139.87
750.279	3113.97
750.72	1575.17
751.162	577.47
751.603	336.97
752.044	258.67
752.485	213.27
752.926	217.97
753.367	212.57
753.808	208.17
754.249	199.87
754.69	200.47
755.131	196.77
755.572	195.97
756.013	192.17
756.453	189.47
756.894	195.77
757.335	200.77
757.776	209.97
758.216	209.57
758.657	211.57
759.098	211.37
759.538	240.47
759.979	276.27
760.42	398.87
760.86	744.17
761.301	1945.97
761.741	4711.27
762.182	6742.17
762.622	4775.77
763.063	1386.57
763.503	559.87
763.943	341.57
764.384	277.57
764.824	253.07
765.264	243.17
765.705	217.47
766.145	189.87
766.585	178.07
767.025	174.57
767.465	175.97
767.906	194.57
768.346	200.07
768.786	205.07
769.226	225.77
769.666	313.97
770.106	650.17
770.546	1633.57
770.986	2780.87
771.426	2495.77
771.866	832.07
772.306	346.07
772.745	214.37
773.185	175.37
773.625	175.27
774.065	155.07
774.505	169.17
774.944	210.17
775.384	375.87
775.824	606.27
776.263	583.87
776.703	288.97
777.142	162.07
777.582	135.77
778.021	125.57
778.461	132.47
778.9	131.27
779.34	130.67
779.779	120.27
780.219	114.77
780.658	107.07
781.097	113.37
781.537	118.87
781.976	116.67
782.415	103.27
782.855	103.97
783.294	100.67
783.733	106.97
784.172	112.97
784.611	101.97
785.05	112.67
785.489	114.27
785.928	124.77
786.367	130.67
786.806	125.97
787.245	139.27
787.684	136.37
788.123	148.47
788.562	142.57
789.001	126.97
789.44	130.37
789.879	121.47
790.317	123.17
790.756	133.97
791.195	133.67
791.634	155.17
792.072	210.17
792.511	379.07
792.95	1041.87
793.388	2216.67
793.827	1994.47
794.265	694.67
794.704	286.87
795.142	191.87
795.581	161.17
796.019	144.87
796.458	132.17
796.896	131.67
797.334	136.47
797.773	160.57
798.211	231.47
798.649	466.57
799.087	1075.17
799.526	1691.97
799.964	2119.07
800.402	2101.77
800.84	800.67
801.278	317.27
801.716	189.17
802.154	158.47
802.592	158.27
803.03	148.87
803.468	139.67
803.906	142.07
804.344	156.57
804.782	153.67
805.22	142.07
805.658	137.47
806.096	149.87
806.533	158.07
806.971	181.97
807.409	235.17
807.847	328.77
808.284	705.67
808.722	1989.47
809.16	3455.67
809.597	3320.87
810.035	5716.77
810.472	6052.87
810.91	2205.97
811.347	844.27
811.785	424.87
812.222	273.97
812.66	209.87
813.097	178.37
813.535	149.07
813.972	129.67
814.409	126.67
814.846	108.87
815.284	119.47
815.721	109.77
816.158	105.87
816.595	114.47
817.032	163.77
817.47	194.27
817.907	151.07
818.344	109.27
818.781	104.57
819.218	99.47
819.655	130.57
820.092	199.87
820.529	225.97
820.966	180.07
821.403	138.07
821.839	106.87
822.276	103.37
822.713	127.87
823.15	145.77
823.587	119.07
824.023	153.07
824.46	319.37
824.897	943.77
825.333	1408.97
825.77	607.87
826.206	240.57
826.643	140.37
827.08	109.87
827.516	86.87
827.953	79.87
828.389	80.97
828.825	76.57
829.262	77.87
829.698	70.97
830.135	70.37
830.571	61.37
831.007	68.07
831.443	64.37
831.88	59.37
832.316	60.37
832.752	69.07
833.188	64.27
833.624	65.27
834.06	74.37
834.497	65.57
834.933	73.07
835.369	78.87
835.805	68.07
836.241	83.37
836.677	83.27
837.112	95.37
837.548	106.57
837.984	144.37
838.42	215.27
838.856	528.37
839.292	1598.17
839.727	2409.97
840.163	1126.47
840.599	972.37
841.034	2132.97
841.47	2214.97
841.906	807.47
842.341	345.97
842.777	200.97
843.212	210.07
843.648	192.77
844.083	113.77
844.519	90.87
844.954	72.57
845.39	65.87
845.825	63.67
846.261	62.07
846.696	64.77
847.131	56.87
847.566	63.27
848.002	58.47
848.437	59.17
848.872	60.97
849.307	65.67
849.742	88.57
850.177	196.07
850.613	581.47
851.048	929.67
851.483	403.47
851.918	164.87
852.353	94.77
852.788	55.07
853.223	55.97
853.657	55.27
854.092	46.27
854.527	48.57
854.962	44.77
855.397	42.37
855.832	57.97
856.266	47.77
856.701	39.07
857.136	44.97
857.57	42.37
858.005	54.67
858.44	61.97
858.874	45.27
859.309	53.57
859.743	49.77
860.178	45.17
860.612	39.37
861.047	52.07
861.481	73.97
861.915	76.57
862.35	54.77
862.784	36.07
863.218	42.47
863.653	37.67
864.087	49.57
864.521	50.17
864.955	73.27
865.39	160.97
865.824	187.57
866.258	125.67
866.692	184.47
867.126	195.27
867.56	114.57
867.994	57.27
868.428	38.07
868.862	56.57
869.296	57.87
869.73	61.87
870.164	61.17
870.598	52.87
871.031	43.47
871.465	34.57
871.899	40.57
872.333	22.77
872.766	27.47
873.2	24.47
873.634	33.17
874.067	30.27
874.501	25.57
874.935	38.27
875.368	30.97
875.802	31.97
876.235	26.57
876.669	24.97
877.102	25.17
877.535	31.47
877.969	23.77
878.402	24.37
878.836	20.77
879.269	22.37
879.702	25.37
880.135	16.37
880.569	25.57
881.002	25.57
881.435	20.07
881.868	17.67
882.301	21.47
882.734	15.57
883.167	21.77
883.601	19.67
884.034	22.37
884.467	22.07
884.899	15.77
885.332	24.17
885.765	13.87
886.198	16.47
886.631	14.67
887.064	23.47
887.497	23.37
887.929	21.77
888.362	18.27
888.795	12.57
889.228	21.57
889.66	23.17
890.093	12.77
890.526	15.77
890.958	18.17
891.391	18.47
891.823	23.17
892.256	23.97
892.688	12.27
893.121	17.57
893.553	19.67
893.985	25.27
894.418	21.67
894.85	14.77
895.282	19.97
895.715	20.47
896.147	17.77
896.579	13.57
897.011	9.97
897.444	22.57
897.876	10.87
898.308	17.57
898.74	15.27
899.172	14.87
899.604	23.87
900.036	16.07
900.468	10.87
900.9	16.67
901.332	17.67
901.764	19.27
902.196	19.17
902.628	19.67
903.06	18.77
903.491	30.17
903.923	22.27
904.355	23.37
904.787	25.57
905.218	19.37
905.65	23.07
906.082	11.57
906.513	15.87
906.945	18.87
907.376	16.37
907.808	22.27
908.239	23.17
908.671	21.77
909.102	20.67
909.534	28.37
909.965	51.37
910.397	100.27
910.828	329.57
911.259	488.07
911.691	230.87
912.122	112.37
912.553	59.97
912.984	31.17
913.415	24.87
913.847	26.17
914.278	14.07
914.709	14.57
915.14	23.57
915.571	20.07
916.002	12.07
916.433	21.77
916.864	14.37
917.295	16.97
917.726	19.47
918.157	17.77
918.587	27.97
919.018	24.17
919.449	25.67
919.88	23.47
920.311	33.17
920.741	54.77
921.172	173.57
921.603	156.17
922.033	76.97
922.464	53.57
922.895	22.97
923.325	21.47
923.756	14.47
924.186	16.27
924.617	19.87
925.047	25.57
925.478	23.97
925.908	25.27
926.338	11.27
926.769	12.97
927.199	20.67
927.629	6.47
928.06	11.47
928.49	15.27
928.92	16.97
929.35	7.27
929.78	11.17
930.21	4.47
930.641	11.17
931.071	7.47
931.501	2.07
931.931	10.97
932.361	2.17
932.791	5.47
933.221	5.97
933.651	4.17
934.08	17.87
934.51	30.17
934.94	9.27
935.37	8.07
935.8	11.97
936.229	9.77
936.659	7.07
937.089	7.07
937.519	14.97
937.948	17.27
938.378	19.97
938.807	4.67
939.237	5.97
939.666	7.67
940.096	-3.43
940.525	3.47
940.955	-1.43
941.384	9.37
941.814	-3.13
942.243	-3.63
942.672	3.67
943.102	-1.03
943.531	-2.53
943.96	5.47
944.39	3.57
944.819	0.97
945.248	7.87
945.677	1.37
946.106	6.57
946.535	5.27
946.964	-4.63
947.393	-0.03
947.822	-3.13
948.251	-0.03
948.68	3.37
949.109	9.87
949.538	0.67
949.967	-2.53
950.396	0.87
950.825	-0.63
951.254	1.97
951.682	-5.73
952.111	0.67
952.54	7.67
952.969	-8.43
953.397	-4.53
953.826	-0.33
954.254	-5.43
954.683	-0.93
955.112	-3.93
955.54	-2.73
955.969	0.07
956.397	-0.83
956.826	5.87
957.254	1.77
957.682	1.17
958.111	5.17
958.539	-3.33
958.967	8.47
959.396	-2.43
959.824	-2.13
960.252	-4.23
960.68	1.37
961.109	-3.53
961.537	-2.33
961.965	3.27
962.393	3.87
962.821	-6.03
963.249	-2.93
963.677	2.57
964.105	7.07
964.533	46.97
964.961	40.47
965.389	22.17
965.817	7.57
966.245	7.87
966.672	1.27
967.1	-9.53
967.528	1.77
967.956	-2.53
968.383	9.57
968.811	0.87
969.239	-3.23
969.666	-2.33
970.094	3.97
970.522	3.07
970.949	-3.63
971.377	-1.03
971.804	-6.83
972.232	-0.93
972.659	-1.13
973.087	2.67
973.514	0.27
973.941	-0.43
974.369	6.77
974.796	4.37
975.223	2.67
975.651	-1.13
976.078	4.27
976.505	3.27
976.932	9.37
977.359	17.97
977.786	14.07
978.214	-0.43
978.641	-4.13
979.068	-2.43
979.495	-2.63
979.922	1.47
980.349	-1.93
980.776	4.77
981.202	-0.73
981.629	2.57
982.056	-0.53
982.483	-6.63
982.91	-0.33
983.337	0.27
983.763	4.27
984.19	-4.53
984.617	0.07
985.043	-0.23
985.47	-1.43
985.897	-4.03
986.323	-9.13
986.75	5.07
987.176	-2.43
987.603	-2.03
988.029	-0.63
988.456	-5.43
988.882	1.47
989.308	-6.43
989.735	-6.73
990.161	-0.93
990.587	-5.13
991.014	-1.63
991.44	9.17
991.866	-6.13
992.292	-2.13
992.719	-0.43
993.145	5.37
993.571	-11.93
993.997	-1.53
994.423	-3.13
994.849	-2.43
995.275	0.67
995.701	-1.53
996.127	3.07
996.553	2.27
996.979	-2.03
997.405	-1.03
997.83	-9.63
998.256	-7.63
998.682	-2.23
999.108	-7.23
999.534	-6.23
999.959	-8.93
1000.385	-5.83
1000.811	3.17
1001.236	-4.83
1001.662	-3.93
1002.087	-11.23
1002.513	-3.53
1002.938	1.17
1003.364	-1.53
1003.789	1.67
1004.215	5.57
1004.64	-0.33
1005.066	0.07
1005.491	2.67
1005.916	-0.43
1006.342	-4.33
1006.767	-6.43
1007.192	2.87
1007.617	-6.73
1008.042	-1.73
1008.468	-4.83
1008.893	-5.53
1009.318	-2.53
1009.743	-0.03
1010.168	0.87
1010.593	0.97
1011.018	-5.33
1011.443	-0.73
1011.868	2.67
1012.293	-3.53
1012.718	-8.43
1013.143	-0.93
1013.567	-0.03
1013.992	-2.83
1014.417	-11.93
1014.842	3.47
1015.267	-4.83
1015.691	-2.13
1016.116	6.67
1016.541	2.47
1016.965	1.27
1017.39	0.77
1017.814	1.57
1018.239	-4.83
1018.663	-9.43
1019.088	-11.23
1019.512	-2.83
1019.937	-4.83
1020.361	-3.53
1020.785	-6.33
1021.21	-3.53
1021.634	1.37
1022.058	-0.43
1022.483	5.17
1022.907	-2.73
1023.331	-5.43
1023.755	-4.33
1024.179	-2.53
1024.604	-5.43
1025.028	-5.73
1025.452	-10.43
1025.876	-4.93
1026.3	4.37
1026.724	-15.53
1027.148	-8.33
1027.572	-5.43
1027.996	-6.83
1028.42	-0.53
1028.843	-6.83
1029.267	-7.03
1029.691	-0.13
1030.115	-4.13
1030.539	-7.33
1030.962	-6.13
1031.386	-8.63
1031.81	-3.93
1032.233	-4.03
1032.657	-2.83
1033.08	3.57
1033.504	-0.73
1033.927	-3.73
1034.351	3.37
1034.774	-5.23
1035.198	-2.73
1035.621	-5.43
1036.045	-6.13
1036.468	-2.93
1036.891	-4.53
1037.315	-6.13
1037.738	-12.33
1038.161	3.17
1038.584	-5.93
1039.008	-2.33
1039.431	-4.23
1039.854	-1.63
1040.277	-7.73
1040.7	-12.93
1041.123	4.07
1041.546	-4.93
1041.969	-4.93
1042.392	-5.23
1042.815	1.37
1043.238	-0.43
1043.661	-0.03
1044.084	-12.23
1044.507	-7.73
1044.93	-8.23
1045.352	-5.33
1045.775	3.57
1046.198	-4.73
1046.621	-0.73
1047.043	-3.13
1047.466	7.27
1047.889	-6.93
1048.311	-3.73
1048.734	-0.63
1049.156	1.37
1049.579	1.07
1050.001	2.97
1050.424	-4.33
1050.846	2.37
1051.269	-1.53
1051.691	-8.63
1052.113	-2.53
1052.536	-1.83
1052.958	-4.03
1053.38	-7.33
1053.802	-14.93
1054.225	1.07
1054.647	-12.63
1055.069	-7.73
1055.491	2.07
1055.913	-4.63
1056.335	1.97
1056.757	-1.83
1057.179	-0.83
1057.601	-4.23
1058.023	-3.53
1058.445	-5.73
1058.867	-4.43
1059.289	-2.13
1059.711	-3.73
1060.133	-2.83
1060.555	-8.33
1060.976	-6.63
1061.398	-8.03
1061.82	-10.03
1062.241	-11.63
1062.663	-4.73
1063.085	-4.23
1063.506	-4.83
1063.928	-1.33
1064.35	-4.73
1064.771	-12.23
1065.193	-5.53
1065.614	-9.23
1066.035	-4.23
1066.457	-0.33
1066.878	-0.73
1067.3	-4.03
1067.721	-3.43
1068.142	-2.73
1068.564	-5.83
1068.985	-8.03
1069.406	-1.93
1069.827	-7.23
1070.248	2.47
1070.67	-7.83
1071.091	-8.63
1071.512	0.37
1071.933	3.07
1072.354	-9.33
1072.775	-6.33
1073.196	-8.03
1073.617	-9.43
1074.038	-10.73
1074.459	0.37
1074.88	-10.23
1075.3	3.17
1075.721	-2.53
1076.142	-3.83
1076.563	1.97
1076.983	-3.03
1077.404	-9.63
1077.825	-9.73
1078.246	-2.83
1078.666	-8.83
1079.087	-7.03
1079.507	-1.73
1079.928	-0.83
1080.348	-5.93
1080.769	-11.43
1081.189	-5.13
1081.61	0.87
1082.03	-6.03
1082.451	-8.33
1082.871	-3.93
1083.291	-3.63
1083.711	-8.93
1084.132	-4.63
1084.552	-0.33
1084.972	-6.83
1085.392	-15.53
1085.813	-8.93
1086.233	-2.43
1086.653	-6.83
1087.073	-6.33
1087.493	-2.23
1087.913	-1.93
1088.333	-9.43
1088.753	-0.13
1089.173	1.27
1089.593	-5.23
1090.013	-3.63
1090.433	-0.33
1090.852	-5.93
1091.272	2.87
1091.692	-4.03
1092.112	-0.53
1092.531	-12.03
1092.951	-9.63
1093.371	-3.03
1093.79	0.97
1094.21	-2.53
1094.63	-6.33
1095.049	-3.13
1095.469	-4.43
1095.888	-4.23
1096.308	4.17
1096.727	6.67
1097.146	-10.73
1097.566	-0.33
1097.985	-3.43
1098.405	-3.33
1098.824	-7.73
1099.243	-8.13
1099.662	-12.23
1100.082	-9.53
1100.501	-1.33
1100.92	-10.23
1101.339	-5.13
1101.758	-8.43
