Data from 20171114-ORNL-Ar_H_NY_Subt18_08-08-56-662.txt Node
Date: Tue Nov 14 08:08:56 EST 2017
User: Ender
Spectrometer: HR+D1039
Trigger mode: 0
Integration Time (sec): 2.730000E-2
Scans to average: 10
Electric dark correction enabled: true
Nonlinearity correction enabled: false
Boxcar width: 0
XAxis mode: Wavelengths
Number of Pixels in Spectrum: 2048
>>>>>Begin Spectral Data<<<<<
187.836	-4.04
188.309	-4.04
188.782	-4.04
189.255	0.46
189.728	-3.74
190.201	0.76
190.674	4.56
191.147	-0.14
191.619	-5.54
192.092	1.26
192.565	7.36
193.038	-0.44
193.511	0.26
193.984	-1.54
194.456	-4.44
194.929	1.66
195.402	0.36
195.874	3.26
196.347	-1.94
196.82	-7.04
197.292	7.26
197.765	-0.84
198.237	-8.34
198.71	-2.14
199.182	-1.94
199.655	3.46
200.127	0.46
200.6	-5.34
201.072	-1.44
201.544	-5.54
202.017	-1.74
202.489	-1.24
202.961	-1.64
203.433	-0.64
203.906	-8.24
204.378	-7.54
204.85	-4.94
205.322	1.36
205.794	-0.74
206.266	-3.54
206.739	-6.54
207.211	-0.64
207.683	-8.94
208.155	-8.34
208.627	-8.74
209.099	-4.84
209.57	-10.14
210.042	-7.14
210.514	-7.24
210.986	-0.54
211.458	-9.34
211.93	-4.64
212.402	1.76
212.873	-4.44
213.345	-10.14
213.817	-13.24
214.288	-3.74
214.76	-14.34
215.232	-4.64
215.703	-3.34
216.175	-4.44
216.646	-6.14
217.118	-11.84
217.589	-5.74
218.061	-1.94
218.532	-4.04
219.004	0.06
219.475	-2.84
219.946	-0.54
220.418	-4.24
220.889	0.76
221.36	1.36
221.832	-7.24
222.303	-11.14
222.774	0.06
223.245	-9.94
223.717	-3.74
224.188	-7.64
224.659	-8.44
225.13	-10.74
225.601	-3.94
226.072	-4.84
226.543	-0.04
227.014	0.26
227.485	-6.44
227.956	-8.74
228.427	-1.54
228.898	2.26
229.369	-0.24
229.839	-7.84
230.31	-9.04
230.781	3.56
231.252	-8.34
231.722	-8.84
232.193	-1.04
232.664	-4.34
233.135	-2.34
233.605	-6.94
234.076	-6.34
234.546	-1.14
235.017	3.76
235.487	-3.54
235.958	-1.84
236.428	-6.64
236.899	4.16
237.369	-2.24
237.84	-9.44
238.31	-4.34
238.78	1.76
239.251	-10.54
239.721	-8.84
240.191	-4.84
240.662	-9.84
241.132	-7.04
241.602	-8.24
242.072	-2.24
242.542	1.66
243.013	-0.24
243.483	5.96
243.953	4.06
244.423	-4.74
244.893	-5.14
245.363	-3.94
245.833	-3.64
246.303	-5.54
246.773	4.66
247.243	2.36
247.712	-9.44
248.182	-0.74
248.652	-1.04
249.122	-14.54
249.592	0.56
250.061	5.56
250.531	9.16
251.001	1.16
251.471	1.36
251.94	8.16
252.41	-6.14
252.879	-11.24
253.349	-1.14
253.818	0.86
254.288	4.86
254.757	-0.44
255.227	-3.04
255.696	-5.44
256.166	-1.74
256.635	-4.54
257.105	-0.24
257.574	-2.24
258.043	-2.54
258.513	-1.84
258.982	4.26
259.451	-4.44
259.92	2.26
260.389	-0.44
260.859	6.46
261.328	5.46
261.797	-1.44
262.266	1.56
262.735	10.36
263.204	2.26
263.673	-2.64
264.142	-3.64
264.611	-4.04
265.08	2.16
265.549	-2.54
266.018	-4.04
266.487	-2.74
266.955	-8.04
267.424	-2.94
267.893	8.16
268.362	-5.44
268.83	0.86
269.299	7.66
269.768	1.56
270.236	2.76
270.705	4.56
271.174	-4.54
271.642	1.86
272.111	-0.54
272.579	-0.04
273.048	2.16
273.516	4.66
273.985	4.16
274.453	7.96
274.922	3.56
275.39	6.76
275.858	-0.14
276.327	1.06
276.795	10.16
277.263	1.96
277.731	9.46
278.2	9.26
278.668	11.66
279.136	16.46
279.604	2.56
280.072	5.96
280.54	9.76
281.008	6.56
281.477	9.26
281.945	9.56
282.413	7.16
282.881	6.26
283.348	2.46
283.816	10.26
284.284	6.76
284.752	13.56
285.22	6.56
285.688	8.26
286.156	3.06
286.623	18.06
287.091	12.56
287.559	11.56
288.026	8.96
288.494	10.56
288.962	-0.14
289.429	0.36
289.897	15.06
290.364	7.46
290.832	12.16
291.3	5.76
291.767	11.46
292.234	9.16
292.702	7.76
293.169	9.96
293.637	15.56
294.104	11.76
294.571	1.96
295.039	2.76
295.506	7.56
295.973	14.76
296.44	8.16
296.908	12.56
297.375	5.56
297.842	17.86
298.309	8.26
298.776	6.76
299.243	10.26
299.71	5.86
300.177	18.96
300.644	19.26
301.111	15.96
301.578	15.66
302.045	12.36
302.512	15.76
302.979	13.66
303.446	16.36
303.913	13.56
304.379	12.66
304.846	17.06
305.313	22.86
305.78	8.86
306.246	13.66
306.713	16.06
307.18	13.66
307.646	21.36
308.113	16.26
308.579	20.46
309.046	19.46
309.512	17.26
309.979	17.66
310.445	20.96
310.912	13.26
311.378	26.06
311.845	18.36
312.311	13.66
312.777	26.16
313.244	16.06
313.71	25.36
314.176	23.26
314.642	18.46
315.109	16.56
315.575	22.96
316.041	27.66
316.507	21.86
316.973	23.36
317.439	21.06
317.905	24.96
318.371	23.66
318.837	26.96
319.303	21.76
319.769	23.56
320.235	25.36
320.701	25.66
321.167	26.16
321.633	22.56
322.099	29.36
322.564	24.56
323.03	30.66
323.496	32.36
323.962	29.66
324.427	27.96
324.893	33.46
325.359	32.86
325.824	27.76
326.29	24.86
326.755	33.76
327.221	28.56
327.686	28.86
328.152	31.46
328.617	27.76
329.083	37.16
329.548	40.96
330.014	36.36
330.479	33.86
330.944	31.46
331.41	36.36
331.875	36.96
332.34	36.76
332.805	31.76
333.271	30.16
333.736	24.46
334.201	44.96
334.666	41.36
335.131	43.46
335.596	39.46
336.061	40.46
336.526	31.76
336.991	39.16
337.456	47.66
337.921	37.06
338.386	34.86
338.851	38.76
339.316	37.56
339.781	38.86
340.246	42.16
340.711	40.96
341.175	43.56
341.64	30.76
342.105	38.26
342.569	38.96
343.034	47.96
343.499	45.86
343.963	42.06
344.428	56.76
344.893	47.06
345.357	51.96
345.822	52.16
346.286	55.76
346.751	60.66
347.215	56.46
347.679	55.36
348.144	77.56
348.608	64.66
349.073	57.16
349.537	60.86
350.001	71.96
350.465	71.26
350.93	63.66
351.394	73.26
351.858	57.46
352.322	72.56
352.786	61.36
353.25	78.76
353.715	90.96
354.179	86.06
354.643	101.16
355.107	97.96
355.571	85.26
356.035	80.06
356.498	100.26
356.962	93.76
357.426	100.06
357.89	90.76
358.354	71.56
358.818	74.86
359.281	63.66
359.745	63.56
360.209	60.46
360.673	63.46
361.136	72.56
361.6	71.16
362.064	69.86
362.527	74.36
362.991	78.26
363.454	70.76
363.918	67.36
364.381	71.56
364.845	76.16
365.308	71.36
365.772	77.96
366.235	77.76
366.698	73.56
367.162	76.36
367.625	66.76
368.088	73.36
368.552	77.96
369.015	73.76
369.478	84.46
369.941	87.96
370.404	77.66
370.867	90.86
371.331	87.66
371.794	89.16
372.257	86.96
372.72	101.26
373.183	94.56
373.646	87.66
374.109	85.96
374.572	88.66
375.035	90.86
375.497	97.16
375.96	95.06
376.423	92.86
376.886	101.36
377.349	104.26
377.811	93.66
378.274	97.16
378.737	94.76
379.199	101.46
379.662	93.26
380.125	97.46
380.587	95.86
381.05	100.06
381.512	110.36
381.975	112.86
382.437	114.86
382.9	107.16
383.362	108.36
383.825	126.06
384.287	120.46
384.75	104.26
385.212	114.66
385.674	126.06
386.136	119.36
386.599	115.96
387.061	113.06
387.523	116.16
387.985	116.46
388.447	124.76
388.91	124.46
389.372	125.66
389.834	121.26
390.296	122.26
390.758	123.66
391.22	130.16
391.682	147.26
392.144	173.16
392.606	151.96
393.068	142.66
393.529	147.36
393.991	131.36
394.453	123.56
394.915	135.06
395.377	137.26
395.838	143.26
396.3	129.76
396.762	130.06
397.224	133.46
397.685	128.86
398.147	125.96
398.608	132.36
399.07	125.86
399.531	124.76
399.993	136.46
400.454	146.36
400.916	132.36
401.377	138.56
401.839	138.66
402.3	147.56
402.762	157.46
403.223	172.76
403.684	159.36
404.145	155.46
404.607	155.46
405.068	156.26
405.529	156.86
405.99	168.96
406.451	171.26
406.913	168.76
407.374	157.76
407.835	153.36
408.296	162.46
408.757	167.76
409.218	176.16
409.679	164.96
410.14	163.56
410.601	172.46
411.062	175.46
411.522	173.06
411.983	171.56
412.444	168.56
412.905	177.66
413.366	175.76
413.826	185.46
414.287	216.76
414.748	266.46
415.208	246.76
415.669	209.16
416.13	206.66
416.59	190.86
417.051	214.86
417.511	221.16
417.972	236.56
418.432	238.16
418.893	284.96
419.353	245.86
419.814	197.86
420.274	179.96
420.734	177.26
421.195	197.06
421.655	189.06
422.115	188.36
422.576	187.96
423.036	200.36
423.496	207.66
423.956	213.86
424.416	234.06
424.876	263.96
425.336	258.26
425.797	257.96
426.257	250.66
426.717	236.06
427.177	233.36
427.637	216.36
428.097	220.46
428.556	240.56
429.016	256.46
429.476	254.26
429.936	260.46
430.396	277.36
430.856	277.86
431.315	307.46
431.775	334.26
432.235	367.36
432.694	334.66
433.154	349.96
433.614	380.96
434.073	320.66
434.533	282.86
434.993	262.36
435.452	270.96
435.912	283.76
436.371	272.66
436.83	274.56
437.29	261.16
437.749	241.36
438.209	240.86
438.668	271.36
439.127	279.56
439.587	261.96
440.046	244.96
440.505	250.76
440.964	272.26
441.424	327.46
441.883	310.96
442.342	253.76
442.801	230.46
443.26	223.66
443.719	231.26
444.178	220.26
444.637	215.86
445.096	226.26
445.555	227.86
446.014	229.56
446.473	230.56
446.932	240.66
447.391	229.96
447.849	227.36
448.308	224.86
448.767	226.86
449.226	237.26
449.685	238.56
450.143	253.76
450.602	237.86
451.061	231.76
451.519	238.96
451.978	240.06
452.436	240.76
452.895	243.16
453.353	252.46
453.812	242.26
454.27	239.26
454.729	245.16
455.187	243.76
455.646	247.26
456.104	252.56
456.562	256.36
457.021	268.76
457.479	260.96
457.937	279.76
458.395	270.96
458.854	253.46
459.312	258.46
459.77	278.36
460.228	259.56
460.686	250.66
461.144	251.26
461.602	244.86
462.06	247.26
462.518	271.26
462.976	259.26
463.434	266.96
463.892	266.86
464.35	281.46
464.808	288.46
465.266	274.76
465.724	276.96
466.181	282.46
466.639	277.26
467.097	294.96
467.555	308.16
468.012	309.46
468.47	321.16
468.928	341.06
469.385	343.16
469.843	346.06
470.3	353.16
470.758	368.66
471.215	389.86
471.673	409.46
472.13	416.66
472.588	433.36
473.045	380.16
473.503	386.96
473.96	398.66
474.417	410.46
474.875	441.46
475.332	481.76
475.789	471.36
476.246	469.46
476.704	480.76
477.161	519.96
477.618	523.86
478.075	570.06
478.532	618.56
478.989	684.76
479.446	807.96
479.903	755.46
480.36	787.36
480.817	839.26
481.274	935.16
481.731	1027.56
482.188	1107.76
482.645	1222.06
483.102	1319.76
483.558	1440.26
484.015	1473.26
484.472	1455.76
484.929	1415.26
485.385	1356.06
485.842	1337.26
486.299	1284.26
486.755	1248.56
487.212	1054.26
487.668	916.06
488.125	841.26
488.582	775.36
489.038	746.66
489.494	706.86
489.951	691.16
490.407	666.76
490.864	656.66
491.32	649.56
491.776	654.46
492.233	648.16
492.689	623.96
493.145	611.86
493.602	595.46
494.058	630.36
494.514	620.26
494.97	637.86
495.426	660.66
495.882	630.36
496.338	616.06
496.794	631.26
497.251	626.96
497.707	644.66
498.163	638.46
498.618	651.76
499.074	657.76
499.53	680.96
499.986	681.66
500.442	656.56
500.898	632.36
501.354	632.56
501.809	636.16
502.265	645.96
502.721	651.96
503.177	663.66
503.632	656.36
504.088	669.36
504.543	694.06
504.999	709.86
505.455	678.16
505.91	642.66
506.366	639.66
506.821	648.06
507.277	643.46
507.732	648.86
508.187	649.06
508.643	661.96
509.098	660.66
509.553	680.06
510.009	689.76
510.464	698.46
510.919	708.16
511.375	713.66
511.83	721.46
512.285	736.06
512.74	774.16
513.195	799.16
513.65	785.96
514.105	775.66
514.56	784.46
515.015	798.56
515.47	820.36
515.925	800.66
516.38	810.46
516.835	809.66
517.29	804.66
517.745	799.06
518.2	775.96
518.655	771.16
519.109	760.96
519.564	755.96
520.019	745.26
520.474	740.96
520.928	740.96
521.383	729.76
521.838	731.36
522.292	734.26
522.747	738.76
523.201	731.26
523.656	721.76
524.11	714.46
524.565	723.56
525.019	703.86
525.474	713.66
525.928	722.76
526.382	718.96
526.837	717.76
527.291	725.56
527.745	723.66
528.2	716.56
528.654	717.96
529.108	706.46
529.562	709.26
530.016	710.26
530.47	712.96
530.925	695.76
531.379	712.16
531.833	717.86
532.287	718.56
532.741	731.36
533.195	715.76
533.649	724.76
534.103	736.16
534.556	719.66
535.01	720.16
535.464	723.76
535.918	730.26
536.372	741.66
536.826	735.66
537.279	726.86
537.733	727.16
538.187	740.76
538.64	736.96
539.094	729.46
539.548	747.66
540.001	752.06
540.455	740.66
540.908	749.76
541.362	761.06
541.815	773.76
542.269	784.36
542.722	780.36
543.175	799.26
543.629	799.66
544.082	817.86
544.536	812.96
544.989	820.06
545.442	827.36
545.895	816.46
546.349	820.56
546.802	823.66
547.255	825.86
547.708	842.06
548.161	840.86
548.614	851.66
549.067	857.96
549.52	858.26
549.973	831.56
550.426	828.46
550.879	824.46
551.332	824.66
551.785	838.06
552.238	841.16
552.691	841.76
553.144	874.46
553.596	872.66
554.049	892.86
554.502	931.36
554.955	940.06
555.407	932.36
555.86	926.36
556.313	925.26
556.765	915.06
557.218	913.96
557.67	907.46
558.123	904.76
558.576	902.66
559.028	917.16
559.48	909.16
559.933	902.36
560.385	875.16
560.838	837.36
561.29	818.46
561.742	814.56
562.195	798.36
562.647	798.26
563.099	810.36
563.551	806.16
564.004	808.66
564.456	802.06
564.908	795.56
565.36	775.46
565.812	759.76
566.264	743.36
566.716	736.26
567.168	734.26
567.62	736.96
568.072	729.46
568.524	721.16
568.976	717.76
569.428	703.46
569.88	699.56
570.332	719.66
570.784	716.86
571.235	707.56
571.687	723.46
572.139	731.16
572.59	740.96
573.042	741.76
573.494	738.96
573.945	726.36
574.397	709.56
574.849	717.76
575.3	727.26
575.752	719.66
576.203	709.26
576.655	709.46
577.106	687.86
577.557	699.76
578.009	699.66
578.46	696.66
578.912	680.26
579.363	696.66
579.814	698.16
580.265	686.06
580.717	698.66
581.168	700.26
581.619	707.06
582.07	709.76
582.521	705.06
582.972	692.76
583.423	707.46
583.875	698.46
584.326	722.26
584.777	742.06
585.227	770.66
585.678	802.76
586.129	844.86
586.58	868.26
587.031	904.66
587.482	958.66
587.933	1027.46
588.384	963.56
588.834	853.86
589.285	819.36
589.736	814.16
590.186	802.36
590.637	786.36
591.088	782.16
591.538	771.86
591.989	760.06
592.439	747.36
592.89	749.76
593.34	738.76
593.791	731.06
594.241	723.86
594.692	729.76
595.142	720.36
595.593	722.56
596.043	730.56
596.493	738.06
596.943	735.56
597.394	745.06
597.844	744.56
598.294	765.16
598.744	786.26
599.195	808.66
599.645	863.46
600.095	905.06
600.545	972.66
600.995	1017.46
601.445	1068.96
601.895	1138.06
602.345	1177.16
602.795	1168.46
603.245	1123.06
603.695	1059.66
604.145	1004.76
604.594	949.16
605.044	907.16
605.494	839.06
605.944	797.06
606.393	786.56
606.843	767.26
607.293	757.06
607.743	759.36
608.192	778.66
608.642	788.56
609.091	797.06
609.541	802.76
609.99	798.26
610.44	790.86
610.889	742.76
611.339	727.66
611.788	710.96
612.238	725.86
612.687	728.56
613.136	732.96
613.586	748.36
614.035	737.06
614.484	751.06
614.933	751.76
615.383	736.96
615.832	743.16
616.281	728.56
616.73	708.36
617.179	707.36
617.628	675.46
618.077	653.46
618.526	650.56
618.975	653.46
619.424	638.76
619.873	646.66
620.322	641.96
620.771	637.76
621.22	635.56
621.669	620.66
622.118	615.76
622.567	604.66
623.015	596.56
623.464	583.76
623.913	589.56
624.361	579.96
624.81	581.26
625.259	586.76
625.707	589.56
626.156	583.66
626.604	599.36
627.053	582.56
627.501	587.36
627.95	591.56
628.398	605.76
628.847	598.36
629.295	604.56
629.744	602.46
630.192	594.56
630.64	578.76
631.089	577.96
631.537	570.66
631.985	569.26
632.433	581.16
632.881	564.06
633.33	591.66
633.778	579.66
634.226	561.96
634.674	562.36
635.122	568.96
635.57	578.46
636.018	594.86
636.466	593.16
636.914	577.96
637.362	599.06
637.81	608.66
638.258	609.86
638.705	613.86
639.153	637.26
639.601	644.56
640.049	685.06
640.497	696.96
640.944	729.86
641.392	668.26
641.84	643.36
642.287	615.86
642.735	599.56
643.182	589.86
643.63	595.46
644.078	592.86
644.525	604.16
644.973	611.26
645.42	626.46
645.867	644.46
646.315	671.46
646.762	681.66
647.21	715.56
647.657	729.96
648.104	765.76
648.551	791.36
648.999	859.36
649.446	924.66
649.893	1013.16
650.34	1180.46
650.787	1395.96
651.234	1721.86
651.682	2231.66
652.129	3030.66
652.576	4320.86
653.023	6336.96
653.47	8533.16
653.917	10512.26
654.363	12045.56
654.81	13197.56
655.257	12493.06
655.704	8304.46
656.151	4987.36
656.598	3268.66
657.044	2350.76
657.491	1819.56
657.938	1470.86
658.385	1235.36
658.831	1087.86
659.278	967.16
659.724	858.16
660.171	808.06
660.618	732.26
661.064	708.56
661.511	688.56
661.957	674.76
662.404	665.16
662.85	669.56
663.296	636.06
663.743	592.16
664.189	564.16
664.635	557.26
665.082	556.76
665.528	553.96
665.974	536.56
666.42	539.46
666.867	522.86
667.313	504.16
667.759	497.56
668.205	490.16
668.651	482.56
669.097	475.26
669.543	469.56
669.989	469.76
670.435	465.96
670.881	469.66
671.327	473.76
671.773	492.16
672.219	522.76
672.665	577.36
673.11	619.26
673.556	661.86
674.002	700.66
674.448	691.96
674.893	591.86
675.339	510.76
675.785	469.26
676.23	451.56
676.676	413.96
677.122	401.16
677.567	390.16
678.013	384.76
678.458	382.96
678.904	383.96
679.349	375.86
679.794	378.36
680.24	368.96
680.685	369.16
681.131	365.26
681.576	365.16
682.021	374.16
682.466	370.26
682.912	369.96
683.357	372.56
683.802	410.96
684.247	437.66
684.692	486.66
685.137	526.06
685.583	565.66
686.028	592.26
686.473	549.06
686.918	471.26
687.363	438.76
687.807	418.76
688.252	389.16
688.697	385.86
689.142	362.16
689.587	347.06
690.032	346.26
690.477	364.56
690.921	374.26
691.366	412.16
691.811	424.26
692.255	454.26
692.7	487.76
693.145	537.56
693.589	764.36
694.034	1252.16
694.478	1674.66
694.923	1843.76
695.367	2385.76
695.812	1270.46
696.256	527.26
696.701	392.56
697.145	365.06
697.59	344.26
698.034	340.56
698.478	340.66
698.922	340.36
699.367	337.46
699.811	356.16
700.255	372.26
700.699	398.96
701.143	452.16
701.588	499.16
702.032	550.86
702.476	541.46
702.92	523.56
703.364	538.26
703.808	714.46
704.252	1158.36
704.696	1575.26
705.14	1775.86
705.584	2255.56
706.027	1147.66
706.471	564.66
706.915	429.36
707.359	369.76
707.803	344.56
708.246	324.96
708.69	327.26
709.134	333.86
709.577	329.06
710.021	333.16
710.465	323.46
710.908	312.76
711.352	307.06
711.795	332.76
712.239	373.56
712.682	414.66
713.126	446.86
713.569	475.76
714.012	383.76
714.456	328.06
714.899	305.06
715.342	290.16
715.786	279.16
716.229	267.66
716.672	272.46
717.115	258.16
717.558	268.06
718.002	263.66
718.445	274.86
718.888	301.66
719.331	307.36
719.774	324.96
720.217	322.96
720.66	300.86
721.103	291.76
721.546	267.66
721.989	261.36
722.432	250.96
722.874	253.96
723.317	246.86
723.76	249.66
724.203	278.06
724.645	343.76
725.088	490.26
725.531	613.16
725.974	675.56
726.416	580.96
726.859	328.76
727.301	256.26
727.744	256.16
728.187	246.46
728.629	255.66
729.071	259.06
729.514	280.56
729.956	293.96
730.399	303.06
730.841	303.06
731.283	286.66
731.726	283.96
732.168	273.56
732.61	287.36
733.053	302.36
733.495	345.96
733.937	380.46
734.379	428.96
734.821	471.86
735.263	595.06
735.705	931.36
736.148	1773.66
736.59	2817.06
737.032	3239.26
737.474	2632.76
737.916	881.66
738.357	468.46
738.799	355.26
739.241	318.46
739.683	305.36
740.125	314.06
740.567	315.26
741.008	339.96
741.45	341.76
741.892	341.26
742.334	372.96
742.775	387.76
743.217	364.16
743.658	292.16
744.1	278.76
744.542	281.66
744.983	342.46
745.425	366.16
745.866	367.96
746.307	304.06
746.749	293.26
747.19	345.96
747.632	512.86
748.073	1012.76
748.514	2079.66
748.956	3070.46
749.397	3868.16
749.838	3206.56
750.279	3114.56
750.72	1600.76
751.162	593.66
751.603	347.46
752.044	272.46
752.485	232.06
752.926	223.56
753.367	210.66
753.808	212.46
754.249	204.56
754.69	202.26
755.131	196.86
755.572	198.56
756.013	194.06
756.453	198.36
756.894	201.66
757.335	204.06
757.776	210.06
758.216	212.06
758.657	208.26
759.098	216.76
759.538	249.56
759.979	294.96
760.42	421.86
760.86	810.76
761.301	2092.16
761.741	4918.26
762.182	6757.16
762.622	4790.56
763.063	1419.36
763.503	580.36
763.943	353.86
764.384	308.06
764.824	301.96
765.264	294.26
765.705	245.66
766.145	201.26
766.585	191.26
767.025	187.46
767.465	177.06
767.906	203.16
768.346	232.56
768.786	248.96
769.226	241.26
769.666	339.06
770.106	712.46
770.546	1751.86
770.986	2809.16
771.426	2483.66
771.866	855.46
772.306	348.36
772.745	214.16
773.185	176.26
773.625	178.06
774.065	166.16
774.505	186.26
774.944	236.16
775.384	456.26
775.824	730.16
776.263	697.66
776.703	336.66
777.142	177.66
777.582	148.36
778.021	130.96
778.461	139.46
778.9	134.36
779.34	127.26
779.779	115.56
780.219	107.96
780.658	112.86
781.097	109.86
781.537	122.56
781.976	111.46
782.415	107.36
782.855	105.36
783.294	112.76
783.733	111.56
784.172	117.36
784.611	109.96
785.05	116.66
785.489	124.46
785.928	128.46
786.367	127.56
786.806	123.66
787.245	138.66
787.684	144.96
788.123	149.56
788.562	140.86
789.001	137.46
789.44	131.36
789.879	122.96
790.317	126.66
790.756	132.36
791.195	135.26
791.634	156.56
792.072	217.86
792.511	412.46
792.95	1141.26
793.388	2272.56
793.827	2018.56
794.265	726.66
794.704	303.86
795.142	192.46
795.581	150.86
796.019	142.36
796.458	138.66
796.896	135.16
797.334	141.06
797.773	168.66
798.211	241.36
798.649	502.06
799.087	1125.46
799.526	1746.26
799.964	2202.56
800.402	2113.76
800.84	813.36
801.278	327.06
801.716	197.66
802.154	169.46
802.592	156.96
803.03	148.86
803.468	137.66
803.906	155.66
804.344	158.36
804.782	156.26
805.22	145.96
805.658	140.36
806.096	160.36
806.533	163.46
806.971	183.36
807.409	240.66
807.847	355.46
808.284	758.06
808.722	2082.56
809.16	3533.86
809.597	3476.96
810.035	5922.46
810.472	6037.36
810.91	2230.96
811.347	864.56
811.785	431.36
812.222	273.86
812.66	207.96
813.097	176.36
813.535	153.56
813.972	133.76
814.409	128.96
814.846	115.56
815.284	115.06
815.721	109.86
816.158	106.46
816.595	114.96
817.032	166.96
817.47	194.46
817.907	134.46
818.344	112.76
818.781	104.76
819.218	104.76
819.655	129.86
820.092	200.76
820.529	221.56
820.966	180.76
821.403	134.66
821.839	105.96
822.276	101.36
822.713	137.36
823.15	143.36
823.587	120.46
824.023	161.46
824.46	342.66
824.897	995.06
825.333	1425.26
825.77	624.16
826.206	242.76
826.643	142.36
827.08	105.16
827.516	94.46
827.953	83.06
828.389	93.16
828.825	71.56
829.262	71.96
829.698	66.76
830.135	70.46
830.571	69.36
831.007	63.96
831.443	66.06
831.88	62.46
832.316	65.86
832.752	74.06
833.188	69.26
833.624	68.66
834.06	74.26
834.497	75.56
834.933	78.66
835.369	82.36
835.805	76.86
836.241	84.86
836.677	87.66
837.112	99.86
837.548	111.46
837.984	146.26
838.42	223.76
838.856	555.06
839.292	1685.96
839.727	2441.06
840.163	1169.06
840.599	1041.66
841.034	2216.26
841.47	2235.06
841.906	828.96
842.341	362.86
842.777	221.96
843.212	239.86
843.648	221.26
844.083	125.36
844.519	96.36
844.954	77.36
845.39	58.86
845.825	64.86
846.261	66.36
846.696	61.26
847.131	55.66
847.566	62.56
848.002	55.66
848.437	59.86
848.872	62.56
849.307	66.56
849.742	95.86
850.177	205.06
850.613	613.76
851.048	927.16
851.483	402.26
851.918	167.56
852.353	93.06
852.788	62.66
853.223	59.26
853.657	58.36
854.092	53.36
854.527	48.06
854.962	48.96
855.397	43.76
855.832	51.96
856.266	48.36
856.701	43.46
857.136	36.36
857.57	40.26
858.005	51.96
858.44	60.36
858.874	47.86
859.309	54.86
859.743	37.96
860.178	43.86
860.612	43.76
861.047	58.46
861.481	66.86
861.915	75.06
862.35	46.86
862.784	33.86
863.218	41.56
863.653	38.66
864.087	46.26
864.521	55.96
864.955	72.46
865.39	168.66
865.824	184.66
866.258	125.46
866.692	177.76
867.126	183.16
867.56	114.96
867.994	56.76
868.428	39.26
868.862	46.86
869.296	62.56
869.73	61.26
870.164	54.66
870.598	48.66
871.031	44.86
871.465	29.46
871.899	30.26
872.333	24.36
872.766	25.46
873.2	27.66
873.634	30.36
874.067	20.96
874.501	24.66
874.935	34.76
875.368	34.36
875.802	34.66
876.235	23.76
876.669	26.26
877.102	19.26
877.535	32.06
877.969	20.56
878.402	24.06
878.836	16.26
879.269	29.36
879.702	25.56
880.135	20.56
880.569	22.06
881.002	22.16
881.435	20.46
881.868	16.66
882.301	23.76
882.734	19.56
883.167	23.76
883.601	20.66
884.034	25.56
884.467	15.66
884.899	23.16
885.332	18.86
885.765	13.66
886.198	18.86
886.631	18.26
887.064	16.36
887.497	23.36
887.929	24.86
888.362	14.76
888.795	13.46
889.228	14.96
889.66	16.56
890.093	21.06
890.526	21.66
890.958	16.56
891.391	12.96
891.823	23.26
892.256	14.66
892.688	8.46
893.121	18.26
893.553	7.36
893.985	21.76
894.418	20.76
894.85	14.86
895.282	11.96
895.715	22.06
896.147	20.96
896.579	25.86
897.011	15.76
897.444	14.26
897.876	13.96
898.308	16.36
898.74	9.56
899.172	9.76
899.604	26.36
900.036	17.26
900.468	16.26
900.9	14.96
901.332	14.46
901.764	11.96
902.196	17.86
902.628	21.06
903.06	16.06
903.491	28.16
903.923	25.76
904.355	20.76
904.787	28.16
905.218	22.96
905.65	14.16
906.082	14.26
906.513	20.46
906.945	12.56
907.376	12.36
907.808	24.76
908.239	19.66
908.671	21.76
909.102	20.16
909.534	30.46
909.965	55.06
910.397	95.56
910.828	339.96
911.259	493.26
911.691	226.76
912.122	119.16
912.553	56.86
912.984	33.86
913.415	24.76
913.847	23.46
914.278	10.36
914.709	13.16
915.14	17.56
915.571	18.16
916.002	13.46
916.433	13.06
916.864	21.56
917.295	15.66
917.726	21.46
918.157	15.46
918.587	28.36
919.018	24.26
919.449	24.76
919.88	21.46
920.311	36.26
920.741	50.36
921.172	180.96
921.603	162.96
922.033	82.96
922.464	47.26
922.895	28.06
923.325	21.46
923.756	12.56
924.186	10.06
924.617	20.46
925.047	23.46
925.478	28.76
925.908	24.46
926.338	15.76
926.769	13.46
927.199	15.86
927.629	6.96
928.06	12.66
928.49	13.16
928.92	16.06
929.35	9.66
929.78	10.86
930.21	1.86
930.641	6.56
931.071	6.26
931.501	9.36
931.931	7.56
932.361	9.26
932.791	2.96
933.221	5.36
933.651	1.56
934.08	14.06
934.51	30.36
934.94	11.56
935.37	13.46
935.8	14.76
936.229	8.76
936.659	7.96
937.089	4.96
937.519	17.06
937.948	26.86
938.378	15.86
938.807	3.86
939.237	10.36
939.666	12.16
940.096	-5.34
940.525	6.46
940.955	5.56
941.384	5.46
941.814	-7.54
942.243	-1.74
942.672	4.66
943.102	-9.14
943.531	-0.84
943.96	2.26
944.39	-2.24
944.819	-2.84
945.248	7.66
945.677	5.66
946.106	8.36
946.535	4.96
946.964	-0.24
947.393	-7.04
947.822	0.16
948.251	-4.24
948.68	5.46
949.109	7.26
949.538	9.26
949.967	-0.14
950.396	2.76
950.825	1.66
951.254	2.76
951.682	-1.24
952.111	7.86
952.54	4.26
952.969	-9.54
953.397	-6.24
953.826	0.76
954.254	-8.64
954.683	-1.44
955.112	-1.94
955.54	-0.54
955.969	-1.94
956.397	2.26
956.826	0.66
957.254	3.66
957.682	-0.24
958.111	11.16
958.539	-3.44
958.967	-4.24
959.396	-2.64
959.824	2.26
960.252	2.16
960.68	-6.84
961.109	-4.34
961.537	-5.84
961.965	-2.54
962.393	0.16
962.821	-5.74
963.249	-3.04
963.677	7.06
964.105	3.46
964.533	54.96
964.961	47.56
965.389	27.96
965.817	9.26
966.245	3.06
966.672	-1.94
967.1	-9.34
967.528	2.86
967.956	-3.04
968.383	-2.64
968.811	0.06
969.239	-3.54
969.666	-7.04
970.094	-0.64
970.522	-1.14
970.949	0.66
971.377	-1.34
971.804	0.36
972.232	-0.74
972.659	-1.54
973.087	-3.44
973.514	-5.54
973.941	1.96
974.369	5.46
974.796	4.46
975.223	-2.74
975.651	-0.34
976.078	-3.24
976.505	1.56
976.932	2.86
977.359	16.16
977.786	15.86
978.214	5.16
978.641	-3.54
979.068	-9.24
979.495	-2.14
979.922	-3.54
980.349	-2.74
980.776	1.46
981.202	-4.44
981.629	4.56
982.056	3.26
982.483	-8.14
982.91	5.46
983.337	-1.84
983.763	1.86
984.19	-3.94
984.617	-0.34
985.043	-7.44
985.47	-5.84
985.897	-7.64
986.323	-5.24
986.75	0.56
987.176	1.56
987.603	-3.14
988.029	-4.24
988.456	0.66
988.882	-1.64
989.308	-4.14
989.735	-5.54
990.161	4.16
990.587	-2.24
991.014	-2.04
991.44	8.66
991.866	-2.24
992.292	-6.74
992.719	-5.34
993.145	-0.14
993.571	-5.24
993.997	-6.04
994.423	0.16
994.849	-4.54
995.275	2.16
995.701	-4.84
996.127	-7.24
996.553	-0.24
996.979	-0.74
997.405	-0.24
997.83	-2.94
998.256	-2.94
998.682	-2.04
999.108	-11.14
999.534	-3.34
999.959	-2.94
1000.385	-12.94
1000.811	0.36
1001.236	-4.84
1001.662	-12.14
1002.087	-8.24
1002.513	0.86
1002.938	5.56
1003.364	-2.24
1003.789	-0.94
1004.215	2.86
1004.64	-0.64
1005.066	-6.04
1005.491	0.16
1005.916	2.06
1006.342	-8.44
1006.767	-10.44
1007.192	2.76
1007.617	-4.64
1008.042	-3.64
1008.468	-10.54
1008.893	-0.54
1009.318	-4.04
1009.743	-8.74
1010.168	-0.04
1010.593	2.16
1011.018	-6.94
1011.443	-6.64
1011.868	-1.74
1012.293	2.36
1012.718	-9.94
1013.143	-0.84
1013.567	4.16
1013.992	-2.74
1014.417	-11.34
1014.842	4.66
1015.267	-5.24
1015.691	-7.34
1016.116	1.96
1016.541	-4.64
1016.965	1.76
1017.39	-2.34
1017.814	-0.74
1018.239	-2.44
1018.663	-8.24
1019.088	-8.74
1019.512	-3.24
1019.937	-4.64
1020.361	-7.04
1020.785	-6.54
1021.21	-4.54
1021.634	-2.84
1022.058	-3.14
1022.483	6.76
1022.907	-3.34
1023.331	-4.84
1023.755	-5.64
1024.179	-2.54
1024.604	-4.84
1025.028	-4.34
1025.452	-3.24
1025.876	-1.24
1026.3	-0.94
1026.724	-15.94
1027.148	-12.24
1027.572	-11.64
1027.996	-4.64
1028.42	-2.94
1028.843	-4.24
1029.267	-10.54
1029.691	-7.34
1030.115	-7.24
1030.539	-7.44
1030.962	-6.34
1031.386	-9.24
1031.81	2.06
1032.233	-1.24
1032.657	-6.84
1033.08	0.26
1033.504	-5.94
1033.927	-6.94
1034.351	1.16
1034.774	-8.34
1035.198	-0.14
1035.621	-7.34
1036.045	-9.84
1036.468	-4.14
1036.891	-13.64
1037.315	-9.34
1037.738	-8.84
1038.161	-4.34
1038.584	-4.04
1039.008	-5.44
1039.431	-4.74
1039.854	-5.54
1040.277	-6.84
1040.7	-11.14
1041.123	0.56
1041.546	-14.94
1041.969	-8.54
1042.392	-11.04
1042.815	-5.14
1043.238	-5.44
1043.661	3.36
1044.084	-10.54
1044.507	-2.54
1044.93	-5.94
1045.352	-2.04
1045.775	-2.54
1046.198	0.96
1046.621	-4.04
1047.043	1.26
1047.466	4.26
1047.889	-7.84
1048.311	-10.24
1048.734	-4.54
1049.156	-3.44
1049.579	-2.94
1050.001	-5.94
1050.424	-0.44
1050.846	-8.74
1051.269	-4.14
1051.691	-4.24
1052.113	-1.94
1052.536	-2.44
1052.958	1.46
1053.38	-2.64
1053.802	-2.74
1054.225	-4.04
1054.647	-14.14
1055.069	-11.14
1055.491	1.16
1055.913	-8.14
1056.335	-3.94
1056.757	-5.54
1057.179	-11.84
1057.601	-6.34
1058.023	-6.04
1058.445	-6.44
1058.867	-1.54
1059.289	-4.34
1059.711	-8.14
1060.133	-7.84
1060.555	-7.04
1060.976	-9.74
1061.398	-7.24
1061.82	-2.04
1062.241	-10.94
1062.663	-11.84
1063.085	-9.74
1063.506	2.26
1063.928	-5.74
1064.35	-5.24
1064.771	-13.24
1065.193	-8.94
1065.614	-7.64
1066.035	-5.34
1066.457	-4.84
1066.878	-7.24
1067.3	-8.74
1067.721	-8.54
1068.142	-6.54
1068.564	-6.24
1068.985	-4.54
1069.406	-8.84
1069.827	-8.94
1070.248	0.36
1070.67	-10.04
1071.091	-8.94
1071.512	-6.64
1071.933	-8.14
1072.354	-6.34
1072.775	-13.04
1073.196	-9.14
1073.617	-3.44
1074.038	-8.34
1074.459	-4.84
1074.88	-7.94
1075.3	-2.44
1075.721	-6.64
1076.142	-3.34
1076.563	-5.94
1076.983	-14.74
1077.404	-6.74
1077.825	-11.34
1078.246	-7.74
1078.666	-14.74
1079.087	-4.44
1079.507	-5.34
1079.928	0.56
1080.348	-2.04
1080.769	-9.74
1081.189	-6.14
1081.61	-8.34
1082.03	-9.44
1082.451	-10.24
1082.871	-6.44
1083.291	-6.84
1083.711	-12.14
1084.132	-2.64
1084.552	-4.04
1084.972	-0.54
1085.392	-15.44
1085.813	-13.54
1086.233	-6.44
1086.653	-7.14
1087.073	-0.94
1087.493	-7.04
1087.913	-7.14
1088.333	-2.44
1088.753	-2.54
1089.173	-4.14
1089.593	-5.34
1090.013	-1.74
1090.433	-4.14
1090.852	-4.24
1091.272	-4.04
1091.692	-4.84
1092.112	-3.24
1092.531	-10.14
1092.951	-15.84
1093.371	-4.54
1093.79	3.06
1094.21	-2.34
1094.63	-1.34
1095.049	-8.34
1095.469	-2.54
1095.888	-4.54
1096.308	-3.74
1096.727	3.46
1097.146	-12.74
1097.566	-4.94
1097.985	-10.64
1098.405	-0.44
1098.824	-11.34
1099.243	-9.94
1099.662	-3.14
1100.082	-7.54
1100.501	-2.74
1100.92	-12.74
1101.339	-6.14
1101.758	-3.84
