Data from 20171114-ORNL-Ar_H_NY_Subt18_08-06-58-132.txt Node
Date: Tue Nov 14 08:06:58 EST 2017
User: Ender
Spectrometer: HR+D1039
Trigger mode: 0
Integration Time (sec): 2.730000E-2
Scans to average: 10
Electric dark correction enabled: true
Nonlinearity correction enabled: false
Boxcar width: 0
XAxis mode: Wavelengths
Number of Pixels in Spectrum: 2048
>>>>>Begin Spectral Data<<<<<
187.836	-5.88
188.309	-5.88
188.782	-5.88
189.255	0.32
189.728	-6.98
190.201	3.42
190.674	3.22
191.147	2.92
191.619	-6.28
192.092	7.72
192.565	2.92
193.038	2.02
193.511	1.12
193.984	-2.48
194.456	-3.38
194.929	1.92
195.402	1.12
195.874	-1.68
196.347	-0.68
196.82	-10.08
197.292	6.32
197.765	1.02
198.237	-3.78
198.71	4.82
199.182	0.92
199.655	1.12
200.127	0.92
200.6	3.52
201.072	-3.38
201.544	-8.98
202.017	-7.38
202.489	2.02
202.961	0.42
203.433	-4.68
203.906	1.52
204.378	-3.58
204.85	-3.08
205.322	-9.78
205.794	4.62
206.266	-3.78
206.739	-6.18
207.211	2.62
207.683	-9.88
208.155	-5.78
208.627	-4.68
209.099	1.82
209.57	-5.08
210.042	-1.48
210.514	-3.68
210.986	-1.78
211.458	-9.08
211.93	-6.48
212.402	2.82
212.873	-5.68
213.345	-6.38
213.817	-13.18
214.288	-1.98
214.76	-7.48
215.232	-3.68
215.703	-6.78
216.175	-8.68
216.646	-3.88
217.118	-5.98
217.589	-3.08
218.061	-5.68
218.532	-8.28
219.004	-1.08
219.475	-4.88
219.946	-5.58
220.418	-5.78
220.889	-1.38
221.36	1.52
221.832	4.52
222.303	-9.88
222.774	2.12
223.245	-4.38
223.717	-7.38
224.188	-3.78
224.659	-6.38
225.13	-6.48
225.601	-4.38
226.072	-3.78
226.543	-4.28
227.014	-0.08
227.485	-4.88
227.956	-1.38
228.427	-0.08
228.898	3.52
229.369	-0.78
229.839	-3.08
230.31	-8.78
230.781	2.52
231.252	0.02
231.722	-5.88
232.193	-1.38
232.664	-5.98
233.135	-5.48
233.605	-5.98
234.076	-9.18
234.546	0.52
235.017	-1.08
235.487	2.52
235.958	-0.98
236.428	-8.08
236.899	-0.68
237.369	-3.78
237.84	-8.08
238.31	-2.18
238.78	9.82
239.251	-6.38
239.721	-5.78
240.191	-11.28
240.662	-6.78
241.132	-3.28
241.602	-4.08
242.072	-1.98
242.542	5.72
243.013	-0.18
243.483	2.42
243.953	0.12
244.423	-9.68
244.893	-1.28
245.363	-3.78
245.833	-2.78
246.303	-4.58
246.773	-3.08
247.243	-1.48
247.712	-3.58
248.182	0.32
248.652	4.52
249.122	-9.38
249.592	-0.68
250.061	3.62
250.531	5.12
251.001	-4.48
251.471	4.82
251.94	5.72
252.41	-4.88
252.879	-5.28
253.349	6.82
253.818	5.82
254.288	3.62
254.757	-3.28
255.227	-9.88
255.696	1.42
256.166	-1.48
256.635	-0.98
257.105	-0.08
257.574	-2.38
258.043	-0.48
258.513	-3.48
258.982	5.72
259.451	-5.08
259.92	3.32
260.389	-4.48
260.859	6.92
261.328	-3.18
261.797	6.82
262.266	-3.48
262.735	3.52
263.204	1.62
263.673	-0.98
264.142	6.42
264.611	-6.08
265.08	-3.08
265.549	-7.38
266.018	7.42
266.487	-1.88
266.955	-6.98
267.424	-6.68
267.893	5.62
268.362	-1.58
268.83	3.22
269.299	5.92
269.768	0.62
270.236	1.52
270.705	-4.78
271.174	-1.18
271.642	1.52
272.111	-4.68
272.579	-0.78
273.048	-3.48
273.516	2.02
273.985	5.12
274.453	7.92
274.922	7.92
275.39	7.62
275.858	-4.68
276.327	3.92
276.795	9.82
277.263	0.52
277.731	15.12
278.2	8.02
278.668	6.32
279.136	5.32
279.604	-1.48
280.072	11.02
280.54	7.72
281.008	-0.28
281.477	9.22
281.945	6.22
282.413	7.42
282.881	11.72
283.348	8.32
283.816	8.92
284.284	8.12
284.752	10.82
285.22	6.32
285.688	5.22
286.156	6.82
286.623	10.42
287.091	9.82
287.559	12.62
288.026	14.32
288.494	12.12
288.962	-0.38
289.429	7.52
289.897	13.62
290.364	13.12
290.832	9.12
291.3	11.62
291.767	12.92
292.234	15.82
292.702	13.42
293.169	11.72
293.637	20.32
294.104	16.42
294.571	9.62
295.039	7.42
295.506	6.72
295.973	13.82
296.44	13.42
296.908	16.02
297.375	9.32
297.842	18.02
298.309	11.02
298.776	12.72
299.243	14.62
299.71	11.22
300.177	14.82
300.644	14.42
301.111	17.02
301.578	19.62
302.045	13.02
302.512	14.12
302.979	16.22
303.446	16.82
303.913	14.42
304.379	12.22
304.846	23.12
305.313	15.22
305.78	16.02
306.246	17.92
306.713	22.42
307.18	21.32
307.646	19.42
308.113	20.22
308.579	18.82
309.046	24.72
309.512	21.62
309.979	12.62
310.445	19.62
310.912	28.52
311.378	27.72
311.845	28.02
312.311	22.32
312.777	26.62
313.244	26.62
313.71	26.92
314.176	24.92
314.642	21.42
315.109	26.72
315.575	25.42
316.041	34.52
316.507	24.72
316.973	22.72
317.439	27.22
317.905	27.02
318.371	26.12
318.837	32.32
319.303	30.22
319.769	24.72
320.235	25.12
320.701	29.32
321.167	27.42
321.633	24.42
322.099	28.22
322.564	35.12
323.03	33.12
323.496	30.72
323.962	36.32
324.427	30.62
324.893	32.42
325.359	31.62
325.824	38.32
326.29	31.02
326.755	31.72
327.221	36.12
327.686	26.72
328.152	42.42
328.617	36.32
329.083	42.42
329.548	41.12
330.014	39.52
330.479	35.22
330.944	39.12
331.41	34.02
331.875	37.22
332.34	38.62
332.805	38.72
333.271	37.12
333.736	35.92
334.201	40.32
334.666	40.42
335.131	40.12
335.596	38.42
336.061	41.02
336.526	36.42
336.991	40.32
337.456	44.82
337.921	40.62
338.386	39.72
338.851	37.42
339.316	40.82
339.781	42.92
340.246	48.82
340.711	41.52
341.175	50.22
341.64	38.62
342.105	44.92
342.569	46.42
343.034	53.42
343.499	50.12
343.963	47.72
344.428	58.72
344.893	55.62
345.357	49.42
345.822	56.32
346.286	60.72
346.751	71.72
347.215	58.32
347.679	66.82
348.144	84.92
348.608	76.22
349.073	60.12
349.537	66.22
350.001	67.92
350.465	79.92
350.93	70.32
351.394	77.32
351.858	66.52
352.322	83.92
352.786	73.72
353.25	86.02
353.715	96.72
354.179	84.62
354.643	103.22
355.107	101.52
355.571	85.72
356.035	83.52
356.498	93.32
356.962	98.92
357.426	106.62
357.89	93.92
358.354	88.52
358.818	75.22
359.281	70.02
359.745	68.62
360.209	67.02
360.673	66.62
361.136	69.52
361.6	82.62
362.064	74.82
362.527	76.72
362.991	81.02
363.454	72.22
363.918	75.82
364.381	71.92
364.845	71.92
365.308	80.52
365.772	81.42
366.235	80.52
366.698	79.62
367.162	78.82
367.625	82.62
368.088	80.12
368.552	76.22
369.015	79.72
369.478	85.22
369.941	90.12
370.404	87.72
370.867	87.02
371.331	92.92
371.794	103.02
372.257	89.62
372.72	98.62
373.183	97.42
373.646	87.82
374.109	90.72
374.572	97.32
375.035	96.92
375.497	96.72
375.96	103.22
376.423	101.92
376.886	104.92
377.349	97.82
377.811	95.72
378.274	98.42
378.737	95.72
379.199	96.52
379.662	102.72
380.125	106.12
380.587	102.22
381.05	106.62
381.512	110.02
381.975	117.82
382.437	110.52
382.9	115.62
383.362	115.02
383.825	118.32
384.287	116.82
384.75	116.32
385.212	117.12
385.674	127.72
386.136	123.02
386.599	115.32
387.061	120.12
387.523	120.32
387.985	120.32
388.447	131.12
388.91	122.52
389.372	119.12
389.834	131.02
390.296	122.72
390.758	121.72
391.22	130.12
391.682	141.52
392.144	151.12
392.606	139.62
393.068	132.62
393.529	147.12
393.991	135.62
394.453	125.32
394.915	133.02
395.377	130.42
395.838	128.32
396.3	130.02
396.762	138.82
397.224	130.22
397.685	126.72
398.147	129.32
398.608	128.32
399.07	125.52
399.531	134.12
399.993	150.32
400.454	159.72
400.916	145.22
401.377	144.12
401.839	157.92
402.3	152.92
402.762	158.62
403.223	178.42
403.684	169.52
404.145	155.72
404.607	162.42
405.068	163.92
405.529	167.82
405.99	186.22
406.451	166.22
406.913	168.62
407.374	160.82
407.835	158.62
408.296	165.92
408.757	162.62
409.218	174.02
409.679	174.82
410.14	168.22
410.601	177.02
411.062	182.82
411.522	177.72
411.983	170.12
412.444	174.62
412.905	182.42
413.366	184.32
413.826	197.12
414.287	221.72
414.748	275.02
415.208	256.42
415.669	219.02
416.13	209.62
416.59	205.62
417.051	216.92
417.511	227.72
417.972	243.12
418.432	250.22
418.893	296.92
419.353	256.32
419.814	203.12
420.274	191.02
420.734	188.42
421.195	204.72
421.655	188.22
422.115	200.02
422.576	205.12
423.036	206.62
423.496	212.42
423.956	216.62
424.416	236.12
424.876	275.72
425.336	261.52
425.797	262.32
426.257	265.62
426.717	243.82
427.177	235.62
427.637	233.02
428.097	232.02
428.556	251.02
429.016	268.42
429.476	262.12
429.936	276.52
430.396	273.42
430.856	289.52
431.315	307.52
431.775	334.22
432.235	376.32
432.694	355.42
433.154	353.42
433.614	386.32
434.073	337.92
434.533	286.42
434.993	268.62
435.452	281.32
435.912	297.62
436.371	283.72
436.83	277.12
437.29	261.92
437.749	247.62
438.209	250.62
438.668	278.32
439.127	294.42
439.587	263.42
440.046	262.02
440.505	264.02
440.964	280.62
441.424	324.12
441.883	317.62
442.342	262.42
442.801	239.22
443.26	224.72
443.719	234.52
444.178	231.72
444.637	226.92
445.096	226.62
445.555	228.92
446.014	231.02
446.473	236.62
446.932	230.42
447.391	237.12
447.849	236.12
448.308	233.82
448.767	234.82
449.226	245.12
449.685	239.32
450.143	262.22
450.602	253.62
451.061	240.92
451.519	241.42
451.978	241.02
452.436	239.62
452.895	243.52
453.353	262.92
453.812	251.32
454.27	259.62
454.729	250.12
455.187	245.82
455.646	258.82
456.104	266.32
456.562	276.62
457.021	277.62
457.479	274.52
457.937	276.12
458.395	278.12
458.854	258.62
459.312	264.42
459.77	289.72
460.228	266.02
460.686	257.32
461.144	265.82
461.602	264.62
462.06	254.22
462.518	269.12
462.976	276.22
463.434	280.92
463.892	280.72
464.35	293.12
464.808	299.22
465.266	283.62
465.724	287.62
466.181	290.32
466.639	285.32
467.097	304.52
467.555	318.62
468.012	323.92
468.47	322.62
468.928	347.52
469.385	360.52
469.843	364.22
470.3	363.22
470.758	377.52
471.215	407.52
471.673	428.02
472.13	431.52
472.588	432.02
473.045	405.32
473.503	397.42
473.96	421.22
474.417	424.72
474.875	455.52
475.332	496.82
475.789	479.62
476.246	480.62
476.704	506.92
477.161	533.32
477.618	544.62
478.075	578.42
478.532	633.22
478.989	700.72
479.446	800.12
479.903	788.62
480.36	818.42
480.817	863.62
481.274	966.82
481.731	1047.62
482.188	1124.82
482.645	1250.02
483.102	1342.52
483.558	1463.22
484.015	1504.42
484.472	1476.02
484.929	1437.82
485.385	1386.72
485.842	1367.82
486.299	1310.32
486.755	1270.92
487.212	1086.62
487.668	929.92
488.125	862.62
488.582	798.72
489.038	765.82
489.494	725.82
489.951	710.22
490.407	695.12
490.864	664.92
491.32	667.12
491.776	674.42
492.233	673.12
492.689	632.52
493.145	635.82
493.602	632.32
494.058	640.72
494.514	647.22
494.97	671.52
495.426	683.42
495.882	655.72
496.338	650.22
496.794	662.52
497.251	650.22
497.707	672.92
498.163	672.42
498.618	675.62
499.074	670.52
499.53	700.82
499.986	702.52
500.442	680.52
500.898	652.02
501.354	650.12
501.809	662.02
502.265	656.22
502.721	672.52
503.177	675.02
503.632	677.42
504.088	682.32
504.543	704.22
504.999	728.42
505.455	693.82
505.91	675.42
506.366	678.32
506.821	668.22
507.277	667.92
507.732	673.22
508.187	673.22
508.643	670.92
509.098	682.82
509.553	698.02
510.009	704.82
510.464	707.72
510.919	732.62
511.375	737.32
511.83	746.32
512.285	772.02
512.74	800.02
513.195	828.22
513.65	807.02
514.105	814.32
514.56	810.72
515.015	837.32
515.47	847.52
515.925	828.42
516.38	835.92
516.835	823.52
517.29	821.22
517.745	816.22
518.2	818.82
518.655	798.52
519.109	791.92
519.564	784.22
520.019	773.72
520.474	766.82
520.928	764.52
521.383	767.22
521.838	763.42
522.292	755.82
522.747	758.02
523.201	742.32
523.656	734.12
524.11	739.32
524.565	728.92
525.019	733.22
525.474	739.12
525.928	732.82
526.382	743.92
526.837	742.42
527.291	753.22
527.745	739.42
528.2	731.92
528.654	726.92
529.108	731.02
529.562	736.22
530.016	724.02
530.47	729.22
530.925	735.62
531.379	734.12
531.833	745.42
532.287	750.82
532.741	745.32
533.195	749.12
533.649	753.12
534.103	769.52
534.556	748.32
535.01	760.72
535.464	745.42
535.918	760.02
536.372	758.72
536.826	763.52
537.279	750.62
537.733	758.92
538.187	761.92
538.64	759.62
539.094	769.52
539.548	779.32
540.001	772.82
540.455	768.02
540.908	774.72
541.362	779.92
541.815	798.02
542.269	805.92
542.722	808.92
543.175	812.02
543.629	826.72
544.082	837.72
544.536	838.62
544.989	828.22
545.442	850.72
545.895	841.02
546.349	840.42
546.802	846.62
547.255	848.02
547.708	861.02
548.161	868.82
548.614	879.62
549.067	889.32
549.52	882.62
549.973	864.22
550.426	869.62
550.879	846.22
551.332	856.32
551.785	874.12
552.238	868.72
552.691	868.02
553.144	880.52
553.596	909.22
554.049	925.02
554.502	951.22
554.955	974.02
555.407	970.52
555.86	958.72
556.313	947.72
556.765	948.72
557.218	942.82
557.67	944.02
558.123	932.82
558.576	940.82
559.028	932.52
559.48	933.92
559.933	929.52
560.385	898.12
560.838	864.72
561.29	827.42
561.742	845.22
562.195	815.02
562.647	819.62
563.099	831.32
563.551	820.22
564.004	826.22
564.456	826.92
564.908	806.92
565.36	791.02
565.812	774.02
566.264	769.32
566.716	767.12
567.168	742.92
567.62	763.62
568.072	737.42
568.524	740.92
568.976	726.72
569.428	710.72
569.88	719.72
570.332	721.12
570.784	730.22
571.235	731.92
571.687	739.52
572.139	741.02
572.59	763.62
573.042	757.52
573.494	755.12
573.945	762.72
574.397	731.12
574.849	742.42
575.3	736.32
575.752	742.72
576.203	719.52
576.655	733.02
577.106	721.02
577.557	710.52
578.009	711.52
578.46	715.52
578.912	711.82
579.363	711.52
579.814	711.62
580.265	708.12
580.717	706.12
581.168	711.32
581.619	731.02
582.07	717.42
582.521	718.32
582.972	717.72
583.423	727.52
583.875	721.02
584.326	730.22
584.777	746.52
585.227	758.82
585.678	774.22
586.129	794.32
586.58	817.42
587.031	831.02
587.482	874.72
587.933	892.92
588.384	879.22
588.834	828.82
589.285	816.92
589.736	812.22
590.186	814.32
590.637	815.22
591.088	794.22
591.538	781.22
591.989	765.22
592.439	767.92
592.89	755.92
593.34	746.12
593.791	753.32
594.241	733.22
594.692	749.02
595.142	739.32
595.593	733.52
596.043	747.22
596.493	748.52
596.943	752.92
597.394	761.02
597.844	753.32
598.294	772.42
598.744	801.52
599.195	824.52
599.645	872.92
600.095	908.82
600.545	974.52
600.995	1031.32
601.445	1082.82
601.895	1145.12
602.345	1192.82
602.795	1177.92
603.245	1121.92
603.695	1078.32
604.145	1023.22
604.594	965.82
605.044	916.92
605.494	850.02
605.944	797.72
606.393	788.22
606.843	765.52
607.293	772.92
607.743	765.32
608.192	778.02
608.642	789.32
609.091	795.32
609.541	802.32
609.99	796.42
610.44	804.92
610.889	744.02
611.339	727.62
611.788	720.72
612.238	720.92
612.687	743.72
613.136	719.42
613.586	741.82
614.035	739.02
614.484	742.62
614.933	750.52
615.383	743.32
615.832	747.42
616.281	726.12
616.73	708.22
617.179	689.82
617.628	673.52
618.077	661.92
618.526	649.82
618.975	646.82
619.424	645.72
619.873	647.12
620.322	647.72
620.771	634.42
621.22	622.02
621.669	624.32
622.118	614.92
622.567	619.02
623.015	603.42
623.464	593.82
623.913	582.42
624.361	578.72
624.81	584.92
625.259	589.02
625.707	576.92
626.156	584.52
626.604	590.42
627.053	579.32
627.501	593.92
627.95	602.32
628.398	604.22
628.847	604.92
629.295	596.32
629.744	598.72
630.192	596.82
630.64	581.42
631.089	571.52
631.537	566.62
631.985	560.12
632.433	566.22
632.881	551.62
633.33	560.62
633.778	550.52
634.226	553.72
634.674	552.22
635.122	564.22
635.57	576.22
636.018	589.92
636.466	591.72
636.914	583.32
637.362	599.42
637.81	598.22
638.258	609.52
638.705	608.52
639.153	642.62
639.601	649.02
640.049	680.92
640.497	699.22
640.944	727.92
641.392	683.62
641.84	650.22
642.287	614.02
642.735	582.42
643.182	587.52
643.63	586.02
644.078	587.42
644.525	603.02
644.973	603.82
645.42	616.22
645.867	642.82
646.315	661.72
646.762	681.22
647.21	712.02
647.657	731.72
648.104	763.22
648.551	773.62
648.999	839.32
649.446	915.52
649.893	1014.92
650.34	1148.22
650.787	1358.52
651.234	1684.52
651.682	2162.52
652.129	2917.12
652.576	4156.62
653.023	6048.02
653.47	8189.92
653.917	10177.22
654.363	11693.82
654.81	12911.72
655.257	12221.32
655.704	8125.52
656.151	4895.42
656.598	3205.52
657.044	2306.32
657.491	1791.52
657.938	1446.62
658.385	1227.92
658.831	1060.32
659.278	949.32
659.724	853.82
660.171	799.02
660.618	733.02
661.064	697.02
661.511	680.12
661.957	670.12
662.404	657.42
662.85	668.52
663.296	636.52
663.743	577.82
664.189	554.42
664.635	547.22
665.082	542.72
665.528	546.92
665.974	539.32
666.42	521.82
666.867	526.02
667.313	513.42
667.759	487.22
668.205	471.42
668.651	476.62
669.097	463.42
669.543	468.12
669.989	464.92
670.435	469.02
670.881	460.02
671.327	469.72
671.773	498.62
672.219	522.22
672.665	567.32
673.11	614.62
673.556	667.52
674.002	706.42
674.448	690.52
674.893	576.52
675.339	506.22
675.785	460.52
676.23	441.92
676.676	418.72
677.122	406.72
677.567	392.02
678.013	388.92
678.458	373.62
678.904	375.02
679.349	366.92
679.794	379.52
680.24	373.12
680.685	366.12
681.131	364.62
681.576	359.32
682.021	371.72
682.466	374.32
682.912	361.72
683.357	376.62
683.802	399.42
684.247	437.02
684.692	483.02
685.137	523.42
685.583	564.72
686.028	584.42
686.473	545.12
686.918	464.32
687.363	442.72
687.807	416.62
688.252	383.42
688.697	381.62
689.142	362.42
689.587	352.32
690.032	344.72
690.477	366.92
690.921	368.12
691.366	397.22
691.811	420.92
692.255	458.62
692.7	482.42
693.145	537.92
693.589	741.82
694.034	1207.52
694.478	1648.32
694.923	1853.72
695.367	2393.02
695.812	1252.42
696.256	528.22
696.701	392.72
697.145	366.52
697.59	342.42
698.034	339.62
698.478	346.22
698.922	333.82
699.367	337.32
699.811	350.92
700.255	372.62
700.699	401.92
701.143	446.52
701.588	497.72
702.032	543.22
702.476	541.52
702.92	514.32
703.364	512.22
703.808	674.72
704.252	1097.12
704.696	1554.82
705.14	1769.22
705.584	2257.52
706.027	1123.62
706.471	553.82
706.915	430.02
707.359	371.42
707.803	340.32
708.246	333.02
708.69	322.22
709.134	329.52
709.577	322.02
710.021	338.42
710.465	316.42
710.908	305.22
711.352	314.72
711.795	323.02
712.239	371.62
712.682	407.22
713.126	424.82
713.569	477.42
714.012	373.12
714.456	318.92
714.899	308.52
715.342	288.82
715.786	273.52
716.229	274.22
716.672	266.52
717.115	255.22
717.558	269.32
718.002	263.42
718.445	274.92
718.888	298.22
719.331	301.92
719.774	320.82
720.217	325.72
720.66	299.42
721.103	285.32
721.546	266.72
721.989	261.62
722.432	245.02
722.874	249.42
723.317	236.72
723.76	242.42
724.203	267.42
724.645	325.22
725.088	475.82
725.531	606.32
725.974	677.72
726.416	576.42
726.859	320.82
727.301	262.12
727.744	248.32
728.187	246.72
728.629	251.62
729.071	254.42
729.514	263.82
729.956	283.32
730.399	293.22
730.841	305.82
731.283	285.72
731.726	280.62
732.168	275.62
732.61	275.32
733.053	297.82
733.495	327.82
733.937	361.22
734.379	420.62
734.821	464.62
735.263	579.32
735.705	896.82
736.148	1677.82
736.59	2758.72
737.032	3250.52
737.474	2644.92
737.916	868.92
738.357	457.32
738.799	344.52
739.241	319.92
739.683	303.72
740.125	301.12
740.567	312.52
741.008	337.42
741.45	338.42
741.892	330.72
742.334	366.72
742.775	377.02
743.217	361.92
743.658	280.32
744.1	265.52
744.542	281.22
744.983	339.82
745.425	366.92
745.866	364.22
746.307	294.12
746.749	297.02
747.19	345.22
747.632	482.02
748.073	950.32
748.514	1990.62
748.956	3031.52
749.397	3826.32
749.838	3154.92
750.279	3151.42
750.72	1593.62
751.162	595.42
751.603	336.92
752.044	270.62
752.485	226.62
752.926	214.42
753.367	211.62
753.808	202.72
754.249	199.92
754.69	195.42
755.131	190.42
755.572	192.12
756.013	189.52
756.453	190.82
756.894	199.12
757.335	205.12
757.776	209.82
758.216	209.32
758.657	215.02
759.098	213.02
759.538	239.12
759.979	288.92
760.42	397.22
760.86	751.52
761.301	1948.22
761.741	4739.62
762.182	6838.92
762.622	4847.22
763.063	1396.72
763.503	573.72
763.943	344.52
764.384	290.72
764.824	266.52
765.264	237.22
765.705	221.32
766.145	188.02
766.585	187.72
767.025	179.22
767.465	177.52
767.906	191.92
768.346	205.22
768.786	220.32
769.226	227.12
769.666	328.52
770.106	657.62
770.546	1662.32
770.986	2803.92
771.426	2512.42
771.866	838.52
772.306	356.72
772.745	219.72
773.185	178.02
773.625	172.42
774.065	150.62
774.505	169.42
774.944	213.52
775.384	383.32
775.824	618.62
776.263	606.22
776.703	293.02
777.142	167.92
777.582	137.32
778.021	133.32
778.461	126.62
778.9	126.12
779.34	133.62
779.779	119.72
780.219	114.52
780.658	117.02
781.097	108.62
781.537	112.22
781.976	109.72
782.415	106.12
782.855	107.92
783.294	106.82
783.733	111.72
784.172	116.92
784.611	105.92
785.05	113.72
785.489	116.92
785.928	121.82
786.367	129.72
786.806	122.42
787.245	127.62
787.684	139.82
788.123	153.02
788.562	144.12
789.001	134.02
789.44	126.22
789.879	125.52
790.317	128.02
790.756	133.72
791.195	132.72
791.634	154.62
792.072	212.42
792.511	383.32
792.95	1073.92
793.388	2258.92
793.827	2032.42
794.265	706.72
794.704	296.12
795.142	197.32
795.581	160.52
796.019	144.12
796.458	138.92
796.896	131.62
797.334	135.52
797.773	159.42
798.211	237.92
798.649	476.32
799.087	1091.52
799.526	1709.62
799.964	2148.72
800.402	2139.82
800.84	810.62
801.278	324.32
801.716	197.32
802.154	161.82
802.592	155.82
803.03	145.42
803.468	141.82
803.906	151.82
804.344	157.62
804.782	147.62
805.22	135.12
805.658	141.72
806.096	163.22
806.533	164.92
806.971	189.02
807.409	228.42
807.847	344.12
808.284	704.42
808.722	1990.12
809.16	3503.72
809.597	3366.42
810.035	5788.32
810.472	6109.42
810.91	2233.82
811.347	853.22
811.785	438.22
812.222	276.12
812.66	206.02
813.097	168.82
813.535	145.52
813.972	140.52
814.409	122.82
814.846	117.22
815.284	110.42
815.721	104.62
816.158	105.92
816.595	114.12
817.032	163.12
817.47	191.32
817.907	145.42
818.344	109.32
818.781	107.12
819.218	100.92
819.655	131.22
820.092	202.22
820.529	226.82
820.966	183.12
821.403	135.02
821.839	99.72
822.276	94.62
822.713	128.02
823.15	141.42
823.587	131.42
824.023	156.32
824.46	318.62
824.897	961.82
825.333	1424.62
825.77	622.72
826.206	239.72
826.643	140.72
827.08	109.72
827.516	88.42
827.953	88.82
828.389	84.32
828.825	75.82
829.262	68.52
829.698	68.42
830.135	69.22
830.571	66.82
831.007	58.52
831.443	65.22
831.88	64.42
832.316	72.22
832.752	63.82
833.188	65.92
833.624	67.42
834.06	71.02
834.497	74.02
834.933	75.12
835.369	82.92
835.805	69.42
836.241	78.62
836.677	87.72
837.112	92.72
837.548	110.92
837.984	139.42
838.42	209.62
838.856	520.42
839.292	1610.32
839.727	2436.62
840.163	1147.52
840.599	985.62
841.034	2167.72
841.47	2250.92
841.906	831.72
842.341	354.32
842.777	215.62
843.212	203.02
843.648	190.32
844.083	113.62
844.519	86.22
844.954	76.52
845.39	64.92
845.825	59.72
846.261	61.72
846.696	57.62
847.131	49.52
847.566	60.62
848.002	51.12
848.437	56.22
848.872	56.52
849.307	65.42
849.742	86.32
850.177	193.62
850.613	593.52
851.048	928.02
851.483	406.02
851.918	160.72
852.353	95.12
852.788	60.22
853.223	51.02
853.657	47.72
854.092	52.92
854.527	42.02
854.962	46.32
855.397	54.92
855.832	52.22
856.266	49.02
856.701	39.32
857.136	36.22
857.57	45.92
858.005	53.32
858.44	58.82
858.874	46.82
859.309	52.42
859.743	41.82
860.178	45.12
860.612	46.72
861.047	56.32
861.481	69.42
861.915	74.92
862.35	49.52
862.784	32.22
863.218	37.22
863.653	39.32
864.087	43.32
864.521	50.52
864.955	67.52
865.39	164.82
865.824	187.92
866.258	126.22
866.692	183.62
867.126	190.42
867.56	116.52
867.994	57.62
868.428	37.62
868.862	51.32
869.296	57.52
869.73	62.12
870.164	57.12
870.598	49.82
871.031	40.92
871.465	34.22
871.899	31.92
872.333	24.02
872.766	27.72
873.2	24.72
873.634	33.32
874.067	24.82
874.501	26.52
874.935	34.02
875.368	28.62
875.802	27.92
876.235	23.42
876.669	23.52
877.102	24.42
877.535	31.22
877.969	24.22
878.402	24.92
878.836	20.32
879.269	27.22
879.702	23.02
880.135	23.02
880.569	22.62
881.002	24.42
881.435	24.12
881.868	15.52
882.301	25.82
882.734	15.72
883.167	22.32
883.601	25.02
884.034	26.32
884.467	13.82
884.899	17.12
885.332	16.02
885.765	13.52
886.198	18.62
886.631	16.52
887.064	21.72
887.497	22.82
887.929	25.82
888.362	16.42
888.795	13.52
889.228	16.82
889.66	20.22
890.093	15.22
890.526	15.02
890.958	15.12
891.391	21.42
891.823	20.82
892.256	15.42
892.688	16.22
893.121	21.42
893.553	14.62
893.985	27.72
894.418	17.82
894.85	14.32
895.282	17.72
895.715	20.12
896.147	15.32
896.579	14.02
897.011	14.42
897.444	18.32
897.876	15.72
898.308	18.62
898.74	15.52
899.172	13.72
899.604	23.52
900.036	17.82
900.468	16.12
900.9	17.82
901.332	20.32
901.764	18.72
902.196	19.32
902.628	21.82
903.06	16.02
903.491	30.62
903.923	28.72
904.355	24.12
904.787	21.92
905.218	20.32
905.65	16.82
906.082	14.82
906.513	14.02
906.945	15.72
907.376	11.92
907.808	20.72
908.239	24.92
908.671	20.82
909.102	22.42
909.534	29.52
909.965	49.72
910.397	97.22
910.828	333.02
911.259	499.92
911.691	230.92
912.122	117.42
912.553	55.12
912.984	33.42
913.415	26.92
913.847	30.52
914.278	16.62
914.709	11.02
915.14	9.12
915.571	17.12
916.002	14.72
916.433	16.52
916.864	17.22
917.295	14.12
917.726	12.22
918.157	17.02
918.587	25.52
919.018	28.02
919.449	26.52
919.88	22.82
920.311	35.32
920.741	53.82
921.172	183.52
921.603	160.22
922.033	78.82
922.464	50.02
922.895	22.62
923.325	18.62
923.756	13.62
924.186	16.72
924.617	20.62
925.047	21.12
925.478	25.82
925.908	25.32
926.338	10.32
926.769	16.52
927.199	22.32
927.629	6.62
928.06	16.02
928.49	10.42
928.92	16.62
929.35	5.72
929.78	12.62
930.21	6.32
930.641	10.92
931.071	8.52
931.501	3.92
931.931	4.22
932.361	13.72
932.791	3.12
933.221	8.02
933.651	5.82
934.08	14.82
934.51	24.92
934.94	9.62
935.37	6.92
935.8	11.12
936.229	8.02
936.659	8.52
937.089	4.02
937.519	19.82
937.948	28.12
938.378	19.32
938.807	7.42
939.237	3.92
939.666	8.42
940.096	0.12
940.525	0.72
940.955	4.32
941.384	0.92
941.814	3.72
942.243	1.22
942.672	4.02
943.102	-3.08
943.531	-0.88
943.96	7.92
944.39	3.02
944.819	3.92
945.248	-2.88
945.677	1.82
946.106	3.02
946.535	1.42
946.964	-1.68
947.393	1.92
947.822	-2.08
948.251	-2.88
948.68	4.72
949.109	4.92
949.538	12.52
949.967	-0.78
950.396	1.22
950.825	-0.18
951.254	0.92
951.682	-6.78
952.111	3.42
952.54	4.52
952.969	-1.38
953.397	-4.58
953.826	2.22
954.254	-4.38
954.683	3.82
955.112	-1.18
955.54	-2.28
955.969	1.42
956.397	-1.88
956.826	-5.58
957.254	-0.58
957.682	-2.58
958.111	5.12
958.539	1.82
958.967	-1.38
959.396	-3.98
959.824	5.92
960.252	5.72
960.68	-3.78
961.109	1.42
961.537	-7.08
961.965	0.02
962.393	1.62
962.821	-0.78
963.249	2.92
963.677	-1.78
964.105	10.62
964.533	47.52
964.961	42.42
965.389	21.82
965.817	8.52
966.245	-1.58
966.672	3.42
967.1	-7.58
967.528	0.12
967.956	-0.78
968.383	-0.68
968.811	-5.28
969.239	-2.18
969.666	-7.48
970.094	-4.88
970.522	-1.88
970.949	4.62
971.377	-6.88
971.804	-2.18
972.232	-4.38
972.659	1.72
973.087	0.72
973.514	-1.48
973.941	-4.08
974.369	2.52
974.796	6.62
975.223	-1.98
975.651	-2.98
976.078	-4.78
976.505	-4.48
976.932	5.92
977.359	12.52
977.786	10.22
978.214	-4.98
978.641	-3.28
979.068	-3.98
979.495	-2.78
979.922	-0.88
980.349	-1.88
980.776	7.02
981.202	4.32
981.629	-4.08
982.056	0.62
982.483	-3.28
982.91	3.42
983.337	-1.88
983.763	4.12
984.19	-6.48
984.617	-4.98
985.043	-10.48
985.47	0.42
985.897	-4.38
986.323	-10.78
986.75	2.52
987.176	-5.38
987.603	0.72
988.029	1.32
988.456	3.92
988.882	2.82
989.308	-4.78
989.735	1.92
990.161	6.12
990.587	-4.28
991.014	1.72
991.44	8.72
991.866	-7.78
992.292	-6.88
992.719	-2.58
993.145	3.22
993.571	-10.48
993.997	-4.88
994.423	1.12
994.849	-6.18
995.275	-2.38
995.701	0.32
996.127	-2.98
996.553	1.02
996.979	-4.08
997.405	-2.58
997.83	-6.48
998.256	-8.58
998.682	-7.78
999.108	-11.18
999.534	-3.98
999.959	-3.38
1000.385	-5.38
1000.811	1.72
1001.236	-16.08
1001.662	-8.78
1002.087	-12.48
1002.513	6.02
1002.938	2.22
1003.364	-5.68
1003.789	1.12
1004.215	3.52
1004.64	-4.08
1005.066	-1.28
1005.491	-5.78
1005.916	-1.78
1006.342	-3.28
1006.767	-1.08
1007.192	3.42
1007.617	-5.18
1008.042	-3.78
1008.468	-6.98
1008.893	-4.28
1009.318	-0.78
1009.743	-0.78
1010.168	-0.48
1010.593	6.52
1011.018	-11.98
1011.443	-3.38
1011.868	-1.98
1012.293	-10.28
1012.718	-3.48
1013.143	3.92
1013.567	4.62
1013.992	-2.58
1014.417	-11.68
1014.842	1.02
1015.267	-4.38
1015.691	-5.98
1016.116	1.52
1016.541	0.72
1016.965	4.52
1017.39	-1.88
1017.814	-0.48
1018.239	0.42
1018.663	-4.28
1019.088	-9.88
1019.512	-6.68
1019.937	-3.08
1020.361	-12.18
1020.785	-6.68
1021.21	-4.68
1021.634	-6.48
1022.058	-1.98
1022.483	1.62
1022.907	-3.38
1023.331	-1.28
1023.755	-0.68
1024.179	-4.58
1024.604	-8.38
1025.028	-3.78
1025.452	-5.48
1025.876	-5.78
1026.3	4.22
1026.724	-12.28
1027.148	-5.88
1027.572	-11.58
1027.996	-5.48
1028.42	-1.08
1028.843	-0.58
1029.267	-9.48
1029.691	-3.78
1030.115	-5.68
1030.539	-13.28
1030.962	-3.58
1031.386	-6.28
1031.81	1.72
1032.233	-6.18
1032.657	-1.88
1033.08	0.02
1033.504	-2.88
1033.927	-4.78
1034.351	4.02
1034.774	-7.58
1035.198	-6.38
1035.621	-8.38
1036.045	-8.98
1036.468	-1.08
1036.891	-12.38
1037.315	-9.18
1037.738	-5.78
1038.161	0.62
1038.584	-3.68
1039.008	-9.18
1039.431	-0.38
1039.854	-5.48
1040.277	-13.28
1040.7	-9.78
1041.123	-2.78
1041.546	-13.38
1041.969	-5.88
1042.392	-5.08
1042.815	-2.78
1043.238	-2.48
1043.661	-2.18
1044.084	-6.78
1044.507	-4.78
1044.93	-3.18
1045.352	-9.58
1045.775	0.72
1046.198	-5.48
1046.621	-5.68
1047.043	3.02
1047.466	2.82
1047.889	-2.38
1048.311	-0.68
1048.734	-0.58
1049.156	-1.08
1049.579	2.02
1050.001	-5.78
1050.424	-7.18
1050.846	-6.98
1051.269	-6.18
1051.691	-6.18
1052.113	-9.58
1052.536	-1.28
1052.958	-3.28
1053.38	-4.98
1053.802	-11.68
1054.225	3.02
1054.647	-10.58
1055.069	-8.38
1055.491	2.12
1055.913	-10.68
1056.335	-3.68
1056.757	-3.78
1057.179	-6.98
1057.601	-6.48
1058.023	-6.78
1058.445	-2.38
1058.867	-0.98
1059.289	-4.78
1059.711	-6.58
1060.133	-6.48
1060.555	-2.98
1060.976	-6.38
1061.398	-5.28
1061.82	-9.98
1062.241	-5.18
1062.663	-7.38
1063.085	-2.28
1063.506	2.72
1063.928	-4.68
1064.35	1.92
1064.771	-6.38
1065.193	-1.48
1065.614	-10.48
1066.035	-3.18
1066.457	-6.38
1066.878	-6.98
1067.3	-5.48
1067.721	-5.68
1068.142	2.52
1068.564	-2.58
1068.985	-4.58
1069.406	-2.08
1069.827	-4.78
1070.248	-7.78
1070.67	-8.38
1071.091	-3.38
1071.512	-2.68
1071.933	-11.88
1072.354	-10.38
1072.775	-2.08
1073.196	-3.78
1073.617	-0.08
1074.038	-4.98
1074.459	-4.58
1074.88	-8.38
1075.3	0.42
1075.721	-4.58
1076.142	-0.38
1076.563	-5.68
1076.983	-9.18
1077.404	-6.28
1077.825	-9.98
1078.246	-2.78
1078.666	-8.98
1079.087	-6.38
1079.507	-1.38
1079.928	-1.18
1080.348	5.52
1080.769	-4.78
1081.189	-0.68
1081.61	-3.88
1082.03	-3.78
1082.451	-5.78
1082.871	-2.98
1083.291	-3.38
1083.711	-10.98
1084.132	-6.08
1084.552	-6.48
1084.972	3.02
1085.392	-12.18
1085.813	-13.08
1086.233	-10.08
1086.653	-13.18
1087.073	-6.18
1087.493	-7.88
1087.913	-3.18
1088.333	-8.98
1088.753	-4.38
1089.173	2.92
1089.593	-9.78
1090.013	0.82
1090.433	5.62
1090.852	-2.38
1091.272	-3.58
1091.692	-3.18
1092.112	-4.88
1092.531	-10.18
1092.951	-13.28
1093.371	-1.68
1093.79	0.42
1094.21	-6.38
1094.63	-8.18
1095.049	-8.98
1095.469	0.82
1095.888	-2.88
1096.308	-0.68
1096.727	-0.48
1097.146	-9.88
1097.566	0.02
1097.985	-6.98
1098.405	-6.28
1098.824	-8.78
1099.243	-5.58
1099.662	-8.68
1100.082	-3.28
1100.501	0.82
1100.92	-11.18
1101.339	-4.78
1101.758	-5.58
