Data from 20171114-ORNL-Ar_H_NY_Subt18_08-08-10-470.txt Node
Date: Tue Nov 14 08:08:10 EST 2017
User: Ender
Spectrometer: HR+D1039
Trigger mode: 0
Integration Time (sec): 2.730000E-2
Scans to average: 10
Electric dark correction enabled: true
Nonlinearity correction enabled: false
Boxcar width: 0
XAxis mode: Wavelengths
Number of Pixels in Spectrum: 2048
>>>>>Begin Spectral Data<<<<<
187.836	-3.34
188.309	-3.34
188.782	-3.34
189.255	-3.04
189.728	-1.24
190.201	6.86
190.674	-0.04
191.147	0.06
191.619	-3.04
192.092	0.36
192.565	5.86
193.038	-1.44
193.511	-0.34
193.984	0.16
194.456	-1.54
194.929	1.36
195.402	-6.74
195.874	6.16
196.347	0.96
196.82	-8.34
197.292	5.76
197.765	0.26
198.237	-6.84
198.71	-0.64
199.182	-7.24
199.655	2.26
200.127	4.56
200.6	2.16
201.072	-2.84
201.544	-3.64
202.017	-0.14
202.489	4.76
202.961	1.96
203.433	-8.34
203.906	-7.54
204.378	-7.04
204.85	0.46
205.322	-5.04
205.794	-5.74
206.266	-1.94
206.739	-7.54
207.211	4.66
207.683	-8.34
208.155	-6.64
208.627	-3.44
209.099	-6.54
209.57	-4.74
210.042	-1.64
210.514	-4.64
210.986	0.16
211.458	-3.34
211.93	-1.94
212.402	1.46
212.873	-6.34
213.345	-3.94
213.817	-12.24
214.288	-4.74
214.76	-10.14
215.232	-4.34
215.703	-4.94
216.175	-1.94
216.646	-2.34
217.118	-5.34
217.589	-6.14
218.061	-1.34
218.532	-5.44
219.004	-2.14
219.475	-1.44
219.946	-4.64
220.418	-4.14
220.889	-0.24
221.36	-1.04
221.832	-1.74
222.303	-7.94
222.774	0.16
223.245	-8.34
223.717	-10.84
224.188	-2.04
224.659	-9.24
225.13	-7.74
225.601	-3.24
226.072	0.66
226.543	-1.84
227.014	2.66
227.485	-0.24
227.956	-5.04
228.427	-6.44
228.898	-0.94
229.369	-1.44
229.839	-5.64
230.31	-8.34
230.781	7.36
231.252	-1.24
231.722	-5.24
232.193	-4.54
232.664	-2.74
233.135	0.76
233.605	-2.44
234.076	-5.24
234.546	4.46
235.017	1.56
235.487	-1.14
235.958	-4.94
236.428	-3.94
236.899	-3.14
237.369	9.66
237.84	4.06
238.31	6.76
238.78	2.96
239.251	-1.24
239.721	6.26
240.191	3.56
240.662	0.56
241.132	1.46
241.602	-5.44
242.072	-3.34
242.542	10.56
243.013	-5.34
243.483	1.26
243.953	4.46
244.423	-0.54
244.893	2.86
245.363	5.76
245.833	2.26
246.303	-3.94
246.773	8.36
247.243	3.56
247.712	-0.94
248.182	9.06
248.652	9.76
249.122	-0.74
249.592	8.66
250.061	24.36
250.531	28.86
251.001	14.56
251.471	20.36
251.94	15.16
252.41	7.46
252.879	1.06
253.349	9.66
253.818	5.96
254.288	6.16
254.757	4.26
255.227	-1.34
255.696	6.86
256.166	4.36
256.635	5.66
257.105	4.06
257.574	4.96
258.043	9.76
258.513	11.06
258.982	19.96
259.451	4.66
259.92	16.66
260.389	11.56
260.859	16.06
261.328	9.46
261.797	17.96
262.266	9.06
262.735	10.06
263.204	6.36
263.673	0.36
264.142	5.46
264.611	-2.04
265.08	1.56
265.549	-1.94
266.018	5.66
266.487	-6.14
266.955	-1.64
267.424	-0.84
267.893	8.76
268.362	-4.04
268.83	3.26
269.299	8.16
269.768	8.36
270.236	5.96
270.705	-0.34
271.174	6.16
271.642	3.66
272.111	9.96
272.579	17.56
273.048	24.76
273.516	29.56
273.985	24.96
274.453	21.26
274.922	18.06
275.39	10.86
275.858	6.36
276.327	12.56
276.795	19.36
277.263	8.26
277.731	30.36
278.2	49.96
278.668	58.66
279.136	43.26
279.604	14.16
280.072	12.46
280.54	11.06
281.008	7.56
281.477	11.86
281.945	11.16
282.413	13.76
282.881	15.16
283.348	4.16
283.816	17.16
284.284	12.86
284.752	23.26
285.22	11.56
285.688	9.66
286.156	18.16
286.623	43.16
287.091	51.46
287.559	24.86
288.026	17.06
288.494	11.66
288.962	4.46
289.429	12.66
289.897	18.26
290.364	13.06
290.832	13.66
291.3	9.76
291.767	14.06
292.234	21.36
292.702	11.06
293.169	19.96
293.637	22.86
294.104	17.26
294.571	8.26
295.039	7.56
295.506	10.06
295.973	14.76
296.44	15.56
296.908	20.96
297.375	22.76
297.842	17.86
298.309	16.96
298.776	16.56
299.243	24.56
299.71	9.16
300.177	19.76
300.644	18.36
301.111	22.66
301.578	21.36
302.045	14.76
302.512	15.46
302.979	22.56
303.446	22.86
303.913	20.96
304.379	14.86
304.846	21.76
305.313	21.46
305.78	22.16
306.246	25.26
306.713	20.26
307.18	30.66
307.646	29.36
308.113	28.46
308.579	20.96
309.046	22.56
309.512	26.46
309.979	19.86
310.445	22.96
310.912	29.86
311.378	28.46
311.845	25.46
312.311	30.06
312.777	31.16
313.244	30.96
313.71	39.86
314.176	30.36
314.642	33.16
315.109	32.96
315.575	38.16
316.041	40.66
316.507	33.96
316.973	38.46
317.439	37.96
317.905	36.76
318.371	36.16
318.837	32.36
319.303	30.16
319.769	31.86
320.235	29.66
320.701	37.06
321.167	36.46
321.633	34.86
322.099	35.76
322.564	41.06
323.03	34.96
323.496	35.96
323.962	39.96
324.427	31.76
324.893	41.96
325.359	37.66
325.824	35.26
326.29	33.76
326.755	35.76
327.221	36.16
327.686	37.06
328.152	45.96
328.617	40.86
329.083	45.06
329.548	49.66
330.014	47.76
330.479	35.06
330.944	37.46
331.41	42.66
331.875	42.46
332.34	40.96
332.805	35.16
333.271	40.96
333.736	44.36
334.201	52.16
334.666	47.86
335.131	50.96
335.596	59.16
336.061	49.16
336.526	41.96
336.991	46.86
337.456	52.76
337.921	41.06
338.386	42.76
338.851	42.96
339.316	49.86
339.781	45.56
340.246	51.86
340.711	48.16
341.175	47.66
341.64	43.26
342.105	51.96
342.569	56.26
343.034	54.36
343.499	53.96
343.963	47.06
344.428	64.46
344.893	61.86
345.357	61.46
345.822	60.16
346.286	66.26
346.751	72.46
347.215	68.56
347.679	71.36
348.144	94.66
348.608	84.76
349.073	64.26
349.537	78.06
350.001	82.66
350.465	93.86
350.93	78.76
351.394	81.56
351.858	71.36
352.322	87.66
352.786	87.46
353.25	106.26
353.715	108.66
354.179	103.56
354.643	120.16
355.107	127.36
355.571	105.26
356.035	105.36
356.498	120.86
356.962	126.36
357.426	135.46
357.89	111.56
358.354	91.26
358.818	79.26
359.281	80.46
359.745	80.26
360.209	74.96
360.673	67.66
361.136	77.96
361.6	78.66
362.064	82.86
362.527	84.96
362.991	96.96
363.454	77.46
363.918	80.86
364.381	78.76
364.845	81.06
365.308	88.56
365.772	89.26
366.235	80.36
366.698	85.16
367.162	85.96
367.625	86.26
368.088	83.06
368.552	91.76
369.015	88.76
369.478	93.46
369.941	100.66
370.404	96.66
370.867	99.86
371.331	105.26
371.794	112.16
372.257	106.36
372.72	115.06
373.183	109.66
373.646	103.06
374.109	104.56
374.572	104.86
375.035	106.66
375.497	109.26
375.96	106.36
376.423	104.36
376.886	117.26
377.349	112.06
377.811	104.26
378.274	106.36
378.737	110.26
379.199	104.56
379.662	109.66
380.125	118.06
380.587	122.86
381.05	124.56
381.512	135.96
381.975	139.26
382.437	130.76
382.9	128.46
383.362	131.26
383.825	144.86
384.287	153.76
384.75	149.76
385.212	148.06
385.674	139.46
386.136	136.46
386.599	131.66
387.061	129.76
387.523	132.16
387.985	141.46
388.447	153.46
388.91	146.86
389.372	158.96
389.834	157.86
390.296	148.76
390.758	158.96
391.22	175.76
391.682	213.66
392.144	317.46
392.606	235.36
393.068	174.96
393.529	168.26
393.991	150.46
394.453	156.76
394.915	161.46
395.377	193.86
395.838	218.86
396.3	155.86
396.762	145.76
397.224	135.46
397.685	135.26
398.147	136.96
398.608	127.86
399.07	128.46
399.531	142.76
399.993	142.16
400.454	157.06
400.916	152.06
401.377	139.06
401.839	154.66
402.3	153.96
402.762	166.56
403.223	182.46
403.684	177.66
404.145	162.06
404.607	162.96
405.068	168.66
405.529	177.46
405.99	196.36
406.451	179.36
406.913	175.66
407.374	171.06
407.835	164.16
408.296	173.16
408.757	172.86
409.218	186.56
409.679	178.56
410.14	174.46
410.601	183.76
411.062	192.86
411.522	196.76
411.983	186.36
412.444	184.66
412.905	183.96
413.366	180.86
413.826	193.66
414.287	213.46
414.748	264.56
415.208	249.16
415.669	209.76
416.13	207.26
416.59	207.86
417.051	213.86
417.511	228.06
417.972	237.66
418.432	253.56
418.893	295.46
419.353	248.56
419.814	201.56
420.274	186.36
420.734	183.36
421.195	203.56
421.655	200.46
422.115	199.46
422.576	200.36
423.036	197.16
423.496	205.26
423.956	222.46
424.416	229.76
424.876	272.36
425.336	258.16
425.797	272.06
426.257	261.46
426.717	242.76
427.177	234.06
427.637	223.76
428.097	236.26
428.556	258.56
429.016	281.36
429.476	271.96
429.936	283.96
430.396	279.26
430.856	296.96
431.315	319.66
431.775	355.76
432.235	387.46
432.694	365.46
433.154	366.86
433.614	400.26
434.073	343.26
434.533	289.36
434.993	281.06
435.452	294.56
435.912	306.66
436.371	296.36
436.83	288.16
437.29	272.66
437.749	253.46
438.209	250.56
438.668	278.16
439.127	296.46
439.587	266.76
440.046	244.16
440.505	257.46
440.964	279.36
441.424	332.46
441.883	312.76
442.342	263.66
442.801	231.66
443.26	225.06
443.719	224.26
444.178	222.66
444.637	211.76
445.096	224.76
445.555	223.56
446.014	225.46
446.473	236.06
446.932	234.76
447.391	230.56
447.849	230.46
448.308	215.76
448.767	225.16
449.226	238.36
449.685	242.56
450.143	251.96
450.602	231.96
451.061	233.46
451.519	234.36
451.978	230.26
452.436	233.16
452.895	241.06
453.353	247.46
453.812	248.86
454.27	238.56
454.729	236.76
455.187	239.96
455.646	247.56
456.104	245.76
456.562	258.46
457.021	271.36
457.479	258.06
457.937	274.26
458.395	271.36
458.854	251.16
459.312	261.46
459.77	274.66
460.228	254.26
460.686	244.56
461.144	243.06
461.602	246.86
462.06	248.56
462.518	251.26
462.976	252.16
463.434	259.26
463.892	257.16
464.35	266.96
464.808	291.26
465.266	267.16
465.724	270.46
466.181	275.76
466.639	264.06
467.097	279.56
467.555	295.96
468.012	302.36
468.47	312.26
468.928	327.26
469.385	342.56
469.843	348.36
470.3	345.96
470.758	362.46
471.215	392.36
471.673	411.86
472.13	410.46
472.588	432.36
473.045	370.36
473.503	384.96
473.96	394.36
474.417	412.46
474.875	431.86
475.332	482.06
475.789	470.86
476.246	462.56
476.704	486.06
477.161	509.16
477.618	515.76
478.075	569.96
478.532	616.76
478.989	691.76
479.446	818.46
479.903	771.46
480.36	807.66
480.817	867.56
481.274	963.16
481.731	1062.46
482.188	1157.76
482.645	1306.16
483.102	1412.76
483.558	1530.86
484.015	1582.46
484.472	1557.26
484.929	1522.26
485.385	1461.16
485.842	1428.16
486.299	1354.96
486.755	1298.46
487.212	1099.06
487.668	923.36
488.125	840.86
488.582	775.76
489.038	747.66
489.494	704.66
489.951	683.36
490.407	661.06
490.864	644.06
491.32	643.76
491.776	629.26
492.233	641.86
492.689	615.76
493.145	606.56
493.602	600.66
494.058	609.06
494.514	612.86
494.97	637.16
495.426	650.26
495.882	618.56
496.338	602.36
496.794	615.56
497.251	618.96
497.707	621.26
498.163	637.06
498.618	632.66
499.074	634.56
499.53	666.36
499.986	659.76
500.442	654.06
500.898	628.86
501.354	618.46
501.809	635.76
502.265	640.86
502.721	651.36
503.177	668.76
503.632	668.36
504.088	666.96
504.543	699.56
504.999	697.16
505.455	648.76
505.91	630.56
506.366	630.46
506.821	622.86
507.277	619.86
507.732	625.16
508.187	609.46
508.643	632.46
509.098	629.36
509.553	649.66
510.009	658.56
510.464	665.96
510.919	684.86
511.375	682.46
511.83	692.36
512.285	714.26
512.74	752.56
513.195	773.16
513.65	767.96
514.105	751.96
514.56	768.76
515.015	775.66
515.47	797.96
515.925	784.36
516.38	776.26
516.835	786.26
517.29	772.46
517.745	765.76
518.2	756.16
518.655	742.36
519.109	737.76
519.564	736.16
520.019	716.06
520.474	716.16
520.928	717.76
521.383	713.66
521.838	687.86
522.292	712.76
522.747	692.96
523.201	691.86
523.656	682.66
524.11	682.36
524.565	691.16
525.019	681.16
525.474	694.76
525.928	690.56
526.382	693.36
526.837	688.36
527.291	691.46
527.745	686.16
528.2	691.16
528.654	680.26
529.108	672.06
529.562	679.36
530.016	675.16
530.47	678.36
530.925	681.66
531.379	687.86
531.833	694.46
532.287	692.16
532.741	679.56
533.195	694.06
533.649	706.26
534.103	699.26
534.556	687.56
535.01	702.06
535.464	698.36
535.918	705.06
536.372	701.36
536.826	709.76
537.279	692.46
537.733	702.16
538.187	713.56
538.64	708.96
539.094	712.66
539.548	720.96
540.001	723.36
540.455	720.06
540.908	718.26
541.362	739.46
541.815	742.16
542.269	753.86
542.722	751.06
543.175	759.76
543.629	760.66
544.082	779.86
544.536	785.86
544.989	778.26
545.442	772.36
545.895	771.06
546.349	777.56
546.802	782.86
547.255	786.26
547.708	797.36
548.161	802.86
548.614	809.56
549.067	815.36
549.52	815.96
549.973	802.06
550.426	797.66
550.879	783.16
551.332	787.36
551.785	787.16
552.238	800.66
552.691	805.06
553.144	827.56
553.596	836.16
554.049	849.96
554.502	885.66
554.955	903.86
555.407	900.36
555.86	878.96
556.313	866.96
556.765	862.56
557.218	872.26
557.67	863.86
558.123	862.96
558.576	864.56
559.028	864.76
559.48	872.36
559.933	858.46
560.385	819.06
560.838	795.86
561.29	779.46
561.742	767.86
562.195	763.96
562.647	756.66
563.099	761.16
563.551	772.86
564.004	781.26
564.456	768.26
564.908	758.16
565.36	737.56
565.812	720.36
566.264	719.26
566.716	724.66
567.168	703.26
567.62	709.76
568.072	707.26
568.524	686.26
568.976	686.76
569.428	666.16
569.88	668.36
570.332	681.46
570.784	677.86
571.235	671.36
571.687	696.06
572.139	690.16
572.59	709.76
573.042	708.36
573.494	704.76
573.945	703.36
574.397	676.26
574.849	678.96
575.3	677.76
575.752	676.96
576.203	663.16
576.655	673.76
577.106	654.86
577.557	655.16
578.009	658.76
578.46	660.66
578.912	654.26
579.363	648.86
579.814	660.76
580.265	650.86
580.717	655.86
581.168	661.06
581.619	671.06
582.07	680.06
582.521	658.96
582.972	659.96
583.423	674.26
583.875	679.16
584.326	709.86
584.777	757.26
585.227	822.06
585.678	916.36
586.129	1008.46
586.58	1101.46
587.031	1173.26
587.482	1321.86
587.933	1504.96
588.384	1315.76
588.834	985.96
589.285	795.66
589.736	777.66
590.186	761.36
590.637	750.66
591.088	747.76
591.538	736.06
591.989	721.46
592.439	718.16
592.89	714.86
593.34	698.66
593.791	700.56
594.241	695.06
594.692	706.06
595.142	699.76
595.593	689.96
596.043	711.16
596.493	716.76
596.943	704.16
597.394	712.66
597.844	710.06
598.294	719.56
598.744	741.36
599.195	775.06
599.645	804.36
600.095	851.86
600.545	915.96
600.995	950.56
601.445	1019.86
601.895	1076.36
602.345	1126.16
602.795	1099.56
603.245	1041.46
603.695	992.96
604.145	944.36
604.594	907.96
605.044	849.76
605.494	796.66
605.944	753.06
606.393	728.96
606.843	723.76
607.293	730.06
607.743	724.56
608.192	745.76
608.642	748.36
609.091	751.76
609.541	758.56
609.99	762.06
610.44	764.36
610.889	720.76
611.339	689.16
611.788	684.86
612.238	693.26
612.687	724.56
613.136	715.16
613.586	734.66
614.035	736.66
614.484	754.56
614.933	764.36
615.383	748.86
615.832	734.16
616.281	726.66
616.73	687.16
617.179	660.96
617.628	659.86
618.077	634.56
618.526	623.26
618.975	609.76
619.424	607.76
619.873	607.16
620.322	614.66
620.771	607.86
621.22	602.76
621.669	601.86
622.118	586.06
622.567	575.66
623.015	566.16
623.464	563.96
623.913	552.76
624.361	545.66
624.81	548.16
625.259	545.56
625.707	558.56
626.156	549.56
626.604	558.46
627.053	561.46
627.501	559.06
627.95	568.36
628.398	575.96
628.847	561.16
629.295	563.86
629.744	573.16
630.192	567.86
630.64	567.36
631.089	564.56
631.537	586.36
631.985	586.96
632.433	603.56
632.881	618.86
633.33	656.26
633.778	650.26
634.226	571.06
634.674	570.06
635.122	577.86
635.57	595.76
636.018	630.46
636.466	582.46
636.914	555.76
637.362	565.46
637.81	572.36
638.258	573.36
638.705	583.06
639.153	607.66
639.601	603.06
640.049	641.06
640.497	664.76
640.944	686.96
641.392	638.26
641.84	608.96
642.287	584.96
642.735	563.86
643.182	566.86
643.63	570.66
644.078	573.96
644.525	589.96
644.973	599.36
645.42	605.56
645.867	615.86
646.315	639.46
646.762	659.86
647.21	696.06
647.657	713.86
648.104	748.36
648.551	777.96
648.999	841.36
649.446	914.76
649.893	1018.26
650.34	1158.06
650.787	1394.86
651.234	1737.96
651.682	2276.56
652.129	3131.96
652.576	4518.16
653.023	6677.26
653.47	9117.56
653.917	11320.46
654.363	12980.56
654.81	14274.46
655.257	13555.56
655.704	8899.26
656.151	5237.96
656.598	3384.56
657.044	2404.96
657.491	1834.76
657.938	1484.06
658.385	1235.46
658.831	1078.36
659.278	953.76
659.724	851.16
660.171	783.16
660.618	723.06
661.064	682.26
661.511	665.56
661.957	650.76
662.404	645.66
662.85	651.46
663.296	629.86
663.743	557.56
664.189	542.16
664.635	537.06
665.082	528.46
665.528	527.26
665.974	523.76
666.42	509.56
666.867	505.86
667.313	493.06
667.759	483.26
668.205	478.46
668.651	488.46
669.097	479.46
669.543	512.56
669.989	471.16
670.435	450.76
670.881	444.86
671.327	451.66
671.773	464.76
672.219	491.46
672.665	549.56
673.11	586.66
673.556	623.56
674.002	661.46
674.448	650.86
674.893	540.76
675.339	473.56
675.785	437.86
676.23	417.96
676.676	392.86
677.122	375.06
677.567	370.26
678.013	367.96
678.458	359.96
678.904	360.96
679.349	349.66
679.794	355.36
680.24	350.66
680.685	344.56
681.131	349.36
681.576	347.66
682.021	357.06
682.466	346.56
682.912	347.36
683.357	348.46
683.802	376.56
684.247	412.26
684.692	458.56
685.137	492.06
685.583	530.96
686.028	561.56
686.473	519.26
686.918	444.36
687.363	407.86
687.807	392.26
688.252	354.66
688.697	347.56
689.142	345.56
689.587	329.76
690.032	320.46
690.477	342.36
690.921	354.06
691.366	374.76
691.811	405.26
692.255	419.86
692.7	463.86
693.145	503.36
693.589	705.16
694.034	1137.26
694.478	1527.36
694.923	1708.36
695.367	2205.36
695.812	1185.26
696.256	500.56
696.701	374.16
697.145	336.16
697.59	326.26
698.034	324.66
698.478	330.86
698.922	318.76
699.367	317.66
699.811	329.26
700.255	351.16
700.699	386.76
701.143	427.96
701.588	482.86
702.032	513.86
702.476	511.16
702.92	489.36
703.364	498.06
703.808	649.26
704.252	1048.66
704.696	1458.96
705.14	1654.06
705.584	2087.66
706.027	1048.56
706.471	510.66
706.915	386.86
707.359	353.36
707.803	319.46
708.246	306.76
708.69	320.96
709.134	318.86
709.577	305.86
710.021	312.26
710.465	313.16
710.908	298.66
711.352	303.86
711.795	315.96
712.239	353.96
712.682	386.96
713.126	417.56
713.569	463.36
714.012	374.06
714.456	324.66
714.899	301.36
715.342	278.66
715.786	260.86
716.229	255.96
716.672	254.16
717.115	246.36
717.558	246.86
718.002	256.46
718.445	265.16
718.888	280.66
719.331	291.36
719.774	307.96
720.217	307.66
720.66	277.86
721.103	270.86
721.546	263.36
721.989	250.36
722.432	230.86
722.874	237.96
723.317	236.36
723.76	242.76
724.203	252.16
724.645	318.36
725.088	447.26
725.531	566.86
725.974	625.96
726.416	540.56
726.859	308.06
727.301	235.86
727.744	240.06
728.187	234.26
728.629	238.16
729.071	245.86
729.514	259.86
729.956	270.86
730.399	282.96
730.841	292.06
731.283	262.76
731.726	255.76
732.168	254.46
732.61	261.26
733.053	292.36
733.495	314.16
733.937	354.26
734.379	388.66
734.821	430.36
735.263	542.76
735.705	850.16
736.148	1595.56
736.59	2579.66
737.032	2967.56
737.474	2431.16
737.916	798.96
738.357	425.06
738.799	324.06
739.241	298.26
739.683	285.16
740.125	293.26
740.567	292.36
741.008	315.76
741.45	315.66
741.892	318.06
742.334	348.26
742.775	349.76
743.217	324.56
743.658	268.86
744.1	249.06
744.542	260.26
744.983	307.66
745.425	335.66
745.866	340.76
746.307	288.36
746.749	289.46
747.19	324.06
747.632	463.36
748.073	898.76
748.514	1901.96
748.956	2823.26
749.397	3539.76
749.838	2936.56
750.279	2890.86
750.72	1469.06
751.162	547.76
751.603	319.56
752.044	249.36
752.485	213.86
752.926	211.26
753.367	202.76
753.808	195.16
754.249	187.56
754.69	189.46
755.131	176.26
755.572	180.66
756.013	171.46
756.453	174.66
756.894	186.36
757.335	194.86
757.776	190.66
758.216	199.76
758.657	197.96
759.098	199.26
759.538	230.26
759.979	268.86
760.42	381.96
760.86	724.46
761.301	1880.36
761.741	4451.46
762.182	6227.66
762.622	4403.56
763.063	1298.96
763.503	532.76
763.943	345.96
764.384	346.66
764.824	413.36
765.264	447.46
765.705	307.06
766.145	208.76
766.585	188.16
767.025	184.96
767.465	191.86
767.906	243.36
768.346	324.06
768.786	344.16
769.226	267.56
769.666	327.06
770.106	647.86
770.546	1598.36
770.986	2589.16
771.426	2316.76
771.866	778.46
772.306	327.46
772.745	205.96
773.185	173.16
773.625	170.86
774.065	165.46
774.505	200.66
774.944	320.06
775.384	706.86
775.824	1231.66
776.263	1188.96
776.703	509.26
777.142	225.16
777.582	163.76
778.021	135.56
778.461	144.76
778.9	143.96
779.34	133.16
779.779	118.56
780.219	109.66
780.658	106.26
781.097	107.36
781.537	117.86
781.976	114.26
782.415	111.06
782.855	106.26
783.294	102.46
783.733	101.86
784.172	106.36
784.611	107.46
785.05	111.66
785.489	110.66
785.928	117.66
786.367	119.46
786.806	117.86
787.245	135.16
787.684	138.36
788.123	145.66
788.562	136.36
789.001	131.96
789.44	121.36
789.879	111.66
790.317	115.96
790.756	125.56
791.195	129.26
791.634	156.86
792.072	205.76
792.511	377.86
792.95	1043.16
793.388	2104.86
793.827	1885.66
794.265	671.16
794.704	283.46
795.142	177.26
795.581	155.26
796.019	134.56
796.458	121.56
796.896	120.56
797.334	132.86
797.773	153.56
798.211	214.06
798.649	447.36
799.087	1026.56
799.526	1591.66
799.964	2011.36
800.402	1959.06
800.84	735.16
801.278	298.46
801.716	187.66
802.154	153.56
802.592	143.76
803.03	146.06
803.468	141.86
803.906	140.36
804.344	148.96
804.782	136.66
805.22	134.46
805.658	127.66
806.096	144.66
806.533	155.26
806.971	175.36
807.409	220.66
807.847	314.46
808.284	690.86
808.722	1887.16
809.16	3227.36
809.597	3143.86
810.035	5405.56
810.472	5565.36
810.91	2029.56
811.347	777.96
811.785	397.06
812.222	245.06
812.66	192.36
813.097	166.06
813.535	145.76
813.972	123.46
814.409	116.86
814.846	110.36
815.284	108.06
815.721	97.86
816.158	111.96
816.595	123.96
817.032	181.06
817.47	202.86
817.907	163.06
818.344	152.56
818.781	117.96
819.218	100.26
819.655	129.56
820.092	183.96
820.529	210.06
820.966	170.16
821.403	135.46
821.839	102.16
822.276	103.36
822.713	119.76
823.15	131.76
823.587	115.96
824.023	146.56
824.46	313.86
824.897	898.16
825.333	1321.76
825.77	570.66
826.206	227.06
826.643	139.76
827.08	105.56
827.516	81.06
827.953	73.16
828.389	76.56
828.825	71.86
829.262	69.36
829.698	62.06
830.135	60.26
830.571	61.26
831.007	63.26
831.443	61.96
831.88	62.86
832.316	63.16
832.752	69.56
833.188	66.26
833.624	65.86
834.06	68.76
834.497	73.66
834.933	71.76
835.369	80.26
835.805	68.86
836.241	75.36
836.677	86.16
837.112	87.86
837.548	102.96
837.984	136.16
838.42	197.16
838.856	508.56
839.292	1524.86
839.727	2237.26
840.163	1057.16
840.599	942.86
841.034	2032.36
841.47	2055.76
841.906	759.16
842.341	333.86
842.777	233.76
843.212	321.46
843.648	314.36
844.083	151.16
844.519	97.16
844.954	83.06
845.39	58.36
845.825	55.56
846.261	57.26
846.696	58.66
847.131	47.76
847.566	57.66
848.002	48.46
848.437	51.46
848.872	63.36
849.307	70.56
849.742	89.46
850.177	182.16
850.613	556.26
851.048	858.06
851.483	370.06
851.918	152.96
852.353	89.26
852.788	62.26
853.223	50.36
853.657	52.66
854.092	50.06
854.527	36.76
854.962	44.46
855.397	45.56
855.832	48.06
856.266	41.26
856.701	39.76
857.136	33.66
857.57	45.26
858.005	56.16
858.44	63.86
858.874	43.06
859.309	53.96
859.743	48.36
860.178	49.26
860.612	43.46
861.047	49.86
861.481	73.26
861.915	66.36
862.35	51.46
862.784	36.36
863.218	40.56
863.653	36.66
864.087	50.86
864.521	53.06
864.955	72.56
865.39	161.26
865.824	172.16
866.258	118.76
866.692	158.56
867.126	161.76
867.56	102.36
867.994	51.66
868.428	38.86
868.862	40.86
869.296	52.56
869.73	57.26
870.164	53.16
870.598	48.06
871.031	40.16
871.465	32.76
871.899	27.16
872.333	18.26
872.766	22.06
873.2	32.06
873.634	31.66
874.067	27.56
874.501	24.96
874.935	40.16
875.368	27.66
875.802	28.66
876.235	19.76
876.669	22.46
877.102	20.16
877.535	26.66
877.969	22.16
878.402	27.26
878.836	20.86
879.269	25.06
879.702	28.66
880.135	23.86
880.569	25.66
881.002	28.16
881.435	26.66
881.868	13.86
882.301	19.86
882.734	17.96
883.167	27.46
883.601	15.56
884.034	19.46
884.467	18.66
884.899	21.66
885.332	20.56
885.765	13.46
886.198	18.36
886.631	18.56
887.064	22.06
887.497	20.96
887.929	24.96
888.362	14.36
888.795	14.36
889.228	19.16
889.66	23.66
890.093	17.56
890.526	13.26
890.958	13.86
891.391	18.56
891.823	20.36
892.256	17.16
892.688	16.26
893.121	17.16
893.553	23.46
893.985	25.76
894.418	16.16
894.85	12.16
895.282	13.76
895.715	9.16
896.147	15.96
896.579	20.36
897.011	16.06
897.444	14.66
897.876	12.76
898.308	16.66
898.74	13.96
899.172	13.66
899.604	24.16
900.036	14.66
900.468	17.36
900.9	16.46
901.332	22.56
901.764	13.96
902.196	14.16
902.628	15.56
903.06	14.26
903.491	31.56
903.923	27.36
904.355	25.66
904.787	22.66
905.218	22.66
905.65	17.56
906.082	15.36
906.513	17.06
906.945	14.66
907.376	14.46
907.808	20.46
908.239	24.46
908.671	18.56
909.102	19.66
909.534	21.86
909.965	52.56
910.397	91.66
910.828	308.26
911.259	457.76
911.691	210.76
912.122	106.96
912.553	54.46
912.984	37.66
913.415	21.16
913.847	26.06
914.278	23.76
914.709	15.16
915.14	17.26
915.571	19.46
916.002	12.86
916.433	21.16
916.864	14.76
917.295	17.86
917.726	26.26
918.157	10.36
918.587	30.76
919.018	18.86
919.449	28.26
919.88	24.16
920.311	29.46
920.741	51.76
921.172	161.36
921.603	149.66
922.033	72.96
922.464	47.86
922.895	22.66
923.325	25.16
923.756	13.86
924.186	18.66
924.617	29.06
925.047	44.96
925.478	55.66
925.908	44.66
926.338	24.46
926.769	21.26
927.199	18.56
927.629	11.56
928.06	14.66
928.49	17.16
928.92	16.36
929.35	10.06
929.78	8.46
930.21	8.26
930.641	14.96
931.071	10.36
931.501	4.96
931.931	9.66
932.361	7.16
932.791	7.86
933.221	5.26
933.651	3.26
934.08	17.06
934.51	30.16
934.94	7.26
935.37	9.86
935.8	11.56
936.229	11.96
936.659	6.56
937.089	4.46
937.519	16.46
937.948	28.76
938.378	14.56
938.807	5.16
939.237	3.76
939.666	10.16
940.096	-7.44
940.525	2.66
940.955	9.16
941.384	7.46
941.814	-5.04
942.243	-1.74
942.672	-2.34
943.102	-3.24
943.531	2.16
943.96	7.86
944.39	4.16
944.819	4.66
945.248	6.06
945.677	-1.64
946.106	7.06
946.535	5.66
946.964	-0.54
947.393	2.56
947.822	0.66
948.251	-8.94
948.68	2.76
949.109	8.66
949.538	3.16
949.967	-2.84
950.396	-1.44
950.825	3.76
951.254	5.26
951.682	-4.14
952.111	7.46
952.54	5.86
952.969	-4.54
953.397	-6.74
953.826	-1.84
954.254	-8.94
954.683	-3.94
955.112	-2.34
955.54	2.16
955.969	-7.64
956.397	1.06
956.826	-3.24
957.254	1.66
957.682	1.66
958.111	8.46
958.539	-2.64
958.967	0.46
959.396	1.86
959.824	-0.94
960.252	5.06
960.68	-7.74
961.109	-7.54
961.537	-3.84
961.965	3.36
962.393	3.16
962.821	-7.34
963.249	4.16
963.677	4.16
964.105	4.96
964.533	47.16
964.961	39.36
965.389	21.06
965.817	7.96
966.245	4.56
966.672	6.56
967.1	-5.44
967.528	6.16
967.956	-2.14
968.383	-1.94
968.811	1.46
969.239	-0.14
969.666	-6.34
970.094	-1.64
970.522	0.66
970.949	-1.14
971.377	-3.64
971.804	-4.24
972.232	-4.54
972.659	-4.24
973.087	-2.14
973.514	-3.44
973.941	-4.44
974.369	7.06
974.796	6.66
975.223	-0.94
975.651	-3.14
976.078	4.86
976.505	1.86
976.932	1.66
977.359	14.56
977.786	18.76
978.214	0.96
978.641	-7.24
979.068	-7.84
979.495	-2.74
979.922	0.76
980.349	-5.84
980.776	3.86
981.202	-4.04
981.629	3.36
982.056	6.26
982.483	-0.34
982.91	4.26
983.337	-4.04
983.763	-2.34
984.19	-4.94
984.617	-5.54
985.043	-10.64
985.47	-0.44
985.897	-3.94
986.323	-5.84
986.75	5.76
987.176	-0.04
987.603	-0.64
988.029	0.26
988.456	-4.94
988.882	-2.54
989.308	-6.44
989.735	-7.54
990.161	1.96
990.587	-10.04
991.014	-5.04
991.44	2.56
991.866	-3.04
992.292	-1.14
992.719	-2.24
993.145	2.76
993.571	-14.94
993.997	-2.34
994.423	-5.34
994.849	-2.04
995.275	5.56
995.701	1.86
996.127	-3.14
996.553	5.96
996.979	-8.84
997.405	-5.34
997.83	-4.44
998.256	-1.54
998.682	-4.04
999.108	-11.04
999.534	-5.44
999.959	-0.74
1000.385	-2.84
1000.811	0.56
1001.236	-10.04
1001.662	-6.44
1002.087	-6.64
1002.513	2.36
1002.938	2.06
1003.364	-2.04
1003.789	-3.24
1004.215	4.76
1004.64	1.06
1005.066	3.76
1005.491	0.76
1005.916	-0.44
1006.342	-2.54
1006.767	-8.34
1007.192	8.16
1007.617	-7.64
1008.042	-8.04
1008.468	-2.64
1008.893	-5.74
1009.318	-1.24
1009.743	-2.44
1010.168	4.16
1010.593	-1.54
1011.018	-5.74
1011.443	2.96
1011.868	2.36
1012.293	-4.64
1012.718	-8.14
1013.143	-3.34
1013.567	2.06
1013.992	2.66
1014.417	-15.34
1014.842	-2.14
1015.267	-6.44
1015.691	-6.54
1016.116	-1.14
1016.541	1.06
1016.965	-2.94
1017.39	1.06
1017.814	-0.24
1018.239	-1.14
1018.663	-6.84
1019.088	-8.94
1019.512	-6.04
1019.937	-1.64
1020.361	-7.54
1020.785	-10.54
1021.21	-4.14
1021.634	-7.54
1022.058	1.46
1022.483	-3.24
1022.907	-10.14
1023.331	-5.84
1023.755	-7.54
1024.179	-0.84
1024.604	-5.64
1025.028	-7.34
1025.452	-7.44
1025.876	-3.14
1026.3	-0.24
1026.724	-12.74
1027.148	-2.74
1027.572	-8.64
1027.996	-8.64
1028.42	-0.74
1028.843	-2.74
1029.267	-6.24
1029.691	-5.34
1030.115	-5.14
1030.539	-11.64
1030.962	-5.84
1031.386	-6.54
1031.81	-1.44
1032.233	-2.74
1032.657	-0.14
1033.08	-2.94
1033.504	-4.84
1033.927	-3.24
1034.351	-1.04
1034.774	-5.34
1035.198	-2.44
1035.621	-4.64
1036.045	-2.04
1036.468	-4.94
1036.891	-4.24
1037.315	-10.34
1037.738	-12.64
1038.161	-6.84
1038.584	-6.64
1039.008	-6.34
1039.431	-6.34
1039.854	-3.24
1040.277	-10.24
1040.7	-7.14
1041.123	-2.34
1041.546	-6.84
1041.969	-8.04
1042.392	-3.04
1042.815	-2.74
1043.238	1.26
1043.661	4.96
1044.084	-1.94
1044.507	-7.04
1044.93	-9.94
1045.352	-8.84
1045.775	0.86
1046.198	2.56
1046.621	-3.04
1047.043	0.96
1047.466	8.06
1047.889	1.16
1048.311	-3.34
1048.734	-1.04
1049.156	5.26
1049.579	-2.54
1050.001	-3.94
1050.424	-0.04
1050.846	-3.94
1051.269	-5.04
1051.691	-3.34
1052.113	-5.94
1052.536	-3.04
1052.958	-2.44
1053.38	-5.94
1053.802	-3.54
1054.225	0.66
1054.647	-9.54
1055.069	-6.44
1055.491	-0.54
1055.913	-11.54
1056.335	-2.74
1056.757	-2.94
1057.179	-8.04
1057.601	-3.94
1058.023	-2.04
1058.445	-3.24
1058.867	-6.44
1059.289	-3.14
1059.711	-8.64
1060.133	-2.24
1060.555	-6.24
1060.976	-5.84
1061.398	-5.94
1061.82	-5.14
1062.241	-2.54
1062.663	-11.24
1063.085	-4.94
1063.506	3.56
1063.928	-4.84
1064.35	4.36
1064.771	-10.94
1065.193	-2.34
1065.614	-5.74
1066.035	-2.84
1066.457	-5.94
1066.878	7.96
1067.3	-9.14
1067.721	-2.34
1068.142	-3.04
1068.564	-3.64
1068.985	-2.14
1069.406	-6.74
1069.827	-10.74
1070.248	0.36
1070.67	-2.24
1071.091	-11.34
1071.512	-4.54
1071.933	-9.34
1072.354	-5.74
1072.775	-5.84
1073.196	-8.34
1073.617	-1.64
1074.038	-9.34
1074.459	-3.54
1074.88	-5.54
1075.3	-0.04
1075.721	-5.54
1076.142	-2.74
1076.563	-5.64
1076.983	-8.34
1077.404	-7.34
1077.825	-11.44
1078.246	-5.54
1078.666	-9.94
1079.087	-3.44
1079.507	-1.94
1079.928	1.66
1080.348	1.16
1080.769	-1.74
1081.189	1.86
1081.61	-3.94
1082.03	-2.84
1082.451	-8.64
1082.871	-5.34
1083.291	-8.94
1083.711	-11.54
1084.132	-7.54
1084.552	-1.44
1084.972	0.76
1085.392	-9.04
1085.813	-11.74
1086.233	-6.64
1086.653	-5.24
1087.073	-0.24
1087.493	-8.64
1087.913	-6.34
1088.333	-11.74
1088.753	-7.54
1089.173	-3.74
1089.593	-4.54
1090.013	-1.24
1090.433	-4.14
1090.852	-8.34
1091.272	-6.64
1091.692	-2.64
1092.112	-4.84
1092.531	-6.14
1092.951	-10.04
1093.371	-1.54
1093.79	1.96
1094.21	-2.84
1094.63	-6.14
1095.049	-2.64
1095.469	-6.74
1095.888	-2.14
1096.308	1.16
1096.727	0.56
1097.146	-9.54
1097.566	1.86
1097.985	-5.24
1098.405	-9.24
1098.824	-2.94
1099.243	-6.54
1099.662	-10.84
1100.082	-8.74
1100.501	-0.04
1100.92	-6.44
1101.339	-4.34
1101.758	-4.44
