Data from 20171114-ORNL-Ar_H_NY_Subt18_08-05-50-980.txt Node
Date: Tue Nov 14 08:05:50 EST 2017
User: Ender
Spectrometer: HR+D1039
Trigger mode: 0
Integration Time (sec): 2.730000E-2
Scans to average: 10
Electric dark correction enabled: true
Nonlinearity correction enabled: false
Boxcar width: 0
XAxis mode: Wavelengths
Number of Pixels in Spectrum: 2048
>>>>>Begin Spectral Data<<<<<
187.836	-5.98
188.309	-5.98
188.782	-5.98
189.255	-0.08
189.728	-0.98
190.201	2.22
190.674	-0.38
191.147	6.92
191.619	-4.78
192.092	0.62
192.565	8.12
193.038	0.32
193.511	-0.08
193.984	-1.98
194.456	0.02
194.929	0.52
195.402	-5.08
195.874	0.62
196.347	0.32
196.82	-3.88
197.292	0.02
197.765	-0.98
198.237	-7.08
198.71	4.92
199.182	0.22
199.655	3.32
200.127	5.52
200.6	-2.88
201.072	-1.28
201.544	-8.28
202.017	-2.98
202.489	0.22
202.961	2.02
203.433	-4.28
203.906	-10.08
204.378	-8.78
204.85	-5.08
205.322	-6.58
205.794	1.62
206.266	0.52
206.739	-4.58
207.211	8.12
207.683	-3.08
208.155	-3.58
208.627	-5.68
209.099	-6.58
209.57	-8.98
210.042	-0.78
210.514	-2.98
210.986	-1.68
211.458	-2.28
211.93	-2.08
212.402	5.02
212.873	-6.28
213.345	-10.28
213.817	-7.38
214.288	-3.48
214.76	-3.98
215.232	-5.88
215.703	-7.78
216.175	-6.18
216.646	-8.28
217.118	-8.18
217.589	-2.58
218.061	-0.88
218.532	2.32
219.004	-2.18
219.475	-1.78
219.946	-2.08
220.418	-2.08
220.889	5.12
221.36	7.12
221.832	-0.28
222.303	-3.28
222.774	-1.88
223.245	-13.08
223.717	-2.48
224.188	-0.68
224.659	-5.58
225.13	-7.38
225.601	1.72
226.072	0.02
226.543	1.72
227.014	-3.28
227.485	-3.48
227.956	-8.88
228.427	0.22
228.898	0.32
229.369	2.32
229.839	-5.88
230.31	-7.98
230.781	0.92
231.252	-0.68
231.722	-5.48
232.193	-7.08
232.664	0.02
233.135	5.42
233.605	2.72
234.076	-4.08
234.546	6.32
235.017	6.22
235.487	3.22
235.958	0.62
236.428	-0.78
236.899	4.72
237.369	7.52
237.84	-2.58
238.31	7.12
238.78	-0.98
239.251	1.92
239.721	6.42
240.191	2.02
240.662	5.22
241.132	1.92
241.602	0.12
242.072	4.52
242.542	10.82
243.013	0.32
243.483	2.62
243.953	9.02
244.423	2.32
244.893	-1.88
245.363	4.32
245.833	9.72
246.303	-0.58
246.773	-0.68
247.243	7.12
247.712	-1.98
248.182	7.52
248.652	7.42
249.122	-3.98
249.592	15.32
250.061	28.92
250.531	29.72
251.001	14.82
251.471	22.82
251.94	18.12
252.41	11.02
252.879	1.72
253.349	15.02
253.818	9.92
254.288	7.22
254.757	6.22
255.227	4.42
255.696	4.52
256.166	5.62
256.635	8.52
257.105	10.72
257.574	9.92
258.043	6.72
258.513	13.92
258.982	18.42
259.451	10.32
259.92	12.32
260.389	7.22
260.859	14.62
261.328	11.42
261.797	19.92
262.266	7.02
262.735	16.22
263.204	11.82
263.673	6.62
264.142	8.72
264.611	4.42
265.08	0.72
265.549	0.12
266.018	7.02
266.487	-2.18
266.955	0.72
267.424	-0.38
267.893	10.62
268.362	2.92
268.83	3.52
269.299	14.42
269.768	5.92
270.236	7.42
270.705	2.42
271.174	6.52
271.642	9.42
272.111	12.52
272.579	19.82
273.048	24.02
273.516	28.32
273.985	28.32
274.453	28.02
274.922	27.32
275.39	13.62
275.858	4.52
276.327	19.42
276.795	18.02
277.263	11.72
277.731	29.22
278.2	53.72
278.668	65.42
279.136	58.32
279.604	21.92
280.072	20.02
280.54	15.62
281.008	11.02
281.477	12.82
281.945	11.12
282.413	15.12
282.881	13.32
283.348	10.12
283.816	16.82
284.284	16.82
284.752	22.32
285.22	15.02
285.688	14.52
286.156	19.82
286.623	45.82
287.091	52.42
287.559	33.32
288.026	22.72
288.494	24.52
288.962	12.92
289.429	13.72
289.897	21.42
290.364	13.92
290.832	15.52
291.3	18.12
291.767	21.92
292.234	25.72
292.702	12.02
293.169	21.02
293.637	23.12
294.104	21.62
294.571	14.92
295.039	14.82
295.506	13.72
295.973	19.42
296.44	18.02
296.908	19.62
297.375	18.32
297.842	20.42
298.309	16.42
298.776	12.12
299.243	23.32
299.71	18.42
300.177	23.52
300.644	22.52
301.111	24.82
301.578	27.82
302.045	18.42
302.512	28.72
302.979	24.62
303.446	25.22
303.913	24.52
304.379	24.02
304.846	29.32
305.313	32.32
305.78	27.22
306.246	24.92
306.713	31.12
307.18	21.12
307.646	29.02
308.113	30.52
308.579	29.32
309.046	29.82
309.512	29.42
309.979	20.32
310.445	31.32
310.912	28.12
311.378	34.72
311.845	27.52
312.311	31.92
312.777	35.42
313.244	35.12
313.71	35.92
314.176	33.72
314.642	32.62
315.109	34.42
315.575	40.92
316.041	41.02
316.507	38.22
316.973	42.02
317.439	38.82
317.905	40.42
318.371	38.82
318.837	42.42
319.303	37.42
319.769	38.02
320.235	38.62
320.701	38.12
321.167	43.32
321.633	41.42
322.099	43.52
322.564	49.92
323.03	39.52
323.496	43.72
323.962	44.32
324.427	39.12
324.893	42.92
325.359	48.52
325.824	42.62
326.29	40.02
326.755	41.92
327.221	41.02
327.686	39.42
328.152	50.12
328.617	43.42
329.083	50.02
329.548	57.02
330.014	45.62
330.479	37.32
330.944	45.92
331.41	41.52
331.875	49.62
332.34	44.72
332.805	49.22
333.271	52.62
333.736	50.72
334.201	54.12
334.666	52.92
335.131	58.42
335.596	50.72
336.061	52.82
336.526	43.02
336.991	49.22
337.456	57.72
337.921	49.22
338.386	51.42
338.851	50.92
339.316	49.82
339.781	49.72
340.246	53.52
340.711	48.52
341.175	56.62
341.64	48.22
342.105	52.52
342.569	60.92
343.034	61.42
343.499	59.12
343.963	59.82
344.428	70.32
344.893	59.72
345.357	64.82
345.822	58.42
346.286	73.42
346.751	79.52
347.215	69.52
347.679	83.72
348.144	102.52
348.608	91.92
349.073	71.52
349.537	83.52
350.001	86.62
350.465	97.62
350.93	83.82
351.394	85.92
351.858	73.82
352.322	93.12
352.786	91.72
353.25	101.12
353.715	117.02
354.179	103.32
354.643	126.82
355.107	131.82
355.571	106.12
356.035	109.72
356.498	123.12
356.962	134.12
357.426	136.12
357.89	125.12
358.354	94.42
358.818	93.42
359.281	86.32
359.745	81.72
360.209	82.82
360.673	80.02
361.136	80.62
361.6	89.42
362.064	94.82
362.527	90.22
362.991	95.22
363.454	84.02
363.918	79.42
364.381	87.12
364.845	90.12
365.308	85.42
365.772	95.22
366.235	94.12
366.698	92.92
367.162	90.02
367.625	92.92
368.088	93.22
368.552	91.92
369.015	92.42
369.478	97.02
369.941	108.52
370.404	102.12
370.867	112.82
371.331	112.82
371.794	123.62
372.257	124.32
372.72	119.02
373.183	117.32
373.646	103.82
374.109	105.82
374.572	110.22
375.035	110.82
375.497	114.72
375.96	115.52
376.423	110.22
376.886	111.12
377.349	114.72
377.811	111.02
378.274	113.62
378.737	112.62
379.199	121.02
379.662	117.02
380.125	119.62
380.587	123.32
381.05	129.12
381.512	135.12
381.975	142.02
382.437	134.42
382.9	134.92
383.362	135.62
383.825	147.42
384.287	147.22
384.75	151.12
385.212	152.32
385.674	141.42
386.136	143.42
386.599	137.42
387.061	140.62
387.523	140.92
387.985	139.12
388.447	154.72
388.91	155.02
389.372	159.02
389.834	155.62
390.296	156.72
390.758	158.52
391.22	170.32
391.682	215.82
392.144	303.32
392.606	241.22
393.068	164.92
393.529	174.92
393.991	168.62
394.453	151.72
394.915	166.72
395.377	199.42
395.838	214.82
396.3	157.92
396.762	153.42
397.224	143.62
397.685	137.32
398.147	136.92
398.608	133.02
399.07	132.22
399.531	140.32
399.993	149.62
400.454	162.02
400.916	158.62
401.377	152.12
401.839	162.42
402.3	157.52
402.762	175.02
403.223	186.42
403.684	180.32
404.145	169.52
404.607	164.82
405.068	165.72
405.529	178.72
405.99	192.42
406.451	182.12
406.913	183.12
407.374	171.52
407.835	173.02
408.296	168.42
408.757	186.12
409.218	193.42
409.679	189.12
410.14	183.02
410.601	184.82
411.062	190.82
411.522	192.82
411.983	201.12
412.444	186.92
412.905	189.92
413.366	195.12
413.826	196.52
414.287	230.52
414.748	270.22
415.208	258.52
415.669	228.02
416.13	210.52
416.59	200.02
417.051	219.22
417.511	223.72
417.972	247.42
418.432	254.32
418.893	294.32
419.353	257.22
419.814	205.92
420.274	194.92
420.734	182.72
421.195	205.22
421.655	207.02
422.115	209.92
422.576	202.32
423.036	207.22
423.496	214.72
423.956	225.02
424.416	240.42
424.876	278.12
425.336	273.62
425.797	265.72
426.257	263.72
426.717	256.12
427.177	238.72
427.637	239.32
428.097	237.42
428.556	255.22
429.016	282.02
429.476	260.52
429.936	282.02
430.396	292.22
430.856	303.92
431.315	328.12
431.775	357.82
432.235	394.52
432.694	373.92
433.154	379.22
433.614	404.22
434.073	353.92
434.533	298.82
434.993	284.12
435.452	300.52
435.912	309.82
436.371	304.12
436.83	303.32
437.29	274.72
437.749	258.02
438.209	255.32
438.668	283.52
439.127	303.12
439.587	278.02
440.046	258.62
440.505	268.62
440.964	289.12
441.424	341.92
441.883	326.32
442.342	268.12
442.801	233.62
443.26	225.72
443.719	230.52
444.178	221.72
444.637	219.92
445.096	227.42
445.555	230.42
446.014	235.22
446.473	236.92
446.932	236.72
447.391	240.72
447.849	229.72
448.308	227.62
448.767	234.12
449.226	240.12
449.685	247.02
450.143	261.42
450.602	239.72
451.061	236.92
451.519	239.22
451.978	245.62
452.436	249.92
452.895	251.62
453.353	260.32
453.812	251.52
454.27	256.12
454.729	252.32
455.187	250.22
455.646	250.02
456.104	254.32
456.562	272.02
457.021	277.52
457.479	269.02
457.937	283.62
458.395	278.72
458.854	261.72
459.312	266.12
459.77	286.12
460.228	272.02
460.686	253.72
461.144	258.22
461.602	250.42
462.06	251.42
462.518	258.32
462.976	264.32
463.434	267.62
463.892	273.12
464.35	286.82
464.808	296.32
465.266	278.52
465.724	274.22
466.181	286.52
466.639	278.02
467.097	303.72
467.555	317.22
468.012	317.52
468.47	317.82
468.928	343.22
469.385	352.82
469.843	353.52
470.3	352.92
470.758	370.32
471.215	402.72
471.673	426.02
472.13	420.42
472.588	429.42
473.045	382.72
473.503	399.32
473.96	410.52
474.417	423.72
474.875	452.12
475.332	489.62
475.789	482.72
476.246	485.72
476.704	509.02
477.161	528.42
477.618	535.72
478.075	583.42
478.532	641.32
478.989	716.42
479.446	832.32
479.903	797.92
480.36	838.62
480.817	888.12
481.274	992.12
481.731	1111.72
482.188	1205.22
482.645	1334.52
483.102	1445.12
483.558	1602.12
484.015	1632.42
484.472	1617.52
484.929	1564.22
485.385	1509.12
485.842	1465.42
486.299	1409.22
486.755	1341.22
487.212	1134.82
487.668	960.52
488.125	882.52
488.582	807.92
489.038	780.12
489.494	734.92
489.951	718.82
490.407	684.72
490.864	673.42
491.32	665.52
491.776	672.62
492.233	674.42
492.689	630.22
493.145	621.42
493.602	624.02
494.058	631.72
494.514	636.52
494.97	661.02
495.426	667.52
495.882	645.92
496.338	633.62
496.794	650.62
497.251	638.32
497.707	655.12
498.163	648.82
498.618	666.42
499.074	661.72
499.53	688.12
499.986	696.22
500.442	680.32
500.898	644.32
501.354	650.02
501.809	668.22
502.265	667.82
502.721	675.82
503.177	696.52
503.632	683.92
504.088	697.72
504.543	724.52
504.999	720.92
505.455	684.92
505.91	646.72
506.366	656.42
506.821	647.92
507.277	639.12
507.732	645.82
508.187	647.52
508.643	657.62
509.098	655.62
509.553	670.42
510.009	689.92
510.464	698.22
510.919	712.12
511.375	718.62
511.83	734.82
512.285	739.82
512.74	781.62
513.195	808.92
513.65	802.22
514.105	788.92
514.56	796.02
515.015	817.22
515.47	822.02
515.925	802.92
516.38	797.92
516.835	820.42
517.29	802.62
517.745	796.02
518.2	786.42
518.655	772.12
519.109	767.02
519.564	763.62
520.019	745.82
520.474	736.42
520.928	748.22
521.383	733.42
521.838	726.62
522.292	719.12
522.747	733.42
523.201	716.62
523.656	714.72
524.11	710.42
524.565	710.52
525.019	707.82
525.474	715.82
525.928	716.82
526.382	717.72
526.837	714.92
527.291	720.62
527.745	712.82
528.2	710.12
528.654	707.62
529.108	704.02
529.562	711.62
530.016	702.32
530.47	716.32
530.925	707.12
531.379	716.92
531.833	721.62
532.287	713.22
532.741	716.62
533.195	723.72
533.649	729.52
534.103	734.32
534.556	728.12
535.01	731.32
535.464	721.32
535.918	736.72
536.372	734.22
536.826	741.12
537.279	721.12
537.733	722.22
538.187	730.62
538.64	733.92
539.094	741.52
539.548	742.32
540.001	731.72
540.455	737.02
540.908	747.52
541.362	752.82
541.815	754.02
542.269	777.92
542.722	772.62
543.175	787.32
543.629	782.62
544.082	800.22
544.536	802.62
544.989	799.12
545.442	809.42
545.895	803.02
546.349	808.72
546.802	802.92
547.255	808.02
547.708	817.82
548.161	837.42
548.614	849.22
549.067	834.62
549.52	839.32
549.973	821.22
550.426	823.22
550.879	810.22
551.332	810.02
551.785	818.62
552.238	817.72
552.691	824.52
553.144	840.52
553.596	854.72
554.049	871.72
554.502	908.22
554.955	928.12
555.407	930.72
555.86	920.02
556.313	897.72
556.765	908.92
557.218	894.92
557.67	894.02
558.123	895.22
558.576	893.72
559.028	888.62
559.48	896.42
559.933	890.02
560.385	853.52
560.838	820.62
561.29	790.32
561.742	784.32
562.195	784.32
562.647	778.72
563.099	790.02
563.551	787.22
564.004	794.92
564.456	789.92
564.908	789.02
565.36	763.12
565.812	747.62
566.264	735.02
566.716	730.82
567.168	722.22
567.62	734.32
568.072	716.42
568.524	693.42
568.976	703.82
569.428	687.42
569.88	690.22
570.332	687.42
570.784	689.52
571.235	695.52
571.687	710.52
572.139	720.52
572.59	720.82
573.042	722.02
573.494	720.62
573.945	712.02
574.397	698.72
574.849	695.92
575.3	691.92
575.752	693.22
576.203	679.82
576.655	688.92
577.106	677.02
577.557	677.42
578.009	679.22
578.46	674.82
578.912	671.12
579.363	667.52
579.814	681.42
580.265	666.02
580.717	675.42
581.168	685.42
581.619	693.92
582.07	685.02
582.521	677.62
582.972	680.22
583.423	691.12
583.875	692.52
584.326	692.92
584.777	755.42
585.227	819.92
585.678	912.12
586.129	990.22
586.58	1066.22
587.031	1148.02
587.482	1298.72
587.933	1486.72
588.384	1304.72
588.834	976.32
589.285	814.52
589.736	787.22
590.186	780.52
590.637	775.22
591.088	757.22
591.538	747.32
591.989	739.52
592.439	734.62
592.89	725.62
593.34	720.32
593.791	719.22
594.241	707.32
594.692	703.62
595.142	710.32
595.593	706.42
596.043	709.02
596.493	709.52
596.943	714.62
597.394	716.52
597.844	727.62
598.294	735.32
598.744	754.72
599.195	775.62
599.645	824.52
600.095	864.62
600.545	914.82
600.995	959.92
601.445	1013.52
601.895	1088.62
602.345	1135.52
602.795	1112.42
603.245	1065.92
603.695	1010.82
604.145	958.42
604.594	921.42
605.044	859.62
605.494	798.42
605.944	769.42
606.393	744.82
606.843	731.52
607.293	743.42
607.743	729.02
608.192	751.52
608.642	760.32
609.091	761.52
609.541	772.22
609.99	767.72
610.44	774.72
610.889	722.32
611.339	710.12
611.788	686.22
612.238	713.52
612.687	717.82
613.136	716.82
613.586	734.62
614.035	723.52
614.484	754.12
614.933	759.02
615.383	749.82
615.832	742.22
616.281	726.42
616.73	678.52
617.179	660.82
617.628	645.32
618.077	639.02
618.526	619.62
618.975	614.52
619.424	617.92
619.873	614.42
620.322	619.22
620.771	615.32
621.22	610.22
621.669	601.22
622.118	579.92
622.567	581.22
623.015	581.92
623.464	569.32
623.913	568.22
624.361	551.42
624.81	549.82
625.259	561.72
625.707	553.22
626.156	554.32
626.604	563.62
627.053	563.82
627.501	559.12
627.95	568.52
628.398	573.92
628.847	567.22
629.295	571.52
629.744	567.12
630.192	555.02
630.64	568.32
631.089	561.52
631.537	576.52
631.985	582.02
632.433	590.42
632.881	606.32
633.33	653.62
633.778	628.12
634.226	563.72
634.674	571.32
635.122	576.12
635.57	602.02
636.018	609.72
636.466	586.72
636.914	555.02
637.362	566.12
637.81	578.02
638.258	575.12
638.705	568.22
639.153	608.42
639.601	611.12
640.049	642.92
640.497	667.42
640.944	686.92
641.392	633.92
641.84	615.82
642.287	590.82
642.735	570.62
643.182	575.82
643.63	570.92
644.078	574.52
644.525	584.82
644.973	585.22
645.42	595.72
645.867	618.52
646.315	638.22
646.762	665.32
647.21	684.02
647.657	710.12
648.104	747.42
648.551	761.82
648.999	815.02
649.446	901.32
649.893	994.92
650.34	1147.82
650.787	1358.92
651.234	1700.42
651.682	2222.92
652.129	3015.42
652.576	4369.62
653.023	6436.62
653.47	8845.82
653.917	11096.22
654.363	12847.12
654.81	14249.42
655.257	13589.92
655.704	8865.62
656.151	5257.22
656.598	3399.52
657.044	2407.02
657.491	1844.02
657.938	1480.32
658.385	1235.32
658.831	1081.52
659.278	951.92
659.724	847.72
660.171	785.12
660.618	709.62
661.064	677.72
661.511	662.72
661.957	652.02
662.404	631.42
662.85	638.42
663.296	617.52
663.743	550.22
664.189	527.32
664.635	532.52
665.082	514.32
665.528	529.62
665.974	517.62
666.42	503.32
666.867	510.52
667.313	486.92
667.759	467.92
668.205	467.82
668.651	478.72
669.097	475.52
669.543	498.72
669.989	461.82
670.435	443.12
670.881	434.42
671.327	449.32
671.773	467.02
672.219	483.22
672.665	540.92
673.11	566.52
673.556	611.52
674.002	652.42
674.448	646.62
674.893	537.22
675.339	479.12
675.785	435.02
676.23	413.12
676.676	384.32
677.122	383.62
677.567	365.82
678.013	368.12
678.458	352.82
678.904	354.12
679.349	343.22
679.794	351.42
680.24	347.02
680.685	345.82
681.131	345.92
681.576	344.02
682.021	346.22
682.466	340.82
682.912	348.12
683.357	339.62
683.802	382.32
684.247	401.12
684.692	443.82
685.137	489.62
685.583	527.82
686.028	550.62
686.473	510.62
686.918	441.02
687.363	408.22
687.807	390.12
688.252	359.32
688.697	349.22
689.142	325.32
689.587	330.52
690.032	316.92
690.477	340.72
690.921	348.52
691.366	375.82
691.811	382.52
692.255	424.92
692.7	444.62
693.145	488.42
693.589	677.02
694.034	1092.62
694.478	1482.02
694.923	1714.02
695.367	2225.62
695.812	1176.32
696.256	484.22
696.701	371.52
697.145	344.02
697.59	323.42
698.034	319.02
698.478	322.62
698.922	321.22
699.367	322.02
699.811	331.02
700.255	348.52
700.699	376.42
701.143	419.82
701.588	469.72
702.032	509.12
702.476	500.22
702.92	486.82
703.364	485.52
703.808	619.62
704.252	1006.22
704.696	1419.12
705.14	1652.62
705.584	2086.22
706.027	1042.72
706.471	506.02
706.915	386.12
707.359	341.12
707.803	310.42
708.246	308.32
708.69	309.62
709.134	310.82
709.577	299.32
710.021	302.52
710.465	296.22
710.908	287.42
711.352	295.02
711.795	313.32
712.239	345.82
712.682	378.62
713.126	411.12
713.569	459.12
714.012	360.02
714.456	319.02
714.899	294.22
715.342	278.22
715.786	259.32
716.229	246.12
716.672	255.32
717.115	247.52
717.558	253.22
718.002	245.72
718.445	258.22
718.888	283.12
719.331	297.02
719.774	298.52
720.217	288.12
720.66	280.12
721.103	261.12
721.546	248.32
721.989	248.22
722.432	239.02
722.874	241.12
723.317	218.22
723.76	230.72
724.203	245.62
724.645	313.12
725.088	429.92
725.531	545.92
725.974	625.22
726.416	534.82
726.859	298.52
727.301	242.22
727.744	236.62
728.187	228.62
728.629	234.72
729.071	242.02
729.514	257.82
729.956	261.22
730.399	272.22
730.841	280.92
731.283	261.72
731.726	258.82
732.168	258.82
732.61	258.92
733.053	280.62
733.495	301.62
733.937	350.22
734.379	384.12
734.821	418.62
735.263	519.32
735.705	803.02
736.148	1517.52
736.59	2484.12
737.032	2993.12
737.474	2459.72
737.916	792.52
738.357	424.12
738.799	318.92
739.241	297.22
739.683	279.22
740.125	282.02
740.567	284.72
741.008	302.52
741.45	314.32
741.892	309.72
742.334	341.92
742.775	346.32
743.217	324.52
743.658	262.92
744.1	250.82
744.542	257.82
744.983	306.02
745.425	339.42
745.866	340.22
746.307	279.22
746.749	276.92
747.19	313.52
747.632	442.32
748.073	839.42
748.514	1782.02
748.956	2766.62
749.397	3455.82
749.838	2889.92
750.279	2897.92
750.72	1461.12
751.162	538.12
751.603	307.42
752.044	249.52
752.485	213.62
752.926	206.42
753.367	197.42
753.808	190.42
754.249	185.92
754.69	181.02
755.131	175.82
755.572	181.32
756.013	169.92
756.453	174.12
756.894	178.32
757.335	192.42
757.776	196.42
758.216	194.82
758.657	194.12
759.098	202.32
759.538	221.52
759.979	257.72
760.42	362.52
760.86	671.22
761.301	1730.82
761.741	4244.92
762.182	6290.22
762.622	4428.92
763.063	1282.22
763.503	527.12
763.943	330.22
764.384	329.22
764.824	387.92
765.264	427.32
765.705	300.22
766.145	206.22
766.585	183.32
767.025	180.02
767.465	186.22
767.906	236.72
768.346	293.12
768.786	334.82
769.226	245.82
769.666	302.12
770.106	592.52
770.546	1467.42
770.986	2598.32
771.426	2332.22
771.866	774.82
772.306	323.42
772.745	209.82
773.185	172.62
773.625	160.92
774.065	162.72
774.505	190.92
774.944	283.22
775.384	641.62
775.824	1157.52
776.263	1142.72
776.703	482.92
777.142	218.52
777.582	160.12
778.021	137.72
778.461	138.82
778.9	141.92
779.34	128.62
779.779	112.72
780.219	111.22
780.658	107.22
781.097	109.12
781.537	112.72
781.976	105.32
782.415	106.62
782.855	103.72
783.294	103.92
783.733	103.22
784.172	110.92
784.611	101.42
785.05	104.92
785.489	114.02
785.928	115.92
786.367	115.52
786.806	118.72
787.245	126.62
787.684	134.32
788.123	141.52
788.562	132.92
789.001	121.32
789.44	119.92
789.879	125.72
790.317	118.12
790.756	127.92
791.195	123.62
791.634	145.82
792.072	197.32
792.511	344.12
792.95	946.02
793.388	2071.42
793.827	1896.92
794.265	658.82
794.704	279.62
795.142	183.92
795.581	147.72
796.019	130.82
796.458	125.02
796.896	116.62
797.334	125.12
797.773	149.42
798.211	215.32
798.649	423.32
799.087	977.02
799.526	1541.72
799.964	1933.72
800.402	1972.32
800.84	736.92
801.278	295.52
801.716	180.22
802.154	151.12
802.592	144.22
803.03	132.92
803.468	127.32
803.906	138.82
804.344	146.52
804.782	140.22
805.22	136.12
805.658	127.12
806.096	141.92
806.533	156.72
806.971	172.52
807.409	210.22
807.847	308.52
808.284	621.42
808.722	1763.52
809.16	3190.72
809.597	2981.02
810.035	5199.62
810.472	5652.82
810.91	2037.52
811.347	764.82
811.785	393.12
812.222	242.42
812.66	188.32
813.097	153.82
813.535	137.12
813.972	129.52
814.409	123.52
814.846	109.72
815.284	108.62
815.721	100.62
816.158	95.42
816.595	114.72
817.032	171.62
817.47	195.32
817.907	165.82
818.344	141.52
818.781	120.72
819.218	96.72
819.655	120.12
820.092	185.42
820.529	213.82
820.966	170.02
821.403	131.72
821.839	112.02
822.276	99.62
822.713	113.92
823.15	131.92
823.587	118.92
824.023	138.32
824.46	283.42
824.897	865.72
825.333	1326.52
825.77	564.12
826.206	221.82
826.643	130.02
827.08	98.52
827.516	86.32
827.953	78.22
828.389	78.12
828.825	65.62
829.262	66.72
829.698	64.42
830.135	61.92
830.571	64.02
831.007	57.92
831.443	67.02
831.88	61.42
832.316	65.22
832.752	63.12
833.188	62.22
833.624	61.52
834.06	59.42
834.497	71.32
834.933	76.32
835.369	79.82
835.805	70.82
836.241	80.52
836.677	83.12
837.112	82.12
837.548	100.52
837.984	131.82
838.42	188.62
838.856	468.02
839.292	1447.52
839.727	2248.22
840.163	1031.62
840.599	876.92
841.034	1958.92
841.47	2077.92
841.906	755.62
842.341	323.12
842.777	227.42
843.212	306.52
843.648	304.12
844.083	150.52
844.519	97.12
844.954	78.82
845.39	60.62
845.825	56.42
846.261	60.12
846.696	52.02
847.131	51.62
847.566	57.82
848.002	51.52
848.437	53.52
848.872	64.72
849.307	69.32
849.742	84.62
850.177	172.22
850.613	534.72
851.048	864.52
851.483	368.62
851.918	147.52
852.353	83.62
852.788	59.72
853.223	57.72
853.657	52.12
854.092	48.22
854.527	39.22
854.962	41.42
855.397	47.42
855.832	50.62
856.266	41.72
856.701	43.02
857.136	41.42
857.57	43.12
858.005	50.32
858.44	60.52
858.874	42.42
859.309	49.42
859.743	36.52
860.178	46.62
860.612	39.62
861.047	53.62
861.481	64.42
861.915	72.02
862.35	49.12
862.784	32.42
863.218	41.32
863.653	36.02
864.087	49.92
864.521	53.12
864.955	71.12
865.39	153.62
865.824	173.82
866.258	110.32
866.692	160.12
867.126	170.82
867.56	98.82
867.994	48.82
868.428	30.92
868.862	42.62
869.296	57.52
869.73	59.32
870.164	54.82
870.598	48.02
871.031	37.12
871.465	29.52
871.899	34.42
872.333	20.82
872.766	28.42
873.2	20.82
873.634	28.32
874.067	22.32
874.501	30.02
874.935	37.82
875.368	32.92
875.802	31.32
876.235	24.42
876.669	25.52
877.102	17.92
877.535	25.02
877.969	21.32
878.402	29.62
878.836	21.72
879.269	22.92
879.702	20.42
880.135	22.82
880.569	21.82
881.002	23.32
881.435	18.92
881.868	14.02
882.301	22.02
882.734	11.72
883.167	26.12
883.601	11.92
884.034	18.32
884.467	11.52
884.899	22.22
885.332	18.42
885.765	13.62
886.198	11.72
886.631	14.32
887.064	19.32
887.497	19.22
887.929	26.72
888.362	16.82
888.795	13.02
889.228	23.02
889.66	23.92
890.093	19.42
890.526	16.12
890.958	17.82
891.391	18.62
891.823	21.72
892.256	11.32
892.688	11.22
893.121	11.92
893.553	13.52
893.985	22.22
894.418	19.12
894.85	12.72
895.282	12.32
895.715	13.32
896.147	13.82
896.579	18.82
897.011	21.72
897.444	21.22
897.876	9.22
898.308	20.42
898.74	10.62
899.172	9.72
899.604	20.52
900.036	19.92
900.468	17.92
900.9	12.62
901.332	14.52
901.764	15.32
902.196	20.02
902.628	21.22
903.06	16.22
903.491	30.42
903.923	22.02
904.355	20.72
904.787	18.62
905.218	23.62
905.65	27.22
906.082	12.52
906.513	9.22
906.945	11.92
907.376	16.52
907.808	23.32
908.239	21.82
908.671	14.62
909.102	20.52
909.534	27.12
909.965	46.22
910.397	83.42
910.828	299.12
911.259	461.42
911.691	215.22
912.122	107.92
912.553	55.12
912.984	33.92
913.415	24.42
913.847	22.62
914.278	21.12
914.709	11.72
915.14	22.02
915.571	13.72
916.002	19.92
916.433	15.32
916.864	15.12
917.295	7.82
917.726	16.82
918.157	12.42
918.587	30.82
919.018	21.82
919.449	16.22
919.88	25.22
920.311	33.12
920.741	49.52
921.172	161.02
921.603	150.02
922.033	72.32
922.464	45.62
922.895	24.72
923.325	16.32
923.756	15.62
924.186	11.72
924.617	35.52
925.047	35.82
925.478	48.62
925.908	42.02
926.338	25.72
926.769	19.72
927.199	19.42
927.629	12.32
928.06	18.72
928.49	21.02
928.92	11.02
929.35	18.02
929.78	9.62
930.21	9.42
930.641	10.92
931.071	9.52
931.501	10.12
931.931	10.72
932.361	9.22
932.791	-0.18
933.221	9.92
933.651	6.82
934.08	16.32
934.51	32.32
934.94	7.62
935.37	6.72
935.8	6.92
936.229	7.82
936.659	11.92
937.089	1.52
937.519	15.32
937.948	21.12
938.378	13.32
938.807	3.52
939.237	8.12
939.666	8.52
940.096	-3.28
940.525	-0.68
940.955	3.62
941.384	8.22
941.814	-6.68
942.243	-2.48
942.672	3.42
943.102	1.32
943.531	1.72
943.96	6.32
944.39	4.32
944.819	-1.08
945.248	0.62
945.677	-2.28
946.106	6.82
946.535	11.32
946.964	-3.48
947.393	4.82
947.822	-0.98
948.251	-5.88
948.68	3.52
949.109	9.22
949.538	9.82
949.967	2.32
950.396	1.12
950.825	-0.18
951.254	-4.18
951.682	-5.78
952.111	2.32
952.54	4.32
952.969	-0.58
953.397	-4.38
953.826	3.02
954.254	-0.28
954.683	1.02
955.112	-4.38
955.54	4.42
955.969	4.52
956.397	5.42
956.826	-0.08
957.254	3.22
957.682	4.82
958.111	2.32
958.539	-1.58
958.967	1.62
959.396	-1.38
959.824	2.52
960.252	5.12
960.68	-6.68
961.109	-1.78
961.537	-5.88
961.965	2.52
962.393	-0.88
962.821	-2.38
963.249	1.72
963.677	0.62
964.105	6.32
964.533	42.42
964.961	38.62
965.389	25.42
965.817	11.02
966.245	5.02
966.672	2.02
967.1	-6.58
967.528	-3.28
967.956	-3.58
968.383	0.62
968.811	1.82
969.239	-0.78
969.666	-2.18
970.094	-6.18
970.522	2.12
970.949	3.12
971.377	-5.68
971.804	-2.48
972.232	-0.08
972.659	-5.08
973.087	-3.88
973.514	-3.08
973.941	-5.58
974.369	3.42
974.796	-0.28
975.223	-1.48
975.651	0.42
976.078	3.72
976.505	1.12
976.932	0.02
977.359	12.42
977.786	22.12
978.214	1.42
978.641	0.12
979.068	-1.68
979.495	-0.78
979.922	2.32
980.349	-4.08
980.776	3.92
981.202	0.92
981.629	11.42
982.056	4.52
982.483	0.92
982.91	4.22
983.337	-5.28
983.763	-1.08
984.19	-1.68
984.617	-2.18
985.043	-4.48
985.47	5.22
985.897	-0.58
986.323	-6.68
986.75	10.82
987.176	-4.58
987.603	2.02
988.029	-2.28
988.456	-4.78
988.882	1.42
989.308	-5.18
989.735	-0.08
990.161	-1.48
990.587	-3.08
991.014	4.12
991.44	3.52
991.866	-1.78
992.292	-0.58
992.719	0.72
993.145	2.02
993.571	-5.98
993.997	-3.48
994.423	-2.78
994.849	-5.18
995.275	0.22
995.701	-0.18
996.127	-1.78
996.553	-1.48
996.979	-1.68
997.405	-0.08
997.83	-4.78
998.256	-3.08
998.682	-4.98
999.108	-6.98
999.534	0.42
999.959	-1.98
1000.385	-5.18
1000.811	-5.38
1001.236	-7.88
1001.662	-7.78
1002.087	-6.68
1002.513	0.02
1002.938	-0.48
1003.364	-0.88
1003.789	0.02
1004.215	1.72
1004.64	-4.78
1005.066	5.62
1005.491	0.92
1005.916	-2.28
1006.342	-2.98
1006.767	-13.48
1007.192	7.22
1007.617	0.82
1008.042	-0.98
1008.468	-3.38
1008.893	-0.28
1009.318	-3.78
1009.743	-2.18
1010.168	9.82
1010.593	-5.88
1011.018	-8.88
1011.443	-5.48
1011.868	3.02
1012.293	-0.78
1012.718	-8.18
1013.143	-1.18
1013.567	-0.28
1013.992	-0.08
1014.417	-13.38
1014.842	2.62
1015.267	-8.68
1015.691	-4.48
1016.116	6.72
1016.541	4.02
1016.965	4.82
1017.39	2.32
1017.814	0.22
1018.239	-2.28
1018.663	-10.08
1019.088	-10.88
1019.512	1.72
1019.937	-2.78
1020.361	-4.28
1020.785	-14.38
1021.21	-2.28
1021.634	-1.78
1022.058	0.12
1022.483	7.12
1022.907	1.12
1023.331	-0.48
1023.755	-3.78
1024.179	4.82
1024.604	-4.28
1025.028	-5.58
1025.452	-2.38
1025.876	-1.28
1026.3	5.92
1026.724	-12.28
1027.148	-7.38
1027.572	-6.18
1027.996	-0.58
1028.42	0.92
1028.843	-1.18
1029.267	-1.98
1029.691	-4.58
1030.115	-10.68
1030.539	-5.68
1030.962	-4.48
1031.386	-7.88
1031.81	0.32
1032.233	-0.18
1032.657	-2.08
1033.08	-1.08
1033.504	-6.88
1033.927	-5.58
1034.351	0.52
1034.774	-2.98
1035.198	-7.48
1035.621	-0.18
1036.045	-7.18
1036.468	2.82
1036.891	-8.28
1037.315	-6.08
1037.738	-11.18
1038.161	-3.98
1038.584	-4.08
1039.008	-6.58
1039.431	3.22
1039.854	-5.48
1040.277	-4.18
1040.7	-8.58
1041.123	0.82
1041.546	-10.88
1041.969	-6.48
1042.392	-7.88
1042.815	-3.08
1043.238	0.12
1043.661	2.02
1044.084	-8.58
1044.507	-3.98
1044.93	0.62
1045.352	-5.48
1045.775	-3.08
1046.198	-1.38
1046.621	-7.48
1047.043	-0.08
1047.466	6.82
1047.889	-3.18
1048.311	-3.68
1048.734	-5.38
1049.156	-1.48
1049.579	-2.28
1050.001	0.12
1050.424	0.22
1050.846	1.12
1051.269	-0.48
1051.691	-4.68
1052.113	-3.08
1052.536	-3.88
1052.958	-1.98
1053.38	-4.58
1053.802	-11.08
1054.225	4.12
1054.647	-8.98
1055.069	-4.68
1055.491	4.52
1055.913	-9.48
1056.335	0.82
1056.757	0.42
1057.179	-4.18
1057.601	-1.78
1058.023	-2.38
1058.445	0.12
1058.867	-5.98
1059.289	-3.58
1059.711	-9.38
1060.133	-1.98
1060.555	-2.58
1060.976	-3.08
1061.398	-8.18
1061.82	-6.28
1062.241	-5.68
1062.663	-8.18
1063.085	-1.88
1063.506	-2.68
1063.928	-2.98
1064.35	-3.48
1064.771	-11.88
1065.193	-4.88
1065.614	-6.38
1066.035	0.32
1066.457	-3.48
1066.878	-2.78
1067.3	-5.78
1067.721	-2.78
1068.142	-0.28
1068.564	-2.58
1068.985	-4.18
1069.406	-9.28
1069.827	-8.38
1070.248	-4.08
1070.67	-6.38
1071.091	-2.18
1071.512	-3.18
1071.933	-3.78
1072.354	-6.08
1072.775	-3.98
1073.196	-8.58
1073.617	-0.48
1074.038	-2.48
1074.459	2.72
1074.88	-7.68
1075.3	-1.58
1075.721	-7.68
1076.142	4.92
1076.563	-1.08
1076.983	-11.58
1077.404	-6.78
1077.825	-10.98
1078.246	-4.98
1078.666	-9.28
1079.087	-4.98
1079.507	-3.88
1079.928	0.02
1080.348	-0.88
1080.769	-3.58
1081.189	-1.78
1081.61	-7.88
1082.03	-5.98
1082.451	-4.48
1082.871	-5.78
1083.291	-9.58
1083.711	-8.18
1084.132	-3.18
1084.552	-5.28
1084.972	-2.68
1085.392	-10.28
1085.813	-14.98
1086.233	-2.38
1086.653	-5.38
1087.073	1.72
1087.493	-13.98
1087.913	-3.28
1088.333	-9.98
1088.753	-5.98
1089.173	0.22
1089.593	-4.28
1090.013	-1.28
1090.433	1.12
1090.852	-4.38
1091.272	-6.38
1091.692	-4.68
1092.112	-3.98
1092.531	-7.68
1092.951	-12.58
1093.371	-3.18
1093.79	-3.48
1094.21	-2.18
1094.63	-10.58
1095.049	-8.98
1095.469	-1.98
1095.888	-5.48
1096.308	0.12
1096.727	0.82
1097.146	-5.98
1097.566	-2.38
1097.985	-1.88
1098.405	-4.58
1098.824	-4.08
1099.243	-8.98
1099.662	-5.78
1100.082	-5.68
1100.501	-5.78
1100.92	-5.48
1101.339	-8.08
1101.758	-4.38
