Data from 20171114-ORNL-Ar_H_NY_Subt18_08-05-07-030.txt Node
Date: Tue Nov 14 08:05:07 EST 2017
User: Ender
Spectrometer: HR+D1039
Trigger mode: 0
Integration Time (sec): 2.730000E-2
Scans to average: 10
Electric dark correction enabled: true
Nonlinearity correction enabled: false
Boxcar width: 0
XAxis mode: Wavelengths
Number of Pixels in Spectrum: 2048
>>>>>Begin Spectral Data<<<<<
187.836	-3.01
188.309	-3.01
188.782	-3.01
189.255	2.89
189.728	-1.11
190.201	6.99
190.674	-0.51
191.147	7.49
191.619	-8.21
192.092	0.89
192.565	4.49
193.038	0.19
193.511	0.99
193.984	-2.41
194.456	-3.41
194.929	-4.91
195.402	-4.21
195.874	3.79
196.347	0.09
196.82	-7.91
197.292	9.59
197.765	1.79
198.237	-9.31
198.71	4.79
199.182	-1.91
199.655	0.89
200.127	1.99
200.6	0.09
201.072	-4.21
201.544	-4.11
202.017	-2.21
202.489	1.79
202.961	-2.81
203.433	0.89
203.906	-2.71
204.378	-8.81
204.85	-3.51
205.322	-11.21
205.794	-2.61
206.266	-1.21
206.739	-2.01
207.211	3.59
207.683	-7.51
208.155	-2.11
208.627	-8.61
209.099	1.49
209.57	-4.01
210.042	-6.81
210.514	-4.71
210.986	-2.41
211.458	-5.71
211.93	-13.11
212.402	8.49
212.873	-8.81
213.345	-8.21
213.817	-7.01
214.288	0.59
214.76	-10.31
215.232	-3.81
215.703	2.59
216.175	-4.31
216.646	-8.41
217.118	-8.11
217.589	0.29
218.061	0.39
218.532	-3.91
219.004	1.79
219.475	-0.71
219.946	-4.71
220.418	-4.41
220.889	0.99
221.36	-2.31
221.832	0.89
222.303	-9.01
222.774	-3.21
223.245	-6.21
223.717	-10.21
224.188	-2.81
224.659	-9.41
225.13	-4.51
225.601	-3.61
226.072	4.69
226.543	-7.41
227.014	-3.91
227.485	-0.01
227.956	-5.21
228.427	-2.81
228.898	4.99
229.369	8.99
229.839	-5.01
230.31	-12.41
230.781	4.89
231.252	1.19
231.722	-1.71
232.193	-0.21
232.664	-0.61
233.135	-2.71
233.605	0.49
234.076	-7.91
234.546	4.29
235.017	3.99
235.487	-0.01
235.958	2.09
236.428	-2.51
236.899	6.69
237.369	1.49
237.84	-0.61
238.31	4.79
238.78	7.89
239.251	-0.41
239.721	2.19
240.191	-1.11
240.662	-1.11
241.132	2.99
241.602	-0.11
242.072	8.39
242.542	7.69
243.013	1.39
243.483	0.79
243.953	3.49
244.423	-1.61
244.893	-2.71
245.363	3.59
245.833	5.79
246.303	2.69
246.773	4.69
247.243	1.19
247.712	5.39
248.182	8.89
248.652	5.29
249.122	2.79
249.592	16.09
250.061	24.09
250.531	41.39
251.001	15.59
251.471	22.79
251.94	14.39
252.41	12.09
252.879	4.19
253.349	12.79
253.818	18.49
254.288	7.19
254.757	11.19
255.227	2.59
255.696	4.89
256.166	4.99
256.635	10.09
257.105	13.59
257.574	7.89
258.043	15.69
258.513	15.19
258.982	21.99
259.451	11.19
259.92	15.99
260.389	11.39
260.859	12.19
261.328	5.89
261.797	19.39
262.266	11.59
262.735	15.39
263.204	6.29
263.673	0.39
264.142	11.39
264.611	-3.41
265.08	2.79
265.549	4.49
266.018	12.59
266.487	0.29
266.955	1.09
267.424	0.29
267.893	6.69
268.362	7.29
268.83	1.59
269.299	15.59
269.768	10.69
270.236	6.39
270.705	6.79
271.174	4.79
271.642	9.69
272.111	12.09
272.579	21.79
273.048	20.89
273.516	37.89
273.985	29.49
274.453	29.89
274.922	20.69
275.39	15.79
275.858	11.89
276.327	18.29
276.795	20.69
277.263	12.79
277.731	34.69
278.2	53.29
278.668	68.09
279.136	49.89
279.604	23.99
280.072	17.49
280.54	15.39
281.008	19.79
281.477	18.99
281.945	17.99
282.413	16.39
282.881	20.99
283.348	11.89
283.816	21.49
284.284	19.19
284.752	22.89
285.22	17.49
285.688	18.29
286.156	24.39
286.623	50.59
287.091	54.89
287.559	32.99
288.026	19.09
288.494	27.39
288.962	10.59
289.429	11.79
289.897	18.59
290.364	20.59
290.832	15.29
291.3	22.19
291.767	25.69
292.234	16.79
292.702	22.69
293.169	27.49
293.637	29.69
294.104	22.09
294.571	13.19
295.039	11.19
295.506	19.49
295.973	21.49
296.44	17.79
296.908	12.49
297.375	18.69
297.842	21.89
298.309	21.99
298.776	26.19
299.243	27.19
299.71	18.39
300.177	21.29
300.644	29.79
301.111	28.49
301.578	28.09
302.045	21.39
302.512	20.09
302.979	22.79
303.446	25.99
303.913	19.99
304.379	20.79
304.846	30.79
305.313	27.89
305.78	25.59
306.246	29.79
306.713	29.19
307.18	29.39
307.646	32.49
308.113	34.49
308.579	27.29
309.046	27.19
309.512	32.09
309.979	23.29
310.445	28.29
310.912	33.09
311.378	36.69
311.845	32.69
312.311	36.79
312.777	35.89
313.244	37.29
313.71	39.99
314.176	31.09
314.642	37.39
315.109	32.19
315.575	39.59
316.041	37.89
316.507	33.59
316.973	38.39
317.439	37.39
317.905	34.69
318.371	40.79
318.837	37.19
319.303	32.59
319.769	41.59
320.235	38.89
320.701	35.89
321.167	43.39
321.633	38.19
322.099	38.79
322.564	49.19
323.03	52.49
323.496	40.29
323.962	46.69
324.427	43.99
324.893	49.69
325.359	41.29
325.824	38.19
326.29	39.79
326.755	41.29
327.221	36.89
327.686	42.59
328.152	48.59
328.617	49.59
329.083	53.39
329.548	53.89
330.014	51.49
330.479	43.39
330.944	43.29
331.41	41.89
331.875	45.79
332.34	45.19
332.805	46.29
333.271	55.49
333.736	42.29
334.201	59.09
334.666	54.29
335.131	58.19
335.596	52.69
336.061	51.59
336.526	49.29
336.991	46.89
337.456	58.19
337.921	46.79
338.386	48.59
338.851	50.09
339.316	54.89
339.781	54.59
340.246	52.59
340.711	45.09
341.175	56.69
341.64	52.79
342.105	54.39
342.569	63.29
343.034	62.19
343.499	60.59
343.963	58.09
344.428	71.89
344.893	61.39
345.357	63.99
345.822	60.49
346.286	72.29
346.751	72.89
347.215	76.99
347.679	75.29
348.144	98.39
348.608	86.59
349.073	67.99
349.537	75.39
350.001	85.69
350.465	94.79
350.93	85.19
351.394	86.29
351.858	82.59
352.322	86.29
352.786	91.19
353.25	102.29
353.715	116.39
354.179	100.29
354.643	124.19
355.107	139.39
355.571	109.29
356.035	110.09
356.498	121.09
356.962	128.79
357.426	134.79
357.89	122.49
358.354	92.99
358.818	90.99
359.281	85.39
359.745	78.29
360.209	77.19
360.673	80.09
361.136	85.89
361.6	90.99
362.064	84.69
362.527	87.69
362.991	93.19
363.454	84.09
363.918	86.09
364.381	84.19
364.845	81.49
365.308	84.99
365.772	87.29
366.235	88.19
366.698	86.49
367.162	91.09
367.625	89.89
368.088	86.49
368.552	85.59
369.015	81.79
369.478	97.09
369.941	104.69
370.404	95.39
370.867	107.89
371.331	109.79
371.794	117.69
372.257	108.09
372.72	120.99
373.183	108.09
373.646	105.59
374.109	101.59
374.572	113.39
375.035	105.79
375.497	115.89
375.96	109.69
376.423	106.29
376.886	119.39
377.349	110.79
377.811	109.19
378.274	99.29
378.737	109.99
379.199	117.09
379.662	113.19
380.125	112.39
380.587	120.39
381.05	126.99
381.512	131.49
381.975	138.99
382.437	127.99
382.9	128.89
383.362	134.19
383.825	142.99
384.287	147.69
384.75	144.89
385.212	137.09
385.674	132.99
386.136	134.39
386.599	130.89
387.061	129.59
387.523	131.29
387.985	134.89
388.447	146.29
388.91	143.49
389.372	154.79
389.834	153.09
390.296	149.99
390.758	156.09
391.22	166.29
391.682	207.59
392.144	286.99
392.606	233.69
393.068	172.29
393.529	170.59
393.991	152.99
394.453	141.59
394.915	160.59
395.377	193.99
395.838	214.09
396.3	148.99
396.762	140.59
397.224	136.19
397.685	129.89
398.147	129.09
398.608	128.99
399.07	121.39
399.531	131.39
399.993	141.79
400.454	154.39
400.916	147.99
401.377	141.79
401.839	156.19
402.3	153.29
402.762	162.19
403.223	181.59
403.684	175.39
404.145	158.19
404.607	164.59
405.068	157.69
405.529	168.49
405.99	186.69
406.451	177.99
406.913	176.79
407.374	163.29
407.835	166.39
408.296	171.19
408.757	185.49
409.218	183.69
409.679	175.69
410.14	169.69
410.601	175.09
411.062	181.69
411.522	191.19
411.983	191.29
412.444	178.39
412.905	173.59
413.366	184.09
413.826	193.19
414.287	213.99
414.748	261.19
415.208	252.89
415.669	212.99
416.13	204.49
416.59	199.59
417.051	214.89
417.511	217.49
417.972	230.29
418.432	238.29
418.893	286.79
419.353	250.09
419.814	189.29
420.274	185.09
420.734	179.09
421.195	199.89
421.655	197.19
422.115	192.29
422.576	188.19
423.036	200.69
423.496	210.69
423.956	213.99
424.416	232.59
424.876	269.89
425.336	258.19
425.797	261.79
426.257	256.69
426.717	243.29
427.177	238.89
427.637	228.89
428.097	240.09
428.556	243.99
429.016	262.99
429.476	260.39
429.936	271.99
430.396	281.19
430.856	288.09
431.315	317.39
431.775	349.79
432.235	381.29
432.694	354.49
433.154	357.39
433.614	384.09
434.073	339.69
434.533	282.39
434.993	265.59
435.452	279.19
435.912	294.09
436.371	285.29
436.83	282.69
437.29	266.29
437.749	243.49
438.209	253.29
438.668	274.79
439.127	285.99
439.587	265.79
440.046	254.39
440.505	266.49
440.964	273.19
441.424	316.99
441.883	305.59
442.342	256.29
442.801	222.79
443.26	216.39
443.719	221.99
444.178	220.99
444.637	206.39
445.096	214.39
445.555	221.49
446.014	220.89
446.473	229.49
446.932	228.49
447.391	221.49
447.849	226.39
448.308	213.79
448.767	219.69
449.226	229.89
449.685	223.99
450.143	245.39
450.602	240.39
451.061	227.99
451.519	229.29
451.978	230.99
452.436	236.79
452.895	237.19
453.353	248.89
453.812	233.19
454.27	237.09
454.729	236.59
455.187	240.49
455.646	249.89
456.104	251.59
456.562	265.09
457.021	265.29
457.479	260.59
457.937	274.49
458.395	261.59
458.854	233.59
459.312	254.69
459.77	279.29
460.228	254.49
460.686	234.09
461.144	251.19
461.602	238.39
462.06	242.99
462.518	256.79
462.976	248.89
463.434	255.19
463.892	265.29
464.35	276.19
464.808	281.59
465.266	260.39
465.724	271.29
466.181	269.49
466.639	272.49
467.097	282.99
467.555	303.99
468.012	294.29
468.47	314.09
468.928	319.69
469.385	339.99
469.843	347.59
470.3	345.49
470.758	357.19
471.215	378.59
471.673	412.19
472.13	406.59
472.588	410.09
473.045	361.89
473.503	369.39
473.96	384.39
474.417	399.89
474.875	430.09
475.332	466.69
475.789	455.09
476.246	460.59
476.704	483.29
477.161	502.49
477.618	517.29
478.075	561.29
478.532	605.59
478.989	689.69
479.446	800.89
479.903	778.19
480.36	808.29
480.817	878.79
481.274	963.49
481.731	1067.59
482.188	1161.39
482.645	1295.09
483.102	1408.09
483.558	1561.09
484.015	1612.19
484.472	1580.59
484.929	1526.19
485.385	1480.49
485.842	1434.99
486.299	1365.49
486.755	1296.49
487.212	1090.59
487.668	918.29
488.125	851.29
488.582	779.99
489.038	743.09
489.494	707.69
489.951	676.39
490.407	663.09
490.864	653.39
491.32	649.39
491.776	631.39
492.233	639.69
492.689	602.99
493.145	599.79
493.602	588.49
494.058	606.99
494.514	612.09
494.97	631.99
495.426	636.99
495.882	623.09
496.338	608.39
496.794	622.49
497.251	618.89
497.707	634.39
498.163	629.49
498.618	641.19
499.074	641.09
499.53	680.99
499.986	672.99
500.442	655.49
500.898	630.19
501.354	622.29
501.809	630.39
502.265	635.49
502.721	660.19
503.177	668.09
503.632	662.19
504.088	670.29
504.543	703.69
504.999	706.89
505.455	653.99
505.91	630.09
506.366	626.79
506.821	615.19
507.277	619.79
507.732	617.79
508.187	622.99
508.643	630.59
509.098	634.39
509.553	649.59
510.009	649.99
510.464	667.89
510.919	676.79
511.375	688.99
511.83	698.59
512.285	724.49
512.74	755.39
513.195	782.59
513.65	773.69
514.105	763.39
514.56	771.99
515.015	783.59
515.47	805.09
515.925	790.09
516.38	782.09
516.835	785.09
517.29	771.79
517.745	762.89
518.2	756.09
518.655	744.49
519.109	737.09
519.564	734.89
520.019	727.49
520.474	711.09
520.928	719.49
521.383	710.69
521.838	708.79
522.292	695.89
522.747	700.79
523.201	690.29
523.656	681.79
524.11	678.29
524.565	687.69
525.019	681.39
525.474	702.59
525.928	692.29
526.382	684.29
526.837	692.49
527.291	691.79
527.745	685.59
528.2	688.39
528.654	675.19
529.108	670.79
529.562	686.79
530.016	673.99
530.47	681.59
530.925	681.99
531.379	685.19
531.833	696.89
532.287	691.69
532.741	690.49
533.195	701.49
533.649	705.19
534.103	714.69
534.556	698.79
535.01	701.89
535.464	701.29
535.918	708.79
536.372	701.79
536.826	699.69
537.279	698.79
537.733	700.29
538.187	705.29
538.64	703.79
539.094	711.29
539.548	721.59
540.001	721.89
540.455	706.69
540.908	713.69
541.362	725.49
541.815	732.19
542.269	740.19
542.722	747.99
543.175	760.79
543.629	755.39
544.082	773.29
544.536	778.29
544.989	771.99
545.442	775.59
545.895	770.59
546.349	771.89
546.802	779.59
547.255	787.19
547.708	786.39
548.161	801.39
548.614	801.99
549.067	815.99
549.52	809.09
549.973	798.69
550.426	796.49
550.879	776.29
551.332	775.29
551.785	788.99
552.238	790.39
552.691	796.19
553.144	817.39
553.596	829.99
554.049	844.99
554.502	875.59
554.955	888.89
555.407	893.89
555.86	874.39
556.313	876.29
556.765	858.79
557.218	865.29
557.67	863.59
558.123	854.49
558.576	848.09
559.028	863.19
559.48	851.79
559.933	850.69
560.385	816.99
560.838	787.09
561.29	766.89
561.742	765.49
562.195	757.39
562.647	735.19
563.099	747.29
563.551	754.49
564.004	758.59
564.456	752.59
564.908	741.09
565.36	733.09
565.812	712.29
566.264	706.69
566.716	706.99
567.168	694.49
567.62	701.59
568.072	679.39
568.524	677.29
568.976	669.89
569.428	659.99
569.88	652.39
570.332	655.69
570.784	656.99
571.235	654.79
571.687	674.89
572.139	683.19
572.59	685.79
573.042	692.39
573.494	686.59
573.945	687.19
574.397	670.69
574.849	676.39
575.3	673.59
575.752	664.79
576.203	659.39
576.655	666.59
577.106	645.99
577.557	641.89
578.009	646.69
578.46	643.99
578.912	636.89
579.363	653.49
579.814	648.89
580.265	630.89
580.717	647.29
581.168	642.09
581.619	655.29
582.07	659.59
582.521	644.39
582.972	642.79
583.423	645.99
583.875	665.49
584.326	679.89
584.777	721.69
585.227	792.19
585.678	874.89
586.129	957.99
586.58	1038.29
587.031	1118.69
587.482	1262.39
587.933	1448.39
588.384	1261.19
588.834	938.49
589.285	767.09
589.736	752.49
590.186	737.49
590.637	735.99
591.088	723.69
591.538	707.09
591.989	695.99
592.439	693.69
592.89	692.09
593.34	684.49
593.791	683.19
594.241	673.99
594.692	677.59
595.142	677.39
595.593	674.99
596.043	668.19
596.493	679.39
596.943	685.39
597.394	702.79
597.844	687.19
598.294	697.79
598.744	712.59
599.195	734.59
599.645	778.99
600.095	814.39
600.545	870.19
600.995	911.99
601.445	981.49
601.895	1041.69
602.345	1072.99
602.795	1070.49
603.245	1026.69
603.695	965.19
604.145	915.29
604.594	869.89
605.044	825.19
605.494	760.29
605.944	719.79
606.393	709.59
606.843	694.09
607.293	695.69
607.743	694.99
608.192	707.89
608.642	719.99
609.091	729.09
609.541	726.19
609.99	739.39
610.44	726.69
610.889	691.49
611.339	676.49
611.788	651.79
612.238	655.69
612.687	683.89
613.136	678.09
613.586	695.69
614.035	710.29
614.484	729.59
614.933	715.69
615.383	708.99
615.832	702.39
616.281	687.59
616.73	652.09
617.179	632.89
617.628	612.09
618.077	601.99
618.526	590.59
618.975	589.29
619.424	577.49
619.873	571.99
620.322	573.79
620.771	571.19
621.22	567.49
621.669	567.99
622.118	550.99
622.567	546.59
623.015	537.39
623.464	538.39
623.913	523.69
624.361	527.89
624.81	518.89
625.259	522.49
625.707	523.59
626.156	520.39
626.604	538.39
627.053	526.49
627.501	537.19
627.95	537.09
628.398	539.79
628.847	537.59
629.295	535.99
629.744	545.29
630.192	542.29
630.64	529.79
631.089	539.09
631.537	545.99
631.985	552.59
632.433	560.39
632.881	575.79
633.33	613.69
633.778	589.79
634.226	530.49
634.674	529.49
635.122	540.19
635.57	559.29
636.018	591.49
636.466	548.29
636.914	525.19
637.362	540.39
637.81	537.59
638.258	545.49
638.705	541.89
639.153	568.59
639.601	584.99
640.049	597.09
640.497	628.69
640.944	647.49
641.392	603.29
641.84	569.19
642.287	542.19
642.735	532.79
643.182	531.69
643.63	535.89
644.078	550.29
644.525	551.59
644.973	564.29
645.42	562.89
645.867	584.09
646.315	594.89
646.762	618.29
647.21	645.69
647.657	668.29
648.104	705.59
648.551	724.09
648.999	783.99
649.446	857.39
649.893	942.69
650.34	1076.29
650.787	1294.19
651.234	1614.29
651.682	2106.09
652.129	2864.09
652.576	4124.69
653.023	6076.69
653.47	8372.19
653.917	10568.69
654.363	12315.49
654.81	13736.59
655.257	13060.89
655.704	8536.79
656.151	5034.69
656.598	3254.29
657.044	2298.09
657.491	1749.99
657.938	1408.79
658.385	1168.99
658.831	1013.49
659.278	904.89
659.724	800.79
660.171	739.09
660.618	679.19
661.064	652.79
661.511	617.29
661.957	615.19
662.404	599.69
662.85	604.79
663.296	577.79
663.743	514.69
664.189	496.79
664.635	501.29
665.082	493.19
665.528	492.09
665.974	475.99
666.42	472.59
666.867	474.09
667.313	452.69
667.759	445.39
668.205	446.89
668.651	453.99
669.097	451.39
669.543	475.59
669.989	443.59
670.435	416.99
670.881	420.29
671.327	418.29
671.773	435.19
672.219	455.69
672.665	504.39
673.11	538.39
673.556	579.09
674.002	614.09
674.448	607.59
674.893	509.79
675.339	444.99
675.785	406.89
676.23	386.89
676.676	365.79
677.122	353.59
677.567	348.39
678.013	334.39
678.458	327.79
678.904	328.79
679.349	319.39
679.794	316.89
680.24	320.69
680.685	324.29
681.131	318.49
681.576	320.89
682.021	324.89
682.466	317.99
682.912	316.99
683.357	321.69
683.802	351.99
684.247	372.29
684.692	419.69
685.137	450.89
685.583	495.59
686.028	521.29
686.473	475.19
686.918	406.59
687.363	387.69
687.807	363.59
688.252	324.79
688.697	326.19
689.142	311.39
689.587	305.69
690.032	289.29
690.477	316.59
690.921	327.39
691.366	349.79
691.811	366.59
692.255	396.19
692.7	423.49
693.145	460.29
693.589	624.79
694.034	1014.59
694.478	1390.99
694.923	1594.69
695.367	2107.99
695.812	1096.49
696.256	459.89
696.701	350.09
697.145	319.69
697.59	307.69
698.034	297.59
698.478	297.99
698.922	299.49
699.367	303.49
699.811	312.69
700.255	322.59
700.699	351.09
701.143	392.29
701.588	445.59
702.032	470.29
702.476	467.49
702.92	450.19
703.364	452.89
703.808	566.39
704.252	920.79
704.696	1316.49
705.14	1540.39
705.584	1985.29
706.027	982.39
706.471	478.69
706.915	374.09
707.359	321.69
707.803	294.29
708.246	279.59
708.69	290.09
709.134	294.39
709.577	275.79
710.021	288.89
710.465	280.59
710.908	276.89
711.352	267.89
711.795	277.89
712.239	314.19
712.682	352.09
713.126	379.09
713.569	432.69
714.012	337.69
714.456	295.29
714.899	272.99
715.342	247.79
715.786	237.39
716.229	236.59
716.672	230.99
717.115	223.19
717.558	229.49
718.002	229.29
718.445	240.89
718.888	256.29
719.331	268.59
719.774	283.89
720.217	277.79
720.66	262.69
721.103	243.99
721.546	230.69
721.989	226.89
722.432	210.99
722.874	226.89
723.317	207.69
723.76	217.99
724.203	227.39
724.645	288.19
725.088	398.09
725.531	520.69
725.974	587.19
726.416	505.99
726.859	283.49
727.301	220.59
727.744	216.29
728.187	218.69
728.629	216.59
729.071	219.79
729.514	241.19
729.956	247.79
730.399	250.79
730.841	263.39
731.283	245.89
731.726	240.69
732.168	231.79
732.61	245.39
733.053	260.29
733.495	273.39
733.937	320.19
734.379	364.59
734.821	393.99
735.263	479.99
735.705	738.49
736.148	1392.99
736.59	2330.09
737.032	2815.69
737.474	2298.19
737.916	739.19
738.357	392.19
738.799	296.29
739.241	265.19
739.683	257.69
740.125	264.39
740.567	269.69
741.008	290.19
741.45	292.09
741.892	287.09
742.334	315.09
742.775	318.59
743.217	317.19
743.658	243.69
744.1	234.19
744.542	238.29
744.983	282.49
745.425	316.59
745.866	312.99
746.307	262.09
746.749	262.59
747.19	294.19
747.632	403.69
748.073	774.59
748.514	1637.79
748.956	2585.49
749.397	3241.29
749.838	2690.39
750.279	2748.79
750.72	1372.89
751.162	496.39
751.603	295.49
752.044	226.79
752.485	198.39
752.926	185.69
753.367	180.59
753.808	169.49
754.249	165.29
754.69	164.29
755.131	168.39
755.572	162.09
756.013	162.29
756.453	165.19
756.894	169.89
757.335	175.29
757.776	170.99
758.216	183.09
758.657	179.79
759.098	187.19
759.538	198.49
759.979	241.79
760.42	335.79
760.86	617.29
761.301	1599.79
761.741	3952.99
762.182	5987.29
762.622	4220.29
763.063	1205.39
763.503	489.89
763.943	304.29
764.384	305.19
764.824	362.89
765.264	408.09
765.705	280.99
766.145	187.09
766.585	170.29
767.025	159.79
767.465	168.29
767.906	216.19
768.346	287.69
768.786	310.09
769.226	230.29
769.666	285.59
770.106	544.19
770.546	1363.79
770.986	2422.49
771.426	2195.79
771.866	721.99
772.306	297.29
772.745	189.09
773.185	156.59
773.625	153.19
774.065	153.99
774.505	187.09
774.944	270.59
775.384	619.69
775.824	1160.79
776.263	1131.49
776.703	472.09
777.142	202.39
777.582	143.09
778.021	126.29
778.461	124.09
778.9	129.29
779.34	121.79
779.779	105.79
780.219	95.69
780.658	101.49
781.097	104.79
781.537	100.19
781.976	100.69
782.415	99.19
782.855	91.99
783.294	91.29
783.733	96.59
784.172	102.89
784.611	95.69
785.05	96.19
785.489	104.89
785.928	109.69
786.367	107.19
786.806	114.29
787.245	118.09
787.684	120.89
788.123	135.39
788.562	124.29
789.001	118.19
789.44	100.39
789.879	104.09
790.317	106.19
790.756	120.79
791.195	118.79
791.634	142.19
792.072	185.69
792.511	317.49
792.95	884.59
793.388	1956.69
793.827	1810.49
794.265	616.89
794.704	260.59
795.142	167.39
795.581	137.49
796.019	119.39
796.458	112.39
796.896	106.49
797.334	116.09
797.773	143.29
798.211	200.69
798.649	379.49
799.087	897.09
799.526	1443.39
799.964	1829.49
800.402	1867.59
800.84	693.99
801.278	263.59
801.716	165.69
802.154	138.29
802.592	135.59
803.03	128.79
803.468	122.09
803.906	129.79
804.344	132.99
804.782	122.09
805.22	120.39
805.658	115.19
806.096	133.99
806.533	148.19
806.971	158.89
807.409	196.09
807.847	278.19
808.284	581.79
808.722	1646.49
809.16	3015.89
809.597	2786.19
810.035	4911.59
810.472	5403.09
810.91	1917.79
811.347	728.69
811.785	370.09
812.222	227.79
812.66	177.19
813.097	142.59
813.535	129.99
813.972	116.39
814.409	110.99
814.846	93.39
815.284	104.49
815.721	87.29
816.158	95.79
816.595	103.49
817.032	159.29
817.47	188.79
817.907	148.79
818.344	135.79
818.781	107.59
819.218	93.19
819.655	110.49
820.092	168.39
820.529	199.39
820.966	161.79
821.403	123.69
821.839	94.59
822.276	94.19
822.713	108.69
823.15	123.49
823.587	105.29
824.023	129.09
824.46	258.69
824.897	807.39
825.333	1243.69
825.77	534.89
826.206	211.59
826.643	115.39
827.08	93.49
827.516	68.79
827.953	73.69
828.389	72.69
828.825	63.99
829.262	63.89
829.698	57.09
830.135	59.19
830.571	52.09
831.007	59.89
831.443	55.09
831.88	54.79
832.316	51.59
832.752	53.49
833.188	56.99
833.624	56.49
834.06	60.29
834.497	62.89
834.933	63.29
835.369	70.09
835.805	58.69
836.241	70.49
836.677	71.79
837.112	81.99
837.548	90.99
837.984	114.99
838.42	179.49
838.856	430.29
839.292	1350.59
839.727	2129.69
840.163	981.09
840.599	820.89
841.034	1832.79
841.47	1987.39
841.906	720.49
842.341	300.09
842.777	207.89
843.212	292.29
843.648	292.09
844.083	146.69
844.519	82.49
844.954	67.99
845.39	55.89
845.825	57.89
846.261	55.19
846.696	48.79
847.131	50.79
847.566	58.59
848.002	48.69
848.437	47.89
848.872	59.19
849.307	53.09
849.742	76.39
850.177	151.49
850.613	497.39
851.048	808.59
851.483	348.59
851.918	137.39
852.353	79.29
852.788	54.89
853.223	51.59
853.657	49.59
854.092	40.89
854.527	33.69
854.962	38.09
855.397	43.89
855.832	42.69
856.266	33.79
856.701	36.89
857.136	32.29
857.57	42.19
858.005	42.49
858.44	60.89
858.874	38.79
859.309	50.29
859.743	36.79
860.178	42.39
860.612	32.59
861.047	45.39
861.481	64.89
861.915	63.29
862.35	45.29
862.784	30.69
863.218	33.49
863.653	31.39
864.087	34.19
864.521	48.89
864.955	58.59
865.39	134.69
865.824	155.59
866.258	106.19
866.692	149.79
867.126	170.39
867.56	95.69
867.994	52.59
868.428	31.89
868.862	39.59
869.296	48.69
869.73	56.19
870.164	44.99
870.598	39.49
871.031	32.29
871.465	24.39
871.899	30.09
872.333	23.99
872.766	23.39
873.2	21.69
873.634	28.49
874.067	23.19
874.501	27.39
874.935	31.99
875.368	25.99
875.802	24.29
876.235	24.39
876.669	22.69
877.102	18.39
877.535	21.99
877.969	20.49
878.402	20.19
878.836	16.59
879.269	20.49
879.702	24.49
880.135	14.29
880.569	23.89
881.002	23.39
881.435	20.89
881.868	20.09
882.301	23.49
882.734	18.89
883.167	22.19
883.601	14.09
884.034	17.39
884.467	14.39
884.899	21.69
885.332	13.29
885.765	15.59
886.198	10.49
886.631	17.19
887.064	16.19
887.497	16.99
887.929	21.29
888.362	15.39
888.795	15.29
889.228	19.29
889.66	22.49
890.093	17.69
890.526	13.39
890.958	11.89
891.391	20.99
891.823	14.99
892.256	14.19
892.688	12.39
893.121	21.29
893.553	19.49
893.985	14.49
894.418	18.99
894.85	11.19
895.282	13.89
895.715	14.09
896.147	14.59
896.579	8.09
897.011	10.79
897.444	16.49
897.876	14.39
898.308	20.39
898.74	18.19
899.172	10.39
899.604	23.89
900.036	18.29
900.468	14.59
900.9	12.69
901.332	23.89
901.764	9.19
902.196	18.69
902.628	13.19
903.06	19.39
903.491	24.49
903.923	21.19
904.355	18.79
904.787	25.29
905.218	24.89
905.65	21.69
906.082	13.89
906.513	11.89
906.945	20.19
907.376	11.39
907.808	21.89
908.239	19.19
908.671	20.49
909.102	16.59
909.534	23.29
909.965	38.79
910.397	79.89
910.828	282.59
911.259	438.69
911.691	207.09
912.122	95.29
912.553	39.29
912.984	33.69
913.415	26.09
913.847	25.29
914.278	19.49
914.709	14.09
915.14	11.49
915.571	15.99
916.002	9.79
916.433	17.49
916.864	10.09
917.295	8.79
917.726	19.89
918.157	13.19
918.587	30.19
919.018	16.09
919.449	21.79
919.88	18.39
920.311	24.59
920.741	38.39
921.172	151.09
921.603	137.99
922.033	60.89
922.464	39.29
922.895	12.79
923.325	14.29
923.756	13.49
924.186	10.49
924.617	29.09
925.047	38.49
925.478	54.09
925.908	38.89
926.338	24.49
926.769	14.29
927.199	20.59
927.629	4.59
928.06	15.89
928.49	10.29
928.92	11.89
929.35	11.49
929.78	8.39
930.21	5.29
930.641	1.79
931.071	5.89
931.501	-2.41
931.931	8.29
932.361	9.39
932.791	-2.21
933.221	4.39
933.651	5.39
934.08	14.79
934.51	29.39
934.94	9.79
935.37	3.39
935.8	6.99
936.229	2.49
936.659	4.29
937.089	3.19
937.519	11.69
937.948	23.79
938.378	13.39
938.807	4.29
939.237	2.69
939.666	4.69
940.096	-3.71
940.525	4.79
940.955	4.29
941.384	2.89
941.814	-4.71
942.243	-4.51
942.672	4.09
943.102	-0.71
943.531	1.29
943.96	1.99
944.39	3.39
944.819	-1.01
945.248	1.29
945.677	3.99
946.106	5.39
946.535	9.59
946.964	-1.11
947.393	3.39
947.822	2.49
948.251	-3.01
948.68	-0.41
949.109	6.49
949.538	7.29
949.967	0.89
950.396	4.19
950.825	-4.91
951.254	-2.71
951.682	-9.11
952.111	2.79
952.54	8.99
952.969	-1.91
953.397	-9.81
953.826	-1.01
954.254	-4.61
954.683	3.29
955.112	-1.01
955.54	-3.41
955.969	0.29
956.397	-3.21
956.826	-0.01
957.254	5.69
957.682	-4.81
958.111	7.79
958.539	1.09
958.967	2.99
959.396	-1.71
959.824	0.59
960.252	-2.31
960.68	-3.81
961.109	-6.11
961.537	-2.81
961.965	-3.01
962.393	-2.01
962.821	-8.01
963.249	-1.01
963.677	2.09
964.105	-3.81
964.533	38.09
964.961	32.59
965.389	20.69
965.817	11.19
966.245	1.29
966.672	-1.11
967.1	-8.51
967.528	-2.61
967.956	-9.61
968.383	2.49
968.811	-0.11
969.239	0.29
969.666	-1.01
970.094	0.89
970.522	-2.51
970.949	-4.61
971.377	0.49
971.804	3.19
972.232	-1.11
972.659	-2.91
973.087	0.29
973.514	-0.21
973.941	-1.41
974.369	3.49
974.796	3.09
975.223	-3.11
975.651	-0.01
976.078	1.79
976.505	-5.81
976.932	3.79
977.359	11.69
977.786	6.29
978.214	0.59
978.641	-5.01
979.068	0.29
979.495	-5.01
979.922	-2.81
980.349	-6.51
980.776	1.59
981.202	-5.21
981.629	10.39
982.056	6.79
982.483	-5.71
982.91	5.99
983.337	-10.61
983.763	6.29
984.19	-6.11
984.617	-1.91
985.043	-8.01
985.47	-3.21
985.897	-3.91
986.323	-9.11
986.75	4.29
987.176	9.49
987.603	-3.41
988.029	-5.21
988.456	-0.61
988.882	3.29
989.308	-7.21
989.735	-4.91
990.161	1.39
990.587	-3.11
991.014	-4.11
991.44	7.99
991.866	2.19
992.292	-5.31
992.719	-4.11
993.145	1.19
993.571	-5.41
993.997	-8.51
994.423	-5.21
994.849	-1.41
995.275	2.89
995.701	-3.21
996.127	-2.71
996.553	7.19
996.979	-5.01
997.405	-3.01
997.83	-0.21
998.256	-4.81
998.682	-5.71
999.108	-5.21
999.534	-0.81
999.959	-2.21
1000.385	-0.31
1000.811	2.09
1001.236	-9.31
1001.662	-8.11
1002.087	-5.81
1002.513	1.09
1002.938	3.69
1003.364	-2.61
1003.789	-1.31
1004.215	2.99
1004.64	4.99
1005.066	4.09
1005.491	-0.11
1005.916	4.79
1006.342	-3.81
1006.767	-7.81
1007.192	7.29
1007.617	-3.31
1008.042	-4.61
1008.468	-6.01
1008.893	-3.71
1009.318	-2.01
1009.743	-4.51
1010.168	2.69
1010.593	2.99
1011.018	-9.71
1011.443	-3.41
1011.868	1.69
1012.293	-2.81
1012.718	-6.91
1013.143	-2.91
1013.567	-3.21
1013.992	-4.61
1014.417	-12.51
1014.842	-1.91
1015.267	-1.11
1015.691	-6.91
1016.116	4.49
1016.541	-3.61
1016.965	1.49
1017.39	3.49
1017.814	1.99
1018.239	-1.41
1018.663	-6.11
1019.088	-8.81
1019.512	-5.41
1019.937	2.99
1020.361	-0.61
1020.785	-9.31
1021.21	-7.21
1021.634	-1.21
1022.058	3.39
1022.483	2.69
1022.907	-4.71
1023.331	-5.01
1023.755	-1.81
1024.179	1.59
1024.604	-6.91
1025.028	-6.01
1025.452	-2.61
1025.876	1.39
1026.3	0.79
1026.724	-9.01
1027.148	-5.11
1027.572	-6.21
1027.996	-4.01
1028.42	-1.21
1028.843	-5.81
1029.267	-0.01
1029.691	-0.21
1030.115	-8.81
1030.539	-4.01
1030.962	-5.71
1031.386	-5.91
1031.81	0.39
1032.233	0.89
1032.657	2.19
1033.08	-1.11
1033.504	-7.51
1033.927	-6.31
1034.351	1.09
1034.774	-4.31
1035.198	1.19
1035.621	-4.01
1036.045	-4.61
1036.468	4.99
1036.891	-7.01
1037.315	-12.21
1037.738	-7.91
1038.161	5.29
1038.584	-2.61
1039.008	-1.11
1039.431	-4.21
1039.854	-3.41
1040.277	-8.01
1040.7	-6.71
1041.123	-1.91
1041.546	-13.81
1041.969	-5.61
1042.392	-8.81
1042.815	1.59
1043.238	-5.41
1043.661	3.89
1044.084	-6.21
1044.507	-3.91
1044.93	-6.61
1045.352	-6.61
1045.775	-4.91
1046.198	-3.91
1046.621	1.29
1047.043	1.19
1047.466	11.79
1047.889	-2.51
1048.311	-1.81
1048.734	-2.81
1049.156	-7.51
1049.579	-2.11
1050.001	-7.11
1050.424	-0.61
1050.846	-4.81
1051.269	-0.31
1051.691	-5.41
1052.113	-7.41
1052.536	-1.91
1052.958	0.59
1053.38	4.59
1053.802	-15.11
1054.225	4.89
1054.647	-8.31
1055.069	-7.81
1055.491	4.49
1055.913	-1.41
1056.335	1.79
1056.757	-0.81
1057.179	-1.01
1057.601	-1.51
1058.023	1.39
1058.445	-2.61
1058.867	-2.71
1059.289	-5.71
1059.711	-3.21
1060.133	-7.51
1060.555	-5.31
1060.976	-1.21
1061.398	-8.81
1061.82	-3.31
1062.241	-4.81
1062.663	-7.51
1063.085	-8.41
1063.506	-0.51
1063.928	-0.91
1064.35	-6.81
1064.771	-7.31
1065.193	-3.71
1065.614	-6.71
1066.035	-5.41
1066.457	-1.11
1066.878	2.29
1067.3	-3.11
1067.721	-3.11
1068.142	-2.71
1068.564	2.59
1068.985	-3.41
1069.406	-1.71
1069.827	-6.71
1070.248	1.19
1070.67	-10.91
1071.091	-7.91
1071.512	3.49
1071.933	-8.01
1072.354	-8.81
1072.775	-6.71
1073.196	-10.31
1073.617	-4.01
1074.038	-2.21
1074.459	-5.21
1074.88	-4.91
1075.3	-0.21
1075.721	-8.31
1076.142	-5.91
1076.563	1.09
1076.983	-8.41
1077.404	-7.31
1077.825	-11.91
1078.246	-4.91
1078.666	-9.11
1079.087	-3.71
1079.507	-1.11
1079.928	1.79
1080.348	-0.51
1080.769	-5.41
1081.189	-1.71
1081.61	-4.91
1082.03	-7.51
1082.451	-9.71
1082.871	-4.01
1083.291	-5.51
1083.711	-8.51
1084.132	-6.21
1084.552	-4.11
1084.972	0.99
1085.392	-0.51
1085.813	-11.21
1086.233	-13.71
1086.653	-8.01
1087.073	-1.71
1087.493	-8.41
1087.913	-7.01
1088.333	-1.51
1088.753	-7.01
1089.173	2.39
1089.593	-9.51
1090.013	0.29
1090.433	-2.01
1090.852	-1.71
1091.272	-1.11
1091.692	-0.61
1092.112	-1.41
1092.531	-10.51
1092.951	-10.81
1093.371	-1.61
1093.79	4.49
1094.21	-3.71
1094.63	-1.41
1095.049	-4.01
1095.469	-4.31
1095.888	-1.61
1096.308	1.89
1096.727	0.99
1097.146	-4.11
1097.566	7.59
1097.985	-3.41
1098.405	-2.71
1098.824	-4.31
1099.243	-9.21
1099.662	-10.71
1100.082	-5.91
1100.501	-3.91
1100.92	-9.11
1101.339	-3.81
1101.758	-9.81
