Data from 20171114-ORNL-Ar_H_NY_Subt18_08-08-15-930.txt Node
Date: Tue Nov 14 08:08:15 EST 2017
User: Ender
Spectrometer: HR+D1039
Trigger mode: 0
Integration Time (sec): 2.730000E-2
Scans to average: 10
Electric dark correction enabled: true
Nonlinearity correction enabled: false
Boxcar width: 0
XAxis mode: Wavelengths
Number of Pixels in Spectrum: 2048
>>>>>Begin Spectral Data<<<<<
187.836	-7.37
188.309	-7.37
188.782	-7.37
189.255	1.03
189.728	1.43
190.201	7.33
190.674	3.53
191.147	-1.37
191.619	-5.47
192.092	-0.97
192.565	4.73
193.038	-1.77
193.511	-3.67
193.984	-0.37
194.456	2.63
194.929	4.03
195.402	-2.17
195.874	-1.57
196.347	-7.47
196.82	-7.67
197.292	5.83
197.765	-0.67
198.237	-4.47
198.71	5.63
199.182	-1.07
199.655	0.13
200.127	5.13
200.6	-0.87
201.072	2.73
201.544	-4.27
202.017	-1.77
202.489	2.13
202.961	-6.47
203.433	-2.57
203.906	-11.17
204.378	-7.07
204.85	-6.27
205.322	-2.97
205.794	-1.27
206.266	0.23
206.739	-9.27
207.211	3.93
207.683	-10.87
208.155	-8.67
208.627	-3.97
209.099	-8.97
209.57	-8.17
210.042	-4.37
210.514	-2.77
210.986	3.63
211.458	-8.07
211.93	0.73
212.402	-1.17
212.873	-4.07
213.345	-9.47
213.817	-13.07
214.288	-4.87
214.76	-6.97
215.232	-6.37
215.703	-4.67
216.175	-2.07
216.646	-2.27
217.118	-6.47
217.589	-3.67
218.061	-2.37
218.532	-5.27
219.004	-4.17
219.475	-5.47
219.946	-2.37
220.418	-1.67
220.889	-2.77
221.36	0.63
221.832	-6.27
222.303	-8.27
222.774	0.83
223.245	-10.37
223.717	-6.77
224.188	-2.47
224.659	-4.67
225.13	-10.97
225.601	-3.77
226.072	4.53
226.543	-1.57
227.014	1.13
227.485	-1.57
227.956	-4.57
228.427	0.93
228.898	-2.67
229.369	2.73
229.839	-4.27
230.31	-8.97
230.781	1.73
231.252	-2.77
231.722	-1.87
232.193	2.83
232.664	2.33
233.135	0.93
233.605	-0.17
234.076	-4.97
234.546	-0.97
235.017	9.33
235.487	-0.47
235.958	-2.07
236.428	-4.77
236.899	1.03
237.369	5.23
237.84	-5.37
238.31	8.83
238.78	1.83
239.251	6.93
239.721	6.13
240.191	2.33
240.662	-4.97
241.132	0.23
241.602	-3.07
242.072	1.03
242.542	8.33
243.013	0.13
243.483	2.73
243.953	2.43
244.423	-0.27
244.893	-1.57
245.363	7.53
245.833	3.13
246.303	4.73
246.773	4.23
247.243	-0.97
247.712	6.03
248.182	1.53
248.652	7.13
249.122	-3.37
249.592	11.63
250.061	20.63
250.531	26.43
251.001	17.33
251.471	22.13
251.94	20.93
252.41	3.33
252.879	1.33
253.349	17.83
253.818	11.43
254.288	5.73
254.757	2.73
255.227	-0.87
255.696	3.53
256.166	5.53
256.635	7.33
257.105	11.13
257.574	5.53
258.043	5.23
258.513	9.63
258.982	14.63
259.451	5.63
259.92	11.73
260.389	11.43
260.859	17.33
261.328	15.33
261.797	12.73
262.266	5.53
262.735	13.23
263.204	9.23
263.673	0.23
264.142	7.23
264.611	0.33
265.08	6.63
265.549	9.53
266.018	0.03
266.487	-3.37
266.955	-6.47
267.424	-0.97
267.893	5.83
268.362	-1.47
268.83	5.93
269.299	12.83
269.768	10.03
270.236	7.53
270.705	3.53
271.174	0.73
271.642	10.23
272.111	11.73
272.579	12.73
273.048	23.33
273.516	24.13
273.985	26.23
274.453	21.83
274.922	19.43
275.39	10.13
275.858	9.43
276.327	14.33
276.795	14.93
277.263	15.33
277.731	23.73
278.2	56.43
278.668	57.23
279.136	44.13
279.604	20.63
280.072	17.73
280.54	12.93
281.008	15.23
281.477	16.83
281.945	12.93
282.413	19.13
282.881	15.33
283.348	8.33
283.816	15.83
284.284	11.83
284.752	20.23
285.22	6.63
285.688	16.83
286.156	10.43
286.623	48.73
287.091	52.43
287.559	23.23
288.026	14.93
288.494	16.93
288.962	5.73
289.429	7.23
289.897	14.63
290.364	9.13
290.832	19.03
291.3	10.53
291.767	22.73
292.234	16.33
292.702	10.03
293.169	19.43
293.637	16.23
294.104	17.83
294.571	5.73
295.039	15.33
295.506	12.23
295.973	20.33
296.44	12.03
296.908	21.03
297.375	21.53
297.842	22.53
298.309	15.73
298.776	12.03
299.243	20.83
299.71	13.43
300.177	20.33
300.644	20.43
301.111	24.73
301.578	21.43
302.045	21.93
302.512	19.73
302.979	23.23
303.446	22.13
303.913	19.63
304.379	16.73
304.846	26.13
305.313	18.23
305.78	19.33
306.246	28.53
306.713	24.43
307.18	32.43
307.646	20.43
308.113	26.63
308.579	24.23
309.046	27.03
309.512	24.53
309.979	17.33
310.445	27.53
310.912	31.23
311.378	28.53
311.845	32.23
312.311	28.43
312.777	33.93
313.244	29.13
313.71	35.13
314.176	32.43
314.642	28.13
315.109	29.63
315.575	33.03
316.041	44.83
316.507	33.23
316.973	39.03
317.439	36.33
317.905	39.73
318.371	33.33
318.837	30.33
319.303	32.43
319.769	32.53
320.235	29.83
320.701	32.33
321.167	36.23
321.633	33.33
322.099	38.83
322.564	45.73
323.03	39.83
323.496	44.23
323.962	40.63
324.427	40.53
324.893	35.83
325.359	39.23
325.824	35.73
326.29	31.53
326.755	32.13
327.221	42.23
327.686	39.13
328.152	45.63
328.617	40.43
329.083	43.73
329.548	51.83
330.014	45.63
330.479	42.93
330.944	38.23
331.41	44.63
331.875	40.33
332.34	44.83
332.805	41.63
333.271	46.03
333.736	46.23
334.201	50.33
334.666	50.43
335.131	53.93
335.596	46.23
336.061	48.23
336.526	44.53
336.991	46.13
337.456	57.63
337.921	45.33
338.386	41.13
338.851	49.53
339.316	40.93
339.781	43.83
340.246	55.33
340.711	47.03
341.175	49.33
341.64	44.13
342.105	55.33
342.569	58.53
343.034	55.63
343.499	56.23
343.963	56.13
344.428	62.23
344.893	61.33
345.357	61.83
345.822	62.13
346.286	66.13
346.751	71.53
347.215	73.03
347.679	72.03
348.144	97.63
348.608	77.93
349.073	67.23
349.537	70.63
350.001	73.43
350.465	94.33
350.93	79.03
351.394	80.23
351.858	68.23
352.322	85.33
352.786	85.93
353.25	109.73
353.715	111.53
354.179	98.93
354.643	125.63
355.107	129.33
355.571	110.43
356.035	98.93
356.498	120.43
356.962	128.93
357.426	132.63
357.89	113.03
358.354	90.23
358.818	85.13
359.281	74.03
359.745	77.73
360.209	75.93
360.673	77.53
361.136	76.93
361.6	85.53
362.064	87.93
362.527	86.23
362.991	97.03
363.454	83.03
363.918	77.13
364.381	81.33
364.845	84.33
365.308	82.53
365.772	88.53
366.235	85.93
366.698	87.03
367.162	88.73
367.625	89.73
368.088	93.13
368.552	92.23
369.015	92.33
369.478	85.93
369.941	102.93
370.404	93.03
370.867	104.83
371.331	108.13
371.794	117.03
372.257	110.13
372.72	112.63
373.183	115.73
373.646	99.83
374.109	100.93
374.572	109.63
375.035	110.93
375.497	115.73
375.96	104.23
376.423	109.23
376.886	113.83
377.349	113.43
377.811	102.03
378.274	109.43
378.737	106.53
379.199	116.53
379.662	109.73
380.125	115.23
380.587	122.73
381.05	123.03
381.512	129.43
381.975	136.33
382.437	138.63
382.9	130.03
383.362	133.63
383.825	139.33
384.287	151.23
384.75	139.53
385.212	147.03
385.674	145.73
386.136	138.33
386.599	127.73
387.061	129.33
387.523	131.03
387.985	138.23
388.447	142.23
388.91	154.73
389.372	162.83
389.834	160.23
390.296	152.43
390.758	159.43
391.22	176.93
391.682	221.23
392.144	314.23
392.606	234.43
393.068	171.23
393.529	165.83
393.991	158.03
394.453	153.53
394.915	161.03
395.377	202.33
395.838	227.53
396.3	157.83
396.762	145.03
397.224	136.43
397.685	131.73
398.147	133.93
398.608	133.23
399.07	126.83
399.531	144.23
399.993	145.53
400.454	158.93
400.916	143.33
401.377	144.33
401.839	151.53
402.3	157.33
402.762	163.33
403.223	182.53
403.684	176.63
404.145	163.03
404.607	160.33
405.068	162.63
405.529	175.93
405.99	191.53
406.451	185.03
406.913	175.53
407.374	165.23
407.835	160.83
408.296	171.23
408.757	175.73
409.218	196.83
409.679	181.93
410.14	178.93
410.601	179.03
411.062	186.73
411.522	197.23
411.983	194.63
412.444	185.13
412.905	179.03
413.366	188.43
413.826	202.13
414.287	216.43
414.748	260.63
415.208	242.03
415.669	211.63
416.13	211.43
416.59	206.53
417.051	212.73
417.511	220.33
417.972	241.43
418.432	238.13
418.893	291.63
419.353	246.93
419.814	204.33
420.274	184.33
420.734	183.03
421.195	193.93
421.655	203.33
422.115	196.03
422.576	200.53
423.036	201.33
423.496	204.93
423.956	221.03
424.416	230.73
424.876	267.03
425.336	262.33
425.797	263.33
426.257	252.53
426.717	245.43
427.177	240.43
427.637	230.93
428.097	230.83
428.556	246.43
429.016	279.73
429.476	275.23
429.936	282.53
430.396	283.43
430.856	296.53
431.315	330.33
431.775	360.83
432.235	389.33
432.694	358.63
433.154	370.73
433.614	403.03
434.073	348.23
434.533	288.43
434.993	275.43
435.452	289.03
435.912	296.33
436.371	296.83
436.83	289.03
437.29	280.73
437.749	251.63
438.209	247.73
438.668	278.83
439.127	294.83
439.587	274.03
440.046	254.03
440.505	267.83
440.964	286.13
441.424	334.63
441.883	318.13
442.342	262.33
442.801	226.73
443.26	219.93
443.719	225.63
444.178	214.73
444.637	219.53
445.096	226.53
445.555	225.73
446.014	222.83
446.473	230.23
446.932	238.23
447.391	232.23
447.849	226.23
448.308	216.43
448.767	227.33
449.226	237.73
449.685	237.73
450.143	249.83
450.602	242.93
451.061	229.53
451.519	233.73
451.978	236.93
452.436	225.03
452.895	236.83
453.353	251.53
453.812	239.73
454.27	233.03
454.729	238.43
455.187	247.13
455.646	242.83
456.104	254.03
456.562	264.53
457.021	278.73
457.479	259.63
457.937	278.13
458.395	273.53
458.854	254.23
459.312	259.23
459.77	281.73
460.228	261.43
460.686	242.03
461.144	252.33
461.602	248.43
462.06	243.23
462.518	254.83
462.976	255.43
463.434	261.03
463.892	256.83
464.35	277.93
464.808	292.23
465.266	268.03
465.724	268.33
466.181	261.13
466.639	275.23
467.097	291.63
467.555	298.93
468.012	309.53
468.47	313.73
468.928	321.43
469.385	345.53
469.843	345.53
470.3	356.33
470.758	363.93
471.215	386.23
471.673	413.73
472.13	408.13
472.588	426.03
473.045	370.53
473.503	382.43
473.96	394.73
474.417	400.43
474.875	439.13
475.332	479.13
475.789	470.53
476.246	471.83
476.704	482.23
477.161	507.53
477.618	519.93
478.075	565.03
478.532	626.63
478.989	698.83
479.446	816.63
479.903	773.33
480.36	817.43
480.817	875.23
481.274	974.73
481.731	1072.93
482.188	1164.33
482.645	1289.63
483.102	1414.33
483.558	1543.53
484.015	1598.93
484.472	1576.63
484.929	1518.83
485.385	1475.53
485.842	1435.23
486.299	1364.33
486.755	1303.53
487.212	1098.13
487.668	928.53
488.125	850.43
488.582	777.33
489.038	747.93
489.494	715.13
489.951	688.33
490.407	657.33
490.864	648.53
491.32	641.03
491.776	643.83
492.233	652.23
492.689	622.33
493.145	605.83
493.602	588.13
494.058	611.93
494.514	604.73
494.97	634.23
495.426	644.23
495.882	624.83
496.338	608.83
496.794	624.33
497.251	618.43
497.707	628.03
498.163	633.53
498.618	638.83
499.074	642.43
499.53	669.63
499.986	675.63
500.442	648.03
500.898	630.43
501.354	616.23
501.809	642.33
502.265	641.53
502.721	654.73
503.177	682.53
503.632	664.93
504.088	675.63
504.543	711.13
504.999	709.33
505.455	652.63
505.91	628.33
506.366	618.03
506.821	630.93
507.277	616.13
507.732	618.83
508.187	610.13
508.643	627.43
509.098	627.23
509.553	654.33
510.009	666.73
510.464	663.43
510.919	677.93
511.375	685.93
511.83	696.03
512.285	717.93
512.74	753.23
513.195	788.83
513.65	766.33
514.105	767.93
514.56	767.13
515.015	791.43
515.47	804.03
515.925	773.63
516.38	782.63
516.835	784.43
517.29	784.43
517.745	776.33
518.2	757.73
518.655	742.63
519.109	731.33
519.564	732.43
520.019	729.73
520.474	720.93
520.928	722.13
521.383	718.63
521.838	701.33
522.292	699.13
522.747	707.13
523.201	706.03
523.656	693.53
524.11	690.93
524.565	698.03
525.019	682.43
525.474	702.13
525.928	699.33
526.382	686.73
526.837	690.43
527.291	696.53
527.745	694.13
528.2	687.83
528.654	683.53
529.108	681.73
529.562	681.73
530.016	684.73
530.47	685.13
530.925	690.33
531.379	692.43
531.833	702.83
532.287	686.93
532.741	702.93
533.195	697.03
533.649	708.63
534.103	714.63
534.556	697.43
535.01	707.53
535.464	705.73
535.918	713.03
536.372	708.43
536.826	724.73
537.279	706.63
537.733	692.93
538.187	703.63
538.64	712.63
539.094	719.43
539.548	732.13
540.001	725.03
540.455	720.33
540.908	718.43
541.362	732.63
541.815	734.63
542.269	752.53
542.722	759.23
543.175	774.63
543.629	770.13
544.082	778.53
544.536	778.83
544.989	777.93
545.442	787.93
545.895	781.23
546.349	781.03
546.802	786.93
547.255	797.23
547.708	803.13
548.161	822.43
548.614	813.83
549.067	831.43
549.52	818.73
549.973	808.63
550.426	807.93
550.879	784.53
551.332	795.33
551.785	812.33
552.238	801.53
552.691	812.83
553.144	826.63
553.596	835.23
554.049	854.13
554.502	890.43
554.955	896.13
555.407	913.53
555.86	889.83
556.313	884.83
556.765	869.33
557.218	875.13
557.67	881.43
558.123	871.73
558.576	871.23
559.028	865.33
559.48	864.43
559.933	867.63
560.385	837.13
560.838	805.03
561.29	778.23
561.742	782.43
562.195	763.23
562.647	766.33
563.099	770.33
563.551	765.23
564.004	783.23
564.456	773.03
564.908	759.73
565.36	749.53
565.812	743.73
566.264	727.23
566.716	713.33
567.168	722.73
567.62	722.23
568.072	700.33
568.524	694.53
568.976	692.13
569.428	669.23
569.88	670.73
570.332	684.83
570.784	680.93
571.235	691.33
571.687	695.83
572.139	705.63
572.59	711.43
573.042	695.63
573.494	708.73
573.945	697.13
574.397	685.73
574.849	686.33
575.3	692.23
575.752	688.13
576.203	679.43
576.655	673.53
577.106	659.93
577.557	664.03
578.009	668.93
578.46	662.13
578.912	654.73
579.363	669.73
579.814	677.83
580.265	664.13
580.717	669.73
581.168	663.83
581.619	686.93
582.07	670.93
582.521	680.03
582.972	666.13
583.423	672.63
583.875	677.03
584.326	701.33
584.777	754.33
585.227	838.03
585.678	928.73
586.129	1035.73
586.58	1112.83
587.031	1203.93
587.482	1357.93
587.933	1561.63
588.384	1350.53
588.834	992.23
589.285	816.23
589.736	791.73
590.186	779.73
590.637	762.83
591.088	740.73
591.538	737.73
591.989	728.33
592.439	730.03
592.89	711.33
593.34	712.43
593.791	717.63
594.241	713.13
594.692	711.83
595.142	703.53
595.593	702.93
596.043	712.23
596.493	714.03
596.943	713.53
597.394	726.43
597.844	715.93
598.294	729.03
598.744	746.73
599.195	776.13
599.645	820.53
600.095	855.13
600.545	913.23
600.995	972.73
601.445	1023.33
601.895	1079.83
602.345	1134.93
602.795	1112.83
603.245	1057.63
603.695	1011.73
604.145	959.93
604.594	909.43
605.044	850.63
605.494	792.93
605.944	756.43
606.393	738.83
606.843	724.13
607.293	733.43
607.743	731.23
608.192	755.93
608.642	766.63
609.091	769.73
609.541	778.43
609.99	779.83
610.44	773.03
610.889	733.53
611.339	705.13
611.788	697.33
612.238	706.33
612.687	720.73
613.136	720.33
613.586	743.83
614.035	742.03
614.484	760.63
614.933	768.33
615.383	758.73
615.832	737.53
616.281	733.53
616.73	690.23
617.179	680.73
617.628	649.53
618.077	636.33
618.526	625.13
618.975	623.13
619.424	618.03
619.873	622.23
620.322	621.03
620.771	618.13
621.22	608.73
621.669	599.33
622.118	592.73
622.567	579.93
623.015	578.43
623.464	569.73
623.913	562.53
624.361	553.43
624.81	558.83
625.259	556.83
625.707	565.83
626.156	568.13
626.604	565.63
627.053	559.53
627.501	561.93
627.95	575.93
628.398	583.33
628.847	573.43
629.295	577.33
629.744	576.33
630.192	574.73
630.64	569.93
631.089	575.53
631.537	589.93
631.985	600.53
632.433	614.33
632.881	618.03
633.33	680.43
633.778	658.23
634.226	573.53
634.674	584.83
635.122	595.43
635.57	606.93
636.018	641.73
636.466	585.73
636.914	564.43
637.362	574.33
637.81	572.83
638.258	587.03
638.705	581.13
639.153	615.93
639.601	619.63
640.049	645.63
640.497	673.43
640.944	689.63
641.392	645.63
641.84	616.83
642.287	595.93
642.735	573.03
643.182	577.73
643.63	576.33
644.078	590.23
644.525	598.93
644.973	606.83
645.42	614.83
645.867	625.03
646.315	642.03
646.762	659.03
647.21	697.23
647.657	717.73
648.104	759.83
648.551	763.83
648.999	840.03
649.446	926.53
649.893	1018.83
650.34	1186.63
650.787	1425.93
651.234	1757.43
651.682	2309.93
652.129	3178.73
652.576	4619.73
653.023	6794.13
653.47	9239.83
653.917	11498.73
654.363	13154.13
654.81	14458.03
655.257	13757.13
655.704	8978.33
656.151	5309.73
656.598	3438.93
657.044	2435.83
657.491	1860.43
657.938	1502.13
658.385	1249.63
658.831	1080.53
659.278	971.93
659.724	858.63
660.171	795.03
660.618	720.83
661.064	692.33
661.511	670.83
661.957	656.83
662.404	642.13
662.85	658.13
663.296	629.23
663.743	565.13
664.189	551.13
664.635	537.83
665.082	536.63
665.528	538.33
665.974	519.93
666.42	507.43
666.867	506.83
667.313	491.13
667.759	489.33
668.205	481.23
668.651	493.53
669.097	499.73
669.543	509.43
669.989	488.43
670.435	457.13
670.881	450.13
671.327	458.23
671.773	474.73
672.219	497.93
672.665	544.83
673.11	580.33
673.556	635.33
674.002	668.43
674.448	661.13
674.893	546.93
675.339	486.23
675.785	444.53
676.23	423.03
676.676	385.63
677.122	386.53
677.567	378.13
678.013	372.93
678.458	358.83
678.904	359.43
679.349	351.73
679.794	355.53
680.24	355.53
680.685	345.73
681.131	347.33
681.576	355.63
682.021	364.73
682.466	348.83
682.912	345.83
683.357	360.53
683.802	382.13
684.247	414.83
684.692	451.43
685.137	487.23
685.583	542.63
686.028	557.13
686.473	515.43
686.918	449.83
687.363	429.73
687.807	403.03
688.252	369.83
688.697	354.93
689.142	337.93
689.587	338.73
690.032	325.63
690.477	345.23
690.921	357.83
691.366	385.33
691.811	405.23
692.255	431.63
692.7	463.33
693.145	507.63
693.589	719.13
694.034	1166.93
694.478	1553.63
694.923	1728.93
695.367	2245.73
695.812	1187.43
696.256	503.13
696.701	378.43
697.145	340.03
697.59	328.83
698.034	322.03
698.478	330.93
698.922	329.03
699.367	334.33
699.811	347.63
700.255	361.23
700.699	388.73
701.143	425.63
701.588	484.03
702.032	523.33
702.476	520.23
702.92	486.13
703.364	496.33
703.808	668.13
704.252	1060.73
704.696	1479.13
705.14	1658.93
705.584	2104.73
706.027	1077.53
706.471	529.43
706.915	399.23
707.359	347.83
707.803	322.03
708.246	318.33
708.69	312.03
709.134	315.83
709.577	310.23
710.021	319.73
710.465	307.53
710.908	304.63
711.352	305.23
711.795	308.93
712.239	360.43
712.682	393.73
713.126	410.73
713.569	457.53
714.012	376.03
714.456	332.03
714.899	304.03
715.342	277.83
715.786	265.23
716.229	260.83
716.672	258.03
717.115	240.03
717.558	253.23
718.002	252.63
718.445	261.63
718.888	289.43
719.331	294.03
719.774	311.53
720.217	303.63
720.66	285.23
721.103	274.03
721.546	258.23
721.989	257.13
722.432	234.23
722.874	242.33
723.317	239.23
723.76	231.33
724.203	256.83
724.645	326.13
725.088	459.83
725.531	569.23
725.974	652.13
726.416	549.83
726.859	312.13
727.301	247.53
727.744	244.23
728.187	232.33
728.629	238.03
729.071	243.73
729.514	264.03
729.956	272.63
730.399	283.43
730.841	294.43
731.283	279.23
731.726	259.73
732.168	263.43
732.61	268.73
733.053	290.33
733.495	312.73
733.937	360.03
734.379	398.13
734.821	437.23
735.263	562.83
735.705	861.83
736.148	1637.83
736.59	2610.93
737.032	3020.13
737.474	2450.63
737.916	809.63
738.357	426.03
738.799	328.53
739.241	302.23
739.683	285.53
740.125	302.83
740.567	301.33
741.008	321.13
741.45	315.73
741.892	321.53
742.334	357.33
742.775	356.43
743.217	339.53
743.658	278.23
744.1	252.93
744.542	261.23
744.983	321.23
745.425	347.43
745.866	349.13
746.307	285.73
746.749	293.13
747.19	327.93
747.632	472.63
748.073	922.23
748.514	1913.73
748.956	2852.13
749.397	3598.73
749.838	2966.13
750.279	2921.73
750.72	1490.13
751.162	547.93
751.603	317.33
752.044	261.33
752.485	217.13
752.926	211.03
753.367	202.43
753.808	196.13
754.249	192.13
754.69	185.23
755.131	187.13
755.572	185.83
756.013	179.03
756.453	186.83
756.894	189.83
757.335	201.13
757.776	203.83
758.216	190.63
758.657	201.23
759.098	203.43
759.538	239.03
759.979	271.93
760.42	387.93
760.86	725.33
761.301	1902.63
761.741	4503.73
762.182	6317.83
762.622	4443.83
763.063	1302.43
763.503	545.73
763.943	355.13
764.384	351.13
764.824	428.93
765.264	462.93
765.705	320.73
766.145	205.83
766.585	189.63
767.025	181.03
767.465	192.23
767.906	247.83
768.346	333.73
768.786	365.23
769.226	268.03
769.666	329.33
770.106	650.23
770.546	1616.13
770.986	2628.23
771.426	2330.53
771.866	783.83
772.306	333.03
772.745	206.33
773.185	178.03
773.625	169.93
774.065	166.73
774.505	205.03
774.944	327.53
775.384	717.33
775.824	1244.63
776.263	1209.03
776.703	519.53
777.142	226.03
777.582	160.63
778.021	141.33
778.461	147.13
778.9	149.23
779.34	138.93
779.779	120.73
780.219	115.73
780.658	113.73
781.097	113.03
781.537	112.13
781.976	110.83
782.415	109.23
782.855	105.23
783.294	110.33
783.733	103.43
784.172	108.73
784.611	102.03
785.05	114.43
785.489	112.33
785.928	121.63
786.367	123.33
786.806	117.93
787.245	127.23
787.684	132.63
788.123	144.33
788.562	135.63
789.001	127.43
789.44	123.43
789.879	121.23
790.317	120.03
790.756	131.73
791.195	128.43
791.634	143.33
792.072	205.03
792.511	379.13
792.95	1051.73
793.388	2134.23
793.827	1889.53
794.265	683.13
794.704	282.83
795.142	186.33
795.581	151.03
796.019	140.93
796.458	132.53
796.896	116.53
797.334	133.73
797.773	159.83
798.211	231.13
798.649	462.33
799.087	1045.33
799.526	1606.63
799.964	2039.93
800.402	1979.13
800.84	757.03
801.278	300.73
801.716	188.73
802.154	155.33
802.592	139.83
803.03	142.23
803.468	135.23
803.906	141.43
804.344	153.83
804.782	146.23
805.22	131.23
805.658	137.83
806.096	148.43
806.533	155.73
806.971	177.13
807.409	216.33
807.847	325.13
808.284	692.73
808.722	1902.43
809.16	3284.23
809.597	3181.43
810.035	5450.43
810.472	5638.03
810.91	2063.53
811.347	794.53
811.785	404.53
812.222	252.63
812.66	197.73
813.097	167.13
813.535	143.63
813.972	127.63
814.409	111.33
814.846	112.43
815.284	110.53
815.721	104.03
816.158	109.93
816.595	132.13
817.032	178.33
817.47	202.83
817.907	170.53
818.344	163.53
818.781	121.93
819.218	106.43
819.655	123.93
820.092	185.03
820.529	218.83
820.966	176.53
821.403	132.63
821.839	110.33
822.276	108.03
822.713	126.53
823.15	136.53
823.587	120.13
824.023	150.53
824.46	314.73
824.897	913.03
825.333	1338.43
825.77	581.23
826.206	232.93
826.643	135.03
827.08	104.63
827.516	86.23
827.953	81.63
828.389	79.03
828.825	65.43
829.262	71.63
829.698	68.43
830.135	66.43
830.571	66.53
831.007	66.53
831.443	66.03
831.88	62.93
832.316	64.73
832.752	62.93
833.188	62.43
833.624	65.13
834.06	64.73
834.497	70.73
834.933	74.63
835.369	77.13
835.805	63.73
836.241	78.53
836.677	78.73
837.112	88.93
837.548	111.53
837.984	139.03
838.42	209.73
838.856	520.53
839.292	1544.73
839.727	2263.63
840.163	1060.43
840.599	939.93
841.034	2046.33
841.47	2073.63
841.906	768.33
842.341	333.53
842.777	233.33
843.212	326.63
843.648	312.73
844.083	155.53
844.519	96.63
844.954	78.53
845.39	59.53
845.825	60.63
846.261	59.93
846.696	51.93
847.131	56.13
847.566	61.73
848.002	59.73
848.437	58.73
848.872	66.83
849.307	68.73
849.742	86.23
850.177	190.13
850.613	567.03
851.048	876.73
851.483	380.63
851.918	153.13
852.353	92.43
852.788	62.03
853.223	60.63
853.657	56.33
854.092	48.43
854.527	45.13
854.962	42.03
855.397	44.83
855.832	48.33
856.266	45.23
856.701	42.53
857.136	34.53
857.57	41.53
858.005	48.13
858.44	61.13
858.874	45.73
859.309	48.73
859.743	41.93
860.178	44.23
860.612	46.93
861.047	50.43
861.481	63.03
861.915	69.83
862.35	50.03
862.784	38.93
863.218	34.63
863.653	33.93
864.087	44.13
864.521	56.93
864.955	76.13
865.39	165.53
865.824	174.53
866.258	117.43
866.692	161.33
867.126	170.53
867.56	100.23
867.994	53.33
868.428	36.93
868.862	44.93
869.296	55.63
869.73	57.63
870.164	47.23
870.598	50.43
871.031	36.43
871.465	32.53
871.899	33.63
872.333	24.23
872.766	23.03
873.2	30.63
873.634	36.43
874.067	29.43
874.501	25.43
874.935	40.53
875.368	36.83
875.802	24.63
876.235	23.33
876.669	25.53
877.102	26.53
877.535	27.13
877.969	21.53
878.402	28.33
878.836	17.73
879.269	21.23
879.702	22.13
880.135	24.73
880.569	26.23
881.002	29.73
881.435	22.53
881.868	20.13
882.301	22.83
882.734	17.33
883.167	21.23
883.601	21.43
884.034	27.43
884.467	9.53
884.899	18.23
885.332	15.73
885.765	18.13
886.198	25.73
886.631	21.43
887.064	21.83
887.497	21.13
887.929	27.43
888.362	12.83
888.795	17.23
889.228	19.53
889.66	17.23
890.093	21.93
890.526	17.33
890.958	21.63
891.391	21.63
891.823	23.63
892.256	16.63
892.688	13.23
893.121	18.93
893.553	18.23
893.985	22.83
894.418	18.83
894.85	13.33
895.282	13.23
895.715	24.13
896.147	16.63
896.579	22.33
897.011	17.43
897.444	18.93
897.876	18.23
898.308	14.83
898.74	15.63
899.172	13.13
899.604	24.13
900.036	18.03
900.468	9.73
900.9	11.23
901.332	20.73
901.764	12.13
902.196	17.63
902.628	22.13
903.06	17.63
903.491	28.63
903.923	26.53
904.355	23.43
904.787	26.43
905.218	27.33
905.65	25.23
906.082	14.03
906.513	15.23
906.945	14.93
907.376	16.43
907.808	17.63
908.239	25.43
908.671	21.03
909.102	25.13
909.534	22.23
909.965	47.63
910.397	100.03
910.828	322.53
911.259	475.33
911.691	214.03
912.122	107.53
912.553	53.23
912.984	38.13
913.415	24.93
913.847	26.63
914.278	16.23
914.709	15.43
915.14	15.83
915.571	16.23
916.002	16.03
916.433	20.13
916.864	17.83
917.295	12.03
917.726	18.83
918.157	20.53
918.587	29.63
919.018	28.03
919.449	22.83
919.88	28.53
920.311	31.43
920.741	49.53
921.172	173.43
921.603	142.73
922.033	69.93
922.464	52.93
922.895	20.53
923.325	14.03
923.756	19.23
924.186	14.23
924.617	26.53
925.047	42.83
925.478	53.83
925.908	47.63
926.338	31.03
926.769	22.23
927.199	23.63
927.629	9.83
928.06	10.93
928.49	19.23
928.92	16.63
929.35	12.03
929.78	13.23
930.21	9.63
930.641	8.33
931.071	6.23
931.501	8.33
931.931	9.13
932.361	8.13
932.791	1.93
933.221	2.13
933.651	6.73
934.08	18.03
934.51	30.23
934.94	7.63
935.37	12.43
935.8	13.33
936.229	10.43
936.659	13.73
937.089	8.53
937.519	11.03
937.948	19.43
938.378	20.23
938.807	7.03
939.237	4.73
939.666	7.43
940.096	-3.47
940.525	-0.57
940.955	2.73
941.384	1.23
941.814	-7.17
942.243	1.03
942.672	0.73
943.102	0.13
943.531	5.23
943.96	10.83
944.39	3.43
944.819	4.03
945.248	1.03
945.677	3.43
946.106	9.83
946.535	7.93
946.964	-2.07
947.393	5.43
947.822	3.83
948.251	-0.07
948.68	5.43
949.109	9.03
949.538	4.93
949.967	1.03
950.396	1.13
950.825	4.53
951.254	3.33
951.682	-7.97
952.111	7.03
952.54	3.83
952.969	-4.47
953.397	-1.77
953.826	6.03
954.254	-2.17
954.683	4.53
955.112	-0.67
955.54	3.23
955.969	-1.67
956.397	4.93
956.826	-4.67
957.254	6.13
957.682	7.53
958.111	-0.47
958.539	-1.27
958.967	0.33
959.396	-1.17
959.824	4.83
960.252	5.83
960.68	2.23
961.109	3.23
961.537	-0.87
961.965	4.53
962.393	0.43
962.821	-2.17
963.249	2.43
963.677	5.13
964.105	2.93
964.533	42.83
964.961	38.83
965.389	20.53
965.817	8.83
966.245	-0.17
966.672	-1.27
967.1	-2.67
967.528	2.43
967.956	2.53
968.383	3.53
968.811	4.83
969.239	-4.47
969.666	-0.97
970.094	-0.17
970.522	-4.67
970.949	5.13
971.377	-8.47
971.804	-9.87
972.232	2.73
972.659	-0.87
973.087	-4.97
973.514	-4.07
973.941	0.13
974.369	0.33
974.796	3.93
975.223	0.03
975.651	-5.97
976.078	-3.87
976.505	0.93
976.932	1.33
977.359	12.93
977.786	16.53
978.214	2.93
978.641	1.93
979.068	-0.97
979.495	-0.97
979.922	8.23
980.349	-1.37
980.776	1.53
981.202	-0.57
981.629	3.63
982.056	3.63
982.483	1.93
982.91	4.33
983.337	1.93
983.763	0.33
984.19	-2.67
984.617	1.73
985.043	-3.17
985.47	1.13
985.897	-4.57
986.323	-7.57
986.75	1.23
987.176	0.53
987.603	5.73
988.029	-0.37
988.456	-1.57
988.882	-2.87
989.308	-2.17
989.735	-3.77
990.161	3.13
990.587	-3.67
991.014	-8.87
991.44	8.63
991.866	-2.97
992.292	-6.57
992.719	0.53
993.145	7.53
993.571	-9.47
993.997	-2.27
994.423	-1.67
994.849	-1.27
995.275	2.33
995.701	0.23
996.127	-1.47
996.553	3.13
996.979	-2.17
997.405	-5.87
997.83	-5.57
998.256	-4.97
998.682	-3.57
999.108	-4.87
999.534	2.23
999.959	-1.57
1000.385	-5.17
1000.811	-1.87
1001.236	-14.77
1001.662	-11.27
1002.087	-6.17
1002.513	0.13
1002.938	-0.27
1003.364	0.33
1003.789	-1.57
1004.215	2.73
1004.64	-2.87
1005.066	-1.77
1005.491	-0.37
1005.916	-7.77
1006.342	2.43
1006.767	-13.27
1007.192	1.83
1007.617	-3.27
1008.042	-5.37
1008.468	-9.67
1008.893	-6.87
1009.318	0.13
1009.743	-8.27
1010.168	3.63
1010.593	2.03
1011.018	-7.57
1011.443	-2.27
1011.868	-1.37
1012.293	-2.67
1012.718	-6.27
1013.143	0.33
1013.567	0.53
1013.992	-2.27
1014.417	-14.27
1014.842	5.43
1015.267	-5.47
1015.691	-3.67
1016.116	5.23
1016.541	3.83
1016.965	3.83
1017.39	0.73
1017.814	-0.27
1018.239	2.23
1018.663	-3.57
1019.088	-9.07
1019.512	-2.47
1019.937	0.23
1020.361	-3.87
1020.785	-12.27
1021.21	-5.97
1021.634	-3.27
1022.058	-1.17
1022.483	8.03
1022.907	-3.37
1023.331	-7.27
1023.755	-3.57
1024.179	-3.17
1024.604	-3.17
1025.028	-3.47
1025.452	-1.97
1025.876	-6.67
1026.3	4.23
1026.724	-13.17
1027.148	-6.17
1027.572	-5.57
1027.996	-1.37
1028.42	2.03
1028.843	-7.67
1029.267	-2.27
1029.691	-3.97
1030.115	-5.67
1030.539	-5.97
1030.962	-2.87
1031.386	-7.87
1031.81	0.53
1032.233	-0.87
1032.657	-2.67
1033.08	-5.57
1033.504	-0.17
1033.927	-3.27
1034.351	-3.67
1034.774	-7.97
1035.198	0.43
1035.621	-4.57
1036.045	-8.07
1036.468	-3.77
1036.891	-9.77
1037.315	-12.57
1037.738	-5.07
1038.161	2.93
1038.584	-3.67
1039.008	-7.97
1039.431	-6.27
1039.854	-3.57
1040.277	-12.77
1040.7	-6.37
1041.123	-4.97
1041.546	-5.27
1041.969	-6.77
1042.392	-6.27
1042.815	-2.27
1043.238	3.83
1043.661	3.73
1044.084	-5.87
1044.507	-4.47
1044.93	-10.97
1045.352	-7.87
1045.775	2.43
1046.198	-0.27
1046.621	-3.07
1047.043	-2.57
1047.466	1.63
1047.889	-5.77
1048.311	-8.27
1048.734	-11.57
1049.156	-1.87
1049.579	-1.67
1050.001	-0.47
1050.424	3.13
1050.846	-4.47
1051.269	0.73
1051.691	-6.77
1052.113	-0.77
1052.536	-1.27
1052.958	-1.17
1053.38	-9.57
1053.802	-7.57
1054.225	0.03
1054.647	-15.37
1055.069	-4.47
1055.491	-2.07
1055.913	-7.37
1056.335	-3.97
1056.757	-3.17
1057.179	-10.97
1057.601	-4.37
1058.023	-2.87
1058.445	-4.67
1058.867	-5.07
1059.289	-2.97
1059.711	-4.27
1060.133	0.23
1060.555	-7.77
1060.976	-8.17
1061.398	0.73
1061.82	-7.77
1062.241	-5.37
1062.663	-6.27
1063.085	-10.47
1063.506	-3.07
1063.928	-3.47
1064.35	-1.57
1064.771	-13.07
1065.193	3.93
1065.614	-15.47
1066.035	-1.27
1066.457	0.83
1066.878	-0.87
1067.3	-0.57
1067.721	-3.57
1068.142	-2.37
1068.564	-4.47
1068.985	-6.87
1069.406	-1.67
1069.827	-3.87
1070.248	-0.07
1070.67	-2.97
1071.091	-2.07
1071.512	-7.27
1071.933	-6.27
1072.354	-11.27
1072.775	-8.87
1073.196	-9.17
1073.617	-5.17
1074.038	-10.57
1074.459	-12.37
1074.88	-9.47
1075.3	-1.87
1075.721	0.23
1076.142	1.23
1076.563	2.43
1076.983	-8.37
1077.404	-6.67
1077.825	-5.97
1078.246	0.63
1078.666	-8.67
1079.087	-8.67
1079.507	-2.97
1079.928	-0.77
1080.348	2.43
1080.769	-6.17
1081.189	-2.97
1081.61	1.43
1082.03	-5.37
1082.451	-8.87
1082.871	-0.77
1083.291	-6.87
1083.711	-7.67
1084.132	-8.57
1084.552	-11.27
1084.972	-4.57
1085.392	-8.57
1085.813	-13.57
1086.233	-9.57
1086.653	-10.37
1087.073	1.23
1087.493	-9.07
1087.913	-5.07
1088.333	-13.17
1088.753	-2.47
1089.173	-0.67
1089.593	-1.27
1090.013	2.43
1090.433	-1.17
1090.852	0.53
1091.272	-6.27
1091.692	-0.67
1092.112	1.33
1092.531	-5.37
1092.951	-14.87
1093.371	-4.57
1093.79	3.93
1094.21	-9.57
1094.63	-6.37
1095.049	-8.97
1095.469	-0.17
1095.888	-4.97
1096.308	0.73
1096.727	5.73
1097.146	-5.67
1097.566	2.23
1097.985	-1.87
1098.405	-5.47
1098.824	-4.17
1099.243	-4.17
1099.662	-8.67
1100.082	-4.37
1100.501	-2.97
1100.92	-8.57
1101.339	-7.37
1101.758	-4.77
