Data from 20171114-ORNL-Ar_H_NY_Subt18_08-06-24-556.txt Node
Date: Tue Nov 14 08:06:24 EST 2017
User: Ender
Spectrometer: HR+D1039
Trigger mode: 0
Integration Time (sec): 2.730000E-2
Scans to average: 10
Electric dark correction enabled: true
Nonlinearity correction enabled: false
Boxcar width: 0
XAxis mode: Wavelengths
Number of Pixels in Spectrum: 2048
>>>>>Begin Spectral Data<<<<<
187.836	0.78
188.309	0.78
188.782	0.78
189.255	2.58
189.728	-4.22
190.201	4.48
190.674	0.38
191.147	1.58
191.619	-4.12
192.092	-2.72
192.565	1.38
193.038	1.98
193.511	-0.92
193.984	-1.92
194.456	2.88
194.929	1.58
195.402	-1.32
195.874	-2.42
196.347	-6.92
196.82	-5.32
197.292	5.58
197.765	2.58
198.237	-5.42
198.71	-1.02
199.182	1.68
199.655	-6.02
200.127	3.08
200.6	-0.22
201.072	0.58
201.544	-4.72
202.017	-2.12
202.489	9.98
202.961	-3.32
203.433	3.38
203.906	-9.82
204.378	-8.82
204.85	-2.92
205.322	-11.82
205.794	-9.32
206.266	0.58
206.739	-6.82
207.211	-0.62
207.683	-10.22
208.155	-5.22
208.627	-1.72
209.099	-8.22
209.57	-14.32
210.042	-9.02
210.514	-2.22
210.986	-3.82
211.458	-8.62
211.93	-3.22
212.402	4.68
212.873	-6.12
213.345	-1.22
213.817	-13.62
214.288	-7.32
214.76	-9.62
215.232	-4.92
215.703	0.88
216.175	-1.22
216.646	-8.72
217.118	-5.12
217.589	-5.42
218.061	0.58
218.532	-6.52
219.004	1.28
219.475	-0.92
219.946	-5.52
220.418	-6.32
220.889	4.38
221.36	-3.62
221.832	-2.02
222.303	-4.42
222.774	-3.12
223.245	-11.02
223.717	-4.72
224.188	-4.62
224.659	-6.12
225.13	-9.62
225.601	-2.62
226.072	-0.62
226.543	2.68
227.014	-0.62
227.485	-1.32
227.956	-5.42
228.427	-2.62
228.898	1.78
229.369	6.48
229.839	-5.72
230.31	-3.82
230.781	2.28
231.252	-2.72
231.722	-8.32
232.193	-1.22
232.664	-1.72
233.135	-0.02
233.605	0.88
234.076	-4.02
234.546	-4.52
235.017	-1.42
235.487	3.48
235.958	6.28
236.428	-1.92
236.899	4.38
237.369	5.28
237.84	-2.82
238.31	4.18
238.78	6.98
239.251	-3.02
239.721	5.88
240.191	9.28
240.662	-0.22
241.132	0.68
241.602	-0.42
242.072	-1.82
242.542	9.78
243.013	-8.72
243.483	1.68
243.953	0.38
244.423	2.78
244.893	0.58
245.363	4.68
245.833	5.18
246.303	-0.32
246.773	11.28
247.243	0.38
247.712	4.18
248.182	9.58
248.652	12.18
249.122	4.28
249.592	11.28
250.061	14.08
250.531	35.18
251.001	11.38
251.471	19.58
251.94	21.08
252.41	3.88
252.879	3.68
253.349	6.28
253.818	11.48
254.288	5.48
254.757	1.48
255.227	-4.72
255.696	1.58
256.166	3.88
256.635	6.38
257.105	7.98
257.574	5.78
258.043	8.98
258.513	11.98
258.982	18.98
259.451	4.38
259.92	15.48
260.389	14.18
260.859	16.58
261.328	14.48
261.797	14.58
262.266	7.08
262.735	8.28
263.204	12.18
263.673	2.48
264.142	4.28
264.611	1.68
265.08	-3.82
265.549	-3.52
266.018	4.18
266.487	0.38
266.955	-3.42
267.424	1.08
267.893	3.08
268.362	2.78
268.83	8.08
269.299	13.08
269.768	5.08
270.236	5.08
270.705	1.38
271.174	6.88
271.642	5.88
272.111	8.58
272.579	14.28
273.048	21.68
273.516	29.98
273.985	24.08
274.453	26.98
274.922	21.18
275.39	7.58
275.858	7.48
276.327	12.98
276.795	16.88
277.263	8.58
277.731	37.48
278.2	57.68
278.668	57.28
279.136	50.18
279.604	21.98
280.072	14.38
280.54	10.18
281.008	8.48
281.477	13.08
281.945	10.38
282.413	13.08
282.881	12.38
283.348	14.08
283.816	13.18
284.284	20.08
284.752	21.68
285.22	14.08
285.688	17.08
286.156	18.48
286.623	39.58
287.091	52.78
287.559	34.68
288.026	16.08
288.494	20.58
288.962	4.28
289.429	9.18
289.897	20.58
290.364	12.98
290.832	18.18
291.3	12.78
291.767	15.68
292.234	19.98
292.702	16.08
293.169	19.48
293.637	22.68
294.104	23.88
294.571	8.58
295.039	16.58
295.506	9.08
295.973	12.68
296.44	19.28
296.908	21.88
297.375	17.68
297.842	17.58
298.309	19.18
298.776	7.58
299.243	20.48
299.71	17.78
300.177	23.38
300.644	24.78
301.111	23.88
301.578	26.88
302.045	18.08
302.512	20.48
302.979	22.18
303.446	24.18
303.913	19.88
304.379	17.48
304.846	21.78
305.313	20.38
305.78	21.88
306.246	25.68
306.713	23.88
307.18	27.58
307.646	29.18
308.113	29.18
308.579	31.38
309.046	24.38
309.512	32.18
309.979	19.78
310.445	28.38
310.912	30.38
311.378	38.48
311.845	30.18
312.311	34.48
312.777	30.88
313.244	30.18
313.71	36.68
314.176	29.88
314.642	37.88
315.109	33.38
315.575	31.88
316.041	41.38
316.507	35.68
316.973	36.58
317.439	39.08
317.905	39.08
318.371	36.58
318.837	36.58
319.303	34.58
319.769	33.48
320.235	33.48
320.701	39.28
321.167	32.78
321.633	33.58
322.099	41.68
322.564	39.48
323.03	41.58
323.496	38.18
323.962	41.48
324.427	38.68
324.893	44.98
325.359	41.08
325.824	38.08
326.29	37.38
326.755	38.68
327.221	37.78
327.686	36.38
328.152	46.48
328.617	43.28
329.083	51.98
329.548	47.28
330.014	45.38
330.479	39.18
330.944	38.78
331.41	49.28
331.875	48.58
332.34	43.68
332.805	47.58
333.271	49.68
333.736	41.28
334.201	53.68
334.666	52.38
335.131	50.78
335.596	47.88
336.061	51.68
336.526	44.18
336.991	52.08
337.456	53.98
337.921	49.88
338.386	44.58
338.851	50.78
339.316	50.58
339.781	49.38
340.246	56.38
340.711	51.58
341.175	46.68
341.64	44.08
342.105	49.38
342.569	54.08
343.034	58.28
343.499	56.88
343.963	55.08
344.428	66.08
344.893	64.78
345.357	63.88
345.822	68.68
346.286	71.98
346.751	77.98
347.215	75.08
347.679	77.98
348.144	96.18
348.608	75.78
349.073	75.18
349.537	73.28
350.001	77.68
350.465	90.88
350.93	81.58
351.394	87.38
351.858	78.78
352.322	89.78
352.786	87.58
353.25	105.28
353.715	115.18
354.179	101.68
354.643	121.88
355.107	128.88
355.571	103.18
356.035	104.68
356.498	112.18
356.962	123.58
357.426	135.08
357.89	117.28
358.354	97.78
358.818	87.78
359.281	88.58
359.745	85.48
360.209	80.58
360.673	82.88
361.136	81.28
361.6	88.48
362.064	90.08
362.527	91.78
362.991	93.78
363.454	76.98
363.918	79.18
364.381	78.78
364.845	78.48
365.308	79.08
365.772	84.28
366.235	83.38
366.698	82.18
367.162	87.78
367.625	82.18
368.088	86.38
368.552	89.98
369.015	89.58
369.478	101.68
369.941	99.48
370.404	94.68
370.867	108.48
371.331	106.08
371.794	119.08
372.257	111.88
372.72	116.68
373.183	108.78
373.646	109.78
374.109	104.88
374.572	107.18
375.035	105.28
375.497	108.58
375.96	107.18
376.423	106.68
376.886	111.88
377.349	114.28
377.811	110.48
378.274	109.18
378.737	105.88
379.199	112.38
379.662	111.78
380.125	119.78
380.587	121.18
381.05	126.68
381.512	125.38
381.975	135.38
382.437	130.88
382.9	129.98
383.362	135.78
383.825	141.38
384.287	152.28
384.75	139.08
385.212	139.88
385.674	138.68
386.136	139.78
386.599	127.58
387.061	132.58
387.523	137.38
387.985	142.08
388.447	150.18
388.91	150.18
389.372	168.78
389.834	154.48
390.296	154.78
390.758	168.48
391.22	168.78
391.682	218.98
392.144	308.58
392.606	232.28
393.068	166.78
393.529	172.78
393.991	159.38
394.453	151.58
394.915	159.98
395.377	197.38
395.838	223.88
396.3	155.58
396.762	146.38
397.224	138.38
397.685	137.28
398.147	130.78
398.608	130.38
399.07	133.68
399.531	145.68
399.993	151.88
400.454	157.08
400.916	148.98
401.377	147.58
401.839	156.78
402.3	154.58
402.762	167.08
403.223	185.38
403.684	171.28
404.145	165.88
404.607	159.08
405.068	161.98
405.529	173.88
405.99	192.68
406.451	182.28
406.913	180.18
407.374	173.28
407.835	160.28
408.296	169.28
408.757	179.78
409.218	189.18
409.679	180.68
410.14	180.58
410.601	182.28
411.062	187.88
411.522	195.78
411.983	194.28
412.444	175.58
412.905	187.88
413.366	190.08
413.826	194.48
414.287	224.98
414.748	265.68
415.208	245.38
415.669	215.48
416.13	205.48
416.59	197.68
417.051	221.78
417.511	225.48
417.972	242.88
418.432	255.28
418.893	290.98
419.353	256.58
419.814	202.98
420.274	185.28
420.734	180.38
421.195	203.58
421.655	207.28
422.115	193.58
422.576	195.08
423.036	206.58
423.496	218.58
423.956	222.78
424.416	236.28
424.876	269.58
425.336	264.48
425.797	267.78
426.257	261.78
426.717	248.78
427.177	238.68
427.637	221.78
428.097	240.98
428.556	250.18
429.016	274.78
429.476	264.18
429.936	286.78
430.396	289.48
430.856	297.38
431.315	316.38
431.775	360.88
432.235	388.68
432.694	363.78
433.154	377.68
433.614	402.58
434.073	350.68
434.533	295.38
434.993	277.78
435.452	291.38
435.912	300.38
436.371	294.98
436.83	287.38
437.29	279.78
437.749	255.08
438.209	255.18
438.668	274.18
439.127	295.08
439.587	270.88
440.046	254.08
440.505	271.78
440.964	284.38
441.424	336.58
441.883	325.88
442.342	267.48
442.801	232.58
443.26	224.38
443.719	227.58
444.178	228.38
444.637	218.68
445.096	223.48
445.555	229.68
446.014	229.78
446.473	230.98
446.932	241.18
447.391	228.88
447.849	236.18
448.308	224.88
448.767	229.48
449.226	241.98
449.685	238.98
450.143	261.78
450.602	244.78
451.061	236.48
451.519	232.88
451.978	235.88
452.436	250.38
452.895	245.38
453.353	259.08
453.812	242.88
454.27	243.98
454.729	249.08
455.187	247.38
455.646	257.08
456.104	253.28
456.562	267.98
457.021	279.58
457.479	268.68
457.937	272.38
458.395	273.58
458.854	254.08
459.312	267.18
459.77	282.18
460.228	262.48
460.686	251.78
461.144	254.98
461.602	246.88
462.06	250.48
462.518	252.28
462.976	256.98
463.434	264.48
463.892	268.68
464.35	269.78
464.808	302.38
465.266	273.98
465.724	281.98
466.181	284.28
466.639	280.78
467.097	294.28
467.555	304.08
468.012	311.48
468.47	311.98
468.928	340.08
469.385	348.98
469.843	355.68
470.3	362.68
470.758	371.18
471.215	399.08
471.673	418.78
472.13	411.18
472.588	430.18
473.045	390.88
473.503	379.78
473.96	397.88
474.417	414.38
474.875	451.18
475.332	483.08
475.789	478.08
476.246	474.68
476.704	496.58
477.161	525.08
477.618	530.98
478.075	575.58
478.532	635.78
478.989	717.28
479.446	827.38
479.903	784.88
480.36	828.38
480.817	875.88
481.274	992.58
481.731	1092.48
482.188	1183.68
482.645	1330.88
483.102	1439.08
483.558	1576.68
484.015	1621.18
484.472	1594.38
484.929	1549.08
485.385	1494.98
485.842	1464.28
486.299	1403.48
486.755	1316.18
487.212	1120.68
487.668	951.58
488.125	873.58
488.582	795.88
489.038	754.18
489.494	726.08
489.951	698.88
490.407	682.58
490.864	662.08
491.32	660.58
491.776	659.58
492.233	671.88
492.689	626.58
493.145	615.28
493.602	616.78
494.058	630.28
494.514	636.38
494.97	655.78
495.426	675.88
495.882	638.48
496.338	625.08
496.794	634.48
497.251	629.38
497.707	645.18
498.163	650.98
498.618	654.98
499.074	657.48
499.53	688.98
499.986	689.08
500.442	673.68
500.898	654.08
501.354	640.58
501.809	659.48
502.265	657.68
502.721	674.28
503.177	693.18
503.632	683.08
504.088	692.28
504.543	722.28
504.999	723.88
505.455	668.78
505.91	643.28
506.366	650.78
506.821	646.08
507.277	637.38
507.732	637.78
508.187	636.08
508.643	646.78
509.098	656.48
509.553	661.78
510.009	680.38
510.464	678.58
510.919	695.68
511.375	702.08
511.83	726.08
512.285	740.28
512.74	773.08
513.195	803.38
513.65	795.38
514.105	783.88
514.56	779.08
515.015	807.08
515.47	822.98
515.925	812.78
516.38	803.78
516.835	811.68
517.29	810.08
517.745	800.58
518.2	778.98
518.655	766.08
519.109	756.88
519.564	752.38
520.019	749.38
520.474	741.98
520.928	742.38
521.383	735.28
521.838	734.68
522.292	726.48
522.747	730.98
523.201	719.38
523.656	724.58
524.11	715.88
524.565	715.08
525.019	713.08
525.474	725.78
525.928	719.18
526.382	711.78
526.837	719.48
527.291	728.78
527.745	708.28
528.2	712.78
528.654	705.48
529.108	700.28
529.562	702.88
530.016	704.48
530.47	711.78
530.925	699.68
531.379	709.88
531.833	720.18
532.287	720.88
532.741	713.18
533.195	727.38
533.649	732.38
534.103	735.08
534.556	729.68
535.01	733.58
535.464	714.58
535.918	735.18
536.372	741.38
536.826	728.08
537.279	724.68
537.733	726.18
538.187	739.18
538.64	731.88
539.094	732.98
539.548	744.38
540.001	745.08
540.455	746.88
540.908	744.08
541.362	754.48
541.815	766.98
542.269	781.98
542.722	771.38
543.175	778.78
543.629	777.38
544.082	801.78
544.536	804.98
544.989	793.48
545.442	804.58
545.895	802.48
546.349	806.68
546.802	813.48
547.255	810.78
547.708	819.58
548.161	830.98
548.614	841.38
549.067	845.18
549.52	843.38
549.973	831.58
550.426	824.58
550.879	810.08
551.332	812.08
551.785	819.48
552.238	822.58
552.691	841.38
553.144	858.58
553.596	875.18
554.049	881.38
554.502	909.68
554.955	922.78
555.407	927.38
555.86	920.38
556.313	913.38
556.765	893.68
557.218	893.08
557.67	892.48
558.123	892.18
558.576	883.88
559.028	894.78
559.48	905.28
559.933	893.48
560.385	853.48
560.838	820.28
561.29	798.58
561.742	789.38
562.195	780.78
562.647	789.98
563.099	787.78
563.551	784.08
564.004	796.98
564.456	787.48
564.908	778.28
565.36	759.08
565.812	742.58
566.264	736.18
566.716	746.48
567.168	728.78
567.62	742.88
568.072	725.18
568.524	707.78
568.976	702.98
569.428	673.08
569.88	691.58
570.332	700.58
570.784	696.18
571.235	696.08
571.687	711.58
572.139	708.68
572.59	724.68
573.042	725.18
573.494	727.28
573.945	717.88
574.397	703.48
574.849	709.68
575.3	701.68
575.752	686.28
576.203	691.58
576.655	696.58
577.106	690.08
577.557	672.98
578.009	688.48
578.46	674.48
578.912	680.38
579.363	678.88
579.814	686.08
580.265	681.88
580.717	682.58
581.168	685.78
581.619	684.88
582.07	694.78
582.521	695.98
582.972	687.68
583.423	692.58
583.875	693.38
584.326	718.28
584.777	758.38
585.227	841.88
585.678	927.58
586.129	1006.88
586.58	1076.18
587.031	1174.58
587.482	1295.98
587.933	1486.08
588.384	1294.78
588.834	984.38
589.285	817.68
589.736	788.28
590.186	782.78
590.637	772.98
591.088	753.98
591.538	745.68
591.989	737.38
592.439	742.68
592.89	734.18
593.34	725.48
593.791	733.58
594.241	719.38
594.692	729.78
595.142	710.38
595.593	705.08
596.043	724.38
596.493	732.38
596.943	730.98
597.394	735.48
597.844	723.58
598.294	739.28
598.744	769.18
599.195	789.38
599.645	828.68
600.095	868.08
600.545	925.88
600.995	980.68
601.445	1037.58
601.895	1098.78
602.345	1162.38
602.795	1134.18
603.245	1081.68
603.695	1020.28
604.145	964.78
604.594	923.98
605.044	872.28
605.494	816.78
605.944	763.78
606.393	753.48
606.843	739.88
607.293	746.88
607.743	743.38
608.192	761.58
608.642	770.38
609.091	775.78
609.541	787.58
609.99	778.98
610.44	777.28
610.889	730.58
611.339	711.28
611.788	698.08
612.238	718.58
612.687	720.68
613.136	725.48
613.586	745.28
614.035	744.28
614.484	759.28
614.933	758.38
615.383	756.38
615.832	745.68
616.281	734.38
616.73	703.28
617.179	679.48
617.628	655.58
618.077	635.38
618.526	633.48
618.975	626.58
619.424	622.78
619.873	631.58
620.322	624.78
620.771	609.98
621.22	610.18
621.669	591.68
622.118	593.38
622.567	588.98
623.015	569.58
623.464	576.98
623.913	569.38
624.361	562.38
624.81	561.78
625.259	555.18
625.707	560.78
626.156	562.18
626.604	579.28
627.053	567.38
627.501	573.68
627.95	573.88
628.398	588.58
628.847	576.18
629.295	579.88
629.744	588.08
630.192	578.28
630.64	577.78
631.089	571.38
631.537	589.38
631.985	592.68
632.433	606.08
632.881	619.88
633.33	660.68
633.778	637.38
634.226	574.98
634.674	573.08
635.122	587.48
635.57	604.38
636.018	630.68
636.466	584.58
636.914	568.78
637.362	578.28
637.81	580.58
638.258	588.28
638.705	583.18
639.153	618.98
639.601	618.08
640.049	648.58
640.497	687.48
640.944	699.48
641.392	641.58
641.84	617.38
642.287	594.68
642.735	572.18
643.182	581.18
643.63	589.18
644.078	583.38
644.525	593.28
644.973	607.08
645.42	615.68
645.867	631.68
646.315	641.98
646.762	669.28
647.21	690.88
647.657	719.68
648.104	751.78
648.551	782.48
648.999	842.98
649.446	926.18
649.893	1013.38
650.34	1166.08
650.787	1406.98
651.234	1745.78
651.682	2261.38
652.129	3124.78
652.576	4476.28
653.023	6602.88
653.47	9062.68
653.917	11328.98
654.363	13073.58
654.81	14412.98
655.257	13713.68
655.704	8993.28
656.151	5307.78
656.598	3449.48
657.044	2443.48
657.491	1867.98
657.938	1500.18
658.385	1261.68
658.831	1081.38
659.278	969.08
659.724	862.68
660.171	788.58
660.618	731.28
661.064	686.28
661.511	677.68
661.957	662.38
662.404	646.18
662.85	658.68
663.296	635.38
663.743	571.68
664.189	543.48
664.635	543.38
665.082	537.28
665.528	534.08
665.974	522.88
666.42	522.38
666.867	511.58
667.313	505.58
667.759	482.08
668.205	483.38
668.651	500.38
669.097	491.98
669.543	506.68
669.989	472.68
670.435	451.58
670.881	435.38
671.327	458.78
671.773	471.88
672.219	494.18
672.665	545.58
673.11	589.48
673.556	638.58
674.002	678.38
674.448	648.58
674.893	551.28
675.339	480.18
675.785	440.88
676.23	420.28
676.676	393.78
677.122	392.08
677.567	372.38
678.013	366.08
678.458	363.38
678.904	366.78
679.349	355.28
679.794	358.48
680.24	347.88
680.685	350.28
681.131	350.58
681.576	347.78
682.021	358.18
682.466	349.38
682.912	350.38
683.357	361.08
683.802	390.28
684.247	416.58
684.692	456.68
685.137	494.08
685.583	547.98
686.028	556.48
686.473	525.38
686.918	452.58
687.363	420.28
687.807	397.08
688.252	369.38
688.697	353.58
689.142	336.08
689.587	338.08
690.032	326.18
690.477	351.78
690.921	356.78
691.366	387.98
691.811	407.18
692.255	432.98
692.7	467.58
693.145	501.58
693.589	704.38
694.034	1125.68
694.478	1527.78
694.923	1745.48
695.367	2268.98
695.812	1193.88
696.256	500.38
696.701	365.58
697.145	342.88
697.59	333.78
698.034	328.38
698.478	334.78
698.922	329.28
699.367	330.68
699.811	335.78
700.255	360.48
700.699	390.08
701.143	430.98
701.588	482.38
702.032	516.18
702.476	513.18
702.92	485.48
703.364	495.78
703.808	634.48
704.252	1036.38
704.696	1455.48
705.14	1667.28
705.584	2147.98
706.027	1076.08
706.471	528.98
706.915	392.78
707.359	353.88
707.803	319.28
708.246	310.88
708.69	312.18
709.134	321.88
709.577	317.58
710.021	315.18
710.465	300.78
710.908	294.48
711.352	299.38
711.795	313.28
712.239	350.48
712.682	389.68
713.126	415.38
713.569	458.78
714.012	377.88
714.456	325.18
714.899	305.48
715.342	277.98
715.786	260.08
716.229	261.18
716.672	256.18
717.115	252.28
717.558	249.18
718.002	256.58
718.445	259.98
718.888	288.68
719.331	292.38
719.774	308.28
720.217	306.68
720.66	288.08
721.103	271.18
721.546	256.38
721.989	249.38
722.432	238.48
722.874	236.38
723.317	242.08
723.76	237.38
724.203	263.18
724.645	315.88
725.088	442.58
725.531	567.58
725.974	636.28
726.416	542.68
726.859	305.48
727.301	250.18
727.744	234.18
728.187	239.78
728.629	238.58
729.071	247.58
729.514	260.18
729.956	272.88
730.399	279.58
730.841	279.88
731.283	272.68
731.726	264.28
732.168	263.88
732.61	267.18
733.053	291.68
733.495	322.48
733.937	358.68
734.379	400.58
734.821	431.98
735.263	542.28
735.705	820.68
736.148	1558.08
736.59	2584.68
737.032	3053.08
737.474	2474.38
737.916	812.28
738.357	430.78
738.799	329.18
739.241	297.98
739.683	275.68
740.125	294.18
740.567	298.28
741.008	314.98
741.45	311.18
741.892	315.18
742.334	347.18
742.775	353.28
743.217	343.48
743.658	264.68
744.1	251.08
744.542	263.68
744.983	314.28
745.425	345.98
745.866	341.78
746.307	289.98
746.749	275.98
747.19	324.88
747.632	443.68
748.073	876.58
748.514	1849.58
748.956	2838.98
749.397	3566.28
749.838	2955.98
750.279	2951.68
750.72	1494.28
751.162	545.78
751.603	318.08
752.044	252.88
752.485	215.68
752.926	210.38
753.367	201.28
753.808	194.68
754.249	190.98
754.69	189.58
755.131	186.78
755.572	184.48
756.013	183.78
756.453	184.98
756.894	193.78
757.335	190.88
757.776	196.98
758.216	204.38
758.657	199.68
759.098	201.38
759.538	227.18
759.979	265.88
760.42	362.08
760.86	697.18
761.301	1803.08
761.741	4397.28
762.182	6444.68
762.622	4507.78
763.063	1286.78
763.503	529.18
763.943	348.98
764.384	336.08
764.824	395.18
765.264	423.98
765.705	299.98
766.145	204.58
766.585	183.08
767.025	180.38
767.465	187.68
767.906	238.98
768.346	319.48
768.786	332.78
769.226	257.58
769.666	321.68
770.106	607.48
770.546	1549.18
770.986	2641.28
771.426	2361.98
771.866	790.38
772.306	328.28
772.745	210.58
773.185	167.28
773.625	165.38
774.065	168.38
774.505	196.98
774.944	304.68
775.384	655.98
775.824	1192.88
776.263	1171.18
776.703	497.48
777.142	221.48
777.582	162.18
778.021	145.28
778.461	143.68
778.9	138.38
779.34	132.98
779.779	116.68
780.219	107.48
780.658	114.38
781.097	113.38
781.537	116.18
781.976	108.58
782.415	107.98
782.855	107.68
783.294	102.68
783.733	103.78
784.172	108.48
784.611	104.98
785.05	106.88
785.489	114.18
785.928	115.68
786.367	123.48
786.806	119.78
787.245	131.68
787.684	139.18
788.123	147.48
788.562	130.08
789.001	128.78
789.44	124.98
789.879	124.88
790.317	117.88
790.756	125.58
791.195	123.98
791.634	151.38
792.072	205.08
792.511	363.68
792.95	1004.38
793.388	2122.38
793.827	1937.18
794.265	680.78
794.704	280.08
795.142	185.68
795.581	153.68
796.019	137.78
796.458	127.88
796.896	118.48
797.334	137.38
797.773	155.98
798.211	213.68
798.649	429.38
799.087	1020.98
799.526	1584.48
799.964	1996.38
800.402	2013.48
800.84	763.28
801.278	301.88
801.716	178.58
802.154	157.38
802.592	150.38
803.03	145.98
803.468	136.68
803.906	142.78
804.344	148.08
804.782	133.18
805.22	134.18
805.658	128.68
806.096	154.98
806.533	152.58
806.971	176.28
807.409	218.58
807.847	323.08
808.284	663.38
808.722	1845.38
809.16	3293.28
809.597	3096.78
810.035	5372.78
810.472	5781.28
810.91	2067.98
811.347	792.88
811.785	407.98
812.222	252.98
812.66	201.88
813.097	164.98
813.535	144.88
813.972	130.48
814.409	122.98
814.846	110.68
815.284	110.98
815.721	102.28
816.158	110.68
816.595	116.78
817.032	172.18
817.47	203.08
817.907	181.08
818.344	150.18
818.781	115.28
819.218	103.98
819.655	125.78
820.092	190.08
820.529	217.18
820.966	181.98
821.403	143.48
821.839	106.18
822.276	102.28
822.713	126.08
823.15	129.08
823.587	113.98
824.023	142.78
824.46	296.38
824.897	891.18
825.333	1352.88
825.77	582.98
826.206	231.38
826.643	137.28
827.08	100.68
827.516	91.28
827.953	76.48
828.389	83.58
828.825	72.08
829.262	68.38
829.698	64.08
830.135	71.08
830.571	65.18
831.007	66.78
831.443	61.78
831.88	63.08
832.316	61.28
832.752	65.28
833.188	67.48
833.624	59.38
834.06	75.98
834.497	74.68
834.933	77.48
835.369	77.78
835.805	72.28
836.241	78.48
836.677	77.68
837.112	88.48
837.548	107.88
837.984	135.18
838.42	201.58
838.856	489.08
839.292	1506.58
839.727	2295.58
840.163	1060.38
840.599	920.78
841.034	2023.28
841.47	2119.78
841.906	773.28
842.341	321.38
842.777	224.48
843.212	311.68
843.648	308.28
844.083	144.28
844.519	88.18
844.954	73.28
845.39	62.78
845.825	56.28
846.261	61.08
846.696	58.28
847.131	55.78
847.566	57.98
848.002	54.78
848.437	58.28
848.872	60.88
849.307	65.68
849.742	86.08
850.177	179.98
850.613	547.78
851.048	873.68
851.483	374.48
851.918	158.18
852.353	86.78
852.788	57.18
853.223	54.68
853.657	52.98
854.092	49.98
854.527	45.98
854.962	46.18
855.397	46.98
855.832	49.38
856.266	39.28
856.701	38.88
857.136	42.88
857.57	39.58
858.005	47.38
858.44	64.18
858.874	46.08
859.309	54.68
859.743	37.18
860.178	46.18
860.612	41.58
861.047	48.58
861.481	66.68
861.915	74.48
862.35	48.28
862.784	32.58
863.218	38.68
863.653	35.48
864.087	48.38
864.521	52.18
864.955	73.48
865.39	154.78
865.824	171.78
866.258	111.68
866.692	161.18
867.126	179.38
867.56	110.38
867.994	50.98
868.428	37.48
868.862	46.88
869.296	58.18
869.73	60.98
870.164	47.28
870.598	48.68
871.031	38.58
871.465	27.38
871.899	33.38
872.333	28.18
872.766	33.08
873.2	24.68
873.634	27.88
874.067	25.98
874.501	26.78
874.935	31.48
875.368	31.28
875.802	28.88
876.235	24.48
876.669	21.18
877.102	24.78
877.535	28.98
877.969	22.68
878.402	29.58
878.836	20.18
879.269	29.08
879.702	23.28
880.135	21.48
880.569	23.88
881.002	27.18
881.435	13.48
881.868	13.58
882.301	24.58
882.734	14.78
883.167	25.58
883.601	19.88
884.034	25.18
884.467	15.48
884.899	28.68
885.332	19.08
885.765	15.68
886.198	16.28
886.631	18.18
887.064	24.08
887.497	26.28
887.929	22.68
888.362	8.38
888.795	15.68
889.228	19.68
889.66	23.08
890.093	14.88
890.526	21.08
890.958	21.68
891.391	15.28
891.823	20.08
892.256	13.28
892.688	11.48
893.121	16.28
893.553	18.88
893.985	21.78
894.418	20.98
894.85	17.78
895.282	18.68
895.715	14.48
896.147	17.58
896.579	15.28
897.011	14.38
897.444	14.78
897.876	15.28
898.308	13.98
898.74	18.78
899.172	15.78
899.604	26.78
900.036	23.18
900.468	18.08
900.9	14.48
901.332	15.48
901.764	15.08
902.196	16.48
902.628	19.08
903.06	14.48
903.491	33.38
903.923	20.98
904.355	28.78
904.787	24.78
905.218	22.48
905.65	18.28
906.082	11.68
906.513	12.88
906.945	16.78
907.376	13.68
907.808	22.88
908.239	25.58
908.671	20.08
909.102	17.58
909.534	33.68
909.965	44.18
910.397	89.48
910.828	311.88
911.259	476.18
911.691	216.18
912.122	107.98
912.553	50.68
912.984	29.98
913.415	25.18
913.847	19.58
914.278	15.58
914.709	10.28
915.14	20.98
915.571	13.58
916.002	15.18
916.433	20.38
916.864	16.98
917.295	13.28
917.726	21.98
918.157	19.28
918.587	31.28
919.018	19.58
919.449	25.68
919.88	22.38
920.311	31.98
920.741	41.98
921.172	161.58
921.603	151.18
922.033	74.28
922.464	42.08
922.895	29.78
923.325	26.08
923.756	18.88
924.186	16.18
924.617	25.58
925.047	37.78
925.478	53.08
925.908	46.28
926.338	29.68
926.769	18.28
927.199	15.78
927.629	9.48
928.06	18.68
928.49	16.58
928.92	16.18
929.35	6.58
929.78	11.78
930.21	7.38
930.641	11.58
931.071	8.08
931.501	10.68
931.931	5.38
932.361	6.58
932.791	-1.12
933.221	7.18
933.651	6.98
934.08	9.28
934.51	28.18
934.94	11.88
935.37	11.68
935.8	8.08
936.229	11.88
936.659	11.68
937.089	-5.12
937.519	12.78
937.948	22.18
938.378	22.78
938.807	4.18
939.237	9.58
939.666	7.28
940.096	0.08
940.525	8.28
940.955	6.88
941.384	5.78
941.814	-1.12
942.243	-1.32
942.672	6.48
943.102	1.48
943.531	-3.42
943.96	3.58
944.39	-0.12
944.819	-0.82
945.248	2.48
945.677	-2.62
946.106	4.78
946.535	2.78
946.964	6.98
947.393	3.88
947.822	1.68
948.251	-1.82
948.68	4.28
949.109	1.98
949.538	5.28
949.967	1.88
950.396	-1.22
950.825	2.78
951.254	-0.52
951.682	-8.92
952.111	0.68
952.54	6.38
952.969	0.48
953.397	-1.52
953.826	5.38
954.254	-4.72
954.683	2.98
955.112	-0.92
955.54	3.08
955.969	2.68
956.397	-1.52
956.826	-2.92
957.254	4.58
957.682	5.68
958.111	1.78
958.539	0.38
958.967	0.38
959.396	-0.62
959.824	0.58
960.252	-0.12
960.68	3.68
961.109	-4.82
961.537	-3.92
961.965	-0.32
962.393	3.68
962.821	-9.72
963.249	0.08
963.677	-1.72
964.105	11.78
964.533	42.58
964.961	41.48
965.389	22.98
965.817	12.18
966.245	0.38
966.672	-0.52
967.1	-8.22
967.528	0.08
967.956	-2.62
968.383	-0.62
968.811	-6.82
969.239	-1.12
969.666	-8.22
970.094	0.88
970.522	1.38
970.949	-0.42
971.377	-6.22
971.804	-5.12
972.232	-5.52
972.659	-2.02
973.087	-7.72
973.514	-5.42
973.941	-4.82
974.369	2.48
974.796	2.28
975.223	3.08
975.651	-1.12
976.078	4.18
976.505	-0.12
976.932	1.38
977.359	14.68
977.786	16.98
978.214	-4.42
978.641	0.98
979.068	-4.52
979.495	-7.62
979.922	-1.32
980.349	-3.32
980.776	3.38
981.202	-5.12
981.629	6.88
982.056	9.38
982.483	-2.12
982.91	7.58
983.337	-1.02
983.763	3.78
984.19	-2.92
984.617	-1.62
985.043	-8.12
985.47	-4.42
985.897	-8.72
986.323	-6.22
986.75	-0.32
987.176	2.18
987.603	2.08
988.029	2.08
988.456	-2.82
988.882	-3.22
989.308	-2.22
989.735	-4.52
990.161	-1.92
990.587	-4.82
991.014	-0.82
991.44	3.18
991.866	-5.02
992.292	-3.22
992.719	-4.92
993.145	-2.02
993.571	-9.82
993.997	1.38
994.423	-0.82
994.849	1.68
995.275	0.48
995.701	-1.02
996.127	-3.52
996.553	-3.22
996.979	-1.12
997.405	0.08
997.83	-5.02
998.256	-6.52
998.682	-4.72
999.108	-9.72
999.534	-1.12
999.959	-4.22
1000.385	-3.12
1000.811	3.18
1001.236	-12.02
1001.662	-8.82
1002.087	-14.02
1002.513	3.98
1002.938	5.68
1003.364	-5.02
1003.789	-4.72
1004.215	-1.02
1004.64	-1.32
1005.066	-0.82
1005.491	0.28
1005.916	-7.72
1006.342	-6.92
1006.767	-5.82
1007.192	2.28
1007.617	-5.82
1008.042	-5.02
1008.468	-4.12
1008.893	-5.32
1009.318	-3.82
1009.743	-2.42
1010.168	3.68
1010.593	0.28
1011.018	-6.62
1011.443	-1.02
1011.868	0.28
1012.293	-9.52
1012.718	-8.72
1013.143	-2.02
1013.567	2.28
1013.992	-6.52
1014.417	-16.82
1014.842	5.98
1015.267	-8.32
1015.691	-1.72
1016.116	6.58
1016.541	2.58
1016.965	2.58
1017.39	6.58
1017.814	-0.32
1018.239	-5.52
1018.663	-13.32
1019.088	-8.02
1019.512	-4.02
1019.937	-5.92
1020.361	-3.82
1020.785	-9.42
1021.21	-6.52
1021.634	-2.22
1022.058	-1.32
1022.483	8.48
1022.907	-6.02
1023.331	-5.82
1023.755	-3.32
1024.179	-4.42
1024.604	-7.92
1025.028	1.08
1025.452	-6.52
1025.876	-4.32
1026.3	2.38
1026.724	-13.82
1027.148	-1.72
1027.572	-6.52
1027.996	-6.42
1028.42	-1.52
1028.843	-4.42
1029.267	2.08
1029.691	-4.62
1030.115	-3.92
1030.539	-10.12
1030.962	-7.32
1031.386	-17.52
1031.81	-1.72
1032.233	-2.52
1032.657	-6.72
1033.08	-5.02
1033.504	-9.92
1033.927	-6.42
1034.351	-4.72
1034.774	-1.92
1035.198	-1.72
1035.621	-3.32
1036.045	-3.22
1036.468	2.48
1036.891	-5.92
1037.315	-8.32
1037.738	-11.52
1038.161	-4.02
1038.584	-7.52
1039.008	-10.22
1039.431	-5.92
1039.854	-0.02
1040.277	-7.42
1040.7	-9.82
1041.123	-9.52
1041.546	-9.02
1041.969	-8.92
1042.392	-7.92
1042.815	-6.62
1043.238	-0.32
1043.661	1.38
1044.084	-11.42
1044.507	0.28
1044.93	-4.62
1045.352	-5.02
1045.775	1.68
1046.198	1.38
1046.621	-7.22
1047.043	-1.12
1047.466	9.88
1047.889	-4.22
1048.311	-4.62
1048.734	-8.72
1049.156	0.78
1049.579	1.18
1050.001	-3.82
1050.424	-3.32
1050.846	-2.72
1051.269	-3.42
1051.691	-2.82
1052.113	-5.32
1052.536	2.18
1052.958	-2.42
1053.38	-4.12
1053.802	-8.82
1054.225	2.88
1054.647	-8.72
1055.069	-6.22
1055.491	1.28
1055.913	-13.82
1056.335	-2.42
1056.757	-3.92
1057.179	-10.32
1057.601	0.78
1058.023	-8.52
1058.445	-3.72
1058.867	-5.02
1059.289	-2.92
1059.711	-4.22
1060.133	-5.42
1060.555	-3.12
1060.976	-5.02
1061.398	-2.62
1061.82	-11.32
1062.241	-4.02
1062.663	-13.02
1063.085	-8.42
1063.506	0.38
1063.928	-2.72
1064.35	2.58
1064.771	-9.32
1065.193	0.98
1065.614	-15.62
1066.035	-4.22
1066.457	-3.42
1066.878	5.18
1067.3	-10.52
1067.721	-0.52
1068.142	-7.52
1068.564	-0.02
1068.985	-7.82
1069.406	-8.52
1069.827	-7.92
1070.248	-3.02
1070.67	0.98
1071.091	-8.92
1071.512	1.48
1071.933	-6.32
1072.354	-3.42
1072.775	-8.22
1073.196	-10.42
1073.617	-3.82
1074.038	-3.12
1074.459	1.98
1074.88	-9.42
1075.3	1.98
1075.721	-2.52
1076.142	-4.32
1076.563	-0.52
1076.983	-7.32
1077.404	-3.72
1077.825	-11.72
1078.246	-4.42
1078.666	-14.22
1079.087	-2.22
1079.507	-11.12
1079.928	0.68
1080.348	1.18
1080.769	-11.32
1081.189	-6.12
1081.61	-4.12
1082.03	-3.22
1082.451	-9.12
1082.871	-5.32
1083.291	-2.52
1083.711	-10.92
1084.132	-4.42
1084.552	-5.52
1084.972	0.68
1085.392	-11.92
1085.813	-8.62
1086.233	-8.42
1086.653	-5.32
1087.073	-5.42
1087.493	-9.42
1087.913	-5.02
1088.333	-11.92
1088.753	-4.82
1089.173	-0.52
1089.593	0.28
1090.013	-1.62
1090.433	-1.52
1090.852	-6.42
1091.272	-0.12
1091.692	0.28
1092.112	-3.32
1092.531	-7.02
1092.951	-8.22
1093.371	-1.72
1093.79	-4.12
1094.21	-5.02
1094.63	-9.02
1095.049	-1.92
1095.469	-5.72
1095.888	-3.42
1096.308	-1.42
1096.727	1.78
1097.146	-4.52
1097.566	-8.02
1097.985	-10.32
1098.405	-4.02
1098.824	-2.72
1099.243	-6.82
1099.662	-10.62
1100.082	-4.32
1100.501	-3.72
1100.92	-7.32
1101.339	-7.62
1101.758	-7.12
