Data from 20171114-ORNL-Ar_H_NY_Subt18_08-06-54-310.txt Node
Date: Tue Nov 14 08:06:54 EST 2017
User: Ender
Spectrometer: HR+D1039
Trigger mode: 0
Integration Time (sec): 2.730000E-2
Scans to average: 10
Electric dark correction enabled: true
Nonlinearity correction enabled: false
Boxcar width: 0
XAxis mode: Wavelengths
Number of Pixels in Spectrum: 2048
>>>>>Begin Spectral Data<<<<<
187.836	-4.38
188.309	-4.38
188.782	-4.38
189.255	2.32
189.728	-4.08
190.201	8.62
190.674	4.82
191.147	-0.98
191.619	-7.58
192.092	-0.08
192.565	2.12
193.038	3.02
193.511	4.32
193.984	3.22
194.456	-0.08
194.929	-3.68
195.402	-6.78
195.874	-0.78
196.347	-7.18
196.82	-11.78
197.292	7.62
197.765	-3.88
198.237	-11.98
198.71	2.02
199.182	-1.48
199.655	4.82
200.127	4.02
200.6	-2.78
201.072	-3.38
201.544	-3.88
202.017	-1.48
202.489	-0.08
202.961	-0.48
203.433	-4.58
203.906	-13.38
204.378	-7.68
204.85	-4.28
205.322	-4.58
205.794	-3.08
206.266	-0.58
206.739	-8.78
207.211	-2.58
207.683	-10.18
208.155	-3.98
208.627	-10.48
209.099	-1.08
209.57	-12.48
210.042	-7.28
210.514	-3.18
210.986	-4.68
211.458	-8.78
211.93	-8.68
212.402	-0.48
212.873	-4.68
213.345	-8.48
213.817	-10.68
214.288	-3.78
214.76	-14.98
215.232	-0.98
215.703	-1.88
216.175	-4.08
216.646	0.02
217.118	-8.08
217.589	-3.08
218.061	-3.08
218.532	-7.68
219.004	-3.58
219.475	-5.28
219.946	-3.78
220.418	0.02
220.889	-4.68
221.36	0.02
221.832	-11.38
222.303	-9.68
222.774	-1.88
223.245	-3.58
223.717	-5.88
224.188	-1.98
224.659	-3.78
225.13	-12.08
225.601	-5.68
226.072	-6.98
226.543	1.32
227.014	-3.58
227.485	-3.48
227.956	-10.38
228.427	-4.38
228.898	-1.98
229.369	0.72
229.839	-5.08
230.31	-11.38
230.781	0.82
231.252	-1.48
231.722	-4.18
232.193	-3.88
232.664	-6.18
233.135	1.62
233.605	3.32
234.076	-12.18
234.546	3.72
235.017	1.62
235.487	-7.18
235.958	-11.78
236.428	-8.08
236.899	-3.08
237.369	-3.48
237.84	-6.08
238.31	1.02
238.78	1.32
239.251	-11.68
239.721	-7.78
240.191	-8.78
240.662	-5.48
241.132	-5.28
241.602	-6.98
242.072	-2.58
242.542	0.52
243.013	-6.58
243.483	-0.88
243.953	1.22
244.423	-1.58
244.893	-10.08
245.363	0.52
245.833	1.52
246.303	-9.08
246.773	6.72
247.243	-0.38
247.712	-3.98
248.182	8.42
248.652	-0.58
249.122	-14.68
249.592	2.22
250.061	-4.28
250.531	6.32
251.001	-4.68
251.471	7.62
251.94	1.92
252.41	-2.68
252.879	-4.78
253.349	6.52
253.818	1.32
254.288	-1.18
254.757	-0.98
255.227	0.32
255.696	1.02
256.166	-0.08
256.635	-0.08
257.105	4.22
257.574	-2.08
258.043	1.92
258.513	-2.18
258.982	3.12
259.451	-3.48
259.92	-0.48
260.389	-4.38
260.859	9.32
261.328	2.72
261.797	-0.28
262.266	0.32
262.735	4.32
263.204	-1.38
263.673	-2.18
264.142	1.52
264.611	-10.58
265.08	-6.38
265.549	-5.48
266.018	8.22
266.487	-3.38
266.955	-8.38
267.424	-0.78
267.893	-0.88
268.362	-0.08
268.83	2.72
269.299	8.12
269.768	3.72
270.236	-3.98
270.705	-3.08
271.174	2.62
271.642	1.42
272.111	2.72
272.579	4.72
273.048	2.62
273.516	-2.18
273.985	5.32
274.453	4.72
274.922	10.02
275.39	5.42
275.858	-2.58
276.327	8.52
276.795	10.22
277.263	2.02
277.731	9.52
278.2	1.22
278.668	4.82
279.136	8.02
279.604	-1.78
280.072	7.92
280.54	5.42
281.008	-3.18
281.477	11.42
281.945	9.92
282.413	11.02
282.881	2.22
283.348	3.52
283.816	15.62
284.284	3.42
284.752	10.82
285.22	11.42
285.688	10.02
286.156	13.12
286.623	23.62
287.091	7.22
287.559	13.72
288.026	10.52
288.494	8.62
288.962	3.22
289.429	11.22
289.897	10.42
290.364	9.32
290.832	11.92
291.3	10.22
291.767	14.82
292.234	10.22
292.702	7.52
293.169	8.42
293.637	15.02
294.104	9.12
294.571	3.52
295.039	6.32
295.506	6.62
295.973	9.42
296.44	10.62
296.908	8.82
297.375	14.22
297.842	13.92
298.309	11.32
298.776	8.52
299.243	10.22
299.71	8.72
300.177	18.52
300.644	16.72
301.111	17.22
301.578	13.72
302.045	9.62
302.512	15.82
302.979	17.12
303.446	11.82
303.913	14.02
304.379	12.42
304.846	18.62
305.313	17.22
305.78	15.72
306.246	18.02
306.713	21.22
307.18	17.82
307.646	20.82
308.113	17.12
308.579	21.32
309.046	19.62
309.512	23.32
309.979	13.92
310.445	25.82
310.912	15.32
311.378	26.82
311.845	20.22
312.311	24.32
312.777	25.02
313.244	22.12
313.71	27.92
314.176	18.32
314.642	20.32
315.109	21.52
315.575	31.02
316.041	30.72
316.507	29.92
316.973	30.32
317.439	25.52
317.905	28.62
318.371	30.12
318.837	26.52
319.303	31.72
319.769	23.52
320.235	30.92
320.701	31.52
321.167	23.72
321.633	19.12
322.099	28.62
322.564	27.12
323.03	31.32
323.496	27.82
323.962	35.92
324.427	28.92
324.893	38.72
325.359	33.22
325.824	30.82
326.29	32.72
326.755	25.12
327.221	34.22
327.686	37.42
328.152	41.52
328.617	33.22
329.083	35.82
329.548	41.42
330.014	47.42
330.479	32.42
330.944	37.82
331.41	34.12
331.875	38.42
332.34	34.12
332.805	37.52
333.271	44.12
333.736	26.82
334.201	44.02
334.666	44.32
335.131	49.12
335.596	48.62
336.061	38.62
336.526	38.62
336.991	42.12
337.456	53.22
337.921	43.72
338.386	37.12
338.851	38.42
339.316	41.92
339.781	39.52
340.246	44.42
340.711	43.22
341.175	47.02
341.64	36.42
342.105	43.42
342.569	54.02
343.034	49.92
343.499	43.02
343.963	48.12
344.428	58.32
344.893	57.22
345.357	54.72
345.822	53.32
346.286	59.62
346.751	59.52
347.215	50.02
347.679	58.02
348.144	81.72
348.608	74.52
349.073	57.12
349.537	70.62
350.001	69.92
350.465	79.92
350.93	71.32
351.394	70.12
351.858	64.42
352.322	81.72
352.786	71.22
353.25	88.12
353.715	95.42
354.179	80.12
354.643	103.62
355.107	102.72
355.571	89.32
356.035	86.52
356.498	93.62
356.962	96.72
357.426	110.42
357.89	96.32
358.354	77.32
358.818	72.72
359.281	67.72
359.745	60.92
360.209	67.82
360.673	62.02
361.136	71.32
361.6	76.42
362.064	74.72
362.527	75.92
362.991	76.12
363.454	73.52
363.918	73.42
364.381	68.82
364.845	73.62
365.308	81.22
365.772	79.72
366.235	76.12
366.698	79.62
367.162	75.22
367.625	75.92
368.088	81.82
368.552	79.72
369.015	82.32
369.478	86.42
369.941	88.42
370.404	85.92
370.867	90.12
371.331	86.62
371.794	96.52
372.257	85.02
372.72	95.12
373.183	90.92
373.646	82.52
374.109	88.62
374.572	98.52
375.035	90.32
375.497	92.42
375.96	101.42
376.423	96.52
376.886	107.22
377.349	103.02
377.811	96.02
378.274	94.22
378.737	97.72
379.199	107.52
379.662	92.02
380.125	104.22
380.587	95.62
381.05	97.82
381.512	107.72
381.975	120.02
382.437	107.72
382.9	106.12
383.362	114.82
383.825	112.62
384.287	123.22
384.75	111.02
385.212	124.02
385.674	127.32
386.136	124.72
386.599	113.92
387.061	116.02
387.523	111.82
387.985	116.82
388.447	122.92
388.91	119.82
389.372	122.82
389.834	119.22
390.296	123.22
390.758	129.52
391.22	128.52
391.682	141.02
392.144	151.02
392.606	139.42
393.068	134.12
393.529	139.52
393.991	134.42
394.453	124.02
394.915	129.82
395.377	126.82
395.838	133.42
396.3	126.92
396.762	130.02
397.224	124.22
397.685	122.42
398.147	125.52
398.608	130.52
399.07	118.82
399.531	130.12
399.993	138.02
400.454	143.62
400.916	139.82
401.377	138.42
401.839	152.12
402.3	149.62
402.762	160.92
403.223	174.52
403.684	156.92
404.145	155.82
404.607	161.62
405.068	153.82
405.529	159.52
405.99	178.52
406.451	165.72
406.913	168.82
407.374	153.62
407.835	155.02
408.296	160.72
408.757	167.22
409.218	178.22
409.679	165.42
410.14	173.42
410.601	169.02
411.062	175.32
411.522	175.72
411.983	159.42
412.444	163.62
412.905	174.82
413.366	183.52
413.826	192.42
414.287	208.22
414.748	258.72
415.208	244.72
415.669	211.62
416.13	206.22
416.59	200.92
417.051	213.22
417.511	217.72
417.972	228.32
418.432	247.52
418.893	280.52
419.353	244.32
419.814	193.92
420.274	182.92
420.734	181.92
421.195	195.02
421.655	193.32
422.115	186.82
422.576	195.92
423.036	199.52
423.496	208.42
423.956	211.42
424.416	230.02
424.876	265.12
425.336	262.92
425.797	259.52
426.257	253.42
426.717	236.12
427.177	228.62
427.637	225.52
428.097	237.52
428.556	236.32
429.016	256.72
429.476	256.62
429.936	268.12
430.396	270.22
430.856	279.42
431.315	304.12
431.775	334.22
432.235	364.92
432.694	349.22
433.154	352.42
433.614	385.52
434.073	328.22
434.533	283.02
434.993	263.72
435.452	268.62
435.912	288.72
436.371	275.02
436.83	274.12
437.29	257.12
437.749	249.02
438.209	242.72
438.668	266.92
439.127	283.92
439.587	262.72
440.046	252.62
440.505	265.02
440.964	276.92
441.424	313.42
441.883	309.32
442.342	267.82
442.801	229.02
443.26	225.82
443.719	224.82
444.178	217.22
444.637	214.62
445.096	221.42
445.555	228.32
446.014	221.92
446.473	225.52
446.932	232.12
447.391	230.22
447.849	228.22
448.308	224.32
448.767	220.92
449.226	240.92
449.685	245.12
450.143	250.32
450.602	235.72
451.061	237.42
451.519	247.62
451.978	236.72
452.436	238.02
452.895	247.82
453.353	256.82
453.812	253.32
454.27	246.12
454.729	246.92
455.187	246.32
455.646	253.42
456.104	255.72
456.562	263.42
457.021	266.62
457.479	264.42
457.937	275.02
458.395	266.22
458.854	257.42
459.312	263.52
459.77	271.12
460.228	258.12
460.686	244.22
461.144	249.22
461.602	248.12
462.06	250.32
462.518	261.92
462.976	265.82
463.434	258.92
463.892	267.42
464.35	280.82
464.808	293.32
465.266	275.62
465.724	274.32
466.181	276.32
466.639	280.92
467.097	298.62
467.555	309.82
468.012	310.12
468.47	322.12
468.928	340.42
469.385	350.62
469.843	357.92
470.3	353.62
470.758	373.72
471.215	392.42
471.673	416.32
472.13	414.42
472.588	427.02
473.045	386.72
473.503	383.52
473.96	402.72
474.417	411.12
474.875	437.82
475.332	477.92
475.789	470.22
476.246	470.42
476.704	493.32
477.161	519.52
477.618	534.32
478.075	558.72
478.532	615.32
478.989	689.82
479.446	793.82
479.903	766.12
480.36	794.12
480.817	832.82
481.274	926.02
481.731	1016.32
482.188	1101.12
482.645	1227.92
483.102	1308.62
483.558	1416.12
484.015	1461.72
484.472	1446.92
484.929	1396.12
485.385	1353.02
485.842	1322.42
486.299	1279.32
486.755	1228.82
487.212	1057.62
487.668	902.32
488.125	832.52
488.582	767.82
489.038	742.52
489.494	709.42
489.951	692.12
490.407	665.82
490.864	651.92
491.32	649.52
491.776	646.32
492.233	654.62
492.689	618.72
493.145	618.52
493.602	612.62
494.058	619.42
494.514	626.52
494.97	645.72
495.426	659.62
495.882	630.62
496.338	624.42
496.794	639.92
497.251	623.32
497.707	636.72
498.163	646.32
498.618	656.52
499.074	651.42
499.53	677.82
499.986	688.42
500.442	665.02
500.898	639.82
501.354	617.72
501.809	638.82
502.265	629.42
502.721	652.82
503.177	648.32
503.632	649.02
504.088	660.52
504.543	679.22
504.999	702.52
505.455	678.62
505.91	654.12
506.366	656.52
506.821	651.02
507.277	652.02
507.732	657.22
508.187	650.92
508.643	658.12
509.098	662.02
509.553	674.12
510.009	678.82
510.464	697.92
510.919	719.32
511.375	715.22
511.83	723.02
512.285	744.52
512.74	792.62
513.195	807.72
513.65	793.72
514.105	793.22
514.56	784.42
515.015	808.72
515.47	816.72
515.925	804.92
516.38	799.12
516.835	824.22
517.29	806.82
517.745	792.22
518.2	780.92
518.655	777.82
519.109	769.42
519.564	749.72
520.019	749.32
520.474	748.72
520.928	750.52
521.383	735.62
521.838	730.02
522.292	743.82
522.747	737.52
523.201	728.52
523.656	719.12
524.11	719.22
524.565	714.32
525.019	712.12
525.474	719.02
525.928	720.62
526.382	714.72
526.837	718.22
527.291	732.62
527.745	725.22
528.2	725.82
528.654	711.32
529.108	711.62
529.562	711.22
530.016	711.92
530.47	718.42
530.925	709.12
531.379	709.42
531.833	728.42
532.287	720.42
532.741	721.52
533.195	722.42
533.649	722.32
534.103	736.82
534.556	725.82
535.01	734.62
535.464	729.92
535.918	742.72
536.372	752.62
536.826	743.92
537.279	733.22
537.733	739.82
538.187	738.02
538.64	726.22
539.094	739.82
539.548	752.72
540.001	749.02
540.455	754.12
540.908	758.12
541.362	757.12
541.815	774.42
542.269	787.52
542.722	785.42
543.175	794.02
543.629	796.62
544.082	817.52
544.536	810.92
544.989	807.82
545.442	815.62
545.895	808.32
546.349	810.52
546.802	810.92
547.255	821.92
547.708	841.92
548.161	845.32
548.614	850.22
549.067	852.52
549.52	850.52
549.973	828.42
550.426	833.52
550.879	818.92
551.332	831.62
551.785	834.72
552.238	830.92
552.691	850.82
553.144	870.12
553.596	877.42
554.049	889.02
554.502	926.22
554.955	940.12
555.407	938.32
555.86	934.42
556.313	928.32
556.765	914.42
557.218	904.72
557.67	915.22
558.123	902.62
558.576	904.32
559.028	909.62
559.48	913.22
559.933	913.52
560.385	867.82
560.838	846.82
561.29	816.52
561.742	822.12
562.195	801.92
562.647	795.02
563.099	794.52
563.551	803.42
564.004	813.42
564.456	790.42
564.908	785.62
565.36	764.62
565.812	755.32
566.264	742.22
566.716	751.22
567.168	719.72
567.62	725.52
568.072	712.52
568.524	714.72
568.976	717.62
569.428	697.92
569.88	700.82
570.332	704.22
570.784	705.02
571.235	713.92
571.687	717.42
572.139	723.62
572.59	729.42
573.042	736.02
573.494	729.82
573.945	731.32
574.397	708.32
574.849	719.22
575.3	711.52
575.752	701.22
576.203	698.02
576.655	709.82
577.106	690.72
577.557	692.52
578.009	700.02
578.46	683.32
578.912	681.92
579.363	683.72
579.814	696.72
580.265	686.52
580.717	688.42
581.168	685.72
581.619	697.02
582.07	702.72
582.521	703.32
582.972	689.42
583.423	691.22
583.875	697.32
584.326	703.92
584.777	718.32
585.227	738.82
585.678	758.82
586.129	779.62
586.58	796.22
587.031	824.52
587.482	858.82
587.933	889.62
588.384	862.62
588.834	815.32
589.285	783.62
589.736	790.72
590.186	798.22
590.637	785.72
591.088	774.32
591.538	759.42
591.989	748.62
592.439	742.22
592.89	742.82
593.34	725.82
593.791	735.52
594.241	721.52
594.692	723.02
595.142	723.92
595.593	717.92
596.043	717.12
596.493	726.82
596.943	734.82
597.394	741.12
597.844	730.22
598.294	756.72
598.744	770.72
599.195	803.92
599.645	846.72
600.095	885.72
600.545	944.82
600.995	998.02
601.445	1057.92
601.895	1108.22
602.345	1175.42
602.795	1145.02
603.245	1098.52
603.695	1041.72
604.145	992.12
604.594	932.02
605.044	881.72
605.494	827.12
605.944	779.22
606.393	768.22
606.843	745.02
607.293	745.72
607.743	745.82
608.192	755.52
608.642	766.72
609.091	781.12
609.541	781.22
609.99	778.02
610.44	773.52
610.889	733.12
611.339	713.12
611.788	688.02
612.238	715.22
612.687	715.02
613.136	710.82
613.586	728.92
614.035	725.62
614.484	728.42
614.933	725.92
615.383	731.22
615.832	724.72
616.281	713.62
616.73	685.82
617.179	668.72
617.628	658.52
618.077	655.02
618.526	638.22
618.975	635.72
619.424	629.82
619.873	623.02
620.322	619.02
620.771	617.52
621.22	628.52
621.669	614.52
622.118	602.12
622.567	599.02
623.015	581.52
623.464	588.12
623.913	573.12
624.361	569.22
624.81	574.82
625.259	565.02
625.707	565.32
626.156	564.22
626.604	585.02
627.053	582.62
627.501	575.72
627.95	581.22
628.398	595.62
628.847	586.42
629.295	586.82
629.744	587.12
630.192	577.42
630.64	570.62
631.089	559.62
631.537	550.72
631.985	545.02
632.433	556.42
632.881	536.72
633.33	541.92
633.778	539.72
634.226	525.92
634.674	560.52
635.122	553.92
635.57	554.52
636.018	567.02
636.466	569.62
636.914	557.32
637.362	574.12
637.81	579.22
638.258	590.82
638.705	582.32
639.153	624.02
639.601	628.12
640.049	654.72
640.497	681.42
640.944	702.52
641.392	648.42
641.84	618.02
642.287	593.92
642.735	575.12
643.182	576.72
643.63	577.12
644.078	571.92
644.525	583.22
644.973	586.22
645.42	595.32
645.867	632.92
646.315	649.92
646.762	669.02
647.21	696.32
647.657	716.02
648.104	741.72
648.551	763.92
648.999	820.92
649.446	889.22
649.893	973.12
650.34	1109.72
650.787	1311.52
651.234	1623.82
651.682	2099.82
652.129	2866.42
652.576	4030.72
653.023	5893.42
653.47	7975.32
653.917	9940.22
654.363	11466.22
654.81	12664.32
655.257	11981.72
655.704	7949.72
656.151	4793.52
656.598	3147.52
657.044	2270.82
657.491	1754.82
657.938	1418.42
658.385	1197.02
658.831	1046.52
659.278	924.02
659.724	832.72
660.171	773.32
660.618	724.52
661.064	681.92
661.511	665.12
661.957	657.72
662.404	645.72
662.85	651.92
663.296	625.62
663.743	565.12
664.189	540.22
664.635	536.82
665.082	528.12
665.528	535.22
665.974	517.02
666.42	511.82
666.867	501.82
667.313	496.52
667.759	474.32
668.205	456.02
668.651	459.32
669.097	445.52
669.543	452.02
669.989	454.82
670.435	454.82
670.881	451.22
671.327	461.62
671.773	481.32
672.219	502.32
672.665	551.02
673.11	593.42
673.556	642.82
674.002	685.52
674.448	675.72
674.893	567.42
675.339	485.62
675.785	447.12
676.23	432.12
676.676	398.82
677.122	395.82
677.567	381.82
678.013	380.92
678.458	362.12
678.904	370.72
679.349	360.52
679.794	357.52
680.24	361.22
680.685	358.32
681.131	361.92
681.576	355.92
682.021	373.32
682.466	355.12
682.912	353.02
683.357	361.92
683.802	386.12
684.247	420.82
684.692	464.32
685.137	514.42
685.583	549.02
686.028	574.62
686.473	537.22
686.918	453.82
687.363	427.52
687.807	399.42
688.252	371.52
688.697	365.42
689.142	344.92
689.587	335.72
690.032	328.62
690.477	351.32
690.921	356.12
691.366	389.72
691.811	403.72
692.255	440.72
692.7	471.62
693.145	510.92
693.589	721.22
694.034	1172.72
694.478	1599.92
694.923	1788.02
695.367	2343.22
695.812	1224.62
696.256	521.32
696.701	381.32
697.145	349.02
697.59	333.52
698.034	314.22
698.478	334.02
698.922	327.92
699.367	326.12
699.811	344.02
700.255	365.92
700.699	390.02
701.143	431.62
701.588	479.32
702.032	529.22
702.476	534.42
702.92	507.52
703.364	516.62
703.808	659.12
704.252	1077.32
704.696	1501.82
705.14	1729.32
705.584	2201.72
706.027	1096.22
706.471	535.32
706.915	400.02
707.359	363.22
707.803	324.02
708.246	318.02
708.69	319.22
709.134	328.12
709.577	317.82
710.021	327.82
710.465	310.22
710.908	302.72
711.352	311.82
711.795	319.62
712.239	361.72
712.682	394.12
713.126	423.02
713.569	463.82
714.012	360.92
714.456	311.02
714.899	294.02
715.342	279.62
715.786	259.92
716.229	268.12
716.672	260.02
717.115	254.22
717.558	249.72
718.002	256.52
718.445	266.82
718.888	286.52
719.331	294.52
719.774	316.42
720.217	306.22
720.66	290.32
721.103	279.72
721.546	261.02
721.989	251.72
722.432	240.62
722.874	246.92
723.317	237.22
723.76	243.42
724.203	263.22
724.645	324.32
725.088	454.82
725.531	586.02
725.974	659.02
726.416	556.02
726.859	319.42
727.301	252.22
727.744	243.52
728.187	240.92
728.629	241.82
729.071	243.82
729.514	267.22
729.956	276.82
730.399	283.22
730.841	297.72
731.283	280.32
731.726	272.72
732.168	269.62
732.61	276.42
733.053	295.42
733.495	330.42
733.937	364.62
734.379	410.92
734.821	452.52
735.263	554.42
735.705	854.32
736.148	1635.52
736.59	2670.22
737.032	3149.12
737.474	2551.62
737.916	835.72
738.357	447.12
738.799	344.72
739.241	303.22
739.683	293.62
740.125	305.62
740.567	307.22
741.008	327.52
741.45	331.32
741.892	322.02
742.334	354.22
742.775	379.32
743.217	354.32
743.658	280.42
744.1	261.42
744.542	262.92
744.983	326.92
745.425	364.52
745.866	357.42
746.307	286.42
746.749	288.82
747.19	332.12
747.632	469.72
748.073	923.22
748.514	1927.32
748.956	2961.42
749.397	3718.82
749.838	3072.02
750.279	3057.02
750.72	1549.42
751.162	573.62
751.603	327.72
752.044	261.52
752.485	211.72
752.926	219.32
753.367	204.22
753.808	200.92
754.249	195.92
754.69	195.42
755.131	189.92
755.572	179.52
756.013	190.72
756.453	185.02
756.894	193.92
757.335	201.02
757.776	206.32
758.216	201.52
758.657	199.32
759.098	204.92
759.538	233.02
759.979	273.62
760.42	391.72
760.86	730.52
761.301	1905.62
761.741	4587.12
762.182	6634.92
762.622	4700.92
763.063	1356.12
763.503	549.02
763.943	333.22
764.384	270.92
764.824	255.12
765.264	241.22
765.705	217.92
766.145	182.42
766.585	177.02
767.025	176.42
767.465	167.82
767.906	181.92
768.346	198.92
768.786	221.62
769.226	220.72
769.666	316.22
770.106	639.82
770.546	1616.42
770.986	2726.62
771.426	2459.72
771.866	814.02
772.306	331.22
772.745	208.22
773.185	170.32
773.625	168.52
774.065	149.62
774.505	162.72
774.944	216.22
775.384	377.52
775.824	613.12
776.263	596.92
776.703	291.42
777.142	160.82
777.582	142.52
778.021	122.42
778.461	126.92
778.9	127.02
779.34	129.02
779.779	114.82
780.219	110.92
780.658	113.42
781.097	119.12
781.537	117.32
781.976	111.92
782.415	103.52
782.855	99.52
783.294	102.52
783.733	109.42
784.172	106.92
784.611	105.42
785.05	111.22
785.489	111.22
785.928	115.52
786.367	116.82
786.806	121.62
787.245	132.52
787.684	138.92
788.123	144.92
788.562	133.62
789.001	125.82
789.44	119.02
789.879	120.12
790.317	123.32
790.756	129.22
791.195	133.52
791.634	150.02
792.072	202.02
792.511	368.92
792.95	1035.22
793.388	2187.32
793.827	1971.52
794.265	686.12
794.704	283.92
795.142	187.92
795.581	155.32
796.019	140.02
796.458	135.52
796.896	129.12
797.334	135.02
797.773	156.72
798.211	227.62
798.649	448.52
799.087	1049.22
799.526	1649.12
799.964	2074.92
800.402	2080.12
800.84	782.42
801.278	320.42
801.716	191.72
802.154	154.22
802.592	150.32
803.03	146.72
803.468	136.12
803.906	147.52
804.344	148.82
804.782	140.32
805.22	138.92
805.658	134.72
806.096	148.32
806.533	164.22
806.971	179.52
807.409	225.22
807.847	327.82
808.284	685.32
808.722	1935.72
809.16	3433.52
809.597	3251.12
810.035	5627.02
810.472	5956.22
810.91	2172.82
811.347	823.72
811.785	420.42
812.222	267.62
812.66	204.52
813.097	171.42
813.535	148.52
813.972	132.62
814.409	118.02
814.846	109.42
815.284	116.32
815.721	104.22
816.158	109.72
816.595	106.12
817.032	154.52
817.47	187.02
817.907	142.22
818.344	102.52
818.781	104.02
819.218	92.32
819.655	129.92
820.092	193.92
820.529	221.52
820.966	172.02
821.403	134.62
821.839	103.42
822.276	94.42
822.713	122.82
823.15	141.42
823.587	126.82
824.023	150.82
824.46	310.52
824.897	927.02
825.333	1398.22
825.77	599.92
826.206	238.72
826.643	136.32
827.08	102.12
827.516	83.92
827.953	78.32
828.389	78.72
828.825	71.82
829.262	67.52
829.698	61.72
830.135	62.42
830.571	64.22
831.007	63.92
831.443	66.52
831.88	60.72
832.316	64.32
832.752	69.12
833.188	66.62
833.624	67.12
834.06	66.62
834.497	71.12
834.933	65.42
835.369	73.62
835.805	70.52
836.241	72.92
836.677	88.22
837.112	89.52
837.548	108.42
837.984	134.22
838.42	206.32
838.856	517.62
839.292	1577.22
839.727	2368.52
840.163	1114.42
840.599	960.92
841.034	2099.82
841.47	2193.72
841.906	797.02
842.341	329.82
842.777	200.92
843.212	209.92
843.648	188.42
844.083	111.72
844.519	80.72
844.954	71.32
845.39	52.02
845.825	49.02
846.261	61.42
846.696	51.62
847.131	55.72
847.566	56.82
848.002	53.72
848.437	50.02
848.872	55.62
849.307	66.72
849.742	86.92
850.177	184.62
850.613	565.62
851.048	904.02
851.483	392.42
851.918	153.72
852.353	84.92
852.788	55.02
853.223	55.82
853.657	47.52
854.092	45.22
854.527	47.12
854.962	46.02
855.397	43.32
855.832	52.42
856.266	48.02
856.701	42.12
857.136	33.82
857.57	44.62
858.005	50.82
858.44	56.62
858.874	46.72
859.309	52.62
859.743	42.82
860.178	43.72
860.612	42.52
861.047	54.82
861.481	66.42
861.915	82.32
862.35	53.12
862.784	35.62
863.218	37.22
863.653	30.32
864.087	45.02
864.521	57.02
864.955	67.62
865.39	151.82
865.824	181.12
866.258	109.82
866.692	175.52
867.126	191.62
867.56	112.62
867.994	59.42
868.428	36.02
868.862	49.62
869.296	53.22
869.73	62.32
870.164	57.62
870.598	51.22
871.031	34.42
871.465	29.22
871.899	31.02
872.333	26.22
872.766	27.12
873.2	24.12
873.634	25.32
874.067	22.42
874.501	23.62
874.935	29.32
875.368	34.32
875.802	26.12
876.235	30.32
876.669	22.22
877.102	20.42
877.535	27.52
877.969	24.62
878.402	27.42
878.836	14.22
879.269	26.62
879.702	20.22
880.135	19.62
880.569	21.92
881.002	25.12
881.435	20.22
881.868	12.72
882.301	23.82
882.734	11.92
883.167	21.42
883.601	17.32
884.034	19.72
884.467	14.22
884.899	27.02
885.332	19.92
885.765	14.12
886.198	8.32
886.631	14.22
887.064	18.12
887.497	17.22
887.929	27.22
888.362	10.52
888.795	11.62
889.228	17.72
889.66	18.02
890.093	20.32
890.526	16.62
890.958	18.22
891.391	16.52
891.823	16.12
892.256	12.42
892.688	11.92
893.121	19.02
893.553	17.02
893.985	25.92
894.418	15.42
894.85	12.92
895.282	16.32
895.715	20.22
896.147	15.32
896.579	15.72
897.011	11.12
897.444	18.42
897.876	12.52
898.308	14.52
898.74	14.62
899.172	6.62
899.604	18.02
900.036	17.02
900.468	13.92
900.9	16.62
901.332	17.42
901.764	12.52
902.196	21.32
902.628	19.02
903.06	16.52
903.491	33.32
903.923	24.22
904.355	22.82
904.787	25.92
905.218	21.62
905.65	14.72
906.082	16.02
906.513	13.12
906.945	15.02
907.376	11.62
907.808	17.62
908.239	19.02
908.671	14.22
909.102	21.12
909.534	20.12
909.965	43.02
910.397	93.32
910.828	325.32
911.259	483.22
911.691	224.12
912.122	113.32
912.553	56.12
912.984	29.22
913.415	26.52
913.847	27.62
914.278	15.22
914.709	13.82
915.14	18.22
915.571	16.72
916.002	9.12
916.433	17.82
916.864	21.12
917.295	18.02
917.726	18.92
918.157	12.12
918.587	26.32
919.018	24.92
919.449	19.82
919.88	23.72
920.311	29.92
920.741	43.32
921.172	166.12
921.603	153.12
922.033	76.02
922.464	47.92
922.895	21.02
923.325	17.32
923.756	17.32
924.186	10.22
924.617	13.22
925.047	12.82
925.478	23.32
925.908	18.52
926.338	13.82
926.769	14.62
927.199	11.12
927.629	6.22
928.06	13.12
928.49	9.32
928.92	10.92
929.35	16.12
929.78	9.02
930.21	5.02
930.641	5.42
931.071	9.82
931.501	1.52
931.931	6.22
932.361	5.52
932.791	1.92
933.221	7.12
933.651	12.32
934.08	21.92
934.51	29.42
934.94	6.12
935.37	8.12
935.8	12.52
936.229	8.92
936.659	10.32
937.089	0.92
937.519	16.82
937.948	18.62
938.378	18.92
938.807	3.32
939.237	-2.18
939.666	5.22
940.096	-7.88
940.525	3.82
940.955	4.42
941.384	4.52
941.814	-4.38
942.243	0.02
942.672	3.32
943.102	-2.98
943.531	-1.48
943.96	0.92
944.39	2.42
944.819	0.62
945.248	2.42
945.677	-2.38
946.106	6.02
946.535	3.92
946.964	3.22
947.393	4.22
947.822	2.22
948.251	-4.58
948.68	-0.78
949.109	4.32
949.538	4.22
949.967	-0.48
950.396	1.02
950.825	-4.18
951.254	0.02
951.682	-8.08
952.111	5.62
952.54	5.82
952.969	-2.18
953.397	-9.58
953.826	2.52
954.254	3.42
954.683	8.32
955.112	-0.08
955.54	1.02
955.969	-0.78
956.397	0.42
956.826	0.22
957.254	0.02
957.682	1.52
958.111	2.02
958.539	-3.18
958.967	-2.18
959.396	-1.68
959.824	-2.98
960.252	-0.78
960.68	-6.58
961.109	-4.18
961.537	-3.48
961.965	-1.88
962.393	-0.98
962.821	-9.98
963.249	1.42
963.677	3.82
964.105	7.52
964.533	47.42
964.961	46.92
965.389	24.32
965.817	7.82
966.245	1.82
966.672	-4.08
967.1	-2.28
967.528	-1.98
967.956	1.32
968.383	0.42
968.811	-12.58
969.239	1.12
969.666	-6.18
970.094	-2.38
970.522	-5.18
970.949	-1.58
971.377	-2.58
971.804	-2.88
972.232	-0.48
972.659	-2.68
973.087	-5.68
973.514	-10.48
973.941	-2.98
974.369	2.32
974.796	-3.98
975.223	-1.98
975.651	1.12
976.078	0.92
976.505	-2.28
976.932	10.02
977.359	13.72
977.786	15.32
978.214	0.62
978.641	-3.78
979.068	-11.48
979.495	-2.58
979.922	-5.88
980.349	-3.58
980.776	1.72
981.202	-1.98
981.629	10.22
982.056	5.32
982.483	-2.58
982.91	0.32
983.337	-5.38
983.763	-0.28
984.19	-12.08
984.617	-6.78
985.043	-2.98
985.47	-4.08
985.897	2.02
986.323	-2.88
986.75	1.32
987.176	2.12
987.603	-1.28
988.029	3.02
988.456	-3.08
988.882	-6.08
989.308	-6.18
989.735	-6.28
990.161	-1.78
990.587	-10.18
991.014	2.82
991.44	4.72
991.866	-0.18
992.292	-3.48
992.719	-5.28
993.145	3.72
993.571	-6.18
993.997	-1.38
994.423	1.32
994.849	-3.58
995.275	4.12
995.701	1.42
996.127	-6.28
996.553	-6.38
996.979	-5.88
997.405	-0.58
997.83	-5.78
998.256	-5.28
998.682	-5.18
999.108	-11.58
999.534	-1.38
999.959	-7.58
1000.385	-4.68
1000.811	-0.98
1001.236	-7.68
1001.662	-5.48
1002.087	-9.28
1002.513	-2.58
1002.938	0.92
1003.364	-2.08
1003.789	1.42
1004.215	-0.28
1004.64	2.72
1005.066	3.92
1005.491	1.22
1005.916	-8.88
1006.342	-0.38
1006.767	-6.48
1007.192	1.92
1007.617	-5.88
1008.042	-4.98
1008.468	-9.08
1008.893	-5.58
1009.318	-4.78
1009.743	3.02
1010.168	2.82
1010.593	2.02
1011.018	2.12
1011.443	-3.08
1011.868	-6.98
1012.293	-9.48
1012.718	-7.88
1013.143	1.42
1013.567	0.52
1013.992	-0.58
1014.417	-11.88
1014.842	1.72
1015.267	-3.88
1015.691	-6.48
1016.116	4.12
1016.541	-2.28
1016.965	6.12
1017.39	-3.18
1017.814	-5.38
1018.239	0.02
1018.663	-0.58
1019.088	-11.98
1019.512	-3.48
1019.937	1.42
1020.361	-7.28
1020.785	-13.08
1021.21	-9.68
1021.634	-5.78
1022.058	-1.08
1022.483	4.32
1022.907	-0.78
1023.331	-4.28
1023.755	-2.38
1024.179	-4.08
1024.604	-1.48
1025.028	-10.98
1025.452	-6.48
1025.876	-1.88
1026.3	1.02
1026.724	-17.38
1027.148	-6.78
1027.572	-10.58
1027.996	-6.28
1028.42	0.42
1028.843	-5.38
1029.267	-5.68
1029.691	-5.08
1030.115	-2.68
1030.539	-5.38
1030.962	-3.78
1031.386	-8.28
1031.81	-0.88
1032.233	-3.48
1032.657	-3.08
1033.08	-6.38
1033.504	-4.68
1033.927	-2.78
1034.351	-8.48
1034.774	-5.58
1035.198	0.62
1035.621	-6.88
1036.045	-7.58
1036.468	-1.08
1036.891	-9.28
1037.315	-6.08
1037.738	-7.68
1038.161	-0.28
1038.584	-5.88
1039.008	-6.98
1039.431	-10.78
1039.854	-2.18
1040.277	-10.58
1040.7	-6.48
1041.123	0.82
1041.546	-12.78
1041.969	-5.38
1042.392	-3.58
1042.815	-4.98
1043.238	-0.68
1043.661	-2.08
1044.084	-11.68
1044.507	-4.78
1044.93	-10.88
1045.352	-10.68
1045.775	-3.28
1046.198	-5.68
1046.621	-2.68
1047.043	-2.08
1047.466	4.12
1047.889	0.52
1048.311	-7.68
1048.734	-6.78
1049.156	-3.88
1049.579	-6.38
1050.001	-3.78
1050.424	-0.58
1050.846	-7.28
1051.269	-1.38
1051.691	-10.68
1052.113	-6.88
1052.536	-4.48
1052.958	1.32
1053.38	-13.78
1053.802	-8.08
1054.225	-9.78
1054.647	-9.08
1055.069	-6.88
1055.491	-1.18
1055.913	-8.88
1056.335	-5.88
1056.757	-4.38
1057.179	-9.88
1057.601	-3.08
1058.023	-6.18
1058.445	-7.98
1058.867	-6.98
1059.289	-8.58
1059.711	-3.48
1060.133	0.22
1060.555	-2.68
1060.976	-12.68
1061.398	-11.98
1061.82	-5.38
1062.241	-6.28
1062.663	-12.08
1063.085	-6.58
1063.506	-2.98
1063.928	-5.18
1064.35	-1.48
1064.771	-10.18
1065.193	-8.28
1065.614	-13.78
1066.035	-1.18
1066.457	-4.98
1066.878	2.92
1067.3	-10.08
1067.721	-6.58
1068.142	-4.68
1068.564	-6.28
1068.985	-6.18
1069.406	-3.58
1069.827	-13.78
1070.248	-4.18
1070.67	-7.78
1071.091	-11.28
1071.512	-2.18
1071.933	-4.98
1072.354	-9.88
1072.775	-9.08
1073.196	-11.08
1073.617	-4.38
1074.038	-4.98
1074.459	-6.98
1074.88	-7.18
1075.3	-2.38
1075.721	-7.28
1076.142	-2.58
1076.563	-1.08
1076.983	-9.08
1077.404	-6.88
1077.825	-11.48
1078.246	-5.68
1078.666	-12.88
1079.087	-5.98
1079.507	-5.88
1079.928	-1.68
1080.348	1.32
1080.769	-7.38
1081.189	-3.98
1081.61	-4.88
1082.03	-3.88
1082.451	-8.68
1082.871	-2.88
1083.291	-10.18
1083.711	-11.28
1084.132	-6.18
1084.552	-4.28
1084.972	-1.78
1085.392	-15.28
1085.813	-10.08
1086.233	-11.28
1086.653	-10.78
1087.073	-8.58
1087.493	-6.28
1087.913	-10.48
1088.333	-12.18
1088.753	-0.78
1089.173	-2.88
1089.593	-2.28
1090.013	0.52
1090.433	-0.18
1090.852	-1.48
1091.272	-5.68
1091.692	3.92
1092.112	-4.38
1092.531	-8.58
1092.951	-11.18
1093.371	-1.58
1093.79	-2.08
1094.21	-7.48
1094.63	-7.68
1095.049	-9.08
1095.469	0.32
1095.888	-3.98
1096.308	-2.38
1096.727	-0.38
1097.146	-7.58
1097.566	-4.48
1097.985	-4.18
1098.405	-5.88
1098.824	-7.78
1099.243	-5.18
1099.662	-11.98
1100.082	-7.78
1100.501	-4.48
1100.92	-3.28
1101.339	-8.28
1101.758	-5.28
