Data from 20171114-ORNL-Ar_H_NY_Subt18_08-08-29-852.txt Node
Date: Tue Nov 14 08:08:29 EST 2017
User: Ender
Spectrometer: HR+D1039
Trigger mode: 0
Integration Time (sec): 2.730000E-2
Scans to average: 10
Electric dark correction enabled: true
Nonlinearity correction enabled: false
Boxcar width: 0
XAxis mode: Wavelengths
Number of Pixels in Spectrum: 2048
>>>>>Begin Spectral Data<<<<<
187.836	-5.91
188.309	-5.91
188.782	-5.91
189.255	0.39
189.728	-0.81
190.201	4.59
190.674	4.89
191.147	3.59
191.619	-7.11
192.092	2.49
192.565	9.69
193.038	-0.51
193.511	-3.31
193.984	0.99
194.456	-2.01
194.929	-0.61
195.402	-5.51
195.874	-0.81
196.347	-2.91
196.82	-6.91
197.292	3.19
197.765	-4.21
198.237	-6.11
198.71	6.59
199.182	-4.01
199.655	-1.01
200.127	2.99
200.6	-2.51
201.072	-3.61
201.544	-5.51
202.017	-4.81
202.489	2.19
202.961	-2.41
203.433	-9.11
203.906	-6.21
204.378	-8.11
204.85	-8.71
205.322	-4.41
205.794	1.79
206.266	-5.01
206.739	-7.71
207.211	3.99
207.683	-12.71
208.155	-6.91
208.627	-7.01
209.099	0.99
209.57	-9.21
210.042	-7.91
210.514	-7.71
210.986	-2.31
211.458	-8.11
211.93	0.59
212.402	0.59
212.873	-2.51
213.345	-5.41
213.817	-8.31
214.288	-3.41
214.76	-12.51
215.232	-3.71
215.703	-4.91
216.175	-4.11
216.646	-3.81
217.118	-5.51
217.589	-5.31
218.061	-0.41
218.532	-5.01
219.004	-1.71
219.475	-9.51
219.946	-2.81
220.418	-3.91
220.889	0.19
221.36	5.89
221.832	-10.31
222.303	-5.91
222.774	-0.91
223.245	-14.21
223.717	-3.31
224.188	-7.51
224.659	-7.91
225.13	-6.11
225.601	0.99
226.072	-3.61
226.543	-9.61
227.014	-2.61
227.485	-1.21
227.956	-5.11
228.427	-7.61
228.898	-3.51
229.369	-0.81
229.839	-4.01
230.31	-7.21
230.781	0.39
231.252	-2.71
231.722	-8.61
232.193	-9.51
232.664	-6.31
233.135	3.19
233.605	2.99
234.076	-8.61
234.546	0.09
235.017	4.69
235.487	7.39
235.958	-5.01
236.428	-8.11
236.899	-3.11
237.369	1.69
237.84	-7.11
238.31	2.09
238.78	-1.31
239.251	-6.21
239.721	-4.71
240.191	-7.41
240.662	-8.31
241.132	-4.01
241.602	-7.01
242.072	1.89
242.542	5.59
243.013	-2.71
243.483	1.29
243.953	2.89
244.423	-3.01
244.893	-5.41
245.363	3.89
245.833	1.19
246.303	-2.71
246.773	2.19
247.243	6.39
247.712	-1.51
248.182	2.79
248.652	1.99
249.122	-6.91
249.592	-4.01
250.061	3.49
250.531	12.09
251.001	-4.21
251.471	3.29
251.94	7.79
252.41	-1.41
252.879	-5.81
253.349	8.99
253.818	7.39
254.288	1.39
254.757	-0.91
255.227	-2.61
255.696	-0.31
256.166	2.69
256.635	3.89
257.105	3.89
257.574	7.39
258.043	3.49
258.513	-5.31
258.982	4.69
259.451	-1.81
259.92	-0.11
260.389	4.69
260.859	8.59
261.328	5.29
261.797	0.79
262.266	-1.31
262.735	10.79
263.204	4.79
263.673	1.79
264.142	8.89
264.611	-0.31
265.08	-1.51
265.549	1.39
266.018	4.09
266.487	-3.81
266.955	-3.81
267.424	-1.61
267.893	7.89
268.362	0.79
268.83	3.09
269.299	9.69
269.768	5.99
270.236	5.49
270.705	-2.01
271.174	2.49
271.642	2.99
272.111	-4.81
272.579	-1.01
273.048	8.49
273.516	9.99
273.985	9.69
274.453	6.89
274.922	12.09
275.39	6.29
275.858	5.29
276.327	7.99
276.795	12.99
277.263	3.29
277.731	14.99
278.2	14.69
278.668	11.69
279.136	8.29
279.604	4.29
280.072	11.79
280.54	9.39
281.008	11.29
281.477	19.19
281.945	10.39
282.413	10.59
282.881	16.29
283.348	10.69
283.816	13.69
284.284	16.39
284.752	10.29
285.22	14.39
285.688	8.69
286.156	13.89
286.623	18.99
287.091	15.89
287.559	6.19
288.026	6.59
288.494	15.99
288.962	4.89
289.429	4.09
289.897	14.39
290.364	10.49
290.832	15.39
291.3	21.89
291.767	12.09
292.234	19.39
292.702	14.19
293.169	14.09
293.637	15.59
294.104	17.49
294.571	13.59
295.039	10.59
295.506	10.19
295.973	15.69
296.44	13.09
296.908	12.49
297.375	10.09
297.842	16.69
298.309	13.29
298.776	12.39
299.243	18.69
299.71	12.79
300.177	19.89
300.644	23.39
301.111	16.39
301.578	22.49
302.045	15.39
302.512	19.49
302.979	25.09
303.446	18.39
303.913	22.29
304.379	20.19
304.846	24.39
305.313	20.39
305.78	21.39
306.246	18.89
306.713	27.29
307.18	32.39
307.646	27.69
308.113	31.39
308.579	20.09
309.046	22.79
309.512	22.39
309.979	17.29
310.445	27.79
310.912	30.89
311.378	27.79
311.845	26.89
312.311	32.29
312.777	34.69
313.244	30.69
313.71	35.09
314.176	31.69
314.642	32.09
315.109	30.19
315.575	37.89
316.041	35.29
316.507	27.99
316.973	35.89
317.439	32.59
317.905	27.69
318.371	32.99
318.837	31.19
319.303	30.59
319.769	28.49
320.235	33.69
320.701	38.89
321.167	30.89
321.633	32.89
322.099	36.49
322.564	38.59
323.03	36.99
323.496	32.19
323.962	41.69
324.427	30.89
324.893	43.79
325.359	36.79
325.824	30.69
326.29	32.69
326.755	37.09
327.221	41.09
327.686	40.99
328.152	50.39
328.617	40.19
329.083	44.19
329.548	54.29
330.014	48.99
330.479	36.29
330.944	43.09
331.41	43.09
331.875	47.29
332.34	45.49
332.805	41.89
333.271	45.79
333.736	41.39
334.201	55.49
334.666	49.19
335.131	52.49
335.596	47.29
336.061	41.29
336.526	36.39
336.991	46.39
337.456	51.69
337.921	49.09
338.386	37.19
338.851	46.59
339.316	51.19
339.781	47.79
340.246	51.79
340.711	54.09
341.175	56.29
341.64	49.99
342.105	55.49
342.569	54.39
343.034	55.49
343.499	56.79
343.963	56.29
344.428	63.79
344.893	60.19
345.357	61.49
345.822	58.29
346.286	65.99
346.751	75.29
347.215	66.99
347.679	79.39
348.144	93.59
348.608	81.39
349.073	70.59
349.537	71.79
350.001	84.19
350.465	90.19
350.93	78.59
351.394	82.89
351.858	74.29
352.322	89.99
352.786	81.89
353.25	101.69
353.715	108.19
354.179	102.99
354.643	120.49
355.107	126.09
355.571	104.29
356.035	93.59
356.498	110.49
356.962	120.69
357.426	123.79
357.89	116.29
358.354	92.59
358.818	80.69
359.281	81.59
359.745	78.09
360.209	80.19
360.673	76.19
361.136	76.79
361.6	85.09
362.064	82.09
362.527	87.79
362.991	93.99
363.454	83.79
363.918	81.59
364.381	80.29
364.845	86.29
365.308	86.19
365.772	89.79
366.235	85.39
366.698	88.59
367.162	84.99
367.625	87.09
368.088	91.09
368.552	92.59
369.015	92.59
369.478	97.19
369.941	95.79
370.404	91.69
370.867	96.69
371.331	103.99
371.794	115.99
372.257	91.69
372.72	115.39
373.183	103.49
373.646	97.59
374.109	101.69
374.572	109.69
375.035	113.89
375.497	115.09
375.96	109.79
376.423	100.79
376.886	118.09
377.349	109.99
377.811	106.49
378.274	108.09
378.737	105.39
379.199	109.79
379.662	112.39
380.125	111.89
380.587	105.09
381.05	113.29
381.512	115.39
381.975	128.49
382.437	121.79
382.9	125.89
383.362	126.19
383.825	135.29
384.287	127.89
384.75	122.89
385.212	126.79
385.674	143.39
386.136	135.59
386.599	124.39
387.061	134.89
387.523	129.79
387.985	130.09
388.447	139.09
388.91	138.19
389.372	140.19
389.834	137.79
390.296	136.09
390.758	141.59
391.22	144.89
391.682	159.69
392.144	165.89
392.606	160.09
393.068	141.49
393.529	157.99
393.991	143.19
394.453	138.59
394.915	138.49
395.377	138.79
395.838	147.49
396.3	143.19
396.762	151.99
397.224	143.99
397.685	136.79
398.147	143.09
398.608	134.99
399.07	142.29
399.531	140.79
399.993	158.49
400.454	165.49
400.916	158.59
401.377	154.09
401.839	161.29
402.3	158.39
402.762	177.19
403.223	186.39
403.684	180.59
404.145	167.59
404.607	174.39
405.068	175.19
405.529	181.09
405.99	201.59
406.451	182.69
406.913	187.69
407.374	183.09
407.835	170.49
408.296	183.49
408.757	190.19
409.218	200.59
409.679	194.09
410.14	181.79
410.601	190.09
411.062	191.19
411.522	187.49
411.983	184.19
412.444	180.89
412.905	187.29
413.366	198.79
413.826	215.29
414.287	239.29
414.748	282.09
415.208	264.29
415.669	226.89
416.13	218.19
416.59	215.79
417.051	231.69
417.511	242.59
417.972	264.59
418.432	273.69
418.893	319.09
419.353	278.99
419.814	224.39
420.274	191.19
420.734	196.29
421.195	215.19
421.655	213.49
422.115	219.89
422.576	203.49
423.036	215.99
423.496	222.99
423.956	231.29
424.416	249.29
424.876	286.59
425.336	280.59
425.797	273.39
426.257	269.39
426.717	260.79
427.177	250.99
427.637	234.39
428.097	253.19
428.556	266.09
429.016	284.99
429.476	277.99
429.936	301.79
430.396	300.09
430.856	303.79
431.315	330.09
431.775	367.79
432.235	411.09
432.694	376.59
433.154	383.49
433.614	417.49
434.073	361.89
434.533	297.99
434.993	283.59
435.452	300.89
435.912	306.89
436.371	301.29
436.83	290.69
437.29	284.59
437.749	267.29
438.209	263.09
438.668	298.79
439.127	315.39
439.587	288.29
440.046	268.49
440.505	282.19
440.964	294.59
441.424	348.29
441.883	333.19
442.342	276.79
442.801	243.29
443.26	246.29
443.719	248.39
444.178	241.29
444.637	238.09
445.096	238.99
445.555	244.09
446.014	244.19
446.473	252.49
446.932	253.59
447.391	249.49
447.849	252.19
448.308	246.79
448.767	251.69
449.226	260.79
449.685	262.09
450.143	265.59
450.602	261.69
451.061	249.99
451.519	252.59
451.978	255.29
452.436	261.29
452.895	257.09
453.353	287.29
453.812	266.19
454.27	262.39
454.729	257.19
455.187	266.49
455.646	269.69
456.104	270.69
456.562	285.89
457.021	290.99
457.479	283.99
457.937	298.59
458.395	284.39
458.854	275.99
459.312	275.99
459.77	295.69
460.228	276.99
460.686	262.89
461.144	273.79
461.602	272.89
462.06	274.49
462.518	282.79
462.976	283.29
463.434	278.49
463.892	291.99
464.35	293.09
464.808	308.59
465.266	287.29
465.724	294.29
466.181	298.19
466.639	296.19
467.097	312.79
467.555	322.39
468.012	333.79
468.47	334.59
468.928	359.19
469.385	371.79
469.843	374.59
470.3	380.89
470.758	397.89
471.215	409.59
471.673	438.59
472.13	440.39
472.588	451.99
473.045	407.19
473.503	414.19
473.96	432.69
474.417	432.39
474.875	467.89
475.332	506.69
475.789	495.29
476.246	502.69
476.704	521.79
477.161	545.69
477.618	557.59
478.075	601.19
478.532	653.59
478.989	731.89
479.446	857.59
479.903	813.89
480.36	827.59
480.817	890.59
481.274	985.39
481.731	1080.19
482.188	1153.89
482.645	1268.79
483.102	1366.99
483.558	1482.79
484.015	1543.79
484.472	1515.99
484.929	1466.29
485.385	1428.39
485.842	1402.59
486.299	1341.49
486.755	1315.79
487.212	1119.19
487.668	947.99
488.125	877.19
488.582	815.89
489.038	781.39
489.494	752.79
489.951	724.29
490.407	707.69
490.864	697.39
491.32	686.09
491.776	685.29
492.233	688.99
492.689	655.09
493.145	649.09
493.602	640.49
494.058	654.69
494.514	659.19
494.97	672.49
495.426	702.09
495.882	662.19
496.338	650.39
496.794	661.89
497.251	645.89
497.707	670.69
498.163	673.99
498.618	674.39
499.074	683.79
499.53	716.89
499.986	709.99
500.442	688.89
500.898	659.49
501.354	659.59
501.809	669.19
502.265	652.39
502.721	676.59
503.177	689.29
503.632	680.39
504.088	689.39
504.543	711.49
504.999	743.69
505.455	699.39
505.91	670.19
506.366	682.29
506.821	672.99
507.277	679.79
507.732	675.89
508.187	672.59
508.643	682.79
509.098	684.29
509.553	711.59
510.009	716.29
510.464	723.19
510.919	743.59
511.375	739.09
511.83	757.49
512.285	775.89
512.74	809.39
513.195	832.89
513.65	820.79
514.105	810.49
514.56	830.79
515.015	830.49
515.47	853.39
515.925	838.59
516.38	834.09
516.835	833.79
517.29	832.09
517.745	828.79
518.2	811.79
518.655	791.49
519.109	793.99
519.564	788.09
520.019	772.59
520.474	766.79
520.928	761.39
521.383	769.39
521.838	756.79
522.292	760.39
522.747	753.29
523.201	754.29
523.656	747.29
524.11	742.79
524.565	739.59
525.019	730.99
525.474	748.29
525.928	750.59
526.382	737.99
526.837	744.79
527.291	760.09
527.745	748.99
528.2	747.39
528.654	734.79
529.108	721.59
529.562	734.99
530.016	734.49
530.47	738.99
530.925	734.09
531.379	743.29
531.833	758.29
532.287	743.69
532.741	745.99
533.195	737.09
533.649	748.49
534.103	765.29
534.556	744.49
535.01	753.89
535.464	751.39
535.918	753.89
536.372	758.59
536.826	758.99
537.279	758.99
537.733	758.09
538.187	755.49
538.64	757.69
539.094	765.09
539.548	773.89
540.001	773.59
540.455	773.29
540.908	781.49
541.362	780.09
541.815	790.89
542.269	801.99
542.722	802.29
543.175	818.89
543.629	820.29
544.082	848.19
544.536	850.59
544.989	843.39
545.442	848.59
545.895	851.89
546.349	842.59
546.802	853.89
547.255	858.09
547.708	866.39
548.161	873.59
548.614	879.49
549.067	888.59
549.52	875.79
549.973	866.49
550.426	863.29
550.879	852.39
551.332	858.39
551.785	868.69
552.238	863.59
552.691	878.69
553.144	887.99
553.596	901.29
554.049	927.09
554.502	948.09
554.955	965.29
555.407	966.69
555.86	958.59
556.313	946.09
556.765	933.79
557.218	938.49
557.67	939.29
558.123	936.29
558.576	927.09
559.028	933.49
559.48	946.59
559.933	929.19
560.385	897.69
560.838	866.79
561.29	842.39
561.742	846.79
562.195	821.89
562.647	824.39
563.099	830.59
563.551	825.39
564.004	842.49
564.456	823.89
564.908	804.69
565.36	791.19
565.812	775.39
566.264	765.19
566.716	770.69
567.168	753.79
567.62	762.49
568.072	748.89
568.524	744.69
568.976	738.69
569.428	726.49
569.88	725.99
570.332	735.69
570.784	730.79
571.235	737.79
571.687	750.89
572.139	752.89
572.59	764.69
573.042	754.39
573.494	759.29
573.945	759.59
574.397	731.09
574.849	736.19
575.3	738.69
575.752	726.69
576.203	727.39
576.655	729.69
577.106	725.29
577.557	712.09
578.009	712.69
578.46	705.29
578.912	703.59
579.363	718.49
579.814	709.59
580.265	714.49
580.717	716.09
581.168	717.69
581.619	718.39
582.07	726.19
582.521	716.19
582.972	720.39
583.423	719.59
583.875	716.69
584.326	730.99
584.777	750.49
585.227	759.59
585.678	779.09
586.129	814.59
586.58	836.89
587.031	848.99
587.482	894.19
587.933	943.89
588.384	901.19
588.834	849.29
589.285	827.99
589.736	827.59
590.186	823.39
590.637	814.89
591.088	796.19
591.538	789.29
591.989	777.19
592.439	762.29
592.89	760.19
593.34	742.49
593.791	756.09
594.241	745.19
594.692	743.69
595.142	733.49
595.593	740.99
596.043	750.59
596.493	749.69
596.943	752.79
597.394	755.89
597.844	767.19
598.294	780.79
598.744	809.49
599.195	837.19
599.645	876.59
600.095	907.99
600.545	982.99
600.995	1025.49
601.445	1092.59
601.895	1151.09
602.345	1195.89
602.795	1180.19
603.245	1141.89
603.695	1085.19
604.145	1020.39
604.594	975.79
605.044	920.79
605.494	859.99
605.944	807.59
606.393	793.69
606.843	777.39
607.293	779.99
607.743	770.99
608.192	789.19
608.642	803.79
609.091	810.59
609.541	813.89
609.99	809.99
610.44	803.59
610.889	763.79
611.339	737.39
611.788	724.49
612.238	731.49
612.687	748.19
613.136	734.69
613.586	755.69
614.035	750.79
614.484	750.79
614.933	746.39
615.383	746.09
615.832	752.19
616.281	743.19
616.73	720.99
617.179	701.49
617.628	682.09
618.077	662.59
618.526	653.59
618.975	641.99
619.424	653.59
619.873	657.09
620.322	649.49
620.771	642.99
621.22	641.59
621.669	630.69
622.118	622.19
622.567	616.99
623.015	602.19
623.464	610.59
623.913	595.19
624.361	589.49
624.81	584.59
625.259	586.29
625.707	587.99
626.156	587.69
626.604	603.99
627.053	599.59
627.501	602.09
627.95	607.99
628.398	614.69
628.847	616.79
629.295	607.89
629.744	613.29
630.192	600.09
630.64	598.59
631.089	584.49
631.537	575.19
631.985	562.09
632.433	569.29
632.881	559.89
633.33	570.49
633.778	564.19
634.226	549.29
634.674	582.89
635.122	569.49
635.57	593.99
636.018	598.29
636.466	598.09
636.914	586.29
637.362	605.79
637.81	617.09
638.258	617.19
638.705	610.59
639.153	653.09
639.601	662.39
640.049	678.79
640.497	719.19
640.944	742.79
641.392	689.19
641.84	659.29
642.287	614.29
642.735	599.29
643.182	595.59
643.63	589.69
644.078	595.79
644.525	609.39
644.973	617.19
645.42	632.69
645.867	649.59
646.315	665.59
646.762	697.49
647.21	720.39
647.657	744.39
648.104	775.09
648.551	804.19
648.999	866.59
649.446	937.79
649.893	1030.19
650.34	1169.89
650.787	1406.49
651.234	1722.09
651.682	2225.79
652.129	3002.49
652.576	4268.49
653.023	6215.39
653.47	8362.59
653.917	10321.79
654.363	11853.39
654.81	13003.09
655.257	12329.89
655.704	8210.69
656.151	4962.59
656.598	3267.09
657.044	2343.99
657.491	1832.39
657.938	1468.49
658.385	1237.79
658.831	1098.39
659.278	978.49
659.724	878.19
660.171	810.59
660.618	747.69
661.064	704.89
661.511	697.79
661.957	682.79
662.404	675.19
662.85	688.19
663.296	648.49
663.743	589.19
664.189	568.79
664.635	563.19
665.082	558.59
665.528	559.19
665.974	547.49
666.42	540.09
666.867	537.39
667.313	509.69
667.759	493.69
668.205	486.89
668.651	486.69
669.097	476.19
669.543	472.89
669.989	468.69
670.435	478.49
670.881	469.49
671.327	480.69
671.773	497.59
672.219	526.89
672.665	583.19
673.11	623.09
673.556	664.09
674.002	707.39
674.448	696.69
674.893	581.39
675.339	504.09
675.785	476.49
676.23	447.29
676.676	426.29
677.122	414.49
677.567	409.09
678.013	397.19
678.458	382.39
678.904	384.69
679.349	374.59
679.794	381.59
680.24	374.69
680.685	374.29
681.131	367.99
681.576	376.69
682.021	377.09
682.466	370.09
682.912	366.89
683.357	369.09
683.802	408.29
684.247	447.39
684.692	490.19
685.137	526.39
685.583	574.29
686.028	601.59
686.473	555.69
686.918	481.39
687.363	443.79
687.807	427.09
688.252	388.49
688.697	379.89
689.142	365.69
689.587	357.79
690.032	351.19
690.477	364.09
690.921	375.69
691.366	400.59
691.811	423.19
692.255	457.69
692.7	500.29
693.145	543.99
693.589	767.19
694.034	1248.49
694.478	1660.19
694.923	1844.89
695.367	2409.79
695.812	1280.99
696.256	538.99
696.701	396.89
697.145	373.69
697.59	359.49
698.034	351.39
698.478	349.99
698.922	337.99
699.367	351.09
699.811	359.99
700.255	373.99
700.699	417.89
701.143	454.79
701.588	509.29
702.032	544.39
702.476	543.69
702.92	524.79
703.364	534.59
703.808	708.49
704.252	1153.79
704.696	1575.99
705.14	1793.49
705.584	2272.99
706.027	1142.39
706.471	560.49
706.915	425.79
707.359	372.59
707.803	349.59
708.246	336.29
708.69	342.89
709.134	336.09
709.577	339.39
710.021	333.19
710.465	328.09
710.908	323.99
711.352	320.09
711.795	342.89
712.239	386.99
712.682	412.79
713.126	442.09
713.569	477.29
714.012	380.89
714.456	328.19
714.899	311.29
715.342	292.49
715.786	283.39
716.229	270.99
716.672	275.29
717.115	270.09
717.558	269.89
718.002	273.49
718.445	283.69
718.888	303.29
719.331	307.09
719.774	330.49
720.217	324.29
720.66	312.49
721.103	286.99
721.546	273.09
721.989	270.89
722.432	250.49
722.874	254.59
723.317	244.59
723.76	250.79
724.203	282.09
724.645	342.99
725.088	479.09
725.531	609.19
725.974	672.79
726.416	586.89
726.859	329.29
727.301	264.59
727.744	252.09
728.187	249.19
728.629	251.79
729.071	254.89
729.514	279.89
729.956	290.49
730.399	304.69
730.841	312.59
731.283	296.69
731.726	284.19
732.168	279.39
732.61	295.79
733.053	307.39
733.495	338.29
733.937	385.79
734.379	433.09
734.821	477.19
735.263	584.29
735.705	924.89
736.148	1755.69
736.59	2816.29
737.032	3246.59
737.474	2639.99
737.916	885.69
738.357	461.49
738.799	360.29
739.241	322.99
739.683	304.59
740.125	312.19
740.567	318.59
741.008	344.39
741.45	341.69
741.892	347.39
742.334	380.89
742.775	389.89
743.217	370.69
743.658	294.99
744.1	270.49
744.542	286.29
744.983	342.69
745.425	377.49
745.866	368.09
746.307	300.99
746.749	298.89
747.19	344.19
747.632	519.09
748.073	998.89
748.514	2060.29
748.956	3089.59
749.397	3879.29
749.838	3219.39
750.279	3144.79
750.72	1619.49
751.162	595.69
751.603	355.69
752.044	269.69
752.485	231.69
752.926	221.09
753.367	218.19
753.808	214.89
754.249	198.29
754.69	205.69
755.131	194.59
755.572	194.89
756.013	189.29
756.453	201.29
756.894	203.59
757.335	209.29
757.776	205.19
758.216	212.89
758.657	209.49
759.098	222.69
759.538	243.59
759.979	303.49
760.42	413.09
760.86	804.99
761.301	2061.99
761.741	4886.99
762.182	6776.99
762.622	4819.19
763.063	1424.49
763.503	588.59
763.943	356.89
764.384	306.99
764.824	275.19
765.264	269.49
765.705	230.19
766.145	202.39
766.585	190.49
767.025	189.59
767.465	184.69
767.906	202.39
768.346	222.89
768.786	226.29
769.226	233.59
769.666	338.29
770.106	688.99
770.546	1736.49
770.986	2806.49
771.426	2508.69
771.866	851.49
772.306	348.59
772.745	215.09
773.185	177.49
773.625	173.89
774.065	159.69
774.505	174.59
774.944	225.79
775.384	394.09
775.824	647.89
776.263	614.99
776.703	300.59
777.142	170.49
777.582	137.59
778.021	135.49
778.461	135.79
778.9	135.89
779.34	132.49
779.779	125.19
780.219	115.59
780.658	113.69
781.097	120.99
781.537	117.39
781.976	110.69
782.415	106.79
782.855	112.89
783.294	106.29
783.733	115.59
784.172	112.79
784.611	107.19
785.05	115.29
785.489	117.39
785.928	120.49
786.367	131.49
786.806	124.69
787.245	147.59
787.684	146.19
788.123	154.59
788.562	148.39
789.001	146.09
789.44	135.49
789.879	120.69
790.317	126.59
790.756	131.59
791.195	137.39
791.634	164.09
792.072	219.09
792.511	400.99
792.95	1123.89
793.388	2266.29
793.827	2018.09
794.265	715.49
794.704	305.29
795.142	195.09
795.581	165.59
796.019	149.19
796.458	139.49
796.896	136.79
797.334	142.69
797.773	168.59
798.211	242.29
798.649	487.29
799.087	1112.89
799.526	1719.49
799.964	2190.49
800.402	2123.69
800.84	816.69
801.278	335.69
801.716	200.29
802.154	164.59
802.592	150.69
803.03	151.69
803.468	145.89
803.906	158.89
804.344	155.29
804.782	158.19
805.22	143.69
805.658	144.69
806.096	165.49
806.533	170.59
806.971	192.19
807.409	236.49
807.847	356.99
808.284	747.69
808.722	2068.19
809.16	3521.29
809.597	3451.39
810.035	5869.19
810.472	6071.79
810.91	2244.59
811.347	865.09
811.785	438.39
812.222	281.79
812.66	217.39
813.097	180.39
813.535	155.29
813.972	141.19
814.409	133.19
814.846	117.99
815.284	114.79
815.721	105.59
816.158	116.29
816.595	115.29
817.032	166.09
817.47	189.49
817.907	137.39
818.344	113.99
818.781	104.89
819.218	107.49
819.655	136.79
820.092	200.19
820.529	231.79
820.966	178.59
821.403	133.49
821.839	110.89
822.276	104.09
822.713	132.19
823.15	146.79
823.587	133.79
824.023	163.79
824.46	335.29
824.897	979.59
825.333	1434.89
825.77	617.29
826.206	253.79
826.643	149.59
827.08	106.29
827.516	89.29
827.953	84.09
828.389	78.09
828.825	72.49
829.262	75.49
829.698	68.69
830.135	72.89
830.571	62.49
831.007	67.09
831.443	65.89
831.88	64.49
832.316	67.89
832.752	72.59
833.188	69.89
833.624	65.19
834.06	71.69
834.497	71.89
834.933	74.39
835.369	75.49
835.805	74.79
836.241	80.89
836.677	81.79
837.112	93.89
837.548	112.39
837.984	140.59
838.42	231.39
838.856	562.39
839.292	1654.79
839.727	2435.59
840.163	1159.79
840.599	1035.59
841.034	2211.19
841.47	2244.79
841.906	834.79
842.341	361.09
842.777	209.29
843.212	219.29
843.648	197.19
844.083	112.49
844.519	86.49
844.954	83.69
845.39	67.79
845.825	63.19
846.261	59.89
846.696	61.59
847.131	59.09
847.566	66.29
848.002	56.19
848.437	58.59
848.872	59.09
849.307	66.79
849.742	91.39
850.177	192.49
850.613	606.79
851.048	936.79
851.483	405.09
851.918	166.59
852.353	88.89
852.788	56.49
853.223	52.19
853.657	55.19
854.092	47.19
854.527	51.99
854.962	38.49
855.397	49.59
855.832	57.39
856.266	43.19
856.701	41.59
857.136	37.69
857.57	45.39
858.005	49.69
858.44	61.89
858.874	47.09
859.309	57.19
859.743	38.09
860.178	50.09
860.612	43.19
861.047	55.19
861.481	71.39
861.915	73.09
862.35	55.09
862.784	34.29
863.218	44.49
863.653	32.39
864.087	49.99
864.521	61.09
864.955	70.09
865.39	165.89
865.824	179.39
866.258	126.69
866.692	178.49
867.126	196.99
867.56	114.89
867.994	56.39
868.428	37.19
868.862	51.29
869.296	65.39
869.73	63.99
870.164	59.89
870.598	49.09
871.031	43.49
871.465	34.59
871.899	32.79
872.333	25.59
872.766	30.39
873.2	23.59
873.634	30.29
874.067	27.19
874.501	22.49
874.935	39.99
875.368	32.49
875.802	33.19
876.235	29.69
876.669	30.39
877.102	23.99
877.535	27.59
877.969	19.09
878.402	29.19
878.836	15.19
879.269	25.69
879.702	28.59
880.135	21.69
880.569	21.59
881.002	27.19
881.435	24.89
881.868	20.29
882.301	22.09
882.734	18.59
883.167	27.99
883.601	18.19
884.034	23.69
884.467	14.09
884.899	25.59
885.332	16.29
885.765	13.39
886.198	18.89
886.631	20.89
887.064	20.09
887.497	23.19
887.929	25.19
888.362	17.19
888.795	18.09
889.228	19.49
889.66	26.09
890.093	21.09
890.526	21.19
890.958	15.89
891.391	11.39
891.823	26.69
892.256	14.89
892.688	24.89
893.121	19.29
893.553	15.99
893.985	22.99
894.418	21.49
894.85	16.69
895.282	10.29
895.715	19.29
896.147	19.19
896.579	17.49
897.011	15.99
897.444	15.49
897.876	15.69
898.308	18.49
898.74	13.59
899.172	16.29
899.604	24.29
900.036	16.89
900.468	20.29
900.9	13.89
901.332	19.99
901.764	11.39
902.196	23.79
902.628	16.49
903.06	26.99
903.491	32.19
903.923	24.69
904.355	22.29
904.787	25.19
905.218	22.29
905.65	18.99
906.082	15.09
906.513	11.59
906.945	19.29
907.376	10.79
907.808	20.29
908.239	19.59
908.671	21.39
909.102	22.69
909.534	25.49
909.965	46.19
910.397	105.89
910.828	341.49
911.259	497.49
911.691	223.09
912.122	116.29
912.553	55.99
912.984	37.09
913.415	23.19
913.847	25.79
914.278	12.09
914.709	19.49
915.14	14.79
915.571	14.79
916.002	11.59
916.433	18.59
916.864	14.39
917.295	17.89
917.726	24.79
918.157	15.69
918.587	32.99
919.018	22.79
919.449	22.99
919.88	24.99
920.311	28.59
920.741	53.09
921.172	177.29
921.603	171.39
922.033	76.19
922.464	54.09
922.895	22.19
923.325	17.69
923.756	14.79
924.186	8.39
924.617	17.99
925.047	19.09
925.478	24.89
925.908	30.89
926.338	16.99
926.769	12.49
927.199	17.09
927.629	8.19
928.06	15.49
928.49	16.19
928.92	13.69
929.35	10.39
929.78	13.89
930.21	8.39
930.641	6.89
931.071	13.69
931.501	4.29
931.931	6.39
932.361	1.29
932.791	-2.61
933.221	8.69
933.651	0.19
934.08	12.09
934.51	28.79
934.94	14.09
935.37	10.89
935.8	9.09
936.229	7.69
936.659	16.79
937.089	8.09
937.519	20.79
937.948	27.99
938.378	15.89
938.807	4.79
939.237	5.49
939.666	4.29
940.096	-3.91
940.525	5.89
940.955	2.49
941.384	2.49
941.814	-4.81
942.243	-1.51
942.672	5.89
943.102	-3.61
943.531	-1.81
943.96	6.49
944.39	6.49
944.819	0.79
945.248	4.19
945.677	0.59
946.106	7.79
946.535	4.19
946.964	1.49
947.393	-1.31
947.822	3.19
948.251	-2.41
948.68	-3.01
949.109	3.59
949.538	3.99
949.967	-0.71
950.396	3.59
950.825	-0.21
951.254	-3.71
951.682	0.29
952.111	1.99
952.54	0.59
952.969	-6.61
953.397	-3.61
953.826	-2.21
954.254	-2.21
954.683	4.09
955.112	-3.31
955.54	4.09
955.969	3.59
956.397	1.59
956.826	-5.71
957.254	6.29
957.682	5.19
958.111	3.79
958.539	-2.61
958.967	2.49
959.396	-5.41
959.824	1.99
960.252	3.29
960.68	-2.71
961.109	-3.81
961.537	-5.61
961.965	0.79
962.393	1.69
962.821	-8.61
963.249	-0.51
963.677	5.39
964.105	5.99
964.533	51.59
964.961	44.89
965.389	17.99
965.817	12.59
966.245	-1.31
966.672	-2.01
967.1	-6.91
967.528	-1.51
967.956	-3.11
968.383	-1.41
968.811	-0.41
969.239	2.49
969.666	-4.11
970.094	0.89
970.522	3.09
970.949	1.49
971.377	-9.61
971.804	-2.71
972.232	-2.71
972.659	-0.31
973.087	-2.31
973.514	-1.11
973.941	-9.81
974.369	7.09
974.796	-0.71
975.223	-4.81
975.651	-0.01
976.078	-0.91
976.505	2.29
976.932	5.59
977.359	15.89
977.786	14.69
978.214	-3.61
978.641	3.59
979.068	-4.61
979.495	-6.81
979.922	-0.81
980.349	0.19
980.776	4.99
981.202	0.99
981.629	4.59
982.056	1.49
982.483	0.89
982.91	1.69
983.337	-3.61
983.763	5.99
984.19	-3.71
984.617	-2.91
985.043	-11.91
985.47	-4.61
985.897	-2.11
986.323	-8.21
986.75	4.99
987.176	4.39
987.603	-3.51
988.029	0.19
988.456	-1.11
988.882	1.39
989.308	-6.71
989.735	-5.41
990.161	-1.61
990.587	-2.41
991.014	3.69
991.44	7.49
991.866	-3.51
992.292	-8.61
992.719	-0.81
993.145	5.69
993.571	-7.61
993.997	-3.61
994.423	0.19
994.849	-2.61
995.275	-3.11
995.701	0.39
996.127	1.59
996.553	3.19
996.979	-1.31
997.405	-0.81
997.83	-13.21
998.256	-7.41
998.682	-3.31
999.108	-4.41
999.534	-3.01
999.959	0.39
1000.385	2.39
1000.811	2.09
1001.236	-11.41
1001.662	-6.91
1002.087	-7.81
1002.513	-0.71
1002.938	-0.11
1003.364	4.49
1003.789	1.39
1004.215	-1.01
1004.64	-0.91
1005.066	-6.01
1005.491	1.09
1005.916	1.19
1006.342	-7.81
1006.767	-10.01
1007.192	0.89
1007.617	-0.81
1008.042	-6.81
1008.468	-7.41
1008.893	-1.91
1009.318	-4.91
1009.743	-3.71
1010.168	2.19
1010.593	-4.31
1011.018	-5.91
1011.443	-3.61
1011.868	3.19
1012.293	0.09
1012.718	-3.31
1013.143	2.49
1013.567	-2.21
1013.992	-7.61
1014.417	-12.71
1014.842	0.09
1015.267	-7.41
1015.691	-4.91
1016.116	5.99
1016.541	-2.21
1016.965	2.29
1017.39	1.69
1017.814	1.49
1018.239	-1.41
1018.663	-4.41
1019.088	-9.21
1019.512	-6.81
1019.937	-3.71
1020.361	-1.51
1020.785	-10.11
1021.21	-2.31
1021.634	-4.11
1022.058	-0.31
1022.483	5.29
1022.907	-1.21
1023.331	-6.01
1023.755	-5.61
1024.179	-1.81
1024.604	-6.71
1025.028	-7.61
1025.452	-1.31
1025.876	-5.31
1026.3	-0.91
1026.724	-13.31
1027.148	-7.91
1027.572	-9.01
1027.996	-2.61
1028.42	-1.81
1028.843	-7.11
1029.267	-6.41
1029.691	-4.01
1030.115	-9.31
1030.539	-12.71
1030.962	-7.41
1031.386	-12.71
1031.81	-2.11
1032.233	-6.01
1032.657	-4.21
1033.08	-4.01
1033.504	-6.61
1033.927	-9.41
1034.351	-3.01
1034.774	-8.91
1035.198	0.09
1035.621	-3.91
1036.045	-8.41
1036.468	-7.71
1036.891	-13.11
1037.315	-14.71
1037.738	-9.41
1038.161	-0.11
1038.584	-7.01
1039.008	-8.51
1039.431	-4.31
1039.854	-0.91
1040.277	-11.01
1040.7	-8.31
1041.123	1.79
1041.546	-8.81
1041.969	-11.71
1042.392	-7.01
1042.815	-7.71
1043.238	1.49
1043.661	6.09
1044.084	-4.91
1044.507	-5.51
1044.93	-11.21
1045.352	-5.61
1045.775	-4.91
1046.198	3.59
1046.621	1.09
1047.043	-2.31
1047.466	1.89
1047.889	-1.11
1048.311	-5.41
1048.734	-7.31
1049.156	-5.91
1049.579	-3.91
1050.001	0.29
1050.424	-1.71
1050.846	-4.41
1051.269	-7.21
1051.691	-7.51
1052.113	-4.41
1052.536	-1.51
1052.958	-8.31
1053.38	-4.71
1053.802	-10.31
1054.225	-1.71
1054.647	-8.51
1055.069	-7.21
1055.491	1.89
1055.913	-6.81
1056.335	-1.61
1056.757	-4.11
1057.179	-9.21
1057.601	-8.91
1058.023	-2.41
1058.445	-7.51
1058.867	-3.71
1059.289	-2.41
1059.711	-6.01
1060.133	-4.71
1060.555	-7.51
1060.976	-1.51
1061.398	-2.41
1061.82	-4.51
1062.241	-2.11
1062.663	-2.21
1063.085	-10.91
1063.506	-6.21
1063.928	-1.91
1064.35	-0.31
1064.771	-9.61
1065.193	-3.71
1065.614	-10.71
1066.035	-0.91
1066.457	-4.31
1066.878	4.39
1067.3	-8.61
1067.721	-11.11
1068.142	-3.41
1068.564	-6.21
1068.985	-6.31
1069.406	-6.31
1069.827	-8.71
1070.248	-0.81
1070.67	-7.81
1071.091	-9.41
1071.512	-2.11
1071.933	-10.01
1072.354	-3.61
1072.775	-2.11
1073.196	-13.31
1073.617	-2.51
1074.038	-8.91
1074.459	-4.41
1074.88	-14.41
1075.3	-0.01
1075.721	-9.71
1076.142	-2.21
1076.563	-3.11
1076.983	-8.71
1077.404	-8.61
1077.825	-10.61
1078.246	0.49
1078.666	-5.91
1079.087	-7.21
1079.507	-7.01
1079.928	4.39
1080.348	-5.41
1080.769	-12.91
1081.189	-2.61
1081.61	-5.01
1082.03	-7.41
1082.451	-8.51
1082.871	-0.11
1083.291	-14.31
1083.711	-11.61
1084.132	-6.91
1084.552	-9.61
1084.972	-1.61
1085.392	-10.21
1085.813	-11.81
1086.233	-8.81
1086.653	-8.01
1087.073	-5.91
1087.493	-6.91
1087.913	-10.21
1088.333	-6.41
1088.753	-4.71
1089.173	-4.71
1089.593	-6.81
1090.013	1.19
1090.433	6.59
1090.852	-6.51
1091.272	-6.41
1091.692	-2.71
1092.112	-7.01
1092.531	-8.01
1092.951	-15.01
1093.371	-7.51
1093.79	-3.81
1094.21	-5.41
1094.63	-2.51
1095.049	-6.91
1095.469	-2.11
1095.888	-5.41
1096.308	1.09
1096.727	0.49
1097.146	-10.61
1097.566	-2.61
1097.985	-9.91
1098.405	-6.21
1098.824	-9.61
1099.243	-5.81
1099.662	-6.81
1100.082	-4.11
1100.501	-5.11
1100.92	-7.01
1101.339	-7.11
1101.758	-9.11
