Data from 20171114-ORNL-Ar_H_NY_Subt18_08-09-17-136.txt Node
Date: Tue Nov 14 08:09:17 EST 2017
User: Ender
Spectrometer: HR+D1039
Trigger mode: 0
Integration Time (sec): 2.730000E-2
Scans to average: 10
Electric dark correction enabled: true
Nonlinearity correction enabled: false
Boxcar width: 0
XAxis mode: Wavelengths
Number of Pixels in Spectrum: 2048
>>>>>Begin Spectral Data<<<<<
187.836	-6.39
188.309	-6.39
188.782	-6.39
189.255	-2.69
189.728	2.41
190.201	3.51
190.674	-1.19
191.147	0.81
191.619	-3.49
192.092	2.41
192.565	7.21
193.038	-0.29
193.511	-0.69
193.984	2.01
194.456	-3.89
194.929	1.11
195.402	-0.89
195.874	0.01
196.347	-3.69
196.82	-0.89
197.292	-2.99
197.765	2.21
198.237	-11.89
198.71	0.81
199.182	5.21
199.655	5.01
200.127	2.31
200.6	2.31
201.072	-3.59
201.544	-4.29
202.017	-5.59
202.489	7.91
202.961	-3.39
203.433	-3.09
203.906	-3.79
204.378	-4.79
204.85	2.41
205.322	-6.19
205.794	-0.79
206.266	-3.29
206.739	-6.89
207.211	-3.39
207.683	-8.29
208.155	-5.99
208.627	-10.89
209.099	-0.29
209.57	-10.49
210.042	-4.29
210.514	-1.99
210.986	-1.09
211.458	-10.39
211.93	-3.19
212.402	-0.09
212.873	-4.39
213.345	-12.19
213.817	-11.69
214.288	-6.29
214.76	-10.69
215.232	-3.69
215.703	-6.79
216.175	-3.89
216.646	-9.89
217.118	-10.39
217.589	-10.59
218.061	-2.89
218.532	-1.29
219.004	1.31
219.475	-3.69
219.946	-1.39
220.418	-0.69
220.889	3.61
221.36	-1.79
221.832	-7.49
222.303	-6.69
222.774	-3.09
223.245	-14.99
223.717	-3.29
224.188	-4.49
224.659	-3.29
225.13	-7.89
225.601	-1.19
226.072	4.31
226.543	-0.59
227.014	-0.19
227.485	-2.49
227.956	-5.09
228.427	-1.39
228.898	-0.49
229.369	-0.09
229.839	-5.39
230.31	-6.89
230.781	-2.09
231.252	-2.49
231.722	-4.89
232.193	-3.19
232.664	-4.69
233.135	-3.19
233.605	-2.69
234.076	-5.79
234.546	-7.79
235.017	-7.09
235.487	-1.39
235.958	-5.49
236.428	-6.99
236.899	0.21
237.369	0.71
237.84	-6.09
238.31	-3.69
238.78	-0.19
239.251	-6.39
239.721	-3.79
240.191	-10.19
240.662	-2.79
241.132	-1.79
241.602	-2.79
242.072	-4.59
242.542	1.61
243.013	-4.69
243.483	3.71
243.953	2.41
244.423	5.31
244.893	-1.29
245.363	4.51
245.833	-1.79
246.303	-7.29
246.773	-0.09
247.243	2.31
247.712	-8.09
248.182	-5.39
248.652	0.41
249.122	-9.29
249.592	-6.99
250.061	-2.99
250.531	7.01
251.001	-4.29
251.471	1.81
251.94	3.51
252.41	-4.49
252.879	-2.99
253.349	8.01
253.818	3.31
254.288	0.61
254.757	-2.59
255.227	-2.69
255.696	-7.19
256.166	1.01
256.635	7.91
257.105	0.81
257.574	-1.69
258.043	0.41
258.513	-3.79
258.982	-2.69
259.451	-4.09
259.92	2.21
260.389	3.01
260.859	9.41
261.328	-1.49
261.797	-1.49
262.266	-0.39
262.735	1.01
263.204	3.91
263.673	1.51
264.142	-0.99
264.611	-10.09
265.08	1.81
265.549	-1.89
266.018	1.91
266.487	-5.99
266.955	-9.09
267.424	-6.29
267.893	4.41
268.362	-4.19
268.83	-2.49
269.299	-1.19
269.768	3.01
270.236	-6.59
270.705	-1.19
271.174	2.91
271.642	-6.89
272.111	3.31
272.579	-2.39
273.048	3.91
273.516	2.11
273.985	-5.19
274.453	5.31
274.922	7.01
275.39	5.91
275.858	-4.49
276.327	3.01
276.795	8.81
277.263	1.91
277.731	6.01
278.2	1.11
278.668	-0.29
279.136	2.41
279.604	-2.79
280.072	0.21
280.54	5.01
281.008	0.81
281.477	2.91
281.945	6.61
282.413	8.51
282.881	5.41
283.348	-4.09
283.816	8.91
284.284	5.01
284.752	16.41
285.22	4.11
285.688	4.11
286.156	5.11
286.623	12.61
287.091	2.61
287.559	7.21
288.026	4.81
288.494	6.81
288.962	6.81
289.429	-1.39
289.897	11.71
290.364	12.31
290.832	8.21
291.3	9.51
291.767	8.31
292.234	9.41
292.702	11.01
293.169	14.21
293.637	17.21
294.104	10.51
294.571	-1.99
295.039	3.11
295.506	6.91
295.973	9.31
296.44	8.31
296.908	14.11
297.375	6.71
297.842	14.31
298.309	10.71
298.776	5.61
299.243	6.91
299.71	7.01
300.177	16.51
300.644	12.41
301.111	13.61
301.578	18.21
302.045	8.41
302.512	13.61
302.979	16.11
303.446	7.31
303.913	11.11
304.379	7.11
304.846	19.71
305.313	9.21
305.78	12.01
306.246	15.21
306.713	16.21
307.18	21.01
307.646	13.31
308.113	15.91
308.579	16.51
309.046	20.01
309.512	20.91
309.979	7.91
310.445	16.01
310.912	21.51
311.378	19.41
311.845	19.51
312.311	19.21
312.777	18.91
313.244	18.61
313.71	26.31
314.176	15.61
314.642	13.91
315.109	18.51
315.575	27.31
316.041	27.31
316.507	17.11
316.973	25.51
317.439	21.51
317.905	26.71
318.371	28.51
318.837	24.71
319.303	25.51
319.769	20.11
320.235	24.71
320.701	26.01
321.167	28.61
321.633	29.51
322.099	22.71
322.564	27.81
323.03	26.31
323.496	26.71
323.962	30.41
324.427	21.51
324.893	32.41
325.359	27.01
325.824	20.21
326.29	23.11
326.755	31.31
327.221	28.41
327.686	23.51
328.152	35.81
328.617	31.61
329.083	32.61
329.548	27.71
330.014	34.11
330.479	29.01
330.944	26.11
331.41	31.51
331.875	34.11
332.34	27.91
332.805	31.31
333.271	32.91
333.736	24.11
334.201	39.31
334.666	36.91
335.131	38.71
335.596	38.71
336.061	39.81
336.526	29.61
336.991	41.01
337.456	43.81
337.921	37.21
338.386	31.31
338.851	29.31
339.316	38.01
339.781	35.51
340.246	37.21
340.711	33.11
341.175	39.91
341.64	33.21
342.105	41.81
342.569	41.51
343.034	48.91
343.499	40.91
343.963	39.71
344.428	53.11
344.893	49.41
345.357	43.81
345.822	47.71
346.286	51.61
346.751	54.51
347.215	51.41
347.679	64.11
348.144	69.01
348.608	61.41
349.073	60.01
349.537	64.71
350.001	62.61
350.465	70.51
350.93	61.91
351.394	66.61
351.858	55.11
352.322	67.81
352.786	64.81
353.25	81.01
353.715	86.51
354.179	80.21
354.643	90.71
355.107	93.61
355.571	75.21
356.035	73.91
356.498	91.71
356.962	84.81
357.426	92.31
357.89	84.11
358.354	70.11
358.818	66.41
359.281	62.61
359.745	67.51
360.209	60.11
360.673	59.51
361.136	64.21
361.6	73.21
362.064	72.21
362.527	71.51
362.991	76.61
363.454	60.41
363.918	62.51
364.381	67.31
364.845	76.31
365.308	75.71
365.772	72.61
366.235	76.81
366.698	75.81
367.162	70.81
367.625	69.51
368.088	70.11
368.552	76.11
369.015	80.91
369.478	73.31
369.941	89.41
370.404	77.31
370.867	84.81
371.331	89.61
371.794	90.21
372.257	80.41
372.72	88.41
373.183	87.41
373.646	76.61
374.109	80.51
374.572	89.31
375.035	84.41
375.497	86.71
375.96	86.31
376.423	87.61
376.886	91.51
377.349	94.71
377.811	88.41
378.274	88.91
378.737	92.31
379.199	103.11
379.662	99.91
380.125	95.01
380.587	100.11
381.05	95.61
381.512	101.41
381.975	115.41
382.437	104.61
382.9	108.51
383.362	108.81
383.825	111.91
384.287	111.91
384.75	107.41
385.212	107.61
385.674	117.71
386.136	113.21
386.599	108.01
387.061	109.81
387.523	109.91
387.985	115.01
388.447	123.11
388.91	107.71
389.372	112.41
389.834	118.91
390.296	110.01
390.758	120.41
391.22	120.71
391.682	129.51
392.144	138.51
392.606	127.11
393.068	127.41
393.529	137.41
393.991	131.21
394.453	125.11
394.915	126.81
395.377	123.41
395.838	131.61
396.3	122.81
396.762	126.71
397.224	125.01
397.685	118.51
398.147	125.51
398.608	117.61
399.07	116.91
399.531	124.41
399.993	136.71
400.454	136.11
400.916	138.71
401.377	134.71
401.839	143.71
402.3	145.61
402.762	151.71
403.223	164.01
403.684	162.61
404.145	150.01
404.607	147.41
405.068	151.31
405.529	154.61
405.99	168.41
406.451	160.81
406.913	158.61
407.374	154.81
407.835	147.01
408.296	156.31
408.757	166.21
409.218	176.81
409.679	170.21
410.14	168.31
410.601	169.71
411.062	167.41
411.522	169.51
411.983	171.61
412.444	166.81
412.905	168.61
413.366	180.01
413.826	187.61
414.287	206.11
414.748	258.81
415.208	238.61
415.669	201.41
416.13	197.21
416.59	197.21
417.051	210.21
417.511	218.11
417.972	238.01
418.432	248.31
418.893	282.11
419.353	243.81
419.814	198.91
420.274	179.91
420.734	178.31
421.195	198.01
421.655	188.81
422.115	188.81
422.576	197.91
423.036	198.81
423.496	208.11
423.956	210.41
424.416	226.61
424.876	259.61
425.336	248.11
425.797	251.41
426.257	246.71
426.717	234.11
427.177	229.01
427.637	218.21
428.097	226.81
428.556	235.31
429.016	262.51
429.476	244.41
429.936	262.51
430.396	266.91
430.856	276.91
431.315	301.71
431.775	330.31
432.235	363.11
432.694	335.81
433.154	343.61
433.614	378.31
434.073	318.31
434.533	266.41
434.993	253.11
435.452	275.01
435.912	280.51
436.371	272.21
436.83	270.91
437.29	253.21
437.749	242.21
438.209	237.51
438.668	264.61
439.127	279.01
439.587	254.21
440.046	235.51
440.505	257.21
440.964	261.41
441.424	305.51
441.883	296.31
442.342	257.01
442.801	230.71
443.26	228.71
443.719	218.81
444.178	214.91
444.637	210.11
445.096	219.91
445.555	226.01
446.014	223.31
446.473	225.71
446.932	235.41
447.391	227.21
447.849	224.01
448.308	218.91
448.767	223.91
449.226	235.91
449.685	237.11
450.143	248.91
450.602	238.31
451.061	223.21
451.519	231.81
451.978	236.11
452.436	232.01
452.895	234.91
453.353	256.61
453.812	242.11
454.27	245.81
454.729	240.91
455.187	238.51
455.646	246.21
456.104	252.61
456.562	257.01
457.021	269.81
457.479	264.31
457.937	278.61
458.395	275.31
458.854	252.91
459.312	250.21
459.77	272.51
460.228	256.61
460.686	246.81
461.144	251.31
461.602	245.11
462.06	247.61
462.518	263.01
462.976	255.21
463.434	266.01
463.892	262.31
464.35	281.71
464.808	291.31
465.266	269.71
465.724	276.61
466.181	277.61
466.639	279.01
467.097	298.31
467.555	303.41
468.012	306.11
468.47	307.41
468.928	325.01
469.385	347.11
469.843	345.91
470.3	353.71
470.758	364.71
471.215	382.61
471.673	405.71
472.13	406.71
472.588	419.91
473.045	380.41
473.503	390.11
473.96	411.01
474.417	410.31
474.875	444.41
475.332	481.01
475.789	469.71
476.246	473.61
476.704	491.51
477.161	506.91
477.618	523.21
478.075	565.81
478.532	606.51
478.989	670.31
479.446	782.31
479.903	750.81
480.36	779.21
480.817	841.31
481.274	920.01
481.731	993.31
482.188	1082.41
482.645	1201.01
483.102	1289.01
483.558	1397.51
484.015	1436.21
484.472	1413.51
484.929	1379.81
485.385	1323.11
485.842	1299.51
486.299	1258.21
486.755	1211.41
487.212	1035.91
487.668	887.61
488.125	830.51
488.582	755.51
489.038	736.61
489.494	703.91
489.951	686.41
490.407	658.01
490.864	642.11
491.32	644.01
491.776	644.11
492.233	644.71
492.689	607.71
493.145	603.51
493.602	604.11
494.058	625.71
494.514	609.91
494.97	638.51
495.426	652.91
495.882	620.41
496.338	617.31
496.794	622.11
497.251	620.31
497.707	631.41
498.163	639.61
498.618	642.11
499.074	643.91
499.53	671.01
499.986	665.21
500.442	647.21
500.898	624.31
501.354	614.61
501.809	624.11
502.265	623.31
502.721	632.81
503.177	644.51
503.632	643.21
504.088	660.31
504.543	672.31
504.999	698.71
505.455	657.41
505.91	636.51
506.366	653.01
506.821	638.51
507.277	645.21
507.732	641.51
508.187	640.01
508.643	650.71
509.098	655.91
509.553	667.61
510.009	680.51
510.464	686.91
510.919	705.71
511.375	717.71
511.83	730.41
512.285	738.41
512.74	776.91
513.195	792.41
513.65	783.31
514.105	782.51
514.56	788.61
515.015	789.41
515.47	810.11
515.925	785.91
516.38	800.41
516.835	798.01
517.29	797.51
517.745	790.21
518.2	769.81
518.655	768.31
519.109	758.21
519.564	749.21
520.019	742.91
520.474	738.61
520.928	734.01
521.383	723.31
521.838	725.31
522.292	727.91
522.747	726.71
523.201	710.31
523.656	716.51
524.11	713.91
524.565	711.61
525.019	704.61
525.474	709.81
525.928	716.41
526.382	714.41
526.837	713.41
527.291	718.11
527.745	719.61
528.2	716.31
528.654	701.21
529.108	700.11
529.562	702.41
530.016	705.31
530.47	704.01
530.925	698.51
531.379	705.31
531.833	712.71
532.287	714.31
532.741	719.71
533.195	710.01
533.649	733.01
534.103	733.11
534.556	713.41
535.01	725.21
535.464	710.01
535.918	731.01
536.372	729.41
536.826	724.81
537.279	713.01
537.733	720.91
538.187	725.01
538.64	731.51
539.094	730.71
539.548	746.31
540.001	738.71
540.455	736.51
540.908	760.11
541.362	764.91
541.815	765.71
542.269	771.11
542.722	777.61
543.175	781.91
543.629	793.71
544.082	812.11
544.536	798.91
544.989	803.41
545.442	824.41
545.895	810.61
546.349	817.91
546.802	827.41
547.255	825.11
547.708	827.61
548.161	826.11
548.614	840.71
549.067	843.21
549.52	840.91
549.973	829.91
550.426	835.91
550.879	819.91
551.332	821.21
551.785	836.91
552.238	831.41
552.691	845.21
553.144	854.91
553.596	870.91
554.049	890.71
554.502	918.81
554.955	943.21
555.407	934.11
555.86	920.01
556.313	902.81
556.765	912.71
557.218	903.31
557.67	900.41
558.123	902.01
558.576	904.11
559.028	894.61
559.48	921.21
559.933	903.71
560.385	874.11
560.838	840.41
561.29	815.31
561.742	816.91
562.195	792.21
562.647	796.01
563.099	812.31
563.551	798.01
564.004	812.11
564.456	800.51
564.908	788.31
565.36	765.71
565.812	751.61
566.264	742.41
566.716	739.71
567.168	723.71
567.62	733.11
568.072	721.61
568.524	717.61
568.976	707.21
569.428	699.11
569.88	696.81
570.332	721.51
570.784	713.71
571.235	712.41
571.687	727.81
572.139	728.71
572.59	742.61
573.042	735.31
573.494	733.11
573.945	732.71
574.397	706.91
574.849	719.11
575.3	715.91
575.752	706.51
576.203	697.71
576.655	706.31
577.106	686.81
577.557	686.91
578.009	706.21
578.46	686.31
578.912	686.61
579.363	690.71
579.814	687.61
580.265	694.31
580.717	688.61
581.168	688.41
581.619	704.01
582.07	714.21
582.521	706.91
582.972	688.91
583.423	703.11
583.875	697.31
584.326	708.31
584.777	729.81
585.227	742.81
585.678	766.21
586.129	772.51
586.58	805.11
587.031	824.31
587.482	858.71
587.933	876.11
588.384	866.61
588.834	818.11
589.285	791.41
589.736	800.31
590.186	792.31
590.637	793.91
591.088	770.81
591.538	768.31
591.989	750.01
592.439	751.21
592.89	741.71
593.34	726.71
593.791	727.41
594.241	715.61
594.692	713.31
595.142	716.91
595.593	712.01
596.043	726.21
596.493	728.31
596.943	729.21
597.394	743.31
597.844	748.41
598.294	761.41
598.744	779.71
599.195	813.81
599.645	860.91
600.095	896.51
600.545	965.61
600.995	1018.11
601.445	1071.31
601.895	1134.91
602.345	1173.51
602.795	1160.71
603.245	1117.01
603.695	1058.11
604.145	998.41
604.594	951.41
605.044	892.71
605.494	845.11
605.944	785.21
606.393	769.41
606.843	760.51
607.293	757.31
607.743	760.21
608.192	764.51
608.642	775.11
609.091	777.81
609.541	785.81
609.99	790.91
610.44	789.11
610.889	739.61
611.339	724.91
611.788	710.11
612.238	722.81
612.687	729.71
613.136	721.11
613.586	730.51
614.035	719.61
614.484	741.11
614.933	739.91
615.383	725.41
615.832	738.51
616.281	731.61
616.73	701.71
617.179	675.21
617.628	669.51
618.077	650.91
618.526	645.01
618.975	638.21
619.424	650.01
619.873	631.91
620.322	636.31
620.771	624.91
621.22	621.81
621.669	618.51
622.118	611.71
622.567	610.41
623.015	588.71
623.464	592.01
623.913	576.11
624.361	577.41
624.81	572.41
625.259	572.61
625.707	581.81
626.156	580.31
626.604	586.31
627.053	577.61
627.501	589.81
627.95	596.61
628.398	606.71
628.847	584.41
629.295	594.71
629.744	597.01
630.192	590.71
630.64	580.91
631.089	562.71
631.537	565.91
631.985	545.11
632.433	547.01
632.881	550.01
633.33	555.11
633.778	552.81
634.226	552.41
634.674	563.91
635.122	558.21
635.57	575.41
636.018	578.51
636.466	587.31
636.914	580.21
637.362	598.81
637.81	600.91
638.258	602.71
638.705	609.41
639.153	631.81
639.601	645.01
640.049	672.51
640.497	698.71
640.944	715.61
641.392	665.51
641.84	639.31
642.287	596.01
642.735	594.51
643.182	590.81
643.63	589.01
644.078	584.61
644.525	602.11
644.973	600.51
645.42	615.31
645.867	644.01
646.315	654.71
646.762	674.51
647.21	708.21
647.657	719.31
648.104	763.91
648.551	786.11
648.999	835.11
649.446	930.41
649.893	999.21
650.34	1150.01
650.787	1379.61
651.234	1669.61
651.682	2202.41
652.129	2968.61
652.576	4227.51
653.023	6160.41
653.47	8328.91
653.917	10212.01
654.363	11679.61
654.81	12763.21
655.257	12115.61
655.704	8000.71
656.151	4841.21
656.598	3195.11
657.044	2290.81
657.491	1767.31
657.938	1454.81
658.385	1207.71
658.831	1060.11
659.278	945.51
659.724	850.71
660.171	785.91
660.618	727.31
661.064	700.01
661.511	671.41
661.957	670.11
662.404	655.31
662.85	656.31
663.296	632.41
663.743	571.91
664.189	556.31
664.635	547.71
665.082	542.41
665.528	544.01
665.974	537.31
666.42	522.81
666.867	521.71
667.313	502.31
667.759	481.11
668.205	468.91
668.651	470.11
669.097	463.91
669.543	462.61
669.989	465.91
670.435	463.01
670.881	470.51
671.327	470.11
671.773	497.81
672.219	517.61
672.665	579.71
673.11	615.61
673.556	661.21
674.002	707.41
674.448	689.01
674.893	585.01
675.339	503.61
675.785	462.41
676.23	442.81
676.676	412.71
677.122	408.51
677.567	390.81
678.013	387.31
678.458	378.61
678.904	382.51
679.349	368.01
679.794	376.01
680.24	375.01
680.685	369.81
681.131	367.91
681.576	368.31
682.021	367.71
682.466	366.61
682.912	367.31
683.357	360.11
683.802	402.11
684.247	438.81
684.692	478.71
685.137	522.81
685.583	564.21
686.028	596.31
686.473	554.41
686.918	478.31
687.363	438.61
687.807	420.61
688.252	391.21
688.697	376.41
689.142	361.61
689.587	349.41
690.032	343.61
690.477	369.21
690.921	368.31
691.366	408.61
691.811	426.41
692.255	459.11
692.7	496.01
693.145	543.81
693.589	781.31
694.034	1251.51
694.478	1664.71
694.923	1828.91
695.367	2361.01
695.812	1268.01
696.256	531.51
696.701	395.91
697.145	367.71
697.59	355.51
698.034	342.51
698.478	342.11
698.922	335.11
699.367	335.61
699.811	356.61
700.255	373.71
700.699	407.41
701.143	444.11
701.588	511.31
702.032	545.81
702.476	553.71
702.92	521.11
703.364	536.11
703.808	708.91
704.252	1140.11
704.696	1580.91
705.14	1786.11
705.584	2242.31
706.027	1142.21
706.471	559.31
706.915	422.61
707.359	373.61
707.803	340.61
708.246	325.41
708.69	340.91
709.134	331.31
709.577	327.91
710.021	337.21
710.465	324.91
710.908	319.51
711.352	316.21
711.795	330.21
712.239	376.41
712.682	411.61
713.126	434.01
713.569	477.71
714.012	372.01
714.456	310.51
714.899	305.61
715.342	294.61
715.786	274.51
716.229	269.91
716.672	269.31
717.115	268.01
717.558	265.31
718.002	270.11
718.445	275.81
718.888	304.31
719.331	313.01
719.774	316.01
720.217	317.71
720.66	300.11
721.103	286.41
721.546	273.21
721.989	263.31
722.432	244.41
722.874	248.61
723.317	242.51
723.76	254.71
724.203	274.81
724.645	346.11
725.088	481.91
725.531	611.21
725.974	677.11
726.416	583.61
726.859	319.11
727.301	258.31
727.744	250.91
728.187	246.41
728.629	254.71
729.071	257.11
729.514	271.01
729.956	283.71
730.399	299.51
730.841	304.01
731.283	290.31
731.726	283.31
732.168	286.61
732.61	286.91
733.053	302.61
733.495	336.81
733.937	380.31
734.379	424.61
734.821	468.31
735.263	589.51
735.705	946.81
736.148	1770.51
736.59	2799.61
737.032	3214.01
737.474	2633.61
737.916	876.11
738.357	457.41
738.799	349.31
739.241	320.91
739.683	301.31
740.125	311.01
740.567	313.71
741.008	329.81
741.45	338.61
741.892	346.71
742.334	370.81
742.775	388.51
743.217	363.71
743.658	295.01
744.1	274.91
744.542	282.71
744.983	343.01
745.425	361.81
745.866	363.81
746.307	308.31
746.749	296.61
747.19	347.21
747.632	504.71
748.073	1003.01
748.514	2104.31
748.956	3096.21
749.397	3907.31
749.838	3228.31
750.279	3126.51
750.72	1601.61
751.162	594.51
751.603	345.21
752.044	277.81
752.485	227.01
752.926	218.21
753.367	216.31
753.808	204.91
754.249	197.11
754.69	196.91
755.131	190.81
755.572	199.01
756.013	192.61
756.453	194.11
756.894	197.61
757.335	199.31
757.776	213.91
758.216	212.31
758.657	217.81
759.098	219.11
759.538	240.21
759.979	293.71
760.42	411.61
760.86	811.81
761.301	2114.41
761.741	4954.31
762.182	6770.81
762.622	4811.31
763.063	1412.11
763.503	576.91
763.943	351.11
764.384	291.81
764.824	266.01
765.264	244.21
765.705	218.91
766.145	195.01
766.585	195.01
767.025	179.61
767.465	171.31
767.906	185.61
768.346	211.31
768.786	225.21
769.226	238.31
769.666	344.11
770.106	708.51
770.546	1757.91
770.986	2803.31
771.426	2483.61
771.866	852.41
772.306	355.31
772.745	220.61
773.185	178.91
773.625	178.61
774.065	166.11
774.505	172.71
774.944	221.41
775.384	387.71
775.824	608.91
776.263	584.71
776.703	292.41
777.142	165.91
777.582	135.41
778.021	130.01
778.461	134.81
778.9	121.41
779.34	135.61
779.779	115.61
780.219	117.81
780.658	113.51
781.097	119.21
781.537	112.21
781.976	114.51
782.415	103.11
782.855	104.71
783.294	103.31
783.733	103.61
784.172	119.01
784.611	109.31
785.05	114.21
785.489	115.41
785.928	128.51
786.367	128.71
786.806	124.81
787.245	144.31
787.684	142.61
788.123	152.31
788.562	142.51
789.001	126.41
789.44	131.11
789.879	128.41
790.317	127.01
790.756	135.01
791.195	137.21
791.634	154.41
792.072	228.61
792.511	410.21
792.95	1143.51
793.388	2280.21
793.827	1992.81
794.265	713.21
794.704	300.61
795.142	189.71
795.581	162.31
796.019	144.51
796.458	138.81
796.896	130.71
797.334	140.61
797.773	171.51
798.211	239.71
798.649	499.11
799.087	1128.81
799.526	1739.11
799.964	2192.11
800.402	2119.71
800.84	819.31
801.278	328.21
801.716	199.31
802.154	164.81
802.592	162.41
803.03	154.41
803.468	151.01
803.906	159.61
804.344	158.71
804.782	146.81
805.22	142.51
805.658	141.51
806.096	161.21
806.533	167.71
806.971	186.81
807.409	238.91
807.847	351.91
808.284	765.51
808.722	2121.81
809.16	3555.21
809.597	3514.31
810.035	5943.01
810.472	6082.71
810.91	2241.31
811.347	877.21
811.785	441.01
812.222	279.61
812.66	217.71
813.097	181.91
813.535	155.41
813.972	135.91
814.409	126.41
814.846	121.21
815.284	120.81
815.721	112.51
816.158	108.21
816.595	119.51
817.032	161.61
817.47	182.51
817.907	136.71
818.344	106.11
818.781	101.71
819.218	97.31
819.655	138.51
820.092	196.01
820.529	226.01
820.966	184.61
821.403	134.01
821.839	98.41
822.276	101.01
822.713	130.11
823.15	142.11
823.587	131.61
824.023	157.01
824.46	344.51
824.897	1000.91
825.333	1426.81
825.77	617.01
826.206	250.61
826.643	150.71
827.08	106.91
827.516	93.21
827.953	85.51
828.389	82.31
828.825	69.71
829.262	72.61
829.698	67.11
830.135	70.01
830.571	68.91
831.007	69.71
831.443	67.41
831.88	67.41
832.316	64.91
832.752	64.01
833.188	75.61
833.624	69.11
834.06	70.21
834.497	73.91
834.933	75.11
835.369	74.61
835.805	70.41
836.241	80.51
836.677	89.71
837.112	95.81
837.548	109.21
837.984	150.31
838.42	226.41
838.856	573.61
839.292	1689.61
839.727	2433.31
840.163	1154.91
840.599	1047.61
841.034	2212.21
841.47	2230.31
841.906	833.61
842.341	350.51
842.777	216.91
843.212	215.71
843.648	194.41
844.083	117.71
844.519	89.91
844.954	74.41
845.39	60.81
845.825	61.91
846.261	59.11
846.696	60.11
847.131	57.61
847.566	57.91
848.002	52.71
848.437	54.31
848.872	69.71
849.307	61.01
849.742	94.31
850.177	207.11
850.613	618.31
851.048	927.11
851.483	403.01
851.918	169.51
852.353	95.61
852.788	59.21
853.223	53.61
853.657	55.71
854.092	44.11
854.527	48.21
854.962	42.51
855.397	46.51
855.832	54.31
856.266	45.21
856.701	39.41
857.136	39.41
857.57	47.41
858.005	56.51
858.44	66.21
858.874	58.01
859.309	56.01
859.743	45.71
860.178	46.21
860.612	46.71
861.047	59.51
861.481	77.71
861.915	83.11
862.35	53.51
862.784	35.71
863.218	36.41
863.653	38.31
864.087	42.91
864.521	53.21
864.955	74.71
865.39	169.41
865.824	188.31
866.258	122.71
866.692	177.21
867.126	189.01
867.56	111.91
867.994	52.91
868.428	39.71
868.862	44.41
869.296	60.61
869.73	65.61
870.164	62.81
870.598	48.41
871.031	37.31
871.465	36.11
871.899	32.91
872.333	25.91
872.766	26.71
873.2	24.21
873.634	32.91
874.067	27.21
874.501	27.01
874.935	30.91
875.368	29.21
875.802	26.61
876.235	24.01
876.669	24.91
877.102	24.21
877.535	26.71
877.969	26.61
878.402	27.91
878.836	22.11
879.269	26.11
879.702	27.11
880.135	22.81
880.569	23.31
881.002	21.31
881.435	19.31
881.868	14.91
882.301	23.51
882.734	15.91
883.167	23.21
883.601	17.21
884.034	26.61
884.467	11.11
884.899	18.51
885.332	17.31
885.765	9.61
886.198	20.01
886.631	13.61
887.064	18.41
887.497	24.21
887.929	23.61
888.362	17.81
888.795	15.61
889.228	13.21
889.66	19.51
890.093	21.71
890.526	21.51
890.958	16.51
891.391	14.01
891.823	25.01
892.256	15.81
892.688	13.11
893.121	18.61
893.553	17.21
893.985	26.41
894.418	19.71
894.85	16.31
895.282	16.01
895.715	17.31
896.147	18.81
896.579	18.21
897.011	17.51
897.444	26.11
897.876	14.61
898.308	15.81
898.74	11.31
899.172	14.11
899.604	18.81
900.036	19.21
900.468	19.31
900.9	15.31
901.332	17.01
901.764	16.01
902.196	16.21
902.628	17.01
903.06	15.51
903.491	26.41
903.923	29.11
904.355	20.91
904.787	23.31
905.218	22.61
905.65	27.11
906.082	15.61
906.513	17.51
906.945	16.21
907.376	16.31
907.808	19.31
908.239	19.91
908.671	16.31
909.102	23.71
909.534	28.01
909.965	50.11
910.397	109.11
910.828	343.31
911.259	501.11
911.691	228.71
912.122	109.21
912.553	51.71
912.984	36.11
913.415	22.71
913.847	21.31
914.278	17.11
914.709	7.61
915.14	18.91
915.571	12.41
916.002	12.61
916.433	18.91
916.864	21.91
917.295	10.81
917.726	16.11
918.157	20.31
918.587	25.41
919.018	21.21
919.449	25.01
919.88	23.81
920.311	34.11
920.741	50.01
921.172	177.61
921.603	158.01
922.033	77.71
922.464	45.41
922.895	25.11
923.325	24.11
923.756	12.21
924.186	15.41
924.617	16.31
925.047	24.21
925.478	25.91
925.908	27.31
926.338	11.81
926.769	9.61
927.199	18.71
927.629	9.01
928.06	21.11
928.49	12.41
928.92	15.41
929.35	13.61
929.78	7.01
930.21	4.91
930.641	6.31
931.071	7.91
931.501	5.71
931.931	8.41
932.361	7.81
932.791	4.71
933.221	4.61
933.651	4.01
934.08	18.31
934.51	27.51
934.94	10.71
935.37	5.71
935.8	9.51
936.229	11.61
936.659	10.51
937.089	5.51
937.519	18.61
937.948	25.11
938.378	13.61
938.807	8.11
939.237	6.21
939.666	7.51
940.096	-9.29
940.525	-1.69
940.955	7.11
941.384	5.91
941.814	-5.19
942.243	1.41
942.672	2.41
943.102	-1.29
943.531	2.11
943.96	-1.49
944.39	-0.99
944.819	4.01
945.248	-0.49
945.677	1.81
946.106	6.71
946.535	9.51
946.964	3.81
947.393	3.41
947.822	3.71
948.251	-1.79
948.68	3.31
949.109	4.61
949.538	8.41
949.967	-3.99
950.396	1.91
950.825	1.41
951.254	1.01
951.682	-7.49
952.111	4.71
952.54	8.01
952.969	-5.29
953.397	-5.99
953.826	0.61
954.254	-3.89
954.683	6.11
955.112	1.41
955.54	-1.19
955.969	0.81
956.397	3.11
956.826	1.01
957.254	-1.99
957.682	2.81
958.111	6.31
958.539	-0.19
958.967	5.81
959.396	-1.09
959.824	-1.39
960.252	3.81
960.68	-6.59
961.109	-1.39
961.537	-5.99
961.965	1.51
962.393	2.61
962.821	-9.09
963.249	-1.29
963.677	2.81
964.105	2.21
964.533	45.41
964.961	43.11
965.389	21.31
965.817	12.61
966.245	-1.69
966.672	-1.49
967.1	-6.89
967.528	-1.79
967.956	-5.19
968.383	3.01
968.811	-1.99
969.239	1.11
969.666	-7.29
970.094	4.81
970.522	3.01
970.949	2.71
971.377	-10.09
971.804	-4.99
972.232	-0.39
972.659	-3.89
973.087	-2.89
973.514	-5.19
973.941	-4.09
974.369	6.01
974.796	-0.19
975.223	-3.09
975.651	0.21
976.078	-0.49
976.505	-1.59
976.932	3.21
977.359	13.61
977.786	15.41
978.214	-1.29
978.641	0.61
979.068	-2.39
979.495	-8.89
979.922	1.41
980.349	-6.09
980.776	8.41
981.202	-0.99
981.629	9.61
982.056	3.41
982.483	0.01
982.91	-0.29
983.337	-2.29
983.763	5.61
984.19	2.81
984.617	-7.79
985.043	-4.19
985.47	3.51
985.897	-5.59
986.323	-4.29
986.75	2.81
987.176	-1.99
987.603	-4.69
988.029	-2.39
988.456	-2.89
988.882	-2.19
989.308	-8.09
989.735	-3.69
990.161	2.51
990.587	0.11
991.014	-0.29
991.44	5.71
991.866	-1.79
992.292	0.01
992.719	-8.39
993.145	1.31
993.571	-7.99
993.997	-6.89
994.423	-1.19
994.849	-2.79
995.275	3.31
995.701	3.51
996.127	-5.49
996.553	1.21
996.979	-3.89
997.405	2.01
997.83	-6.59
998.256	-2.79
998.682	-2.29
999.108	-8.49
999.534	1.81
999.959	-1.79
1000.385	-5.69
1000.811	-5.49
1001.236	-7.59
1001.662	-5.39
1002.087	-14.09
1002.513	-0.79
1002.938	3.31
1003.364	-1.39
1003.789	-0.49
1004.215	-1.29
1004.64	0.81
1005.066	0.91
1005.491	-2.09
1005.916	-1.79
1006.342	0.51
1006.767	-7.69
1007.192	3.01
1007.617	-5.39
1008.042	-8.79
1008.468	-7.59
1008.893	-7.29
1009.318	-0.29
1009.743	-7.29
1010.168	4.31
1010.593	4.11
1011.018	-8.49
1011.443	0.51
1011.868	0.81
1012.293	-2.39
1012.718	-9.89
1013.143	8.21
1013.567	2.01
1013.992	-3.49
1014.417	-13.99
1014.842	0.81
1015.267	4.21
1015.691	-9.89
1016.116	-2.49
1016.541	-1.79
1016.965	3.81
1017.39	0.41
1017.814	5.31
1018.239	0.91
1018.663	-10.69
1019.088	-8.59
1019.512	-0.29
1019.937	-2.49
1020.361	-3.39
1020.785	-9.09
1021.21	3.21
1021.634	-0.19
1022.058	-0.59
1022.483	1.91
1022.907	-3.89
1023.331	-10.39
1023.755	-3.59
1024.179	-4.09
1024.604	-4.99
1025.028	-5.89
1025.452	-2.09
1025.876	-1.99
1026.3	1.81
1026.724	-12.19
1027.148	-6.39
1027.572	-9.49
1027.996	-2.49
1028.42	0.21
1028.843	-14.09
1029.267	-9.29
1029.691	0.01
1030.115	-11.59
1030.539	-13.19
1030.962	-9.09
1031.386	-10.59
1031.81	-8.89
1032.233	-2.59
1032.657	1.81
1033.08	-2.99
1033.504	-2.59
1033.927	-6.89
1034.351	-1.89
1034.774	-8.69
1035.198	-4.29
1035.621	-5.79
1036.045	-14.89
1036.468	0.11
1036.891	-5.59
1037.315	-12.49
1037.738	-6.49
1038.161	0.91
1038.584	-9.49
1039.008	-4.99
1039.431	-5.69
1039.854	-1.89
1040.277	-13.69
1040.7	-15.89
1041.123	-0.69
1041.546	-3.69
1041.969	-6.49
1042.392	-3.89
1042.815	-2.19
1043.238	1.61
1043.661	2.11
1044.084	-5.79
1044.507	1.81
1044.93	-0.89
1045.352	-6.69
1045.775	-3.19
1046.198	-0.29
1046.621	0.31
1047.043	0.41
1047.466	9.61
1047.889	-7.09
1048.311	-8.99
1048.734	-4.59
1049.156	-1.69
1049.579	-3.69
1050.001	-3.09
1050.424	1.31
1050.846	-2.59
1051.269	-3.99
1051.691	-6.59
1052.113	-7.09
1052.536	-5.29
1052.958	-3.29
1053.38	-4.49
1053.802	-14.99
1054.225	0.61
1054.647	-6.79
1055.069	-3.99
1055.491	1.01
1055.913	-8.39
1056.335	-3.69
1056.757	-9.49
1057.179	-7.19
1057.601	-5.49
1058.023	-1.49
1058.445	-6.39
1058.867	0.71
1059.289	-2.19
1059.711	0.51
1060.133	-3.09
1060.555	-2.59
1060.976	-10.19
1061.398	1.71
1061.82	-6.09
1062.241	-3.39
1062.663	-8.99
1063.085	-3.09
1063.506	-0.29
1063.928	-3.49
1064.35	1.41
1064.771	-5.79
1065.193	-2.39
1065.614	-4.69
1066.035	1.11
1066.457	-5.79
1066.878	2.41
1067.3	-8.29
1067.721	-4.79
1068.142	-6.99
1068.564	-5.09
1068.985	-4.69
1069.406	-7.69
1069.827	-8.49
1070.248	-0.59
1070.67	-3.69
1071.091	-8.69
1071.512	-4.59
1071.933	-5.59
1072.354	-12.09
1072.775	-8.09
1073.196	-6.89
1073.617	3.41
1074.038	-0.89
1074.459	-7.09
1074.88	-6.09
1075.3	-3.69
1075.721	-7.69
1076.142	-0.19
1076.563	-3.49
1076.983	-6.49
1077.404	-5.29
1077.825	-10.99
1078.246	-1.49
1078.666	-10.39
1079.087	-7.29
1079.507	-9.79
1079.928	4.91
1080.348	-0.59
1080.769	-2.89
1081.189	-4.09
1081.61	-5.49
1082.03	-9.79
1082.451	-9.19
1082.871	1.61
1083.291	-8.39
1083.711	-7.99
1084.132	-5.89
1084.552	-4.89
1084.972	1.01
1085.392	-10.29
1085.813	-12.09
1086.233	-4.19
1086.653	-6.29
1087.073	1.81
1087.493	-15.49
1087.913	-7.59
1088.333	-11.89
1088.753	-3.49
1089.173	8.41
1089.593	-7.59
1090.013	0.41
1090.433	-7.19
1090.852	-10.99
1091.272	-5.09
1091.692	-1.69
1092.112	-2.59
1092.531	-11.89
1092.951	-4.49
1093.371	-1.29
1093.79	4.41
1094.21	-2.69
1094.63	-3.09
1095.049	-3.49
1095.469	-7.79
1095.888	-5.09
1096.308	2.71
1096.727	11.21
1097.146	-5.19
1097.566	2.71
1097.985	-8.49
1098.405	0.51
1098.824	-8.79
1099.243	-4.59
1099.662	-10.19
1100.082	-0.79
1100.501	2.61
1100.92	-10.89
1101.339	-6.59
1101.758	-5.99
