Data from 20171114-ORNL-Ar_H_NY_Subt18_08-04-29-906.txt Node
Date: Tue Nov 14 08:04:29 EST 2017
User: Ender
Spectrometer: HR+D1039
Trigger mode: 0
Integration Time (sec): 2.730000E-2
Scans to average: 10
Electric dark correction enabled: true
Nonlinearity correction enabled: false
Boxcar width: 0
XAxis mode: Wavelengths
Number of Pixels in Spectrum: 2048
>>>>>Begin Spectral Data<<<<<
187.836	-0.17
188.309	-0.17
188.782	-0.17
189.255	2.83
189.728	0.83
190.201	4.33
190.674	1.03
191.147	3.13
191.619	-11.77
192.092	5.73
192.565	4.33
193.038	0.53
193.511	-2.07
193.984	-1.17
194.456	-2.57
194.929	-4.27
195.402	0.73
195.874	-1.47
196.347	4.83
196.82	-3.57
197.292	8.03
197.765	-2.77
198.237	-8.97
198.71	2.63
199.182	-1.27
199.655	0.53
200.127	1.53
200.6	-2.67
201.072	-4.17
201.544	-14.47
202.017	-6.87
202.489	5.63
202.961	2.93
203.433	0.43
203.906	-5.87
204.378	-7.57
204.85	-0.67
205.322	-10.87
205.794	2.03
206.266	-1.47
206.739	-4.07
207.211	2.13
207.683	-12.17
208.155	-2.17
208.627	-5.17
209.099	4.63
209.57	-9.27
210.042	-3.37
210.514	-2.57
210.986	-3.27
211.458	-10.37
211.93	-2.07
212.402	-0.17
212.873	-4.07
213.345	-8.07
213.817	-7.27
214.288	-5.67
214.76	-8.17
215.232	-4.07
215.703	-8.47
216.175	-8.07
216.646	-3.47
217.118	-3.07
217.589	-5.27
218.061	-3.57
218.532	-3.87
219.004	0.33
219.475	-1.87
219.946	-0.27
220.418	-2.17
220.889	5.63
221.36	-3.37
221.832	1.93
222.303	-9.37
222.774	5.63
223.245	-4.67
223.717	-5.07
224.188	-4.77
224.659	-5.57
225.13	-5.17
225.601	-2.67
226.072	-0.27
226.543	-2.37
227.014	-0.17
227.485	-2.77
227.956	-3.77
228.427	-1.77
228.898	2.23
229.369	1.13
229.839	-4.07
230.31	-4.47
230.781	3.73
231.252	4.53
231.722	1.73
232.193	-1.57
232.664	1.63
233.135	3.13
233.605	1.93
234.076	-1.47
234.546	2.93
235.017	5.93
235.487	3.73
235.958	3.13
236.428	2.53
236.899	4.03
237.369	2.23
237.84	4.73
238.31	10.93
238.78	5.33
239.251	1.13
239.721	8.63
240.191	-1.17
240.662	-0.67
241.132	2.43
241.602	-1.67
242.072	3.13
242.542	9.13
243.013	5.43
243.483	3.53
243.953	10.23
244.423	7.43
244.893	-0.17
245.363	5.63
245.833	2.23
246.303	-0.87
246.773	11.53
247.243	5.63
247.712	2.63
248.182	9.23
248.652	8.33
249.122	2.83
249.592	16.63
250.061	26.13
250.531	39.43
251.001	20.43
251.471	30.23
251.94	21.83
252.41	6.43
252.879	4.63
253.349	18.93
253.818	14.13
254.288	6.23
254.757	5.13
255.227	4.33
255.696	4.63
256.166	17.13
256.635	15.93
257.105	11.73
257.574	9.43
258.043	10.53
258.513	17.83
258.982	17.63
259.451	12.43
259.92	17.13
260.389	9.63
260.859	20.13
261.328	14.83
261.797	20.33
262.266	13.53
262.735	11.83
263.204	11.43
263.673	8.33
264.142	8.13
264.611	-3.47
265.08	4.43
265.549	1.93
266.018	6.43
266.487	6.63
266.955	1.33
267.424	1.63
267.893	11.73
268.362	1.93
268.83	5.83
269.299	15.33
269.768	1.73
270.236	8.63
270.705	5.13
271.174	6.93
271.642	6.73
272.111	13.63
272.579	24.23
273.048	22.23
273.516	33.73
273.985	28.63
274.453	22.33
274.922	20.23
275.39	18.63
275.858	10.83
276.327	13.53
276.795	22.83
277.263	15.13
277.731	29.33
278.2	55.13
278.668	62.13
279.136	52.03
279.604	20.53
280.072	18.43
280.54	9.43
281.008	18.03
281.477	19.23
281.945	12.13
282.413	18.23
282.881	19.23
283.348	16.23
283.816	22.03
284.284	15.43
284.752	21.03
285.22	15.43
285.688	17.53
286.156	26.93
286.623	43.63
287.091	54.13
287.559	28.23
288.026	24.83
288.494	20.33
288.962	9.73
289.429	7.63
289.897	21.53
290.364	16.53
290.832	18.03
291.3	22.33
291.767	18.13
292.234	15.53
292.702	13.03
293.169	13.73
293.637	20.83
294.104	22.13
294.571	11.33
295.039	13.23
295.506	13.23
295.973	18.53
296.44	19.43
296.908	23.13
297.375	20.43
297.842	22.23
298.309	14.03
298.776	14.93
299.243	22.73
299.71	16.13
300.177	24.83
300.644	22.73
301.111	26.63
301.578	28.73
302.045	19.13
302.512	22.03
302.979	26.53
303.446	23.33
303.913	19.23
304.379	28.73
304.846	28.33
305.313	26.03
305.78	26.23
306.246	23.63
306.713	31.73
307.18	27.93
307.646	34.33
308.113	33.03
308.579	22.33
309.046	29.43
309.512	32.33
309.979	20.83
310.445	33.83
310.912	37.83
311.378	27.23
311.845	30.13
312.311	29.63
312.777	35.23
313.244	30.03
313.71	35.13
314.176	36.73
314.642	27.13
315.109	27.83
315.575	42.83
316.041	41.33
316.507	32.03
316.973	41.33
317.439	34.13
317.905	37.73
318.371	35.13
318.837	39.03
319.303	30.93
319.769	36.83
320.235	41.83
320.701	37.23
321.167	38.83
321.633	40.63
322.099	41.43
322.564	52.53
323.03	35.83
323.496	34.93
323.962	46.53
324.427	37.83
324.893	43.33
325.359	34.63
325.824	45.53
326.29	42.03
326.755	44.63
327.221	45.83
327.686	40.43
328.152	48.33
328.617	47.03
329.083	54.63
329.548	56.23
330.014	45.03
330.479	41.73
330.944	41.83
331.41	41.23
331.875	54.43
332.34	46.53
332.805	45.63
333.271	51.83
333.736	44.53
334.201	55.63
334.666	58.03
335.131	56.03
335.596	53.43
336.061	45.03
336.526	40.33
336.991	50.93
337.456	59.73
337.921	47.13
338.386	44.33
338.851	47.03
339.316	49.53
339.781	51.43
340.246	55.93
340.711	46.13
341.175	46.63
341.64	46.13
342.105	52.03
342.569	57.83
343.034	57.83
343.499	56.13
343.963	53.73
344.428	65.43
344.893	62.43
345.357	63.63
345.822	59.23
346.286	70.03
346.751	75.53
347.215	63.63
347.679	71.13
348.144	101.33
348.608	87.43
349.073	68.13
349.537	79.03
350.001	83.13
350.465	88.33
350.93	83.33
351.394	82.53
351.858	74.33
352.322	83.63
352.786	82.03
353.25	103.13
353.715	111.13
354.179	98.13
354.643	111.53
355.107	123.23
355.571	105.83
356.035	95.83
356.498	109.43
356.962	118.03
357.426	126.53
357.89	117.73
358.354	92.63
358.818	76.83
359.281	72.43
359.745	75.93
360.209	77.83
360.673	73.33
361.136	76.13
361.6	83.23
362.064	87.33
362.527	82.43
362.991	89.53
363.454	87.03
363.918	75.63
364.381	74.23
364.845	79.93
365.308	88.93
365.772	84.73
366.235	81.23
366.698	82.83
367.162	83.43
367.625	82.83
368.088	87.53
368.552	89.93
369.015	83.53
369.478	100.03
369.941	96.23
370.404	93.53
370.867	103.03
371.331	99.43
371.794	105.93
372.257	110.13
372.72	110.63
373.183	104.13
373.646	99.33
374.109	98.03
374.572	105.53
375.035	103.23
375.497	104.63
375.96	100.13
376.423	102.03
376.886	110.23
377.349	103.63
377.811	97.53
378.274	103.13
378.737	102.13
379.199	112.03
379.662	112.43
380.125	111.53
380.587	114.23
381.05	111.83
381.512	120.93
381.975	131.13
382.437	124.13
382.9	120.43
383.362	125.83
383.825	139.33
384.287	140.93
384.75	129.03
385.212	126.93
385.674	134.53
386.136	131.73
386.599	122.23
387.061	119.53
387.523	122.73
387.985	126.73
388.447	137.03
388.91	138.33
389.372	150.93
389.834	151.33
390.296	143.93
390.758	152.23
391.22	160.53
391.682	200.03
392.144	279.83
392.606	219.23
393.068	158.73
393.529	157.93
393.991	143.63
394.453	141.93
394.915	147.63
395.377	179.93
395.838	195.43
396.3	150.93
396.762	137.63
397.224	127.43
397.685	126.43
398.147	128.93
398.608	127.43
399.07	119.73
399.531	133.83
399.993	129.83
400.454	146.33
400.916	142.23
401.377	135.83
401.839	143.33
402.3	146.33
402.762	157.63
403.223	173.83
403.684	163.73
404.145	162.33
404.607	150.33
405.068	158.83
405.529	161.03
405.99	178.63
406.451	165.63
406.913	165.03
407.374	159.93
407.835	148.83
408.296	153.13
408.757	163.73
409.218	179.53
409.679	167.63
410.14	167.23
410.601	163.43
411.062	179.13
411.522	187.43
411.983	174.33
412.444	161.83
412.905	168.93
413.366	172.03
413.826	185.53
414.287	205.23
414.748	253.13
415.208	240.23
415.669	206.73
416.13	191.33
416.59	191.83
417.051	202.73
417.511	209.93
417.972	228.03
418.432	240.83
418.893	276.83
419.353	242.13
419.814	189.33
420.274	170.43
420.734	166.63
421.195	188.73
421.655	186.83
422.115	182.13
422.576	185.73
423.036	181.93
423.496	196.43
423.956	199.33
424.416	217.23
424.876	253.33
425.336	242.83
425.797	248.93
426.257	236.73
426.717	223.93
427.177	222.93
427.637	209.23
428.097	225.33
428.556	230.13
429.016	258.73
429.476	246.83
429.936	256.13
430.396	260.33
430.856	274.93
431.315	296.03
431.775	327.73
432.235	350.73
432.694	331.13
433.154	341.83
433.614	366.23
434.073	305.03
434.533	271.73
434.993	256.53
435.452	269.93
435.912	281.23
436.371	268.03
436.83	264.03
437.29	251.33
437.749	227.23
438.209	228.13
438.668	252.13
439.127	263.33
439.587	253.23
440.046	221.03
440.505	236.03
440.964	261.43
441.424	301.43
441.883	291.63
442.342	241.23
442.801	210.73
443.26	203.13
443.719	208.93
444.178	205.43
444.637	202.63
445.096	213.93
445.555	207.53
446.014	208.73
446.473	206.73
446.932	214.93
447.391	213.63
447.849	217.83
448.308	201.33
448.767	202.13
449.226	217.13
449.685	213.73
450.143	230.43
450.602	221.43
451.061	216.43
451.519	218.93
451.978	220.83
452.436	218.43
452.895	225.63
453.353	236.83
453.812	230.03
454.27	221.73
454.729	226.73
455.187	222.73
455.646	229.63
456.104	232.53
456.562	243.23
457.021	248.03
457.479	244.03
457.937	253.43
458.395	243.23
458.854	238.93
459.312	238.63
459.77	255.93
460.228	244.73
460.686	220.63
461.144	229.83
461.602	231.53
462.06	222.23
462.518	234.83
462.976	237.13
463.434	245.23
463.892	247.33
464.35	251.73
464.808	261.63
465.266	245.73
465.724	258.63
466.181	256.23
466.639	252.13
467.097	274.53
467.555	279.73
468.012	278.43
468.47	288.63
468.928	309.63
469.385	322.03
469.843	320.73
470.3	315.83
470.758	342.43
471.215	358.73
471.673	374.53
472.13	380.63
472.588	391.53
473.045	347.33
473.503	354.83
473.96	370.83
474.417	373.43
474.875	403.13
475.332	443.13
475.789	432.03
476.246	437.53
476.704	455.53
477.161	472.33
477.618	488.23
478.075	523.13
478.532	568.93
478.989	640.03
479.446	743.63
479.903	720.93
480.36	752.73
480.817	807.33
481.274	903.63
481.731	1010.63
482.188	1092.63
482.645	1212.73
483.102	1312.43
483.558	1448.63
484.015	1506.83
484.472	1465.73
484.929	1433.83
485.385	1371.43
485.842	1349.23
486.299	1285.03
486.755	1213.03
487.212	1017.23
487.668	862.33
488.125	794.23
488.582	731.13
489.038	703.63
489.494	668.23
489.951	643.33
490.407	637.83
490.864	604.93
491.32	603.43
491.776	593.33
492.233	602.23
492.689	574.83
493.145	560.83
493.602	554.73
494.058	568.93
494.514	581.63
494.97	594.13
495.426	595.63
495.882	574.33
496.338	564.63
496.794	585.43
497.251	580.23
497.707	592.73
498.163	608.03
498.618	605.53
499.074	604.83
499.53	629.33
499.986	627.83
500.442	612.43
500.898	583.53
501.354	580.43
501.809	592.13
502.265	597.43
502.721	616.93
503.177	625.13
503.632	614.53
504.088	623.93
504.543	658.93
504.999	661.43
505.455	615.33
505.91	584.73
506.366	594.83
506.821	585.33
507.277	585.23
507.732	592.03
508.187	577.53
508.643	594.53
509.098	600.53
509.553	606.53
510.009	621.13
510.464	621.23
510.919	640.13
511.375	645.23
511.83	655.73
512.285	674.93
512.74	707.73
513.195	721.13
513.65	712.73
514.105	726.63
514.56	714.13
515.015	737.43
515.47	755.13
515.925	740.73
516.38	741.93
516.835	747.23
517.29	727.93
517.745	722.73
518.2	717.33
518.655	701.83
519.109	696.43
519.564	690.33
520.019	687.33
520.474	676.33
520.928	671.03
521.383	672.03
521.838	657.73
522.292	671.73
522.747	661.53
523.201	662.83
523.656	644.83
524.11	640.63
524.565	638.43
525.019	649.03
525.474	647.83
525.928	649.23
526.382	653.23
526.837	653.43
527.291	655.73
527.745	653.93
528.2	640.83
528.654	640.43
529.108	639.43
529.562	636.93
530.016	648.23
530.47	644.63
530.925	633.53
531.379	644.73
531.833	648.03
532.287	645.83
532.741	657.23
533.195	664.93
533.649	655.23
534.103	675.23
534.556	650.73
535.01	663.23
535.464	659.23
535.918	666.93
536.372	667.53
536.826	656.73
537.279	658.63
537.733	658.93
538.187	658.13
538.64	664.03
539.094	664.33
539.548	673.13
540.001	656.23
540.455	661.03
540.908	671.93
541.362	690.93
541.815	693.03
542.269	703.63
542.722	710.23
543.175	712.83
543.629	701.23
544.082	718.93
544.536	721.23
544.989	717.53
545.442	721.13
545.895	725.63
546.349	726.03
546.802	733.63
547.255	728.93
547.708	729.13
548.161	751.53
548.614	745.93
549.067	761.53
549.52	755.33
549.973	744.13
550.426	740.93
550.879	727.53
551.332	725.43
551.785	734.93
552.238	741.23
552.691	745.93
553.144	761.33
553.596	776.03
554.049	792.13
554.502	823.93
554.955	840.03
555.407	833.13
555.86	818.03
556.313	808.93
556.765	807.33
557.218	805.53
557.67	804.03
558.123	796.03
558.576	796.73
559.028	798.53
559.48	805.43
559.933	792.43
560.385	768.63
560.838	736.83
561.29	711.03
561.742	711.33
562.195	703.13
562.647	703.43
563.099	699.73
563.551	701.93
564.004	716.53
564.456	700.93
564.908	696.53
565.36	673.03
565.812	661.03
566.264	655.03
566.716	654.73
567.168	645.33
567.62	652.93
568.072	643.93
568.524	624.83
568.976	619.93
569.428	602.93
569.88	609.13
570.332	613.53
570.784	625.53
571.235	618.23
571.687	625.23
572.139	639.53
572.59	647.73
573.042	646.23
573.494	641.53
573.945	631.23
574.397	617.33
574.849	629.03
575.3	618.73
575.752	614.13
576.203	607.13
576.655	619.23
577.106	605.53
577.557	586.63
578.009	603.13
578.46	605.23
578.912	601.53
579.363	603.93
579.814	596.33
580.265	605.33
580.717	594.03
581.168	598.83
581.619	613.33
582.07	614.63
582.521	604.03
582.972	603.03
583.423	613.53
583.875	614.83
584.326	629.33
584.777	660.53
585.227	733.63
585.678	804.83
586.129	896.43
586.58	950.13
587.031	1029.83
587.482	1171.73
587.933	1346.43
588.384	1161.63
588.834	866.63
589.285	724.63
589.736	704.53
590.186	696.13
590.637	686.33
591.088	658.83
591.538	659.43
591.989	647.83
592.439	642.23
592.89	643.13
593.34	632.83
593.791	634.33
594.241	622.43
594.692	629.63
595.142	627.73
595.593	620.83
596.043	625.93
596.493	632.83
596.943	633.23
597.394	632.23
597.844	629.83
598.294	643.73
598.744	669.13
599.195	695.93
599.645	719.13
600.095	746.13
600.545	802.53
600.995	850.93
601.445	907.43
601.895	953.13
602.345	1004.43
602.795	985.83
603.245	946.43
603.695	901.13
604.145	848.13
604.594	804.23
605.044	753.73
605.494	702.43
605.944	652.73
606.393	650.93
606.843	640.03
607.293	643.73
607.743	642.43
608.192	642.93
608.642	667.03
609.091	670.83
609.541	675.03
609.99	680.33
610.44	679.53
610.889	639.23
611.339	610.63
611.788	608.13
612.238	611.43
612.687	626.63
613.136	634.33
613.586	635.93
614.035	643.33
614.484	656.83
614.933	649.23
615.383	657.93
615.832	648.93
616.281	636.23
616.73	609.33
617.179	580.53
617.628	566.43
618.077	554.13
618.526	543.93
618.975	540.63
619.424	539.73
619.873	539.03
620.322	538.13
620.771	538.03
621.22	529.73
621.669	520.83
622.118	510.83
622.567	501.13
623.015	487.33
623.464	497.03
623.913	489.43
624.361	485.23
624.81	476.23
625.259	482.83
625.707	485.43
626.156	474.63
626.604	492.23
627.053	486.53
627.501	488.43
627.95	489.53
628.398	503.73
628.847	493.73
629.295	496.63
629.744	499.03
630.192	489.73
630.64	494.73
631.089	486.13
631.537	495.33
631.985	504.63
632.433	515.03
632.881	516.83
633.33	570.13
633.778	544.33
634.226	482.53
634.674	500.73
635.122	490.23
635.57	512.63
636.018	539.43
636.466	498.53
636.914	478.93
637.362	489.13
637.81	496.13
638.258	501.83
638.705	492.83
639.153	509.83
639.601	528.13
640.049	545.73
640.497	575.83
640.944	603.93
641.392	562.63
641.84	518.43
642.287	498.73
642.735	495.83
643.182	496.63
643.63	490.03
644.078	493.03
644.525	500.73
644.973	515.53
645.42	512.33
645.867	533.93
646.315	544.93
646.762	567.03
647.21	592.33
647.657	618.03
648.104	645.83
648.551	663.23
648.999	717.33
649.446	774.53
649.893	857.13
650.34	975.43
650.787	1175.33
651.234	1446.33
651.682	1875.43
652.129	2572.73
652.576	3666.83
653.023	5474.83
653.47	7527.93
653.917	9534.23
654.363	11161.13
654.81	12574.63
655.257	11912.63
655.704	7711.33
656.151	4545.13
656.598	2953.43
657.044	2081.33
657.491	1597.73
657.938	1282.93
658.385	1073.03
658.831	920.93
659.278	823.13
659.724	732.43
660.171	659.73
660.618	613.83
661.064	578.73
661.511	558.13
661.957	549.03
662.404	537.63
662.85	545.23
663.296	524.83
663.743	478.13
664.189	459.63
664.635	458.33
665.082	447.33
665.528	448.13
665.974	441.03
666.42	441.13
666.867	425.63
667.313	412.03
667.759	392.33
668.205	397.93
668.651	410.43
669.097	417.03
669.543	426.33
669.989	401.03
670.435	384.83
670.881	383.03
671.327	383.63
671.773	405.63
672.219	421.03
672.665	464.63
673.11	491.23
673.556	525.53
674.002	569.63
674.448	560.73
674.893	464.33
675.339	405.63
675.785	372.33
676.23	361.93
676.676	340.53
677.122	324.53
677.567	318.63
678.013	312.93
678.458	299.83
678.904	305.83
679.349	286.63
679.794	298.13
680.24	294.33
680.685	294.73
681.131	290.43
681.576	292.63
682.021	296.43
682.466	284.03
682.912	298.73
683.357	296.13
683.802	323.73
684.247	343.43
684.692	384.53
685.137	413.93
685.583	452.73
686.028	473.93
686.473	431.93
686.918	374.43
687.363	354.63
687.807	328.23
688.252	311.33
688.697	297.53
689.142	280.53
689.587	273.43
690.032	268.03
690.477	280.53
690.921	294.53
691.366	315.03
691.811	333.93
692.255	369.03
692.7	396.33
693.145	412.13
693.589	564.63
694.034	920.83
694.478	1274.73
694.923	1478.03
695.367	1953.23
695.812	1017.53
696.256	417.43
696.701	312.63
697.145	286.03
697.59	279.43
698.034	273.33
698.478	275.33
698.922	274.53
699.367	270.43
699.811	283.13
700.255	297.53
700.699	320.53
701.143	357.53
701.588	398.13
702.032	437.23
702.476	432.43
702.92	403.73
703.364	400.53
703.808	521.33
704.252	837.73
704.696	1203.63
705.14	1435.03
705.584	1846.53
706.027	905.13
706.471	440.53
706.915	329.73
707.359	291.53
707.803	272.93
708.246	257.13
708.69	259.23
709.134	267.53
709.577	258.53
710.021	262.93
710.465	255.63
710.908	239.93
711.352	253.73
711.795	265.63
712.239	287.83
712.682	315.23
713.126	348.03
713.569	400.53
714.012	314.63
714.456	269.23
714.899	250.43
715.342	227.83
715.786	227.93
716.229	212.03
716.672	208.63
717.115	210.73
717.558	206.23
718.002	214.33
718.445	218.53
718.888	238.53
719.331	237.93
719.774	261.53
720.217	248.03
720.66	231.63
721.103	222.63
721.546	213.53
721.989	213.73
722.432	190.63
722.874	205.23
723.317	195.33
723.76	188.13
724.203	214.93
724.645	264.13
725.088	367.73
725.531	465.63
725.974	542.43
726.416	458.23
726.859	250.73
727.301	203.93
727.744	201.93
728.187	201.13
728.629	207.83
729.071	198.93
729.514	208.83
729.956	222.33
730.399	233.93
730.841	244.13
731.283	226.43
731.726	217.03
732.168	216.03
732.61	221.73
733.053	241.13
733.495	264.33
733.937	295.73
734.379	325.43
734.821	353.73
735.263	443.13
735.705	676.33
736.148	1281.33
736.59	2132.33
737.032	2620.53
737.474	2141.33
737.916	671.53
738.357	355.73
738.799	273.43
739.241	250.63
739.683	237.93
740.125	238.13
740.567	239.53
741.008	265.43
741.45	257.93
741.892	262.13
742.334	288.73
742.775	303.93
743.217	291.03
743.658	235.13
744.1	212.43
744.542	220.13
744.983	264.23
745.425	293.43
745.866	289.33
746.307	236.43
746.749	236.73
747.19	258.33
747.632	370.53
748.073	700.13
748.514	1507.73
748.956	2395.63
749.397	2979.73
749.838	2475.73
750.279	2558.83
750.72	1269.53
751.162	450.63
751.603	269.43
752.044	207.53
752.485	178.63
752.926	174.53
753.367	170.93
753.808	163.83
754.249	158.13
754.69	155.13
755.131	151.13
755.572	144.73
756.013	144.83
756.453	153.23
756.894	158.23
757.335	157.53
757.776	159.93
758.216	160.03
758.657	162.23
759.098	162.73
759.538	192.53
759.979	215.03
760.42	296.13
760.86	565.83
761.301	1458.83
761.741	3636.93
762.182	5598.83
762.622	3952.73
763.063	1106.83
763.503	453.33
763.943	287.73
764.384	280.23
764.824	335.13
765.264	377.73
765.705	261.23
766.145	171.23
766.585	156.73
767.025	152.53
767.465	159.23
767.906	197.63
768.346	275.23
768.786	287.83
769.226	215.23
769.666	253.53
770.106	488.43
770.546	1256.83
770.986	2239.03
771.426	2049.03
771.866	671.23
772.306	269.73
772.745	177.23
773.185	147.53
773.625	144.63
774.065	142.73
774.505	160.43
774.944	246.53
775.384	528.73
775.824	1015.33
776.263	1006.33
776.703	431.23
777.142	184.13
777.582	129.63
778.021	112.33
778.461	115.53
778.9	116.63
779.34	111.23
779.779	98.63
780.219	95.83
780.658	95.03
781.097	93.63
781.537	96.43
781.976	93.53
782.415	88.53
782.855	90.03
783.294	85.43
783.733	85.03
784.172	87.23
784.611	84.63
785.05	94.73
785.489	90.03
785.928	94.63
786.367	104.53
786.806	100.33
787.245	106.23
787.684	119.33
788.123	117.53
788.562	114.53
789.001	106.73
789.44	106.73
789.879	99.13
790.317	102.03
790.756	104.93
791.195	103.43
791.634	118.53
792.072	169.93
792.511	290.13
792.95	809.73
793.388	1812.63
793.827	1696.63
794.265	575.63
794.704	232.53
795.142	158.43
795.581	125.73
796.019	112.33
796.458	108.93
796.896	96.93
797.334	108.43
797.773	130.53
798.211	177.73
798.649	346.73
799.087	825.63
799.526	1328.93
799.964	1685.63
800.402	1744.83
800.84	649.33
801.278	249.13
801.716	155.83
802.154	125.63
802.592	118.93
803.03	115.03
803.468	110.53
803.906	122.33
804.344	120.93
804.782	122.13
805.22	113.93
805.658	109.13
806.096	122.93
806.533	132.53
806.971	150.83
807.409	170.53
807.847	252.73
808.284	519.03
808.722	1532.83
809.16	2809.73
809.597	2586.23
810.035	4580.43
810.472	5124.43
810.91	1801.53
811.347	677.63
811.785	337.43
812.222	212.03
812.66	163.43
813.097	141.73
813.535	116.83
813.972	106.93
814.409	98.33
814.846	89.53
815.284	93.93
815.721	85.53
816.158	88.43
816.595	87.43
817.032	150.53
817.47	169.53
817.907	144.83
818.344	122.53
818.781	94.93
819.218	78.43
819.655	105.33
820.092	154.93
820.529	188.83
820.966	156.13
821.403	115.23
821.839	90.93
822.276	83.33
822.713	101.63
823.15	118.53
823.587	99.73
824.023	120.73
824.46	242.03
824.897	735.03
825.333	1180.53
825.77	496.43
826.206	187.33
826.643	108.53
827.08	88.13
827.516	71.13
827.953	63.33
828.389	69.83
828.825	61.03
829.262	53.13
829.698	56.83
830.135	49.93
830.571	49.83
831.007	52.53
831.443	56.53
831.88	53.23
832.316	53.63
832.752	54.03
833.188	54.03
833.624	52.53
834.06	57.23
834.497	56.13
834.933	62.63
835.369	59.53
835.805	62.73
836.241	65.33
836.677	71.93
837.112	75.33
837.548	85.23
837.984	114.73
838.42	165.43
838.856	400.53
839.292	1260.83
839.727	2007.53
840.163	914.93
840.599	755.03
841.034	1711.33
841.47	1876.93
841.906	665.43
842.341	285.53
842.777	199.23
843.212	258.23
843.648	269.63
844.083	135.43
844.519	79.63
844.954	56.73
845.39	46.33
845.825	47.73
846.261	48.13
846.696	49.33
847.131	42.53
847.566	49.23
848.002	48.03
848.437	50.53
848.872	57.53
849.307	56.03
849.742	64.43
850.177	136.03
850.613	452.13
851.048	747.43
851.483	319.53
851.918	125.93
852.353	71.93
852.788	49.73
853.223	48.53
853.657	43.63
854.092	37.93
854.527	29.93
854.962	36.33
855.397	36.03
855.832	38.53
856.266	34.13
856.701	32.93
857.136	32.53
857.57	36.23
858.005	42.63
858.44	45.53
858.874	36.83
859.309	49.73
859.743	33.33
860.178	38.43
860.612	36.43
861.047	44.93
861.481	59.33
861.915	63.43
862.35	41.83
862.784	28.73
863.218	35.23
863.653	32.73
864.087	40.03
864.521	43.63
864.955	57.13
865.39	123.83
865.824	148.53
866.258	96.43
866.692	144.33
867.126	161.43
867.56	88.83
867.994	41.13
868.428	31.53
868.862	44.63
869.296	55.43
869.73	48.43
870.164	52.13
870.598	41.63
871.031	33.33
871.465	27.23
871.899	25.63
872.333	21.13
872.766	20.13
873.2	18.73
873.634	23.33
874.067	20.93
874.501	16.93
874.935	32.23
875.368	28.63
875.802	23.53
876.235	20.03
876.669	17.63
877.102	22.93
877.535	22.63
877.969	15.93
878.402	22.13
878.836	20.93
879.269	20.23
879.702	22.03
880.135	17.43
880.569	21.53
881.002	24.53
881.435	15.63
881.868	17.03
882.301	18.83
882.734	12.63
883.167	21.63
883.601	14.43
884.034	15.73
884.467	17.83
884.899	17.93
885.332	18.43
885.765	8.13
886.198	14.93
886.631	12.13
887.064	16.43
887.497	16.33
887.929	18.43
888.362	15.43
888.795	3.13
889.228	9.83
889.66	22.93
890.093	15.23
890.526	14.23
890.958	17.53
891.391	18.23
891.823	26.53
892.256	13.03
892.688	10.13
893.121	14.83
893.553	14.63
893.985	22.33
894.418	18.43
894.85	12.93
895.282	14.83
895.715	13.43
896.147	13.63
896.579	14.63
897.011	9.83
897.444	12.43
897.876	12.13
898.308	10.33
898.74	11.23
899.172	7.83
899.604	17.43
900.036	19.93
900.468	15.43
900.9	13.13
901.332	17.33
901.764	12.13
902.196	19.93
902.628	17.93
903.06	11.73
903.491	25.53
903.923	13.63
904.355	18.83
904.787	21.83
905.218	21.83
905.65	20.53
906.082	5.93
906.513	7.93
906.945	15.93
907.376	9.73
907.808	16.53
908.239	13.83
908.671	17.23
909.102	14.93
909.534	19.03
909.965	38.93
910.397	75.43
910.828	266.63
911.259	411.23
911.691	191.43
912.122	90.03
912.553	46.13
912.984	35.73
913.415	27.03
913.847	25.53
914.278	16.13
914.709	11.73
915.14	17.03
915.571	16.43
916.002	11.43
916.433	20.23
916.864	21.73
917.295	10.73
917.726	22.63
918.157	15.53
918.587	26.83
919.018	13.63
919.449	23.03
919.88	20.93
920.311	27.93
920.741	35.63
921.172	141.53
921.603	131.03
922.033	59.23
922.464	37.83
922.895	18.23
923.325	22.43
923.756	14.33
924.186	16.13
924.617	18.13
925.047	36.63
925.478	43.23
925.908	41.13
926.338	17.33
926.769	12.43
927.199	15.83
927.629	9.23
928.06	13.23
928.49	9.03
928.92	7.93
929.35	13.93
929.78	6.73
930.21	8.63
930.641	7.83
931.071	6.03
931.501	7.53
931.931	6.03
932.361	9.83
932.791	3.33
933.221	9.53
933.651	2.53
934.08	14.53
934.51	27.13
934.94	8.03
935.37	9.93
935.8	15.33
936.229	10.63
936.659	14.03
937.089	0.43
937.519	13.63
937.948	23.33
938.378	17.13
938.807	1.53
939.237	7.03
939.666	7.33
940.096	-1.47
940.525	6.53
940.955	-1.27
941.384	2.73
941.814	-0.27
942.243	-0.77
942.672	2.23
943.102	-3.67
943.531	5.63
943.96	6.53
944.39	6.53
944.819	-3.57
945.248	1.13
945.677	3.73
946.106	9.03
946.535	5.53
946.964	5.53
947.393	5.23
947.822	-1.07
948.251	-5.57
948.68	3.53
949.109	4.13
949.538	1.13
949.967	1.23
950.396	4.53
950.825	-1.17
951.254	4.93
951.682	-2.07
952.111	3.53
952.54	5.63
952.969	-2.07
953.397	-10.27
953.826	1.53
954.254	-3.27
954.683	-1.27
955.112	-3.67
955.54	2.93
955.969	3.13
956.397	2.03
956.826	-4.37
957.254	7.53
957.682	2.03
958.111	-2.07
958.539	-2.67
958.967	6.93
959.396	1.13
959.824	-1.77
960.252	-0.17
960.68	-2.77
961.109	-4.77
961.537	-7.87
961.965	-0.87
962.393	2.43
962.821	-5.17
963.249	0.63
963.677	3.33
964.105	3.23
964.533	42.23
964.961	35.13
965.389	21.63
965.817	6.13
966.245	-1.97
966.672	-1.27
967.1	-11.37
967.528	1.43
967.956	-3.87
968.383	0.93
968.811	-5.67
969.239	-3.47
969.666	-3.47
970.094	-0.77
970.522	0.23
970.949	-1.17
971.377	-1.97
971.804	-0.87
972.232	-1.57
972.659	-6.87
973.087	-3.37
973.514	2.33
973.941	-6.47
974.369	6.23
974.796	1.13
975.223	-0.57
975.651	-1.57
976.078	2.73
976.505	-4.17
976.932	4.73
977.359	15.33
977.786	9.73
978.214	6.03
978.641	-5.77
979.068	-1.07
979.495	-9.17
979.922	-2.37
980.349	1.13
980.776	1.13
981.202	-2.17
981.629	6.93
982.056	3.83
982.483	-4.97
982.91	-2.47
983.337	-4.77
983.763	3.83
984.19	-0.57
984.617	1.43
985.043	-1.57
985.47	1.53
985.897	3.83
986.323	-1.27
986.75	1.03
987.176	2.63
987.603	-2.77
988.029	3.43
988.456	-0.17
988.882	3.93
989.308	-3.67
989.735	0.93
990.161	2.43
990.587	-5.77
991.014	4.43
991.44	10.83
991.866	-0.67
992.292	-9.67
992.719	-2.97
993.145	11.73
993.571	-5.47
993.997	-5.37
994.423	0.03
994.849	0.93
995.275	-2.87
995.701	6.83
996.127	-0.27
996.553	-3.07
996.979	-5.87
997.405	2.93
997.83	-4.67
998.256	-6.07
998.682	-7.57
999.108	-0.57
999.534	-5.07
999.959	0.93
1000.385	1.73
1000.811	0.43
1001.236	-2.07
1001.662	-5.07
1002.087	-7.67
1002.513	1.13
1002.938	4.63
1003.364	-0.77
1003.789	1.53
1004.215	6.13
1004.64	1.73
1005.066	8.03
1005.491	2.13
1005.916	0.63
1006.342	0.53
1006.767	-9.17
1007.192	4.63
1007.617	-0.97
1008.042	0.53
1008.468	-2.77
1008.893	-4.97
1009.318	-1.67
1009.743	-3.87
1010.168	4.23
1010.593	3.23
1011.018	-4.97
1011.443	-2.17
1011.868	2.93
1012.293	-2.07
1012.718	-4.27
1013.143	1.13
1013.567	1.73
1013.992	-0.37
1014.417	-6.87
1014.842	-0.47
1015.267	0.23
1015.691	0.83
1016.116	6.53
1016.541	-1.27
1016.965	-0.27
1017.39	-4.37
1017.814	-5.97
1018.239	4.53
1018.663	-0.57
1019.088	-10.27
1019.512	-2.27
1019.937	-3.57
1020.361	-4.27
1020.785	-9.27
1021.21	-2.67
1021.634	-2.47
1022.058	-2.27
1022.483	4.33
1022.907	-3.77
1023.331	-3.87
1023.755	0.23
1024.179	-4.87
1024.604	-8.27
1025.028	-8.97
1025.452	-5.07
1025.876	-1.67
1026.3	2.73
1026.724	-8.17
1027.148	-5.07
1027.572	-9.87
1027.996	-1.47
1028.42	-4.57
1028.843	-9.57
1029.267	-9.57
1029.691	-5.67
1030.115	-4.67
1030.539	-4.57
1030.962	-4.67
1031.386	-5.47
1031.81	2.13
1032.233	4.13
1032.657	-6.27
1033.08	-1.27
1033.504	-4.77
1033.927	-6.67
1034.351	-3.07
1034.774	-5.57
1035.198	4.93
1035.621	-3.87
1036.045	-7.57
1036.468	-1.07
1036.891	-11.87
1037.315	-9.77
1037.738	-7.77
1038.161	6.83
1038.584	-6.07
1039.008	-1.57
1039.431	1.13
1039.854	-3.07
1040.277	-3.37
1040.7	-8.47
1041.123	-0.17
1041.546	-5.87
1041.969	-5.27
1042.392	-6.87
1042.815	-3.97
1043.238	9.23
1043.661	3.83
1044.084	-3.27
1044.507	-3.67
1044.93	-2.67
1045.352	-0.27
1045.775	4.53
1046.198	-2.17
1046.621	5.83
1047.043	1.33
1047.466	8.13
1047.889	-0.07
1048.311	-3.57
1048.734	-5.27
1049.156	-4.67
1049.579	-3.07
1050.001	-9.37
1050.424	-1.57
1050.846	0.23
1051.269	-8.17
1051.691	-1.77
1052.113	-5.27
1052.536	-7.77
1052.958	-1.47
1053.38	-5.17
1053.802	-9.47
1054.225	3.93
1054.647	-13.77
1055.069	-3.07
1055.491	2.93
1055.913	-7.77
1056.335	-2.47
1056.757	-6.27
1057.179	1.73
1057.601	-5.67
1058.023	-5.77
1058.445	-5.57
1058.867	-2.27
1059.289	-3.07
1059.711	-0.37
1060.133	-7.57
1060.555	-4.77
1060.976	-3.17
1061.398	-8.37
1061.82	-3.57
1062.241	-4.17
1062.663	-6.57
1063.085	4.73
1063.506	5.33
1063.928	-7.87
1064.35	-3.27
1064.771	-11.37
1065.193	2.63
1065.614	-10.37
1066.035	1.43
1066.457	-3.37
1066.878	4.43
1067.3	-8.47
1067.721	0.33
1068.142	-1.87
1068.564	0.83
1068.985	-4.07
1069.406	-6.97
1069.827	-6.57
1070.248	0.03
1070.67	-5.97
1071.091	-4.17
1071.512	-0.37
1071.933	-7.97
1072.354	-4.47
1072.775	-5.57
1073.196	-2.17
1073.617	-0.67
1074.038	-2.87
1074.459	-7.77
1074.88	-9.57
1075.3	0.93
1075.721	-3.47
1076.142	2.03
1076.563	0.53
1076.983	-15.37
1077.404	-6.57
1077.825	-9.37
1078.246	-6.37
1078.666	-10.17
1079.087	-7.77
1079.507	-7.67
1079.928	-2.97
1080.348	4.13
1080.769	-6.07
1081.189	1.93
1081.61	0.03
1082.03	-7.67
1082.451	-0.97
1082.871	-5.77
1083.291	-7.77
1083.711	-8.17
1084.132	-9.47
1084.552	-2.67
1084.972	-2.27
1085.392	-7.27
1085.813	-10.07
1086.233	-3.57
1086.653	-10.17
1087.073	-2.07
1087.493	-3.07
1087.913	-8.67
1088.333	-5.87
1088.753	-5.67
1089.173	2.23
1089.593	-7.07
1090.013	2.73
1090.433	2.23
1090.852	0.43
1091.272	3.73
1091.692	-1.07
1092.112	-1.27
1092.531	-6.87
1092.951	-7.97
1093.371	-4.37
1093.79	3.03
1094.21	-3.97
1094.63	-0.37
1095.049	-4.77
1095.469	-3.67
1095.888	-3.87
1096.308	2.93
1096.727	2.23
1097.146	-9.67
1097.566	-4.77
1097.985	-4.57
1098.405	-5.47
1098.824	-6.37
1099.243	-6.67
1099.662	-9.07
1100.082	-4.27
1100.501	1.43
1100.92	-2.87
1101.339	-5.57
1101.758	-6.27
