Data from 20171114-ORNL-Ar_H_NY_Subt18_08-09-01-849.txt Node
Date: Tue Nov 14 08:09:01 EST 2017
User: Ender
Spectrometer: HR+D1039
Trigger mode: 0
Integration Time (sec): 2.730000E-2
Scans to average: 10
Electric dark correction enabled: true
Nonlinearity correction enabled: false
Boxcar width: 0
XAxis mode: Wavelengths
Number of Pixels in Spectrum: 2048
>>>>>Begin Spectral Data<<<<<
187.836	-3.51
188.309	-3.51
188.782	-3.51
189.255	-2.61
189.728	-4.91
190.201	4.79
190.674	-1.91
191.147	3.29
191.619	-11.31
192.092	4.79
192.565	6.69
193.038	1.39
193.511	0.39
193.984	1.59
194.456	-0.91
194.929	-0.51
195.402	-0.51
195.874	3.19
196.347	0.89
196.82	-9.71
197.292	5.79
197.765	-4.11
198.237	-5.81
198.71	3.39
199.182	0.19
199.655	1.29
200.127	-4.71
200.6	-2.51
201.072	-1.91
201.544	-0.01
202.017	-6.71
202.489	0.69
202.961	-2.01
203.433	-5.01
203.906	-9.01
204.378	-7.51
204.85	-8.41
205.322	-10.01
205.794	-3.21
206.266	-8.61
206.739	-11.71
207.211	1.69
207.683	-10.41
208.155	-6.61
208.627	-7.31
209.099	-6.21
209.57	-11.01
210.042	-7.71
210.514	-5.01
210.986	-4.81
211.458	-11.01
211.93	2.69
212.402	2.89
212.873	-9.61
213.345	-9.41
213.817	-11.41
214.288	-7.71
214.76	-7.31
215.232	-6.11
215.703	2.19
216.175	-4.41
216.646	-6.11
217.118	-10.41
217.589	-6.61
218.061	-7.71
218.532	-5.51
219.004	-4.11
219.475	-3.71
219.946	-3.31
220.418	-6.41
220.889	3.79
221.36	-2.31
221.832	-4.01
222.303	-5.61
222.774	-2.01
223.245	-13.61
223.717	-8.41
224.188	-4.71
224.659	-2.61
225.13	-6.81
225.601	-5.31
226.072	1.09
226.543	-6.31
227.014	-6.61
227.485	0.69
227.956	-5.51
228.427	-5.71
228.898	0.69
229.369	1.99
229.839	-7.21
230.31	-8.41
230.781	-2.61
231.252	-2.61
231.722	-0.91
232.193	-10.21
232.664	-3.31
233.135	-7.21
233.605	-4.71
234.076	-8.91
234.546	1.99
235.017	3.69
235.487	-2.81
235.958	-10.61
236.428	-11.41
236.899	-3.21
237.369	-3.81
237.84	-8.21
238.31	-1.81
238.78	-3.51
239.251	-8.11
239.721	-2.31
240.191	-1.71
240.662	-7.41
241.132	-7.41
241.602	-6.21
242.072	-4.61
242.542	-0.91
243.013	-8.11
243.483	-2.41
243.953	-0.41
244.423	-5.31
244.893	-10.11
245.363	2.39
245.833	-8.11
246.303	-7.51
246.773	-5.21
247.243	-0.61
247.712	-0.61
248.182	1.69
248.652	-0.11
249.122	-10.71
249.592	-2.81
250.061	-0.51
250.531	3.09
251.001	-5.31
251.471	5.09
251.94	1.79
252.41	-1.61
252.879	-8.11
253.349	8.59
253.818	4.39
254.288	-3.51
254.757	-0.01
255.227	-2.41
255.696	-0.81
256.166	0.49
256.635	0.69
257.105	0.29
257.574	0.79
258.043	-1.51
258.513	-4.41
258.982	1.89
259.451	-6.01
259.92	-0.41
260.389	-1.51
260.859	-0.51
261.328	-1.41
261.797	0.49
262.266	-4.61
262.735	1.79
263.204	5.89
263.673	-0.41
264.142	1.39
264.611	-5.51
265.08	-1.51
265.549	-2.91
266.018	1.09
266.487	-3.21
266.955	-3.91
267.424	-5.41
267.893	0.59
268.362	-2.91
268.83	-5.11
269.299	6.49
269.768	2.29
270.236	-0.81
270.705	-5.51
271.174	0.69
271.642	1.89
272.111	-0.71
272.579	-3.51
273.048	-0.41
273.516	-2.31
273.985	5.49
274.453	2.19
274.922	8.79
275.39	3.39
275.858	-5.71
276.327	9.19
276.795	12.39
277.263	0.39
277.731	6.99
278.2	6.19
278.668	7.29
279.136	3.49
279.604	0.09
280.072	3.59
280.54	6.59
281.008	5.29
281.477	8.09
281.945	7.49
282.413	3.99
282.881	10.69
283.348	-1.21
283.816	5.19
284.284	5.19
284.752	9.49
285.22	4.29
285.688	3.79
286.156	4.39
286.623	13.39
287.091	1.39
287.559	8.89
288.026	4.09
288.494	11.39
288.962	-1.31
289.429	4.59
289.897	10.89
290.364	15.19
290.832	15.49
291.3	7.59
291.767	9.99
292.234	9.29
292.702	7.19
293.169	8.39
293.637	8.09
294.104	3.89
294.571	0.99
295.039	4.09
295.506	7.49
295.973	13.39
296.44	11.79
296.908	14.49
297.375	10.99
297.842	13.29
298.309	7.49
298.776	4.79
299.243	4.99
299.71	3.39
300.177	15.29
300.644	11.79
301.111	6.29
301.578	13.09
302.045	12.49
302.512	15.79
302.979	19.09
303.446	8.59
303.913	14.99
304.379	9.39
304.846	14.19
305.313	14.49
305.78	8.59
306.246	19.69
306.713	13.19
307.18	10.29
307.646	16.89
308.113	20.09
308.579	13.49
309.046	17.29
309.512	17.19
309.979	9.39
310.445	19.99
310.912	20.49
311.378	30.09
311.845	20.39
312.311	24.79
312.777	23.59
313.244	27.29
313.71	25.39
314.176	16.49
314.642	25.39
315.109	18.09
315.575	25.59
316.041	28.29
316.507	25.89
316.973	29.29
317.439	26.29
317.905	29.49
318.371	25.99
318.837	29.99
319.303	20.99
319.769	29.19
320.235	24.29
320.701	29.89
321.167	28.19
321.633	24.49
322.099	24.69
322.564	30.29
323.03	25.19
323.496	27.29
323.962	28.09
324.427	27.59
324.893	31.09
325.359	30.49
325.824	33.89
326.29	28.09
326.755	27.59
327.221	37.49
327.686	32.79
328.152	39.89
328.617	30.59
329.083	39.39
329.548	40.29
330.014	39.29
330.479	30.19
330.944	33.49
331.41	28.99
331.875	27.59
332.34	33.59
332.805	33.19
333.271	31.19
333.736	29.19
334.201	37.19
334.666	38.39
335.131	37.89
335.596	37.19
336.061	34.49
336.526	29.29
336.991	37.69
337.456	40.29
337.921	35.99
338.386	36.49
338.851	32.49
339.316	39.69
339.781	36.79
340.246	43.69
340.711	42.99
341.175	44.99
341.64	35.39
342.105	39.79
342.569	44.69
343.034	49.99
343.499	39.79
343.963	43.79
344.428	50.19
344.893	43.49
345.357	47.99
345.822	52.69
346.286	52.69
346.751	52.79
347.215	52.79
347.679	54.69
348.144	71.69
348.608	64.39
349.073	58.99
349.537	58.89
350.001	60.89
350.465	72.49
350.93	69.09
351.394	68.79
351.858	54.49
352.322	64.19
352.786	67.99
353.25	77.29
353.715	87.19
354.179	75.89
354.643	92.59
355.107	97.19
355.571	85.29
356.035	79.29
356.498	92.19
356.962	90.59
357.426	102.49
357.89	90.09
358.354	69.29
358.818	66.79
359.281	64.19
359.745	58.19
360.209	58.09
360.673	62.99
361.136	62.69
361.6	73.99
362.064	66.39
362.527	68.69
362.991	77.29
363.454	64.09
363.918	66.99
364.381	62.09
364.845	67.99
365.308	74.29
365.772	70.09
366.235	72.99
366.698	74.49
367.162	71.39
367.625	73.29
368.088	80.69
368.552	73.09
369.015	65.59
369.478	78.09
369.941	81.79
370.404	80.79
370.867	84.09
371.331	83.49
371.794	88.69
372.257	79.09
372.72	89.79
373.183	85.49
373.646	80.69
374.109	83.59
374.572	87.49
375.035	87.59
375.497	85.19
375.96	88.29
376.423	90.89
376.886	96.59
377.349	96.39
377.811	86.59
378.274	88.29
378.737	87.69
379.199	97.89
379.662	94.79
380.125	101.69
380.587	87.79
381.05	91.99
381.512	105.49
381.975	109.29
382.437	105.99
382.9	99.79
383.362	107.79
383.825	113.09
384.287	115.29
384.75	105.99
385.212	108.29
385.674	114.39
386.136	119.29
386.599	108.99
387.061	114.79
387.523	108.89
387.985	108.29
388.447	123.89
388.91	118.39
389.372	117.39
389.834	119.39
390.296	108.49
390.758	125.09
391.22	123.29
391.682	141.19
392.144	135.69
392.606	132.69
393.068	126.19
393.529	142.69
393.991	133.39
394.453	121.49
394.915	123.39
395.377	121.59
395.838	126.09
396.3	124.39
396.762	124.59
397.224	122.39
397.685	119.89
398.147	124.19
398.608	128.79
399.07	121.29
399.531	129.19
399.993	140.39
400.454	143.39
400.916	135.39
401.377	141.29
401.839	135.59
402.3	142.49
402.762	153.69
403.223	164.59
403.684	152.79
404.145	151.99
404.607	152.39
405.068	157.49
405.529	155.79
405.99	170.99
406.451	163.29
406.913	167.29
407.374	155.19
407.835	150.39
408.296	159.59
408.757	164.29
409.218	177.89
409.679	169.39
410.14	167.19
410.601	171.19
411.062	173.19
411.522	169.39
411.983	163.29
412.444	160.79
412.905	175.79
413.366	182.29
413.826	187.99
414.287	208.59
414.748	252.99
415.208	239.39
415.669	214.19
416.13	198.19
416.59	200.79
417.051	208.59
417.511	218.29
417.972	231.89
418.432	242.59
418.893	279.49
419.353	254.99
419.814	193.29
420.274	180.29
420.734	178.39
421.195	190.89
421.655	185.79
422.115	184.49
422.576	188.09
423.036	192.79
423.496	197.69
423.956	208.79
424.416	227.89
424.876	259.29
425.336	249.89
425.797	252.39
426.257	247.69
426.717	227.29
427.177	225.99
427.637	214.89
428.097	231.89
428.556	235.19
429.016	261.39
429.476	256.49
429.936	260.59
430.396	261.69
430.856	277.19
431.315	295.29
431.775	333.19
432.235	358.99
432.694	329.69
433.154	345.29
433.614	374.29
434.073	313.19
434.533	260.99
434.993	258.59
435.452	271.79
435.912	276.19
436.371	276.69
436.83	267.59
437.29	255.19
437.749	236.39
438.209	243.29
438.668	264.99
439.127	274.49
439.587	253.89
440.046	246.09
440.505	254.49
440.964	271.99
441.424	309.89
441.883	300.29
442.342	256.59
442.801	220.99
443.26	227.69
443.719	222.09
444.178	223.79
444.637	210.69
445.096	216.09
445.555	222.89
446.014	222.29
446.473	230.19
446.932	232.09
447.391	224.79
447.849	225.09
448.308	219.49
448.767	229.59
449.226	244.49
449.685	241.09
450.143	248.59
450.602	239.19
451.061	231.79
451.519	233.89
451.978	232.99
452.436	236.79
452.895	237.09
453.353	249.59
453.812	235.29
454.27	241.29
454.729	239.99
455.187	241.09
455.646	247.29
456.104	249.29
456.562	258.09
457.021	258.49
457.479	262.29
457.937	281.39
458.395	271.89
458.854	256.89
459.312	248.69
459.77	272.49
460.228	260.69
460.686	254.09
461.144	248.49
461.602	252.29
462.06	250.09
462.518	260.39
462.976	260.59
463.434	260.29
463.892	266.89
464.35	278.69
464.808	280.29
465.266	269.59
465.724	273.89
466.181	277.29
466.639	274.19
467.097	293.59
467.555	297.69
468.012	306.29
468.47	318.19
468.928	330.49
469.385	342.79
469.843	344.89
470.3	352.59
470.758	355.69
471.215	384.99
471.673	399.69
472.13	415.99
472.588	418.89
473.045	380.19
473.503	391.79
473.96	400.49
474.417	406.89
474.875	435.19
475.332	478.39
475.789	464.09
476.246	470.89
476.704	486.19
477.161	504.99
477.618	520.89
478.075	554.89
478.532	606.79
478.989	677.89
479.446	780.39
479.903	750.99
480.36	776.99
480.817	823.29
481.274	917.79
481.731	1000.09
482.188	1077.39
482.645	1194.69
483.102	1267.99
483.558	1374.29
484.015	1436.49
484.472	1413.29
484.929	1378.39
485.385	1324.59
485.842	1299.39
486.299	1254.09
486.755	1225.59
487.212	1037.69
487.668	888.59
488.125	819.69
488.582	757.09
489.038	729.89
489.494	686.69
489.951	666.09
490.407	662.69
490.864	641.39
491.32	643.69
491.776	644.19
492.233	643.39
492.689	610.39
493.145	617.89
493.602	605.79
494.058	618.89
494.514	615.39
494.97	640.89
495.426	646.39
495.882	629.59
496.338	611.19
496.794	622.79
497.251	616.69
497.707	635.09
498.163	636.49
498.618	647.59
499.074	643.19
499.53	672.89
499.986	667.39
500.442	650.39
500.898	618.59
501.354	621.59
501.809	631.99
502.265	629.99
502.721	630.19
503.177	650.59
503.632	648.49
504.088	656.59
504.543	667.69
504.999	695.29
505.455	649.69
505.91	636.29
506.366	645.39
506.821	635.19
507.277	643.49
507.732	640.19
508.187	643.49
508.643	648.49
509.098	654.09
509.553	668.69
510.009	677.19
510.464	684.89
510.919	705.89
511.375	700.59
511.83	716.39
512.285	724.29
512.74	765.19
513.195	792.39
513.65	771.49
514.105	779.19
514.56	771.89
515.015	790.29
515.47	808.69
515.925	791.29
516.38	786.89
516.835	793.39
517.29	783.69
517.745	790.19
518.2	773.49
518.655	759.59
519.109	747.79
519.564	751.89
520.019	737.69
520.474	733.29
520.928	738.09
521.383	735.79
521.838	717.19
522.292	721.09
522.747	732.19
523.201	721.79
523.656	720.39
524.11	703.79
524.565	709.69
525.019	702.89
525.474	718.29
525.928	707.29
526.382	706.29
526.837	706.49
527.291	721.89
527.745	702.99
528.2	709.29
528.654	696.19
529.108	701.19
529.562	708.89
530.016	705.09
530.47	707.29
530.925	695.49
531.379	703.69
531.833	708.99
532.287	719.59
532.741	709.39
533.195	713.09
533.649	714.29
534.103	720.69
534.556	722.29
535.01	713.69
535.464	705.09
535.918	723.09
536.372	735.39
536.826	733.79
537.279	719.79
537.733	716.49
538.187	731.99
538.64	728.39
539.094	735.69
539.548	744.49
540.001	739.89
540.455	737.99
540.908	746.29
541.362	752.59
541.815	756.09
542.269	759.79
542.722	781.89
543.175	793.39
543.629	778.39
544.082	797.09
544.536	801.89
544.989	805.99
545.442	812.89
545.895	812.29
546.349	806.39
546.802	812.69
547.255	815.89
547.708	827.39
548.161	837.79
548.614	843.79
549.067	845.09
549.52	833.59
549.973	837.99
550.426	829.09
550.879	819.49
551.332	826.79
551.785	832.49
552.238	829.29
552.691	839.29
553.144	856.49
553.596	876.19
554.049	889.79
554.502	916.79
554.955	932.89
555.407	932.39
555.86	925.09
556.313	904.49
556.765	902.09
557.218	908.79
557.67	895.69
558.123	888.59
558.576	889.49
559.028	905.99
559.48	913.49
559.933	898.19
560.385	859.19
560.838	839.59
561.29	812.69
561.742	800.89
562.195	791.19
562.647	787.89
563.099	796.09
563.551	790.59
564.004	802.19
564.456	784.19
564.908	774.09
565.36	763.29
565.812	750.69
566.264	740.49
566.716	735.79
567.168	722.79
567.62	730.09
568.072	712.49
568.524	715.89
568.976	709.89
569.428	698.19
569.88	693.19
570.332	692.49
570.784	698.79
571.235	714.59
571.687	727.49
572.139	727.49
572.59	744.69
573.042	731.99
573.494	730.99
573.945	722.59
574.397	708.79
574.849	714.39
575.3	713.89
575.752	700.39
576.203	703.39
576.655	700.59
577.106	693.89
577.557	683.99
578.009	681.39
578.46	680.79
578.912	687.69
579.363	686.99
579.814	689.59
580.265	676.29
580.717	684.59
581.168	686.19
581.619	701.59
582.07	700.49
582.521	694.49
582.972	698.99
583.423	699.09
583.875	688.39
584.326	700.19
584.777	720.39
585.227	743.59
585.678	749.79
586.129	755.79
586.58	786.39
587.031	809.19
587.482	838.49
587.933	863.89
588.384	853.09
588.834	810.29
589.285	797.19
589.736	803.19
590.186	783.89
590.637	801.89
591.088	764.09
591.538	771.29
591.989	753.69
592.439	740.99
592.89	736.49
593.34	724.69
593.791	732.39
594.241	721.79
594.692	720.69
595.142	713.79
595.593	716.59
596.043	724.19
596.493	728.99
596.943	733.09
597.394	741.89
597.844	749.59
598.294	755.19
598.744	779.29
599.195	806.49
599.645	862.09
600.095	896.59
600.545	953.49
600.995	1000.09
601.445	1066.59
601.895	1122.59
602.345	1171.29
602.795	1158.29
603.245	1101.39
603.695	1048.89
604.145	981.89
604.594	946.99
605.044	884.49
605.494	821.39
605.944	783.59
606.393	766.79
606.843	750.99
607.293	759.59
607.743	754.09
608.192	757.69
608.642	782.99
609.091	775.29
609.541	794.49
609.99	785.89
610.44	774.69
610.889	732.79
611.339	716.09
611.788	697.09
612.238	707.49
612.687	729.69
613.136	715.39
613.586	732.79
614.035	719.49
614.484	740.49
614.933	728.19
615.383	730.59
615.832	728.19
616.281	717.89
616.73	693.59
617.179	674.09
617.628	660.39
618.077	652.59
618.526	637.79
618.975	630.99
619.424	636.99
619.873	634.99
620.322	624.89
620.771	631.59
621.22	624.79
621.669	607.99
622.118	605.09
622.567	596.99
623.015	587.49
623.464	583.49
623.913	580.99
624.361	577.59
624.81	563.09
625.259	567.49
625.707	572.49
626.156	582.59
626.604	585.09
627.053	580.49
627.501	580.59
627.95	585.69
628.398	597.09
628.847	592.59
629.295	588.29
629.744	593.19
630.192	592.19
630.64	577.89
631.089	562.89
631.537	551.29
631.985	543.49
632.433	549.49
632.881	545.89
633.33	553.49
633.778	539.29
634.226	544.89
634.674	555.69
635.122	559.99
635.57	572.99
636.018	579.79
636.466	577.79
636.914	587.29
637.362	599.89
637.81	590.49
638.258	607.09
638.705	604.99
639.153	628.59
639.601	653.19
640.049	670.69
640.497	698.29
640.944	718.09
641.392	666.29
641.84	635.89
642.287	599.09
642.735	576.59
643.182	586.19
643.63	584.29
644.078	579.49
644.525	599.79
644.973	595.79
645.42	598.19
645.867	638.39
646.315	648.49
646.762	671.19
647.21	707.89
647.657	719.39
648.104	748.49
648.551	781.09
648.999	843.69
649.446	923.29
649.893	994.39
650.34	1141.59
650.787	1355.19
651.234	1662.39
651.682	2181.69
652.129	2948.19
652.576	4190.29
653.023	6085.89
653.47	8183.99
653.917	10104.59
654.363	11577.19
654.81	12705.69
655.257	11988.19
655.704	7980.69
656.151	4810.69
656.598	3172.39
657.044	2273.09
657.491	1763.89
657.938	1430.79
658.385	1207.19
658.831	1059.19
659.278	954.39
659.724	846.49
660.171	778.19
660.618	719.49
661.064	696.89
661.511	669.39
661.957	667.39
662.404	666.59
662.85	667.29
663.296	639.59
663.743	574.29
664.189	551.69
664.635	551.49
665.082	543.19
665.528	542.59
665.974	542.69
666.42	526.99
666.867	511.59
667.313	505.39
667.759	477.69
668.205	483.19
668.651	475.09
669.097	466.19
669.543	451.69
669.989	460.39
670.435	459.59
670.881	465.39
671.327	478.79
671.773	493.99
672.219	519.09
672.665	569.19
673.11	615.99
673.556	662.89
674.002	695.59
674.448	687.99
674.893	570.69
675.339	503.99
675.785	465.49
676.23	440.19
676.676	405.89
677.122	404.49
677.567	390.89
678.013	382.89
678.458	383.69
678.904	376.59
679.349	359.09
679.794	370.79
680.24	368.89
680.685	364.79
681.131	354.59
681.576	362.89
682.021	379.89
682.466	365.59
682.912	365.59
683.357	370.29
683.802	402.99
684.247	435.79
684.692	486.09
685.137	525.49
685.583	559.39
686.028	593.39
686.473	546.99
686.918	474.49
687.363	439.29
687.807	415.79
688.252	381.09
688.697	376.39
689.142	363.19
689.587	347.49
690.032	348.09
690.477	360.19
690.921	366.19
691.366	395.89
691.811	422.19
692.255	451.19
692.7	488.69
693.145	537.99
693.589	763.49
694.034	1234.99
694.478	1654.19
694.923	1814.09
695.367	2355.79
695.812	1259.99
696.256	527.79
696.701	389.09
697.145	357.39
697.59	340.29
698.034	339.79
698.478	342.49
698.922	334.99
699.367	345.69
699.811	346.09
700.255	378.79
700.699	395.19
701.143	453.09
701.588	490.39
702.032	543.29
702.476	541.59
702.92	521.69
703.364	527.59
703.808	700.59
704.252	1137.99
704.696	1571.79
705.14	1754.59
705.584	2234.69
706.027	1120.59
706.471	558.39
706.915	428.79
707.359	372.29
707.803	338.79
708.246	331.49
708.69	338.99
709.134	335.69
709.577	324.79
710.021	323.69
710.465	316.29
710.908	309.29
711.352	314.99
711.795	333.39
712.239	372.59
712.682	407.89
713.126	425.09
713.569	476.19
714.012	373.29
714.456	317.19
714.899	301.59
715.342	285.89
715.786	273.39
716.229	271.99
716.672	270.89
717.115	254.89
717.558	256.29
718.002	261.79
718.445	278.99
718.888	296.69
719.331	316.99
719.774	329.09
720.217	319.89
720.66	301.79
721.103	285.29
721.546	268.89
721.989	260.89
722.432	235.89
722.874	248.09
723.317	241.29
723.76	245.59
724.203	271.19
724.645	349.89
725.088	474.49
725.531	605.79
725.974	667.59
726.416	577.39
726.859	334.29
727.301	261.29
727.744	249.59
728.187	248.49
728.629	252.99
729.071	259.09
729.514	271.09
729.956	292.19
730.399	290.79
730.841	305.59
731.283	290.89
731.726	278.99
732.168	282.19
732.61	281.99
733.053	306.59
733.495	334.49
733.937	378.59
734.379	418.39
734.821	468.99
735.263	597.99
735.705	928.29
736.148	1751.09
736.59	2798.29
737.032	3204.09
737.474	2613.89
737.916	870.49
738.357	455.19
738.799	353.69
739.241	311.99
739.683	299.29
740.125	312.39
740.567	310.89
741.008	338.99
741.45	337.29
741.892	340.59
742.334	378.09
742.775	385.89
743.217	364.59
743.658	298.19
744.1	266.49
744.542	281.89
744.983	336.89
745.425	373.09
745.866	359.79
746.307	295.49
746.749	296.79
747.19	345.69
747.632	495.19
748.073	994.99
748.514	2064.39
748.956	3064.29
749.397	3849.09
749.838	3199.39
750.279	3114.29
750.72	1591.59
751.162	588.39
751.603	337.79
752.044	269.19
752.485	226.99
752.926	220.09
753.367	204.69
753.808	212.39
754.249	203.99
754.69	198.39
755.131	188.79
755.572	195.59
756.013	194.39
756.453	194.99
756.894	199.99
757.335	208.09
757.776	204.69
758.216	199.79
758.657	208.89
759.098	208.39
759.538	242.79
759.979	289.29
760.42	412.49
760.86	792.59
761.301	2090.69
761.741	4885.49
762.182	6708.39
762.622	4747.19
763.063	1403.39
763.503	576.69
763.943	348.19
764.384	281.79
764.824	257.89
765.264	245.99
765.705	217.89
766.145	191.29
766.585	179.99
767.025	181.39
767.465	175.49
767.906	181.29
768.346	211.09
768.786	215.19
769.226	224.69
769.666	340.69
770.106	699.89
770.546	1736.59
770.986	2789.09
771.426	2474.99
771.866	850.79
772.306	342.99
772.745	217.99
773.185	169.29
773.625	174.89
774.065	158.29
774.505	171.29
774.944	220.89
775.384	386.29
775.824	607.09
776.263	586.29
776.703	283.89
777.142	172.49
777.582	140.49
778.021	128.89
778.461	133.79
778.9	132.79
779.34	132.29
779.779	117.99
780.219	112.89
780.658	114.29
781.097	118.89
781.537	118.79
781.976	112.79
782.415	108.79
782.855	108.39
783.294	105.19
783.733	109.09
784.172	110.89
784.611	105.19
785.05	109.29
785.489	122.99
785.928	120.59
786.367	122.59
786.806	121.19
787.245	138.89
787.684	139.09
788.123	155.89
788.562	139.19
789.001	134.79
789.44	125.89
789.879	125.59
790.317	117.39
790.756	125.69
791.195	134.69
791.634	152.59
792.072	225.09
792.511	408.09
792.95	1119.39
793.388	2255.49
793.827	1984.89
794.265	715.69
794.704	295.29
795.142	194.09
795.581	156.09
796.019	144.29
796.458	131.89
796.896	125.79
797.334	136.79
797.773	163.99
798.211	234.69
798.649	491.69
799.087	1121.79
799.526	1731.89
799.964	2161.79
800.402	2084.09
800.84	801.69
801.278	324.69
801.716	200.69
802.154	161.79
802.592	146.69
803.03	148.69
803.468	139.49
803.906	155.19
804.344	161.49
804.782	151.69
805.22	138.09
805.658	129.39
806.096	157.89
806.533	165.49
806.971	184.09
807.409	237.39
807.847	353.99
808.284	755.09
808.722	2068.99
809.16	3527.79
809.597	3464.29
810.035	5868.49
810.472	6014.09
810.91	2237.49
811.347	866.79
811.785	445.29
812.222	275.69
812.66	213.79
813.097	174.59
813.535	150.99
813.972	136.09
814.409	127.89
814.846	120.79
815.284	113.09
815.721	108.09
816.158	106.09
816.595	112.59
817.032	162.19
817.47	187.39
817.907	134.39
818.344	102.49
818.781	98.89
819.218	104.39
819.655	135.89
820.092	203.59
820.529	226.39
820.966	176.59
821.403	129.59
821.839	106.79
822.276	110.79
822.713	132.49
823.15	138.99
823.587	122.99
824.023	159.29
824.46	337.99
824.897	986.69
825.333	1426.19
825.77	617.09
826.206	244.69
826.643	148.49
827.08	106.19
827.516	88.99
827.953	81.69
828.389	84.29
828.825	76.39
829.262	76.49
829.698	68.49
830.135	65.69
830.571	63.19
831.007	65.39
831.443	68.09
831.88	68.69
832.316	65.19
832.752	68.69
833.188	66.19
833.624	65.19
834.06	69.89
834.497	72.39
834.933	79.99
835.369	79.59
835.805	71.09
836.241	88.49
836.677	88.29
837.112	91.19
837.548	107.69
837.984	147.19
838.42	224.79
838.856	561.39
839.292	1664.59
839.727	2431.29
840.163	1138.19
840.599	1044.29
841.034	2225.59
841.47	2213.29
841.906	822.19
842.341	346.09
842.777	213.39
843.212	213.69
843.648	191.99
844.083	119.59
844.519	89.49
844.954	73.29
845.39	59.59
845.825	54.99
846.261	56.89
846.696	52.59
847.131	57.09
847.566	60.29
848.002	55.09
848.437	58.49
848.872	56.59
849.307	63.69
849.742	90.39
850.177	199.09
850.613	620.09
851.048	927.19
851.483	404.69
851.918	168.49
852.353	99.49
852.788	54.69
853.223	54.49
853.657	60.69
854.092	45.39
854.527	39.39
854.962	44.19
855.397	44.49
855.832	55.49
856.266	40.29
856.701	46.29
857.136	37.79
857.57	45.09
858.005	51.59
858.44	66.49
858.874	48.39
859.309	52.09
859.743	48.99
860.178	49.19
860.612	46.99
861.047	53.99
861.481	71.79
861.915	72.19
862.35	54.69
862.784	41.49
863.218	34.89
863.653	40.09
864.087	47.99
864.521	60.59
864.955	72.89
865.39	165.69
865.824	183.29
866.258	122.39
866.692	178.89
867.126	191.59
867.56	112.89
867.994	50.19
868.428	42.19
868.862	48.69
869.296	56.69
869.73	64.29
870.164	52.69
870.598	55.39
871.031	39.49
871.465	39.99
871.899	35.19
872.333	27.39
872.766	25.29
873.2	24.99
873.634	31.49
874.067	25.49
874.501	28.89
874.935	34.09
875.368	28.39
875.802	30.99
876.235	24.49
876.669	22.19
877.102	24.19
877.535	31.49
877.969	26.89
878.402	25.49
878.836	24.99
879.269	20.19
879.702	22.79
880.135	24.09
880.569	24.69
881.002	24.69
881.435	21.69
881.868	16.29
882.301	24.29
882.734	15.69
883.167	21.29
883.601	19.19
884.034	20.59
884.467	13.79
884.899	18.99
885.332	20.19
885.765	17.99
886.198	17.39
886.631	21.89
887.064	23.49
887.497	19.49
887.929	25.59
888.362	10.89
888.795	14.19
889.228	14.19
889.66	23.59
890.093	18.39
890.526	14.99
890.958	16.89
891.391	19.09
891.823	21.69
892.256	15.79
892.688	16.99
893.121	17.09
893.553	17.59
893.985	18.99
894.418	18.49
894.85	12.29
895.282	17.19
895.715	16.79
896.147	15.69
896.579	16.39
897.011	7.79
897.444	22.79
897.876	16.99
898.308	17.89
898.74	11.39
899.172	15.59
899.604	21.69
900.036	28.19
900.468	14.19
900.9	17.09
901.332	22.79
901.764	16.49
902.196	24.39
902.628	14.99
903.06	19.19
903.491	33.19
903.923	29.59
904.355	16.69
904.787	28.29
905.218	23.49
905.65	18.49
906.082	15.69
906.513	13.79
906.945	16.49
907.376	12.99
907.808	20.79
908.239	19.39
908.671	23.89
909.102	23.89
909.534	23.79
909.965	48.69
910.397	94.59
910.828	335.09
911.259	497.69
911.691	231.79
912.122	113.39
912.553	58.09
912.984	36.69
913.415	31.19
913.847	29.49
914.278	14.89
914.709	18.49
915.14	14.29
915.571	14.39
916.002	13.19
916.433	15.89
916.864	18.39
917.295	15.09
917.726	23.69
918.157	13.19
918.587	26.89
919.018	18.69
919.449	21.29
919.88	23.69
920.311	35.69
920.741	50.39
921.172	177.19
921.603	157.49
922.033	77.49
922.464	45.09
922.895	23.09
923.325	22.29
923.756	9.39
924.186	10.19
924.617	21.79
925.047	22.29
925.478	22.59
925.908	21.89
926.338	13.39
926.769	11.09
927.199	17.09
927.629	13.19
928.06	18.69
928.49	17.99
928.92	14.89
929.35	9.79
929.78	10.89
930.21	11.69
930.641	10.99
931.071	10.99
931.501	3.49
931.931	9.99
932.361	8.99
932.791	6.99
933.221	-1.31
933.651	2.19
934.08	11.49
934.51	30.99
934.94	12.59
935.37	8.29
935.8	8.39
936.229	7.19
936.659	6.39
937.089	2.39
937.519	19.29
937.948	21.69
938.378	16.49
938.807	6.79
939.237	7.49
939.666	7.59
940.096	-1.31
940.525	0.09
940.955	0.29
941.384	5.19
941.814	-10.61
942.243	-3.91
942.672	0.19
943.102	0.39
943.531	-0.71
943.96	10.29
944.39	4.89
944.819	-1.11
945.248	1.59
945.677	1.89
946.106	-1.41
946.535	4.19
946.964	2.99
947.393	7.89
947.822	2.89
948.251	-5.51
948.68	0.59
949.109	2.89
949.538	7.19
949.967	0.39
950.396	-4.91
950.825	2.39
951.254	-5.11
951.682	-6.41
952.111	1.89
952.54	1.49
952.969	-3.71
953.397	-6.51
953.826	-0.11
954.254	-7.51
954.683	-1.11
955.112	-5.71
955.54	2.99
955.969	4.29
956.397	-2.71
956.826	-1.91
957.254	0.99
957.682	0.59
958.111	2.49
958.539	5.19
958.967	-2.71
959.396	-2.31
959.824	-2.21
960.252	1.69
960.68	-6.31
961.109	3.69
961.537	-7.01
961.965	-1.01
962.393	3.29
962.821	-2.01
963.249	-0.61
963.677	5.29
964.105	1.99
964.533	51.59
964.961	41.99
965.389	22.79
965.817	8.79
966.245	-0.01
966.672	-0.81
967.1	-8.81
967.528	-3.91
967.956	-2.51
968.383	-8.61
968.811	0.59
969.239	-4.61
969.666	-7.11
970.094	2.59
970.522	-1.91
970.949	4.29
971.377	-1.11
971.804	-5.51
972.232	-3.81
972.659	-1.91
973.087	0.09
973.514	-6.41
973.941	-5.01
974.369	1.89
974.796	0.79
975.223	-2.71
975.651	-6.81
976.078	0.09
976.505	-1.91
976.932	-0.71
977.359	13.29
977.786	15.09
978.214	-0.61
978.641	0.79
979.068	-6.91
979.495	-6.81
979.922	-3.81
980.349	-3.21
980.776	1.09
981.202	-1.01
981.629	6.89
982.056	0.69
982.483	-2.21
982.91	0.39
983.337	-7.21
983.763	3.09
984.19	-3.11
984.617	-5.91
985.043	-6.31
985.47	-3.51
985.897	-5.01
986.323	-5.91
986.75	-5.71
987.176	-4.91
987.603	-3.31
988.029	1.69
988.456	-5.01
988.882	0.49
989.308	-4.21
989.735	-0.31
990.161	0.19
990.587	-8.71
991.014	-6.51
991.44	4.99
991.866	-2.21
992.292	-6.41
992.719	-3.51
993.145	3.09
993.571	-8.71
993.997	-1.11
994.423	5.59
994.849	-2.01
995.275	0.59
995.701	-1.61
996.127	2.39
996.553	-2.61
996.979	-6.11
997.405	0.09
997.83	-5.21
998.256	-2.51
998.682	0.89
999.108	-3.11
999.534	0.79
999.959	-2.81
1000.385	-4.61
1000.811	-2.51
1001.236	-6.91
1001.662	-3.91
1002.087	-3.71
1002.513	2.89
1002.938	5.19
1003.364	-7.41
1003.789	-1.31
1004.215	6.19
1004.64	-5.41
1005.066	0.89
1005.491	-2.41
1005.916	-0.81
1006.342	-9.11
1006.767	-6.21
1007.192	0.89
1007.617	-9.11
1008.042	-9.21
1008.468	-9.61
1008.893	-4.61
1009.318	-1.31
1009.743	-8.01
1010.168	-4.01
1010.593	5.99
1011.018	-7.21
1011.443	-4.61
1011.868	-2.51
1012.293	-3.61
1012.718	-4.81
1013.143	-1.21
1013.567	-1.01
1013.992	-0.41
1014.417	-11.91
1014.842	1.99
1015.267	-8.91
1015.691	0.59
1016.116	-0.31
1016.541	1.59
1016.965	3.19
1017.39	1.59
1017.814	-1.31
1018.239	-1.01
1018.663	-6.61
1019.088	-15.11
1019.512	-6.71
1019.937	-3.51
1020.361	-1.81
1020.785	-10.01
1021.21	0.19
1021.634	-5.81
1022.058	-1.01
1022.483	1.59
1022.907	-0.01
1023.331	-6.41
1023.755	-8.21
1024.179	-6.71
1024.604	-3.21
1025.028	-2.31
1025.452	-2.21
1025.876	-6.81
1026.3	3.59
1026.724	-11.31
1027.148	-6.81
1027.572	-7.61
1027.996	-7.41
1028.42	0.99
1028.843	-6.81
1029.267	-10.81
1029.691	-7.41
1030.115	-3.11
1030.539	-10.41
1030.962	-4.81
1031.386	-9.01
1031.81	-1.81
1032.233	2.39
1032.657	-4.11
1033.08	-8.51
1033.504	-5.01
1033.927	-4.51
1034.351	-3.71
1034.774	-5.81
1035.198	-2.11
1035.621	-6.81
1036.045	-7.21
1036.468	3.29
1036.891	-5.71
1037.315	-10.41
1037.738	-8.11
1038.161	3.99
1038.584	-8.21
1039.008	-5.51
1039.431	0.29
1039.854	-1.01
1040.277	-7.21
1040.7	-9.71
1041.123	2.49
1041.546	-7.91
1041.969	-5.01
1042.392	-6.41
1042.815	-5.51
1043.238	0.39
1043.661	-0.81
1044.084	-8.01
1044.507	-5.01
1044.93	1.89
1045.352	-5.61
1045.775	-2.71
1046.198	0.79
1046.621	-4.51
1047.043	-1.71
1047.466	6.59
1047.889	-2.21
1048.311	-6.11
1048.734	-4.31
1049.156	-6.11
1049.579	-5.01
1050.001	-1.41
1050.424	-6.21
1050.846	-6.21
1051.269	-5.11
1051.691	-6.61
1052.113	-3.51
1052.536	4.19
1052.958	-2.91
1053.38	-3.71
1053.802	-12.11
1054.225	3.69
1054.647	-12.61
1055.069	-11.31
1055.491	4.09
1055.913	-8.51
1056.335	-3.21
1056.757	-6.21
1057.179	-3.91
1057.601	-7.21
1058.023	-1.61
1058.445	-9.71
1058.867	-1.31
1059.289	-0.21
1059.711	-9.41
1060.133	-0.81
1060.555	-8.31
1060.976	-5.81
1061.398	-5.31
1061.82	-13.51
1062.241	-10.21
1062.663	-10.41
1063.085	-7.31
1063.506	4.99
1063.928	-3.61
1064.35	-1.11
1064.771	-8.71
1065.193	-3.11
1065.614	-12.21
1066.035	-7.21
1066.457	-4.11
1066.878	4.39
1067.3	2.59
1067.721	-4.71
1068.142	-5.61
1068.564	-5.31
1068.985	-5.61
1069.406	-13.01
1069.827	-3.21
1070.248	-4.61
1070.67	-7.71
1071.091	-7.51
1071.512	-7.11
1071.933	-7.81
1072.354	-12.11
1072.775	-5.61
1073.196	-5.71
1073.617	-3.81
1074.038	-14.11
1074.459	0.99
1074.88	-6.01
1075.3	-2.01
1075.721	-7.51
1076.142	-4.81
1076.563	-4.11
1076.983	-9.51
1077.404	-3.21
1077.825	-4.11
1078.246	-7.41
1078.666	-9.61
1079.087	-9.41
1079.507	-9.91
1079.928	-5.61
1080.348	-4.51
1080.769	-6.01
1081.189	0.49
1081.61	-7.71
1082.03	-9.91
1082.451	-6.31
1082.871	-4.81
1083.291	-3.01
1083.711	-13.61
1084.132	-3.61
1084.552	-6.71
1084.972	0.89
1085.392	-9.21
1085.813	-11.61
1086.233	-9.11
1086.653	-7.51
1087.073	-2.31
1087.493	-7.61
1087.913	-7.71
1088.333	-7.41
1088.753	-6.21
1089.173	2.29
1089.593	-6.11
1090.013	-4.01
1090.433	-4.41
1090.852	-4.41
1091.272	-5.51
1091.692	-0.21
1092.112	-3.01
1092.531	-8.41
1092.951	-17.11
1093.371	0.29
1093.79	-1.61
1094.21	-6.01
1094.63	-6.81
1095.049	-5.51
1095.469	4.39
1095.888	-2.41
1096.308	-3.41
1096.727	2.19
1097.146	-14.61
1097.566	-5.51
1097.985	-8.01
1098.405	-1.61
1098.824	-7.41
1099.243	-7.01
1099.662	-12.41
1100.082	-5.81
1100.501	-3.71
1100.92	-10.41
1101.339	-0.51
1101.758	-4.21
