Data from 20171114-ORNL-Ar_H_NY_Subt18_08-08-06-103.txt Node
Date: Tue Nov 14 08:08:06 EST 2017
User: Ender
Spectrometer: HR+D1039
Trigger mode: 0
Integration Time (sec): 2.730000E-2
Scans to average: 10
Electric dark correction enabled: true
Nonlinearity correction enabled: false
Boxcar width: 0
XAxis mode: Wavelengths
Number of Pixels in Spectrum: 2048
>>>>>Begin Spectral Data<<<<<
187.836	-6.79
188.309	-6.79
188.782	-6.79
189.255	4.21
189.728	-4.99
190.201	3.11
190.674	-4.49
191.147	5.41
191.619	-3.79
192.092	0.21
192.565	7.31
193.038	0.31
193.511	6.01
193.984	-4.59
194.456	1.01
194.929	2.61
195.402	-3.29
195.874	-2.29
196.347	-4.09
196.82	-6.29
197.292	5.71
197.765	4.31
198.237	-4.59
198.71	1.91
199.182	-4.89
199.655	2.61
200.127	6.71
200.6	-6.29
201.072	-3.49
201.544	-13.29
202.017	-1.79
202.489	1.51
202.961	-6.09
203.433	-14.19
203.906	-9.89
204.378	-9.49
204.85	-3.79
205.322	-9.99
205.794	-3.59
206.266	-0.19
206.739	-15.29
207.211	1.81
207.683	-10.29
208.155	-6.69
208.627	-8.19
209.099	-2.49
209.57	-13.49
210.042	-2.99
210.514	0.81
210.986	-3.79
211.458	-4.99
211.93	-4.79
212.402	4.81
212.873	-6.09
213.345	-14.69
213.817	-9.79
214.288	-4.99
214.76	-13.69
215.232	-5.89
215.703	-1.89
216.175	-2.89
216.646	-7.09
217.118	-10.89
217.589	-5.19
218.061	-3.99
218.532	-6.49
219.004	-0.29
219.475	-8.89
219.946	-2.99
220.418	-7.09
220.889	5.61
221.36	5.91
221.832	-3.69
222.303	-7.29
222.774	-4.39
223.245	-14.69
223.717	-11.79
224.188	-3.99
224.659	-4.69
225.13	-6.29
225.601	-2.99
226.072	2.01
226.543	-2.39
227.014	2.31
227.485	0.71
227.956	-6.49
228.427	-0.49
228.898	-1.29
229.369	2.01
229.839	-8.19
230.31	-4.49
230.781	7.91
231.252	-1.09
231.722	-6.19
232.193	-10.39
232.664	2.21
233.135	-1.99
233.605	0.31
234.076	-8.79
234.546	-0.79
235.017	8.31
235.487	-1.79
235.958	-0.09
236.428	-8.19
236.899	1.41
237.369	2.91
237.84	0.41
238.31	2.41
238.78	4.11
239.251	0.11
239.721	-3.29
240.191	9.81
240.662	2.31
241.132	2.81
241.602	-2.59
242.072	0.31
242.542	5.51
243.013	-3.89
243.483	4.31
243.953	1.11
244.423	2.31
244.893	-5.29
245.363	2.71
245.833	2.91
246.303	1.51
246.773	3.41
247.243	1.91
247.712	0.81
248.182	3.11
248.652	9.71
249.122	-2.39
249.592	7.61
250.061	24.11
250.531	32.01
251.001	15.91
251.471	21.41
251.94	17.21
252.41	6.71
252.879	4.01
253.349	12.31
253.818	11.21
254.288	-0.29
254.757	6.61
255.227	1.21
255.696	5.91
256.166	3.71
256.635	2.71
257.105	9.51
257.574	4.31
258.043	14.61
258.513	14.01
258.982	16.91
259.451	4.41
259.92	10.61
260.389	6.11
260.859	8.01
261.328	11.51
261.797	17.81
262.266	5.91
262.735	7.81
263.204	1.21
263.673	-0.19
264.142	7.11
264.611	-3.39
265.08	6.51
265.549	-5.89
266.018	4.91
266.487	4.61
266.955	-1.39
267.424	1.81
267.893	7.51
268.362	0.81
268.83	6.31
269.299	6.51
269.768	1.71
270.236	5.91
270.705	6.81
271.174	3.51
271.642	4.61
272.111	5.81
272.579	14.71
273.048	23.51
273.516	22.61
273.985	26.21
274.453	16.01
274.922	14.11
275.39	8.81
275.858	0.21
276.327	6.81
276.795	17.11
277.263	8.91
277.731	27.51
278.2	50.71
278.668	50.61
279.136	45.31
279.604	17.31
280.072	9.21
280.54	11.51
281.008	12.21
281.477	18.01
281.945	14.71
282.413	13.11
282.881	12.41
283.348	8.51
283.816	10.31
284.284	18.31
284.752	16.21
285.22	12.91
285.688	16.01
286.156	19.41
286.623	41.11
287.091	50.61
287.559	30.41
288.026	17.31
288.494	19.01
288.962	2.11
289.429	11.81
289.897	15.61
290.364	13.51
290.832	14.11
291.3	10.71
291.767	15.21
292.234	14.21
292.702	15.01
293.169	18.21
293.637	17.31
294.104	21.71
294.571	6.51
295.039	11.41
295.506	12.31
295.973	15.71
296.44	8.91
296.908	22.41
297.375	20.01
297.842	20.61
298.309	18.41
298.776	15.71
299.243	16.21
299.71	16.41
300.177	20.71
300.644	21.01
301.111	19.71
301.578	19.91
302.045	13.01
302.512	19.71
302.979	25.91
303.446	24.81
303.913	13.01
304.379	22.11
304.846	25.81
305.313	22.01
305.78	18.11
306.246	24.61
306.713	22.71
307.18	29.31
307.646	24.81
308.113	26.91
308.579	22.01
309.046	28.21
309.512	23.91
309.979	14.11
310.445	27.11
310.912	24.51
311.378	32.71
311.845	27.21
312.311	32.71
312.777	29.91
313.244	26.81
313.71	34.41
314.176	31.01
314.642	26.61
315.109	31.51
315.575	37.01
316.041	37.11
316.507	35.11
316.973	43.51
317.439	33.61
317.905	37.41
318.371	31.31
318.837	38.61
319.303	28.11
319.769	34.91
320.235	32.71
320.701	33.71
321.167	37.11
321.633	34.01
322.099	39.71
322.564	44.51
323.03	41.21
323.496	37.71
323.962	40.91
324.427	33.71
324.893	43.11
325.359	41.41
325.824	39.01
326.29	38.01
326.755	31.01
327.221	35.11
327.686	38.71
328.152	43.71
328.617	41.11
329.083	45.91
329.548	43.21
330.014	43.91
330.479	42.01
330.944	39.91
331.41	44.91
331.875	46.81
332.34	42.21
332.805	37.31
333.271	44.71
333.736	45.41
334.201	50.71
334.666	55.41
335.131	49.01
335.596	50.11
336.061	55.31
336.526	41.81
336.991	48.91
337.456	57.91
337.921	45.41
338.386	42.81
338.851	47.51
339.316	43.31
339.781	51.11
340.246	56.31
340.711	50.71
341.175	44.31
341.64	41.01
342.105	50.81
342.569	52.41
343.034	51.61
343.499	52.81
343.963	53.11
344.428	65.11
344.893	63.81
345.357	55.01
345.822	55.51
346.286	68.11
346.751	76.61
347.215	62.91
347.679	71.11
348.144	95.51
348.608	82.31
349.073	70.01
349.537	69.31
350.001	81.31
350.465	87.11
350.93	82.91
351.394	86.51
351.858	62.01
352.322	88.21
352.786	82.91
353.25	100.01
353.715	108.11
354.179	101.01
354.643	124.31
355.107	121.81
355.571	115.91
356.035	106.51
356.498	122.41
356.962	118.81
357.426	135.31
357.89	115.81
358.354	93.91
358.818	78.71
359.281	78.41
359.745	80.21
360.209	66.81
360.673	81.01
361.136	77.81
361.6	80.21
362.064	81.71
362.527	87.31
362.991	81.71
363.454	77.01
363.918	82.31
364.381	77.61
364.845	84.31
365.308	80.71
365.772	85.51
366.235	85.61
366.698	89.91
367.162	80.21
367.625	81.41
368.088	87.01
368.552	82.01
369.015	91.21
369.478	97.01
369.941	100.31
370.404	95.31
370.867	110.81
371.331	110.51
371.794	121.41
372.257	112.21
372.72	113.31
373.183	108.61
373.646	101.81
374.109	109.11
374.572	117.11
375.035	110.91
375.497	111.71
375.96	103.91
376.423	106.21
376.886	110.91
377.349	115.21
377.811	103.61
378.274	107.81
378.737	104.71
379.199	118.11
379.662	115.31
380.125	124.51
380.587	116.81
381.05	125.01
381.512	130.91
381.975	136.71
382.437	132.81
382.9	124.71
383.362	138.51
383.825	140.11
384.287	150.11
384.75	143.11
385.212	146.91
385.674	148.71
386.136	132.81
386.599	123.61
387.061	128.71
387.523	132.11
387.985	139.61
388.447	149.11
388.91	147.41
389.372	158.11
389.834	161.51
390.296	147.11
390.758	163.11
391.22	176.21
391.682	212.21
392.144	306.11
392.606	238.21
393.068	162.61
393.529	167.81
393.991	157.01
394.453	153.81
394.915	159.61
395.377	196.81
395.838	222.51
396.3	158.31
396.762	145.51
397.224	136.91
397.685	134.91
398.147	130.21
398.608	128.31
399.07	135.61
399.531	135.81
399.993	146.91
400.454	156.61
400.916	145.01
401.377	140.51
401.839	152.71
402.3	155.31
402.762	162.91
403.223	189.61
403.684	170.21
404.145	169.21
404.607	161.31
405.068	164.81
405.529	174.51
405.99	193.41
406.451	181.51
406.913	168.71
407.374	168.21
407.835	159.61
408.296	172.11
408.757	169.51
409.218	192.11
409.679	184.91
410.14	182.71
410.601	185.11
411.062	188.61
411.522	191.41
411.983	198.81
412.444	183.71
412.905	187.21
413.366	188.31
413.826	195.91
414.287	220.61
414.748	266.51
415.208	245.31
415.669	216.71
416.13	208.41
416.59	203.71
417.051	218.71
417.511	223.81
417.972	239.21
418.432	253.81
418.893	300.11
419.353	248.31
419.814	201.31
420.274	188.41
420.734	187.41
421.195	208.41
421.655	203.61
422.115	197.51
422.576	193.41
423.036	200.71
423.496	214.11
423.956	224.51
424.416	234.61
424.876	262.01
425.336	258.01
425.797	270.61
426.257	260.11
426.717	242.11
427.177	238.01
427.637	227.01
428.097	238.31
428.556	244.81
429.016	268.41
429.476	269.01
429.936	290.01
430.396	282.01
430.856	300.51
431.315	318.01
431.775	362.21
432.235	392.41
432.694	360.31
433.154	380.21
433.614	400.11
434.073	352.41
434.533	293.21
434.993	276.11
435.452	289.31
435.912	296.11
436.371	287.51
436.83	288.11
437.29	280.21
437.749	252.81
438.209	252.61
438.668	278.21
439.127	294.11
439.587	272.01
440.046	250.01
440.505	264.01
440.964	282.61
441.424	333.71
441.883	316.21
442.342	259.11
442.801	225.51
443.26	229.41
443.719	224.21
444.178	224.61
444.637	220.31
445.096	227.01
445.555	223.61
446.014	223.41
446.473	227.41
446.932	230.91
447.391	240.61
447.849	225.51
448.308	219.71
448.767	223.91
449.226	240.21
449.685	237.61
450.143	245.91
450.602	240.81
451.061	235.31
451.519	232.71
451.978	237.01
452.436	233.51
452.895	243.81
453.353	254.61
453.812	246.71
454.27	241.31
454.729	250.51
455.187	249.11
455.646	244.31
456.104	250.21
456.562	261.81
457.021	285.01
457.479	260.91
457.937	278.81
458.395	265.81
458.854	252.91
459.312	255.01
459.77	282.11
460.228	258.61
460.686	250.21
461.144	253.51
461.602	247.11
462.06	247.01
462.518	256.31
462.976	261.61
463.434	252.21
463.892	272.31
464.35	278.21
464.808	289.41
465.266	273.11
465.724	260.71
466.181	272.01
466.639	262.31
467.097	296.41
467.555	300.81
468.012	303.21
468.47	311.51
468.928	328.01
469.385	345.81
469.843	347.81
470.3	356.01
470.758	362.81
471.215	389.91
471.673	412.11
472.13	414.31
472.588	421.41
473.045	378.01
473.503	387.11
473.96	400.81
474.417	409.91
474.875	438.21
475.332	476.11
475.789	461.91
476.246	463.81
476.704	487.31
477.161	515.41
477.618	526.11
478.075	568.91
478.532	627.81
478.989	700.71
479.446	813.01
479.903	775.11
480.36	822.21
480.817	863.61
481.274	977.11
481.731	1086.41
482.188	1166.11
482.645	1304.41
483.102	1414.91
483.558	1563.91
484.015	1608.81
484.472	1588.41
484.929	1525.71
485.385	1483.11
485.842	1444.51
486.299	1361.81
486.755	1307.71
487.212	1109.61
487.668	940.21
488.125	849.61
488.582	787.21
489.038	753.41
489.494	713.91
489.951	683.31
490.407	667.01
490.864	653.31
491.32	646.11
491.776	642.11
492.233	647.81
492.689	622.11
493.145	607.71
493.602	607.31
494.058	621.71
494.514	623.01
494.97	639.41
495.426	660.01
495.882	618.41
496.338	611.61
496.794	628.61
497.251	612.31
497.707	632.01
498.163	626.61
498.618	641.01
499.074	643.01
499.53	672.21
499.986	686.11
500.442	644.81
500.898	625.11
501.354	632.81
501.809	640.11
502.265	656.71
502.721	666.31
503.177	695.01
503.632	670.61
504.088	680.81
504.543	712.41
504.999	709.71
505.455	651.91
505.91	635.31
506.366	634.81
506.821	620.51
507.277	619.61
507.732	624.01
508.187	624.01
508.643	635.21
509.098	634.01
509.553	657.41
510.009	658.61
510.464	666.91
510.919	684.11
511.375	694.31
511.83	703.71
512.285	720.91
512.74	753.21
513.195	783.11
513.65	772.01
514.105	773.91
514.56	754.91
515.015	790.41
515.47	802.81
515.925	784.41
516.38	773.51
516.835	792.01
517.29	782.61
517.745	768.51
518.2	766.41
518.655	745.91
519.109	744.61
519.564	738.21
520.019	716.71
520.474	714.61
520.928	715.81
521.383	709.11
521.838	708.11
522.292	710.01
522.747	703.81
523.201	699.21
523.656	694.01
524.11	693.61
524.565	701.61
525.019	684.71
525.474	710.51
525.928	695.21
526.382	688.31
526.837	704.71
527.291	700.71
527.745	689.51
528.2	696.71
528.654	683.21
529.108	677.81
529.562	688.51
530.016	685.11
530.47	696.81
530.925	692.91
531.379	698.41
531.833	697.31
532.287	694.71
532.741	698.31
533.195	700.81
533.649	707.81
534.103	712.31
534.556	702.51
535.01	706.01
535.464	711.11
535.918	726.81
536.372	720.91
536.826	714.81
537.279	706.21
537.733	710.21
538.187	714.71
538.64	711.71
539.094	721.21
539.548	727.91
540.001	721.31
540.455	721.41
540.908	731.51
541.362	728.91
541.815	748.21
542.269	753.31
542.722	755.51
543.175	763.51
543.629	773.41
544.082	785.91
544.536	782.71
544.989	781.81
545.442	790.01
545.895	787.91
546.349	791.31
546.802	799.51
547.255	800.81
547.708	814.31
548.161	812.61
548.614	825.41
549.067	831.81
549.52	812.71
549.973	801.91
550.426	799.11
550.879	790.21
551.332	792.71
551.785	804.11
552.238	804.31
552.691	820.31
553.144	836.61
553.596	852.01
554.049	855.71
554.502	886.81
554.955	913.01
555.407	894.41
555.86	902.91
556.313	889.61
556.765	881.01
557.218	880.21
557.67	875.61
558.123	872.51
558.576	857.91
559.028	870.51
559.48	872.21
559.933	863.41
560.385	835.51
560.838	812.41
561.29	777.81
561.742	783.41
562.195	772.01
562.647	764.31
563.099	776.21
563.551	767.21
564.004	787.61
564.456	769.01
564.908	759.71
565.36	742.01
565.812	742.01
566.264	727.11
566.716	718.21
567.168	717.91
567.62	723.31
568.072	704.81
568.524	692.31
568.976	685.91
569.428	682.91
569.88	684.41
570.332	682.41
570.784	688.71
571.235	684.01
571.687	701.01
572.139	709.21
572.59	711.11
573.042	712.41
573.494	703.11
573.945	708.71
574.397	682.11
574.849	686.61
575.3	691.61
575.752	679.21
576.203	676.41
576.655	689.31
577.106	670.41
577.557	658.81
578.009	672.91
578.46	662.01
578.912	657.61
579.363	664.11
579.814	671.11
580.265	660.11
580.717	656.51
581.168	672.31
581.619	676.01
582.07	681.61
582.521	678.11
582.972	680.41
583.423	670.31
583.875	685.61
584.326	708.31
584.777	754.21
585.227	833.01
585.678	927.51
586.129	1033.01
586.58	1096.71
587.031	1175.71
587.482	1339.81
587.933	1533.31
588.384	1336.91
588.834	997.11
589.285	811.61
589.736	782.31
590.186	775.61
590.637	779.81
591.088	744.41
591.538	743.11
591.989	733.21
592.439	727.21
592.89	727.71
593.34	707.41
593.791	699.71
594.241	706.81
594.692	719.81
595.142	704.11
595.593	702.61
596.043	712.11
596.493	721.81
596.943	719.91
597.394	723.61
597.844	720.21
598.294	727.91
598.744	750.31
599.195	781.71
599.645	818.41
600.095	857.91
600.545	915.51
600.995	975.81
601.445	1023.71
601.895	1087.71
602.345	1137.61
602.795	1102.31
603.245	1059.31
603.695	1016.11
604.145	952.81
604.594	902.61
605.044	864.91
605.494	800.31
605.944	747.91
606.393	743.91
606.843	723.91
607.293	734.01
607.743	729.81
608.192	745.21
608.642	759.21
609.091	772.11
609.541	768.61
609.99	777.11
610.44	775.01
610.889	726.81
611.339	705.61
611.788	682.71
612.238	700.11
612.687	717.91
613.136	733.91
613.586	739.81
614.035	740.51
614.484	776.01
614.933	763.41
615.383	760.11
615.832	735.21
616.281	727.81
616.73	695.51
617.179	661.31
617.628	650.71
618.077	634.51
618.526	626.31
618.975	620.41
619.424	627.81
619.873	617.11
620.322	627.81
620.771	610.61
621.22	604.01
621.669	601.31
622.118	596.91
622.567	586.41
623.015	575.11
623.464	578.71
623.913	559.91
624.361	555.41
624.81	555.11
625.259	557.41
625.707	561.11
626.156	553.31
626.604	564.51
627.053	561.01
627.501	568.61
627.95	572.11
628.398	575.91
628.847	579.31
629.295	575.41
629.744	575.11
630.192	568.21
630.64	579.11
631.089	565.81
631.537	589.71
631.985	593.51
632.433	602.01
632.881	608.01
633.33	670.81
633.778	663.11
634.226	583.01
634.674	580.01
635.122	588.11
635.57	603.81
636.018	637.01
636.466	581.71
636.914	559.21
637.362	573.81
637.81	581.11
638.258	577.51
638.705	580.21
639.153	608.41
639.601	614.61
640.049	645.81
640.497	676.31
640.944	689.81
641.392	650.11
641.84	620.41
642.287	587.21
642.735	571.51
643.182	572.01
643.63	575.91
644.078	579.31
644.525	593.11
644.973	601.51
645.42	613.41
645.867	629.31
646.315	650.81
646.762	668.21
647.21	697.11
647.657	723.31
648.104	757.81
648.551	780.81
648.999	848.21
649.446	918.81
649.893	1025.81
650.34	1167.51
650.787	1417.61
651.234	1757.91
651.682	2307.61
652.129	3165.81
652.576	4573.11
653.023	6771.51
653.47	9233.21
653.917	11454.91
654.363	13134.41
654.81	14449.71
655.257	13741.91
655.704	9004.01
656.151	5294.01
656.598	3431.61
657.044	2425.51
657.491	1853.51
657.938	1496.01
658.385	1258.21
658.831	1084.11
659.278	962.21
659.724	867.71
660.171	788.41
660.618	725.21
661.064	696.81
661.511	670.81
661.957	658.51
662.404	650.91
662.85	658.31
663.296	623.91
663.743	571.31
664.189	536.91
664.635	541.11
665.082	525.11
665.528	530.91
665.974	516.01
666.42	511.61
666.867	513.21
667.313	498.51
667.759	492.31
668.205	478.31
668.651	492.71
669.097	486.41
669.543	504.11
669.989	473.11
670.435	450.01
670.881	454.31
671.327	447.71
671.773	467.21
672.219	486.71
672.665	555.11
673.11	583.61
673.556	617.71
674.002	664.91
674.448	651.41
674.893	544.01
675.339	470.31
675.785	444.71
676.23	414.91
676.676	388.51
677.122	388.81
677.567	376.71
678.013	372.51
678.458	355.71
678.904	354.71
679.349	342.21
679.794	352.71
680.24	360.11
680.685	343.31
681.131	348.41
681.576	346.41
682.021	358.21
682.466	345.41
682.912	351.81
683.357	354.91
683.802	379.81
684.247	409.21
684.692	464.71
685.137	499.41
685.583	535.11
686.028	562.51
686.473	515.41
686.918	451.21
687.363	423.81
687.807	400.51
688.252	362.91
688.697	359.01
689.142	341.61
689.587	334.71
690.032	324.01
690.477	343.81
690.921	353.61
691.366	383.81
691.811	404.31
692.255	427.71
692.7	464.31
693.145	501.11
693.589	718.91
694.034	1148.41
694.478	1540.31
694.923	1712.91
695.367	2234.81
695.812	1190.61
696.256	496.81
696.701	378.11
697.145	347.61
697.59	332.31
698.034	318.81
698.478	333.31
698.922	322.21
699.367	329.31
699.811	342.21
700.255	361.21
700.699	393.51
701.143	429.41
701.588	477.91
702.032	511.01
702.476	509.61
702.92	494.71
703.364	488.41
703.808	648.81
704.252	1059.81
704.696	1470.21
705.14	1662.91
705.584	2109.01
706.027	1058.71
706.471	519.91
706.915	404.31
707.359	348.91
707.803	317.11
708.246	312.31
708.69	313.71
709.134	322.51
709.577	314.11
710.021	320.21
710.465	304.01
710.908	304.11
711.352	304.31
711.795	315.91
712.239	350.01
712.682	386.81
713.126	417.91
713.569	466.21
714.012	369.01
714.456	322.61
714.899	303.41
715.342	275.71
715.786	265.01
716.229	253.81
716.672	257.71
717.115	247.81
717.558	250.61
718.002	247.71
718.445	264.71
718.888	279.11
719.331	295.51
719.774	315.91
720.217	305.91
720.66	293.21
721.103	266.21
721.546	253.11
721.989	248.51
722.432	233.61
722.874	241.21
723.317	227.91
723.76	247.21
724.203	261.51
724.645	328.91
725.088	457.01
725.531	569.41
725.974	639.21
726.416	549.01
726.859	308.01
727.301	244.71
727.744	238.61
728.187	230.91
728.629	239.71
729.071	238.21
729.514	258.71
729.956	273.31
730.399	280.51
730.841	287.81
731.283	263.01
731.726	265.11
732.168	255.61
732.61	268.51
733.053	289.31
733.495	315.71
733.937	351.81
734.379	397.91
734.821	440.51
735.263	548.61
735.705	853.71
736.148	1616.51
736.59	2588.61
737.032	3003.81
737.474	2445.01
737.916	802.91
738.357	422.41
738.799	324.71
739.241	292.81
739.683	288.31
740.125	291.91
740.567	301.91
741.008	316.21
741.45	320.71
741.892	320.31
742.334	346.01
742.775	351.21
743.217	340.71
743.658	269.01
744.1	254.31
744.542	264.01
744.983	306.01
745.425	343.21
745.866	338.61
746.307	280.91
746.749	285.41
747.19	326.41
747.632	467.51
748.073	917.31
748.514	1904.81
748.956	2830.71
749.397	3581.01
749.838	2958.61
750.279	2923.81
750.72	1475.51
751.162	540.61
751.603	319.91
752.044	251.31
752.485	217.61
752.926	209.01
753.367	207.31
753.808	193.21
754.249	193.51
754.69	190.91
755.131	185.51
755.572	181.91
756.013	183.11
756.453	188.81
756.894	190.51
757.335	194.91
757.776	201.71
758.216	203.11
758.657	201.61
759.098	199.11
759.538	227.01
759.979	266.91
760.42	377.51
760.86	720.71
761.301	1896.31
761.741	4473.41
762.182	6313.11
762.622	4442.11
763.063	1310.81
763.503	543.31
763.943	346.41
764.384	350.41
764.824	419.91
765.264	450.81
765.705	304.31
766.145	222.41
766.585	193.81
767.025	180.61
767.465	193.61
767.906	247.61
768.346	325.21
768.786	345.31
769.226	272.91
769.666	330.91
770.106	644.91
770.546	1606.11
770.986	2616.11
771.426	2330.91
771.866	792.51
772.306	331.91
772.745	209.41
773.185	180.51
773.625	174.81
774.065	168.21
774.505	206.31
774.944	323.51
775.384	711.11
775.824	1250.31
776.263	1204.01
776.703	506.71
777.142	225.11
777.582	160.91
778.021	140.11
778.461	142.31
778.9	146.21
779.34	134.01
779.779	121.21
780.219	115.71
780.658	106.11
781.097	108.81
781.537	112.41
781.976	106.01
782.415	104.21
782.855	101.61
783.294	111.01
783.733	109.41
784.172	115.01
784.611	107.71
785.05	110.71
785.489	109.91
785.928	118.11
786.367	119.01
786.806	121.71
787.245	133.81
787.684	141.61
788.123	151.11
788.562	131.01
789.001	127.21
789.44	121.71
789.879	120.41
790.317	121.61
790.756	126.61
791.195	129.91
791.634	145.81
792.072	209.41
792.511	367.71
792.95	1046.91
793.388	2147.61
793.827	1902.01
794.265	675.71
794.704	288.51
795.142	182.61
795.581	152.91
796.019	138.81
796.458	124.01
796.896	125.21
797.334	132.51
797.773	153.01
798.211	220.41
798.649	458.71
799.087	1038.61
799.526	1600.81
799.964	2033.21
800.402	1978.91
800.84	747.31
801.278	304.31
801.716	188.71
802.154	154.21
802.592	151.91
803.03	150.81
803.468	137.91
803.906	142.71
804.344	150.11
804.782	142.71
805.22	131.31
805.658	133.51
806.096	151.41
806.533	157.11
806.971	174.21
807.409	219.11
807.847	320.11
808.284	677.81
808.722	1902.11
809.16	3263.31
809.597	3158.71
810.035	5430.61
810.472	5616.81
810.91	2044.31
811.347	790.91
811.785	404.01
812.222	256.41
812.66	198.01
813.097	162.31
813.535	142.41
813.972	130.01
814.409	118.01
814.846	103.01
815.284	112.11
815.721	108.21
816.158	107.71
816.595	121.01
817.032	185.91
817.47	205.11
817.907	165.81
818.344	158.61
818.781	116.41
819.218	96.71
819.655	121.11
820.092	179.31
820.529	213.41
820.966	177.41
821.403	135.11
821.839	107.11
822.276	103.81
822.713	122.11
823.15	143.41
823.587	123.11
824.023	149.91
824.46	309.21
824.897	902.71
825.333	1334.71
825.77	568.11
826.206	234.21
826.643	131.11
827.08	105.21
827.516	84.81
827.953	83.21
828.389	78.91
828.825	66.31
829.262	60.41
829.698	60.51
830.135	68.91
830.571	63.61
831.007	64.51
831.443	62.31
831.88	59.91
832.316	60.01
832.752	62.61
833.188	71.11
833.624	58.21
834.06	72.01
834.497	67.31
834.933	72.81
835.369	82.11
835.805	61.71
836.241	80.61
836.677	77.51
837.112	93.71
837.548	100.51
837.984	134.01
838.42	201.51
838.856	510.21
839.292	1533.61
839.727	2264.21
840.163	1054.21
840.599	941.31
841.034	2033.71
841.47	2064.21
841.906	764.01
842.341	330.41
842.777	240.41
843.212	329.11
843.648	311.71
844.083	156.51
844.519	94.31
844.954	74.51
845.39	58.11
845.825	55.31
846.261	58.31
846.696	53.01
847.131	56.61
847.566	54.71
848.002	55.01
848.437	48.81
848.872	64.11
849.307	65.21
849.742	93.01
850.177	187.61
850.613	566.61
851.048	866.01
851.483	377.81
851.918	160.61
852.353	89.61
852.788	67.11
853.223	59.81
853.657	59.31
854.092	47.11
854.527	46.71
854.962	40.91
855.397	39.91
855.832	47.21
856.266	42.91
856.701	41.91
857.136	38.21
857.57	41.51
858.005	54.81
858.44	57.91
858.874	42.11
859.309	52.81
859.743	34.71
860.178	51.61
860.612	44.31
861.047	54.41
861.481	67.41
861.915	66.01
862.35	50.51
862.784	33.31
863.218	38.31
863.653	33.91
864.087	40.61
864.521	50.81
864.955	72.81
865.39	158.61
865.824	177.91
866.258	115.41
866.692	157.61
867.126	171.41
867.56	99.11
867.994	55.41
868.428	45.81
868.862	45.11
869.296	52.91
869.73	52.71
870.164	54.01
870.598	46.21
871.031	35.61
871.465	25.41
871.899	35.71
872.333	29.21
872.766	27.81
873.2	23.11
873.634	30.11
874.067	27.91
874.501	19.61
874.935	34.71
875.368	32.61
875.802	31.91
876.235	22.01
876.669	19.81
877.102	21.31
877.535	17.21
877.969	22.71
878.402	26.41
878.836	18.41
879.269	24.21
879.702	20.61
880.135	18.81
880.569	19.31
881.002	30.91
881.435	24.81
881.868	16.11
882.301	17.31
882.734	15.11
883.167	27.81
883.601	19.31
884.034	19.81
884.467	15.01
884.899	17.91
885.332	13.61
885.765	13.61
886.198	15.61
886.631	16.61
887.064	22.31
887.497	24.21
887.929	23.61
888.362	11.61
888.795	14.11
889.228	14.91
889.66	20.11
890.093	13.91
890.526	20.61
890.958	15.51
891.391	19.71
891.823	20.11
892.256	14.91
892.688	16.01
893.121	10.71
893.553	15.01
893.985	25.61
894.418	15.41
894.85	13.41
895.282	20.51
895.715	15.81
896.147	17.01
896.579	17.71
897.011	14.01
897.444	16.81
897.876	13.71
898.308	17.71
898.74	15.91
899.172	12.11
899.604	22.01
900.036	21.21
900.468	18.51
900.9	17.91
901.332	22.81
901.764	16.01
902.196	23.71
902.628	22.41
903.06	21.01
903.491	25.41
903.923	21.01
904.355	23.61
904.787	24.51
905.218	27.61
905.65	18.31
906.082	10.11
906.513	16.31
906.945	13.91
907.376	11.11
907.808	18.71
908.239	18.61
908.671	18.71
909.102	26.11
909.534	28.71
909.965	48.91
910.397	93.21
910.828	316.31
911.259	459.81
911.691	214.31
912.122	108.51
912.553	49.21
912.984	31.71
913.415	22.81
913.847	22.71
914.278	21.41
914.709	18.91
915.14	22.41
915.571	13.31
916.002	14.61
916.433	20.41
916.864	15.71
917.295	13.01
917.726	22.01
918.157	20.91
918.587	29.31
919.018	20.41
919.449	17.91
919.88	24.91
920.311	26.01
920.741	52.61
921.172	163.61
921.603	144.81
922.033	63.91
922.464	48.91
922.895	23.81
923.325	28.71
923.756	18.41
924.186	14.41
924.617	23.11
925.047	36.51
925.478	52.61
925.908	43.51
926.338	28.01
926.769	15.71
927.199	19.11
927.629	8.81
928.06	19.21
928.49	18.41
928.92	8.61
929.35	13.31
929.78	10.61
930.21	8.91
930.641	3.81
931.071	4.91
931.501	6.41
931.931	8.41
932.361	7.41
932.791	0.61
933.221	3.51
933.651	2.81
934.08	18.61
934.51	25.61
934.94	6.21
935.37	9.41
935.8	8.21
936.229	8.31
936.659	8.81
937.089	7.41
937.519	13.91
937.948	28.51
938.378	15.91
938.807	3.71
939.237	2.01
939.666	7.91
940.096	-5.59
940.525	-4.09
940.955	7.71
941.384	5.01
941.814	-0.09
942.243	-6.09
942.672	4.11
943.102	-2.79
943.531	2.01
943.96	5.11
944.39	-3.19
944.819	2.61
945.248	4.71
945.677	5.51
946.106	8.21
946.535	10.01
946.964	2.41
947.393	4.71
947.822	0.81
948.251	-3.69
948.68	8.01
949.109	6.21
949.538	9.81
949.967	-0.29
950.396	-1.29
950.825	-0.39
951.254	-1.49
951.682	-4.19
952.111	11.01
952.54	9.41
952.969	-7.89
953.397	-3.49
953.826	0.51
954.254	-4.29
954.683	2.11
955.112	-5.19
955.54	-0.09
955.969	2.01
956.397	5.21
956.826	-8.39
957.254	7.31
957.682	2.51
958.111	5.41
958.539	4.21
958.967	0.01
959.396	0.81
959.824	-3.29
960.252	0.81
960.68	-7.19
961.109	6.21
961.537	-13.29
961.965	-0.69
962.393	0.01
962.821	-7.99
963.249	-2.39
963.677	-0.29
964.105	6.81
964.533	48.31
964.961	44.21
965.389	25.41
965.817	6.21
966.245	-0.79
966.672	0.11
967.1	-8.39
967.528	-5.39
967.956	0.11
968.383	0.41
968.811	-1.89
969.239	-2.09
969.666	-2.49
970.094	0.71
970.522	1.91
970.949	-1.19
971.377	-5.69
971.804	1.71
972.232	-4.29
972.659	-1.99
973.087	-0.59
973.514	-2.39
973.941	-2.09
974.369	3.31
974.796	4.81
975.223	-2.59
975.651	-4.89
976.078	1.21
976.505	-5.69
976.932	8.11
977.359	14.11
977.786	11.91
978.214	-1.39
978.641	-2.99
979.068	-6.39
979.495	-2.89
979.922	0.21
980.349	-4.49
980.776	4.61
981.202	1.61
981.629	5.81
982.056	10.01
982.483	-2.29
982.91	1.91
983.337	-7.89
983.763	1.11
984.19	-7.19
984.617	-4.59
985.043	-5.99
985.47	-5.19
985.897	-1.69
986.323	-4.59
986.75	2.91
987.176	3.31
987.603	-0.29
988.029	4.61
988.456	-2.09
988.882	4.21
989.308	-8.49
989.735	-10.49
990.161	-2.09
990.587	-5.49
991.014	2.11
991.44	3.41
991.866	-3.29
992.292	-5.59
992.719	-5.79
993.145	2.71
993.571	-7.69
993.997	-3.89
994.423	5.71
994.849	-3.59
995.275	-1.29
995.701	-0.89
996.127	-3.59
996.553	0.11
996.979	-6.89
997.405	-2.59
997.83	-7.99
998.256	-6.19
998.682	-6.59
999.108	-13.29
999.534	4.81
999.959	-3.99
1000.385	-0.99
1000.811	-2.09
1001.236	-4.19
1001.662	-8.29
1002.087	-11.59
1002.513	3.41
1002.938	5.21
1003.364	-5.69
1003.789	-4.59
1004.215	8.01
1004.64	-3.59
1005.066	-5.19
1005.491	-5.59
1005.916	-6.09
1006.342	0.41
1006.767	-9.49
1007.192	9.61
1007.617	-6.59
1008.042	-0.39
1008.468	-15.19
1008.893	-7.69
1009.318	-3.69
1009.743	-0.09
1010.168	7.01
1010.593	2.01
1011.018	-0.99
1011.443	-3.99
1011.868	5.91
1012.293	-0.09
1012.718	-5.39
1013.143	-3.79
1013.567	2.31
1013.992	-3.79
1014.417	-10.89
1014.842	-1.79
1015.267	-7.79
1015.691	0.81
1016.116	1.01
1016.541	1.41
1016.965	-0.59
1017.39	2.61
1017.814	-2.29
1018.239	-4.69
1018.663	-8.19
1019.088	-11.19
1019.512	-3.19
1019.937	0.41
1020.361	-5.89
1020.785	-11.49
1021.21	-4.69
1021.634	1.91
1022.058	-1.69
1022.483	5.21
1022.907	-4.49
1023.331	-4.79
1023.755	-9.69
1024.179	-0.69
1024.604	-9.39
1025.028	-8.89
1025.452	-11.09
1025.876	-4.79
1026.3	-0.09
1026.724	-12.29
1027.148	-7.49
1027.572	-12.19
1027.996	-3.49
1028.42	-4.79
1028.843	-6.59
1029.267	-5.79
1029.691	-4.59
1030.115	-1.29
1030.539	-11.89
1030.962	-9.59
1031.386	-16.19
1031.81	2.51
1032.233	-1.79
1032.657	5.01
1033.08	-2.99
1033.504	-2.29
1033.927	-6.39
1034.351	-4.29
1034.774	-7.79
1035.198	-0.89
1035.621	-3.99
1036.045	-3.19
1036.468	0.31
1036.891	-9.89
1037.315	-11.29
1037.738	-9.89
1038.161	-1.49
1038.584	-9.49
1039.008	-6.19
1039.431	1.11
1039.854	-3.89
1040.277	-7.59
1040.7	-8.19
1041.123	0.01
1041.546	-12.19
1041.969	-8.09
1042.392	-2.39
1042.815	-2.89
1043.238	1.31
1043.661	4.31
1044.084	-7.79
1044.507	-6.09
1044.93	-4.49
1045.352	-3.79
1045.775	-1.09
1046.198	0.41
1046.621	-3.79
1047.043	-0.09
1047.466	5.81
1047.889	-2.19
1048.311	-8.49
1048.734	-9.09
1049.156	-1.99
1049.579	-1.29
1050.001	-3.09
1050.424	-6.49
1050.846	1.21
1051.269	-8.59
1051.691	-3.89
1052.113	-5.79
1052.536	1.11
1052.958	-8.89
1053.38	-9.49
1053.802	-8.49
1054.225	-3.19
1054.647	-4.49
1055.069	-5.29
1055.491	1.81
1055.913	-13.59
1056.335	-2.29
1056.757	-8.59
1057.179	-5.99
1057.601	-7.19
1058.023	0.51
1058.445	-9.59
1058.867	-9.69
1059.289	-1.39
1059.711	-0.09
1060.133	-1.49
1060.555	-9.49
1060.976	-10.69
1061.398	-4.39
1061.82	-7.39
1062.241	-1.19
1062.663	-10.69
1063.085	-7.99
1063.506	-0.19
1063.928	-2.89
1064.35	0.81
1064.771	-14.39
1065.193	0.31
1065.614	-8.49
1066.035	-3.19
1066.457	-2.59
1066.878	1.41
1067.3	-7.39
1067.721	2.51
1068.142	-1.99
1068.564	-2.09
1068.985	-3.19
1069.406	-8.89
1069.827	-4.39
1070.248	0.81
1070.67	-5.59
1071.091	-7.09
1071.512	-0.59
1071.933	-7.79
1072.354	-7.49
1072.775	-4.49
1073.196	-9.69
1073.617	-1.39
1074.038	-10.69
1074.459	-2.59
1074.88	-12.59
1075.3	0.41
1075.721	-2.09
1076.142	-5.89
1076.563	-2.59
1076.983	-10.99
1077.404	-4.49
1077.825	-14.69
1078.246	-1.89
1078.666	-9.09
1079.087	-11.89
1079.507	-10.59
1079.928	-0.89
1080.348	-2.19
1080.769	-7.19
1081.189	-0.79
1081.61	-6.19
1082.03	-4.59
1082.451	-5.89
1082.871	-4.19
1083.291	-8.79
1083.711	-9.79
1084.132	-5.49
1084.552	-7.69
1084.972	0.51
1085.392	-10.29
1085.813	-12.79
1086.233	-12.69
1086.653	-4.69
1087.073	-2.59
1087.493	-9.49
1087.913	-4.69
1088.333	-12.89
1088.753	-1.49
1089.173	-0.19
1089.593	0.61
1090.013	-3.29
1090.433	3.71
1090.852	-6.89
1091.272	-5.39
1091.692	-5.29
1092.112	-5.09
1092.531	-11.09
1092.951	-11.39
1093.371	-3.19
1093.79	-3.79
1094.21	-2.09
1094.63	-5.99
1095.049	-4.99
1095.469	-1.69
1095.888	-1.89
1096.308	-3.89
1096.727	-0.39
1097.146	-8.39
1097.566	6.41
1097.985	-6.69
1098.405	-3.49
1098.824	-10.29
1099.243	-5.59
1099.662	-7.19
1100.082	1.91
1100.501	-6.49
1100.92	-5.19
1101.339	-7.69
1101.758	-6.29
