Data from 20171114-ORNL-Ar_H_NY_Subt18_08-03-42-408.txt Node
Date: Tue Nov 14 08:03:42 EST 2017
User: Ender
Spectrometer: HR+D1039
Trigger mode: 0
Integration Time (sec): 2.730000E-2
Scans to average: 10
Electric dark correction enabled: true
Nonlinearity correction enabled: false
Boxcar width: 0
XAxis mode: Wavelengths
Number of Pixels in Spectrum: 2048
>>>>>Begin Spectral Data<<<<<
187.836	-3.52
188.309	-3.52
188.782	-3.52
189.255	-0.62
189.728	-3.42
190.201	4.48
190.674	-0.02
191.147	1.08
191.619	-5.72
192.092	4.08
192.565	4.78
193.038	-0.72
193.511	-0.42
193.984	3.78
194.456	-0.52
194.929	3.58
195.402	-0.52
195.874	-6.32
196.347	-2.02
196.82	-8.62
197.292	6.68
197.765	-0.32
198.237	-5.82
198.71	0.58
199.182	-1.02
199.655	3.58
200.127	1.18
200.6	-2.52
201.072	-4.62
201.544	-3.32
202.017	-4.02
202.489	4.28
202.961	-4.42
203.433	-7.72
203.906	-6.92
204.378	-3.92
204.85	-2.22
205.322	-7.82
205.794	2.38
206.266	-7.62
206.739	-2.72
207.211	3.78
207.683	-3.82
208.155	-4.62
208.627	-6.62
209.099	-2.82
209.57	-7.62
210.042	-2.02
210.514	-4.82
210.986	-4.12
211.458	-6.32
211.93	-0.12
212.402	4.88
212.873	-9.72
213.345	-6.02
213.817	-14.02
214.288	-0.62
214.76	-8.32
215.232	-1.42
215.703	-6.22
216.175	-1.12
216.646	-3.72
217.118	-6.32
217.589	-8.62
218.061	-6.62
218.532	-5.42
219.004	-3.82
219.475	-5.72
219.946	-2.22
220.418	-4.72
220.889	1.98
221.36	-0.42
221.832	-0.12
222.303	-14.52
222.774	0.78
223.245	-6.82
223.717	-6.22
224.188	-0.62
224.659	-1.42
225.13	-6.92
225.601	-0.72
226.072	1.98
226.543	0.08
227.014	0.28
227.485	-2.42
227.956	-2.02
228.427	-1.52
228.898	-0.42
229.369	-7.02
229.839	-5.92
230.31	-13.62
230.781	0.68
231.252	-3.22
231.722	-2.82
232.193	-6.62
232.664	-3.12
233.135	-1.62
233.605	-4.12
234.076	-7.92
234.546	-5.72
235.017	-0.42
235.487	-1.72
235.958	-5.42
236.428	-2.62
236.899	-2.12
237.369	-2.52
237.84	-9.92
238.31	-1.72
238.78	-2.92
239.251	-5.72
239.721	-3.22
240.191	-6.92
240.662	-4.12
241.132	0.48
241.602	-10.02
242.072	-0.32
242.542	4.08
243.013	-4.12
243.483	2.98
243.953	-0.12
244.423	-8.62
244.893	-7.32
245.363	-4.82
245.833	-2.02
246.303	-4.72
246.773	3.88
247.243	-2.62
247.712	-3.22
248.182	3.08
248.652	1.08
249.122	-6.32
249.592	-3.42
250.061	-2.42
250.531	3.88
251.001	-5.22
251.471	2.48
251.94	-0.92
252.41	-5.52
252.879	-6.42
253.349	9.58
253.818	2.08
254.288	7.78
254.757	-1.82
255.227	-4.12
255.696	-2.62
256.166	1.18
256.635	5.08
257.105	3.58
257.574	-3.02
258.043	-1.52
258.513	-6.72
258.982	-4.12
259.451	-8.52
259.92	-2.42
260.389	-1.82
260.859	3.78
261.328	0.18
261.797	-4.12
262.266	-2.42
262.735	4.58
263.204	5.48
263.673	-3.82
264.142	5.58
264.611	-5.12
265.08	-9.12
265.549	-3.42
266.018	2.18
266.487	-5.62
266.955	-5.72
267.424	-3.22
267.893	2.88
268.362	-2.92
268.83	-1.52
269.299	8.58
269.768	-2.02
270.236	-5.02
270.705	-3.42
271.174	7.58
271.642	-0.12
272.111	-0.62
272.579	-3.92
273.048	-1.42
273.516	-3.22
273.985	5.88
274.453	5.88
274.922	10.28
275.39	1.58
275.858	-4.22
276.327	4.18
276.795	10.38
277.263	1.38
277.731	11.78
278.2	3.78
278.668	6.78
279.136	6.18
279.604	5.58
280.072	5.18
280.54	5.28
281.008	3.58
281.477	9.68
281.945	9.78
282.413	3.68
282.881	10.68
283.348	-1.52
283.816	10.28
284.284	-0.72
284.752	17.98
285.22	7.78
285.688	11.28
286.156	6.28
286.623	11.58
287.091	9.08
287.559	8.18
288.026	11.88
288.494	8.88
288.962	-0.92
289.429	-4.32
289.897	12.38
290.364	7.98
290.832	14.48
291.3	9.38
291.767	6.38
292.234	6.38
292.702	5.28
293.169	4.08
293.637	15.18
294.104	15.48
294.571	-2.12
295.039	7.78
295.506	9.58
295.973	9.18
296.44	9.98
296.908	13.28
297.375	9.98
297.842	12.48
298.309	8.48
298.776	4.18
299.243	13.78
299.71	7.68
300.177	14.88
300.644	12.08
301.111	11.78
301.578	16.88
302.045	6.38
302.512	12.48
302.979	14.18
303.446	8.08
303.913	12.38
304.379	14.18
304.846	23.48
305.313	17.98
305.78	17.08
306.246	17.28
306.713	21.28
307.18	7.98
307.646	17.78
308.113	21.08
308.579	15.88
309.046	17.28
309.512	20.28
309.979	11.18
310.445	23.38
310.912	24.38
311.378	21.48
311.845	21.08
312.311	21.78
312.777	25.28
313.244	22.28
313.71	28.88
314.176	22.18
314.642	20.38
315.109	23.68
315.575	26.08
316.041	28.58
316.507	23.88
316.973	27.08
317.439	25.18
317.905	26.08
318.371	25.08
318.837	28.88
319.303	26.78
319.769	29.88
320.235	31.28
320.701	29.38
321.167	31.08
321.633	25.48
322.099	31.28
322.564	32.78
323.03	27.68
323.496	28.78
323.962	36.68
324.427	28.58
324.893	37.68
325.359	38.78
325.824	29.58
326.29	34.68
326.755	32.58
327.221	32.38
327.686	35.68
328.152	41.48
328.617	32.28
329.083	39.68
329.548	46.38
330.014	40.98
330.479	38.18
330.944	43.68
331.41	37.18
331.875	40.08
332.34	34.88
332.805	34.18
333.271	38.78
333.736	33.48
334.201	46.08
334.666	38.68
335.131	48.08
335.596	42.68
336.061	45.98
336.526	31.68
336.991	41.68
337.456	46.68
337.921	42.98
338.386	37.88
338.851	39.98
339.316	46.88
339.781	43.48
340.246	48.58
340.711	40.48
341.175	47.98
341.64	43.78
342.105	46.58
342.569	46.98
343.034	51.48
343.499	51.58
343.963	50.38
344.428	58.88
344.893	57.48
345.357	50.68
345.822	58.98
346.286	62.28
346.751	64.38
347.215	58.88
347.679	66.78
348.144	79.08
348.608	77.58
349.073	63.18
349.537	70.48
350.001	74.58
350.465	83.98
350.93	77.08
351.394	79.68
351.858	75.38
352.322	83.48
352.786	76.98
353.25	85.08
353.715	104.88
354.179	92.08
354.643	113.48
355.107	104.98
355.571	89.98
356.035	85.98
356.498	103.48
356.962	103.88
357.426	105.58
357.89	99.68
358.354	88.38
358.818	88.48
359.281	88.38
359.745	77.18
360.209	78.48
360.673	76.08
361.136	83.38
361.6	86.28
362.064	81.28
362.527	83.68
362.991	90.48
363.454	79.58
363.918	80.28
364.381	82.08
364.845	87.28
365.308	90.88
365.772	96.58
366.235	87.98
366.698	83.98
367.162	91.68
367.625	84.68
368.088	91.08
368.552	93.58
369.015	90.38
369.478	100.58
369.941	101.18
370.404	101.08
370.867	99.58
371.331	105.98
371.794	110.38
372.257	102.48
372.72	111.68
373.183	104.88
373.646	104.68
374.109	106.58
374.572	105.58
375.035	113.58
375.497	112.48
375.96	114.28
376.423	110.28
376.886	117.48
377.349	114.58
377.811	105.48
378.274	112.88
378.737	108.18
379.199	117.28
379.662	113.58
380.125	125.28
380.587	118.88
381.05	121.08
381.512	125.98
381.975	132.48
382.437	130.88
382.9	128.48
383.362	139.98
383.825	142.98
384.287	138.98
384.75	130.68
385.212	130.78
385.674	144.38
386.136	142.68
386.599	131.18
387.061	138.18
387.523	137.58
387.985	142.08
388.447	148.58
388.91	141.78
389.372	141.48
389.834	142.58
390.296	137.08
390.758	148.78
391.22	147.38
391.682	162.38
392.144	154.08
392.606	151.18
393.068	153.58
393.529	163.78
393.991	160.68
394.453	150.08
394.915	149.88
395.377	144.98
395.838	145.28
396.3	150.78
396.762	152.08
397.224	148.28
397.685	149.68
398.147	156.08
398.608	149.18
399.07	148.98
399.531	150.28
399.993	159.48
400.454	175.08
400.916	166.58
401.377	168.78
401.839	167.18
402.3	173.98
402.762	185.38
403.223	194.78
403.684	189.58
404.145	189.98
404.607	181.98
405.068	180.18
405.529	188.38
405.99	197.38
406.451	191.58
406.913	194.38
407.374	193.78
407.835	187.88
408.296	191.08
408.757	192.58
409.218	207.48
409.679	205.98
410.14	205.98
410.601	196.48
411.062	204.08
411.522	203.38
411.983	199.48
412.444	197.48
412.905	202.48
413.366	216.38
413.826	224.78
414.287	254.08
414.748	303.28
415.208	287.28
415.669	246.58
416.13	244.58
416.59	233.98
417.051	246.98
417.511	260.58
417.972	277.78
418.432	292.18
418.893	344.78
419.353	302.28
419.814	239.58
420.274	210.88
420.734	211.38
421.195	226.28
421.655	217.28
422.115	217.68
422.576	224.28
423.036	228.48
423.496	239.88
423.956	250.58
424.416	260.38
424.876	299.28
425.336	290.98
425.797	296.98
426.257	296.68
426.717	267.08
427.177	264.98
427.637	253.48
428.097	263.18
428.556	267.08
429.016	301.98
429.476	288.18
429.936	301.18
430.396	300.48
430.856	314.18
431.315	342.08
431.775	365.58
432.235	416.18
432.694	385.58
433.154	379.28
433.614	398.88
434.073	360.78
434.533	309.88
434.993	297.38
435.452	303.38
435.912	302.98
436.371	295.18
436.83	302.48
437.29	284.88
437.749	270.68
438.209	262.28
438.668	290.38
439.127	299.98
439.587	276.78
440.046	272.98
440.505	274.78
440.964	284.88
441.424	327.98
441.883	314.58
442.342	291.08
442.801	265.78
443.26	250.98
443.719	253.88
444.178	251.38
444.637	235.38
445.096	251.48
445.555	260.98
446.014	262.38
446.473	257.28
446.932	257.78
447.391	261.08
447.849	263.78
448.308	245.08
448.767	251.28
449.226	256.78
449.685	266.48
450.143	281.88
450.602	265.58
451.061	251.18
451.519	255.18
451.978	254.08
452.436	261.08
452.895	261.18
453.353	279.78
453.812	257.68
454.27	270.18
454.729	258.48
455.187	253.38
455.646	256.88
456.104	264.08
456.562	277.68
457.021	288.48
457.479	270.88
457.937	284.78
458.395	289.48
458.854	278.28
459.312	280.88
459.77	287.38
460.228	275.58
460.686	270.58
461.144	278.98
461.602	282.28
462.06	268.88
462.518	286.58
462.976	280.48
463.434	281.08
463.892	287.08
464.35	295.68
464.808	307.68
465.266	291.08
465.724	296.28
466.181	297.88
466.639	296.58
467.097	318.48
467.555	325.08
468.012	331.28
468.47	325.68
468.928	344.68
469.385	359.08
469.843	364.18
470.3	365.08
470.758	375.88
471.215	391.18
471.673	417.28
472.13	403.18
472.588	426.08
473.045	396.98
473.503	402.68
473.96	422.98
474.417	425.08
474.875	452.58
475.332	487.78
475.789	480.58
476.246	487.68
476.704	499.78
477.161	526.18
477.618	533.08
478.075	564.68
478.532	622.78
478.989	672.68
479.446	759.68
479.903	747.78
480.36	784.68
480.817	829.48
481.274	923.48
481.731	1002.68
482.188	1072.68
482.645	1204.28
483.102	1280.88
483.558	1403.88
484.015	1444.08
484.472	1430.68
484.929	1390.58
485.385	1350.18
485.842	1326.78
486.299	1281.08
486.755	1223.68
487.212	1061.78
487.668	926.98
488.125	855.98
488.582	786.28
489.038	759.48
489.494	722.38
489.951	688.98
490.407	683.68
490.864	650.18
491.32	648.48
491.776	645.78
492.233	653.28
492.689	625.78
493.145	615.88
493.602	619.78
494.058	620.88
494.514	618.78
494.97	630.88
495.426	636.08
495.882	610.58
496.338	599.88
496.794	618.68
497.251	606.08
497.707	622.88
498.163	611.28
498.618	623.68
499.074	632.48
499.53	646.68
499.986	647.98
500.442	634.78
500.898	613.58
501.354	612.18
501.809	620.98
502.265	611.98
502.721	629.38
503.177	628.08
503.632	641.18
504.088	634.08
504.543	656.58
504.999	672.98
505.455	645.88
505.91	626.68
506.366	627.38
506.821	637.38
507.277	623.88
507.732	636.28
508.187	630.98
508.643	641.08
509.098	642.48
509.553	651.48
510.009	655.88
510.464	660.18
510.919	683.58
511.375	685.28
511.83	681.98
512.285	683.88
512.74	714.88
513.195	736.78
513.65	736.08
514.105	729.68
514.56	738.48
515.015	750.18
515.47	759.58
515.925	746.78
516.38	750.78
516.835	758.98
517.29	738.38
517.745	749.58
518.2	725.98
518.655	713.98
519.109	702.88
519.564	706.18
520.019	701.78
520.474	680.88
520.928	686.08
521.383	690.98
521.838	672.88
522.292	685.58
522.747	680.18
523.201	672.28
523.656	679.88
524.11	669.88
524.565	667.78
525.019	661.58
525.474	667.28
525.928	651.08
526.382	666.68
526.837	662.58
527.291	657.58
527.745	654.38
528.2	652.08
528.654	648.98
529.108	651.28
529.562	652.18
530.016	639.48
530.47	644.78
530.925	647.38
531.379	646.68
531.833	650.98
532.287	650.78
532.741	647.18
533.195	649.58
533.649	654.68
534.103	653.48
534.556	639.98
535.01	648.48
535.464	650.88
535.918	643.48
536.372	651.08
536.826	652.38
537.279	640.18
537.733	650.68
538.187	649.58
538.64	654.38
539.094	658.28
539.548	663.78
540.001	655.98
540.455	660.88
540.908	662.78
541.362	670.28
541.815	674.48
542.269	691.18
542.722	689.68
543.175	700.38
543.629	701.58
544.082	708.48
544.536	707.28
544.989	716.48
545.442	723.98
545.895	715.38
546.349	713.58
546.802	720.68
547.255	725.98
547.708	719.48
548.161	734.08
548.614	732.78
549.067	744.28
549.52	726.58
549.973	721.98
550.426	718.48
550.879	706.38
551.332	709.98
551.785	719.78
552.238	719.58
552.691	736.58
553.144	732.28
553.596	741.58
554.049	745.38
554.502	780.68
554.955	784.58
555.407	795.58
555.86	784.28
556.313	785.28
556.765	763.18
557.218	763.78
557.67	757.38
558.123	749.78
558.576	753.98
559.028	754.78
559.48	765.48
559.933	770.08
560.385	741.88
560.838	709.68
561.29	672.38
561.742	690.48
562.195	674.58
562.647	669.68
563.099	681.28
563.551	665.58
564.004	680.48
564.456	670.08
564.908	651.48
565.36	643.28
565.812	632.18
566.264	612.88
566.716	613.38
567.168	604.68
567.62	610.08
568.072	598.98
568.524	595.98
568.976	587.18
569.428	573.68
569.88	584.18
570.332	582.08
570.784	592.68
571.235	581.08
571.687	594.18
572.139	597.88
572.59	604.68
573.042	608.68
573.494	598.68
573.945	593.38
574.397	575.38
574.849	586.18
575.3	582.18
575.752	576.58
576.203	565.58
576.655	570.38
577.106	552.48
577.557	556.28
578.009	562.58
578.46	558.68
578.912	558.08
579.363	551.18
579.814	545.78
580.265	540.08
580.717	558.08
581.168	544.28
581.619	556.88
582.07	566.48
582.521	555.38
582.972	553.18
583.423	557.68
583.875	557.68
584.326	559.88
584.777	576.18
585.227	588.98
585.678	596.88
586.129	605.68
586.58	622.08
587.031	641.28
587.482	664.78
587.933	693.88
588.384	670.58
588.834	643.28
589.285	631.18
589.736	634.58
590.186	641.48
590.637	629.08
591.088	601.78
591.538	598.48
591.989	598.08
592.439	592.88
592.89	586.98
593.34	569.68
593.791	580.48
594.241	569.38
594.692	558.38
595.142	564.78
595.593	562.38
596.043	569.78
596.493	564.08
596.943	567.68
597.394	587.48
597.844	576.78
598.294	589.38
598.744	617.88
599.195	626.48
599.645	650.38
600.095	681.18
600.545	732.78
600.995	762.88
601.445	800.98
601.895	853.38
602.345	894.48
602.795	884.68
603.245	839.88
603.695	807.38
604.145	762.68
604.594	726.88
605.044	685.38
605.494	645.78
605.944	601.58
606.393	594.98
606.843	577.28
607.293	573.98
607.743	575.28
608.192	575.18
608.642	587.98
609.091	590.58
609.541	591.98
609.99	589.88
610.44	577.38
610.889	553.58
611.339	546.98
611.788	529.58
612.238	532.98
612.687	557.58
613.136	544.88
613.586	547.08
614.035	547.98
614.484	557.98
614.933	545.18
615.383	553.58
615.832	545.38
616.281	544.98
616.73	527.18
617.179	515.48
617.628	505.48
618.077	496.68
618.526	483.48
618.975	485.18
619.424	477.48
619.873	470.68
620.322	475.78
620.771	463.48
621.22	467.88
621.669	456.38
622.118	446.88
622.567	440.98
623.015	435.78
623.464	437.08
623.913	428.18
624.361	417.38
624.81	424.08
625.259	425.38
625.707	426.78
626.156	424.28
626.604	430.98
627.053	433.18
627.501	429.08
627.95	429.88
628.398	438.28
628.847	434.18
629.295	428.68
629.744	433.28
630.192	432.48
630.64	426.68
631.089	421.38
631.537	410.48
631.985	400.68
632.433	405.58
632.881	389.68
633.33	402.48
633.778	392.68
634.226	389.68
634.674	404.68
635.122	409.38
635.57	411.48
636.018	424.88
636.466	425.88
636.914	421.38
637.362	434.58
637.81	437.18
638.258	434.78
638.705	436.38
639.153	455.38
639.601	463.28
640.049	483.28
640.497	497.78
640.944	522.18
641.392	490.38
641.84	464.68
642.287	442.48
642.735	418.68
643.182	426.18
643.63	417.58
644.078	419.18
644.525	442.28
644.973	432.88
645.42	441.18
645.867	453.28
646.315	473.88
646.762	488.48
647.21	508.48
647.657	518.88
648.104	550.18
648.551	553.58
648.999	595.58
649.446	645.58
649.893	705.38
650.34	790.08
650.787	940.48
651.234	1142.78
651.682	1459.58
652.129	1936.58
652.576	2736.78
653.023	3967.78
653.47	5475.48
653.917	6939.98
654.363	8114.28
654.81	9148.18
655.257	8719.68
655.704	5808.88
656.151	3498.88
656.598	2271.98
657.044	1627.68
657.491	1272.68
657.938	1029.68
658.385	867.88
658.831	738.88
659.278	674.08
659.724	602.08
660.171	556.58
660.618	513.28
661.064	483.48
661.511	451.88
661.957	455.28
662.404	446.28
662.85	460.88
663.296	435.88
663.743	418.48
664.189	390.78
664.635	385.78
665.082	387.18
665.528	388.48
665.974	379.68
666.42	372.58
666.867	364.28
667.313	342.78
667.759	345.58
668.205	319.28
668.651	327.68
669.097	326.38
669.543	326.58
669.989	329.28
670.435	326.08
670.881	325.28
671.327	332.68
671.773	336.08
672.219	367.28
672.665	400.98
673.11	424.88
673.556	460.38
674.002	489.68
674.448	482.38
674.893	406.38
675.339	350.58
675.785	320.18
676.23	308.18
676.676	288.98
677.122	275.28
677.567	266.58
678.013	267.98
678.458	267.08
678.904	259.78
679.349	256.18
679.794	261.08
680.24	253.38
680.685	256.48
681.131	253.48
681.576	255.08
682.021	263.38
682.466	257.08
682.912	249.68
683.357	249.58
683.802	272.18
684.247	291.98
684.692	325.28
685.137	361.78
685.583	391.78
686.028	418.68
686.473	379.38
686.918	328.58
687.363	304.18
687.807	282.18
688.252	268.38
688.697	262.08
689.142	245.08
689.587	234.58
690.032	233.38
690.477	243.98
690.921	250.68
691.366	281.48
691.811	291.98
692.255	316.88
692.7	333.78
693.145	360.78
693.589	477.08
694.034	780.18
694.478	1095.08
694.923	1279.18
695.367	1694.98
695.812	897.28
696.256	367.98
696.701	271.28
697.145	243.68
697.59	243.38
698.034	233.78
698.478	239.78
698.922	239.58
699.367	234.08
699.811	242.88
700.255	252.78
700.699	268.98
701.143	297.98
701.588	338.08
702.032	373.78
702.476	372.58
702.92	356.28
703.364	357.18
703.808	444.38
704.252	717.38
704.696	1021.38
705.14	1231.28
705.584	1596.68
706.027	785.38
706.471	385.58
706.915	294.38
707.359	260.38
707.803	231.38
708.246	223.48
708.69	230.98
709.134	230.78
709.577	224.48
710.021	234.08
710.465	216.18
710.908	220.98
711.352	214.48
711.795	230.28
712.239	259.88
712.682	269.48
713.126	301.28
713.569	332.98
714.012	258.98
714.456	220.38
714.899	204.18
715.342	197.18
715.786	188.58
716.229	190.18
716.672	177.78
717.115	184.08
717.558	183.18
718.002	175.78
718.445	192.18
718.888	207.58
719.331	212.28
719.774	225.28
720.217	216.48
720.66	205.18
721.103	188.18
721.546	185.28
721.989	181.18
722.432	163.18
722.874	170.58
723.317	164.08
723.76	173.18
724.203	180.58
724.645	221.68
725.088	298.48
725.531	403.38
725.974	472.08
726.416	406.68
726.859	220.58
727.301	171.78
727.744	170.98
728.187	173.78
728.629	175.38
729.071	167.88
729.514	176.58
729.956	194.68
730.399	203.68
730.841	206.18
731.283	192.08
731.726	191.58
732.168	184.38
732.61	197.68
733.053	200.28
733.495	220.38
733.937	251.88
734.379	278.68
734.821	308.28
735.263	370.18
735.705	564.88
736.148	1073.58
736.59	1829.28
737.032	2295.18
737.474	1889.08
737.916	608.18
738.357	307.18
738.799	236.78
739.241	209.58
739.683	198.28
740.125	212.18
740.567	219.18
741.008	235.98
741.45	238.48
741.892	227.28
742.334	259.08
742.775	278.68
743.217	270.98
743.658	201.88
744.1	190.28
744.542	196.08
744.983	248.38
745.425	282.48
745.866	279.88
746.307	213.28
746.749	200.58
747.19	230.28
747.632	313.58
748.073	584.08
748.514	1272.28
748.956	2038.88
749.397	2565.38
749.838	2148.58
750.279	2230.28
750.72	1128.28
751.162	409.18
751.603	230.48
752.044	182.08
752.485	153.98
752.926	154.48
753.367	146.18
753.808	139.88
754.249	139.68
754.69	132.28
755.131	124.38
755.572	127.58
756.013	132.58
756.453	133.98
756.894	128.08
757.335	139.58
757.776	131.98
758.216	138.48
758.657	138.18
759.098	142.78
759.538	153.88
759.979	187.78
760.42	261.28
760.86	475.88
761.301	1236.98
761.741	3107.58
762.182	4985.68
762.622	3538.48
763.063	997.18
763.503	395.08
763.943	238.28
764.384	195.68
764.824	177.48
765.264	170.58
765.705	148.28
766.145	135.68
766.585	120.78
767.025	115.08
767.465	122.18
767.906	125.08
768.346	138.68
768.786	142.08
769.226	155.38
769.666	215.78
770.106	412.98
770.546	1048.28
770.986	1940.58
771.426	1798.48
771.866	583.58
772.306	229.08
772.745	141.88
773.185	123.38
773.625	117.88
774.065	102.38
774.505	119.88
774.944	161.48
775.384	279.98
775.824	527.18
776.263	521.08
776.703	236.48
777.142	123.18
777.582	97.88
778.021	89.88
778.461	85.78
778.9	88.88
779.34	89.18
779.779	75.18
780.219	71.38
780.658	70.48
781.097	79.68
781.537	82.68
781.976	82.78
782.415	70.48
782.855	69.78
783.294	68.98
783.733	69.28
784.172	77.38
784.611	73.98
785.05	79.28
785.489	80.48
785.928	84.98
786.367	79.98
786.806	82.78
787.245	85.28
787.684	99.18
788.123	105.08
788.562	95.58
789.001	91.78
789.44	83.38
789.879	86.58
790.317	84.68
790.756	96.18
791.195	84.78
791.634	99.78
792.072	147.78
792.511	237.88
792.95	666.48
793.388	1545.88
793.827	1473.28
794.265	494.38
794.704	205.18
795.142	132.78
795.581	116.28
796.019	101.08
796.458	90.28
796.896	80.28
797.334	86.78
797.773	114.68
798.211	153.78
798.649	297.88
799.087	713.58
799.526	1139.88
799.964	1441.48
800.402	1536.48
800.84	567.58
801.278	221.78
801.716	136.48
802.154	113.58
802.592	109.58
803.03	101.78
803.468	92.68
803.906	97.48
804.344	114.68
804.782	101.28
805.22	101.28
805.658	93.98
806.096	105.98
806.533	111.48
806.971	135.88
807.409	160.88
807.847	218.78
808.284	447.58
808.722	1301.08
809.16	2453.98
809.597	2276.38
810.035	4003.38
810.472	4638.38
810.91	1651.38
811.347	601.58
811.785	307.88
812.222	194.68
812.66	141.08
813.097	125.78
813.535	99.78
813.972	92.88
814.409	89.98
814.846	73.28
815.284	77.28
815.721	78.28
816.158	83.18
816.595	86.18
817.032	124.18
817.47	155.38
817.907	112.68
818.344	72.48
818.781	71.78
819.218	74.08
819.655	97.28
820.092	156.68
820.529	192.48
820.966	144.08
821.403	106.38
821.839	73.98
822.276	73.08
822.713	91.58
823.15	111.28
823.587	84.08
824.023	104.78
824.46	206.28
824.897	626.58
825.333	1016.58
825.77	438.08
826.206	169.88
826.643	98.98
827.08	80.78
827.516	52.68
827.953	53.88
828.389	59.88
828.825	50.68
829.262	49.98
829.698	49.58
830.135	42.38
830.571	44.68
831.007	45.38
831.443	46.98
831.88	47.88
832.316	42.78
832.752	46.88
833.188	48.38
833.624	45.78
834.06	52.18
834.497	42.58
834.933	50.58
835.369	56.58
835.805	44.18
836.241	52.68
836.677	53.88
837.112	63.08
837.548	80.98
837.984	95.18
838.42	141.08
838.856	332.78
839.292	1084.48
839.727	1762.68
840.163	815.98
840.599	660.38
841.034	1483.48
841.47	1658.58
841.906	596.08
842.341	237.48
842.777	148.48
843.212	163.28
843.648	161.18
844.083	88.18
844.519	54.38
844.954	48.28
845.39	37.78
845.825	39.58
846.261	39.48
846.696	36.38
847.131	33.38
847.566	40.38
848.002	36.88
848.437	35.98
848.872	41.18
849.307	44.08
849.742	54.58
850.177	118.18
850.613	388.58
851.048	661.48
851.483	290.98
851.918	112.98
852.353	63.08
852.788	40.78
853.223	35.38
853.657	37.68
854.092	28.78
854.527	25.78
854.962	26.38
855.397	32.78
855.832	38.28
856.266	34.18
856.701	27.58
857.136	27.68
857.57	32.58
858.005	42.48
858.44	44.88
858.874	33.38
859.309	42.68
859.743	25.58
860.178	33.98
860.612	28.68
861.047	40.48
861.481	53.38
861.915	61.88
862.35	41.58
862.784	28.38
863.218	26.58
863.653	23.28
864.087	34.38
864.521	41.98
864.955	41.88
865.39	109.98
865.824	128.58
866.258	93.08
866.692	153.38
867.126	166.18
867.56	99.88
867.994	48.28
868.428	31.38
868.862	36.68
869.296	49.28
869.73	50.18
870.164	51.68
870.598	40.48
871.031	33.98
871.465	20.48
871.899	21.98
872.333	16.08
872.766	19.98
873.2	18.18
873.634	17.18
874.067	7.78
874.501	15.58
874.935	31.38
875.368	21.88
875.802	15.38
876.235	11.48
876.669	19.98
877.102	17.18
877.535	18.98
877.969	17.48
878.402	16.18
878.836	10.88
879.269	15.48
879.702	21.68
880.135	12.98
880.569	21.48
881.002	19.18
881.435	21.18
881.868	7.88
882.301	16.98
882.734	13.38
883.167	21.58
883.601	17.08
884.034	13.88
884.467	7.68
884.899	8.88
885.332	8.78
885.765	11.48
886.198	15.28
886.631	16.68
887.064	18.28
887.497	13.18
887.929	21.88
888.362	13.48
888.795	4.18
889.228	11.88
889.66	19.28
890.093	13.68
890.526	10.48
890.958	7.78
891.391	9.18
891.823	11.98
892.256	14.38
892.688	11.88
893.121	9.18
893.553	14.38
893.985	20.78
894.418	11.08
894.85	9.18
895.282	12.28
895.715	12.48
896.147	14.48
896.579	11.58
897.011	12.68
897.444	11.68
897.876	6.28
898.308	12.98
898.74	9.28
899.172	8.58
899.604	15.58
900.036	11.58
900.468	3.78
900.9	12.28
901.332	11.68
901.764	8.98
902.196	12.08
902.628	12.28
903.06	12.68
903.491	24.78
903.923	26.98
904.355	16.68
904.787	20.58
905.218	16.18
905.65	16.68
906.082	5.28
906.513	-0.92
906.945	6.88
907.376	4.48
907.808	12.98
908.239	14.48
908.671	8.38
909.102	10.08
909.534	18.98
909.965	33.58
910.397	62.98
910.828	223.58
911.259	364.78
911.691	164.28
912.122	77.98
912.553	34.68
912.984	23.08
913.415	17.28
913.847	19.78
914.278	10.58
914.709	5.38
915.14	13.48
915.571	12.18
916.002	11.98
916.433	16.58
916.864	12.18
917.295	11.08
917.726	7.98
918.157	12.88
918.587	16.28
919.018	15.68
919.449	18.18
919.88	14.98
920.311	21.28
920.741	31.58
921.172	122.08
921.603	106.58
922.033	51.68
922.464	34.78
922.895	15.68
923.325	17.38
923.756	8.78
924.186	5.88
924.617	8.38
925.047	16.58
925.478	16.18
925.908	19.28
926.338	7.98
926.769	12.28
927.199	16.08
927.629	2.08
928.06	17.08
928.49	15.68
928.92	11.28
929.35	5.88
929.78	12.98
930.21	2.98
930.641	8.58
931.071	10.08
931.501	0.58
931.931	5.08
932.361	5.18
932.791	2.38
933.221	3.88
933.651	5.78
934.08	6.78
934.51	19.48
934.94	4.38
935.37	2.28
935.8	7.68
936.229	7.98
936.659	11.48
937.089	-3.02
937.519	13.18
937.948	25.18
938.378	17.98
938.807	2.18
939.237	-0.12
939.666	5.38
940.096	-10.52
940.525	-0.72
940.955	3.88
941.384	4.28
941.814	-5.02
942.243	0.28
942.672	-4.72
943.102	-6.22
943.531	-3.42
943.96	6.18
944.39	3.08
944.819	0.78
945.248	7.48
945.677	3.78
946.106	1.98
946.535	10.28
946.964	0.18
947.393	2.58
947.822	-1.22
948.251	-3.82
948.68	0.08
949.109	-0.92
949.538	2.88
949.967	1.38
950.396	0.68
950.825	-0.42
951.254	1.48
951.682	-8.52
952.111	3.88
952.54	6.18
952.969	-5.52
953.397	-9.72
953.826	-8.72
954.254	-7.02
954.683	1.78
955.112	-0.72
955.54	-0.72
955.969	3.28
956.397	-2.12
956.826	-2.92
957.254	3.98
957.682	2.98
958.111	4.98
958.539	-0.62
958.967	4.88
959.396	-2.02
959.824	1.18
960.252	-3.52
960.68	-4.42
961.109	-3.02
961.537	-4.12
961.965	-4.02
962.393	-1.62
962.821	-8.82
963.249	4.08
963.677	7.48
964.105	-0.82
964.533	29.28
964.961	28.78
965.389	16.58
965.817	1.68
966.245	3.88
966.672	-3.02
967.1	-10.72
967.528	1.98
967.956	-8.62
968.383	4.08
968.811	-3.12
969.239	5.38
969.666	-2.82
970.094	-1.12
970.522	-1.42
970.949	2.08
971.377	-4.12
971.804	1.48
972.232	-2.82
972.659	-3.72
973.087	-3.92
973.514	-3.62
973.941	-5.82
974.369	2.08
974.796	3.68
975.223	-2.62
975.651	-6.02
976.078	1.58
976.505	-3.02
976.932	2.78
977.359	7.98
977.786	11.18
978.214	-3.12
978.641	-3.92
979.068	-4.62
979.495	-5.92
979.922	-1.22
980.349	-3.92
980.776	1.28
981.202	-0.02
981.629	7.08
982.056	1.38
982.483	4.58
982.91	1.18
983.337	-9.42
983.763	-2.62
984.19	-2.02
984.617	-5.22
985.043	-7.42
985.47	-3.32
985.897	-7.52
986.323	-4.92
986.75	4.98
987.176	-0.92
987.603	1.28
988.029	-2.12
988.456	0.58
988.882	-0.82
989.308	-9.92
989.735	-5.92
990.161	-5.02
990.587	-4.42
991.014	0.98
991.44	12.38
991.866	3.28
992.292	-7.42
992.719	-6.62
993.145	1.48
993.571	-5.92
993.997	-7.02
994.423	-7.72
994.849	-3.82
995.275	0.88
995.701	0.18
996.127	-6.32
996.553	-2.72
996.979	-1.02
997.405	-6.02
997.83	-0.32
998.256	-7.02
998.682	-5.82
999.108	-8.12
999.534	0.38
999.959	-3.32
1000.385	-3.12
1000.811	0.48
1001.236	-13.82
1001.662	-5.22
1002.087	-7.72
1002.513	-3.12
1002.938	0.08
1003.364	-4.42
1003.789	-4.42
1004.215	-0.52
1004.64	4.78
1005.066	0.78
1005.491	3.18
1005.916	-0.52
1006.342	-0.52
1006.767	-10.92
1007.192	8.48
1007.617	-2.62
1008.042	-3.72
1008.468	-5.12
1008.893	-10.22
1009.318	-4.12
1009.743	-2.62
1010.168	-1.12
1010.593	-2.82
1011.018	-4.42
1011.443	-5.92
1011.868	0.78
1012.293	-2.32
1012.718	-16.92
1013.143	1.48
1013.567	-6.02
1013.992	1.08
1014.417	-10.52
1014.842	5.48
1015.267	-6.22
1015.691	-2.62
1016.116	3.38
1016.541	-4.62
1016.965	1.48
1017.39	-0.62
1017.814	-1.72
1018.239	-3.82
1018.663	-9.22
1019.088	-7.82
1019.512	-0.02
1019.937	1.38
1020.361	-5.62
1020.785	-5.12
1021.21	0.18
1021.634	-4.32
1022.058	-3.52
1022.483	0.78
1022.907	-1.32
1023.331	-3.02
1023.755	-10.32
1024.179	-1.22
1024.604	-2.82
1025.028	-7.32
1025.452	-4.42
1025.876	1.58
1026.3	0.08
1026.724	-13.42
1027.148	-3.62
1027.572	-8.72
1027.996	-3.22
1028.42	-4.12
1028.843	-4.92
1029.267	-6.52
1029.691	-1.02
1030.115	-3.92
1030.539	-5.12
1030.962	-7.02
1031.386	-9.42
1031.81	-1.32
1032.233	3.98
1032.657	-5.62
1033.08	-1.12
1033.504	-2.12
1033.927	0.88
1034.351	-2.92
1034.774	-4.72
1035.198	0.88
1035.621	-9.02
1036.045	-5.12
1036.468	0.58
1036.891	-6.12
1037.315	-10.72
1037.738	-11.62
1038.161	0.58
1038.584	-0.12
1039.008	-4.32
1039.431	0.48
1039.854	-2.92
1040.277	-7.02
1040.7	-9.62
1041.123	0.08
1041.546	-1.52
1041.969	-8.32
1042.392	-5.42
1042.815	0.48
1043.238	0.38
1043.661	-3.82
1044.084	-3.52
1044.507	-2.92
1044.93	-4.52
1045.352	-7.02
1045.775	1.28
1046.198	1.48
1046.621	-3.62
1047.043	1.58
1047.466	1.88
1047.889	-3.82
1048.311	2.48
1048.734	-6.02
1049.156	-3.62
1049.579	-1.02
1050.001	-2.92
1050.424	-4.62
1050.846	-1.82
1051.269	-3.52
1051.691	-4.22
1052.113	-10.92
1052.536	3.98
1052.958	-1.22
1053.38	-2.32
1053.802	-5.32
1054.225	1.68
1054.647	-5.22
1055.069	-5.72
1055.491	-2.42
1055.913	-8.12
1056.335	-3.02
1056.757	3.78
1057.179	-13.72
1057.601	-7.32
1058.023	-8.72
1058.445	-2.42
1058.867	-5.42
1059.289	-1.22
1059.711	-4.32
1060.133	-3.22
1060.555	-5.02
1060.976	-4.02
1061.398	-4.92
1061.82	-6.42
1062.241	-8.92
1062.663	-8.12
1063.085	-7.32
1063.506	-2.32
1063.928	-2.02
1064.35	-4.02
1064.771	-13.22
1065.193	2.28
1065.614	-9.52
1066.035	-3.62
1066.457	-8.82
1066.878	-4.72
1067.3	-8.12
1067.721	-7.52
1068.142	-3.92
1068.564	-5.12
1068.985	-3.72
1069.406	-3.62
1069.827	-2.12
1070.248	-0.12
1070.67	-2.62
1071.091	-4.92
1071.512	-5.82
1071.933	-4.32
1072.354	-5.42
1072.775	-8.52
1073.196	-14.32
1073.617	-7.62
1074.038	-8.62
1074.459	-0.92
1074.88	-9.32
1075.3	5.68
1075.721	-2.02
1076.142	2.78
1076.563	-2.52
1076.983	-10.42
1077.404	-4.02
1077.825	-10.02
1078.246	-4.12
1078.666	-5.82
1079.087	0.88
1079.507	-9.82
1079.928	-2.42
1080.348	1.48
1080.769	-9.22
1081.189	4.28
1081.61	-2.82
1082.03	-5.22
1082.451	-9.42
1082.871	-4.32
1083.291	-10.02
1083.711	-10.22
1084.132	-4.52
1084.552	-6.92
1084.972	3.58
1085.392	-9.42
1085.813	-8.52
1086.233	-12.32
1086.653	-4.42
1087.073	-3.62
1087.493	-14.82
1087.913	-9.52
1088.333	-6.62
1088.753	-4.72
1089.173	3.08
1089.593	-5.12
1090.013	-1.22
1090.433	1.38
1090.852	-4.22
1091.272	3.98
1091.692	-2.12
1092.112	-4.22
1092.531	-5.92
1092.951	-13.12
1093.371	-3.62
1093.79	0.18
1094.21	-6.42
1094.63	-5.02
1095.049	-1.82
1095.469	-1.92
1095.888	-9.42
1096.308	-4.52
1096.727	0.98
1097.146	-11.52
1097.566	4.08
1097.985	-2.42
1098.405	-2.32
1098.824	-7.52
1099.243	-6.22
1099.662	-10.62
1100.082	-1.52
1100.501	-6.82
1100.92	-6.12
1101.339	-10.52
1101.758	-4.12
