Data from 20171114-ORNL-Ar_H_NY_Subt18_08-08-40-498.txt Node
Date: Tue Nov 14 08:08:40 EST 2017
User: Ender
Spectrometer: HR+D1039
Trigger mode: 0
Integration Time (sec): 2.730000E-2
Scans to average: 10
Electric dark correction enabled: true
Nonlinearity correction enabled: false
Boxcar width: 0
XAxis mode: Wavelengths
Number of Pixels in Spectrum: 2048
>>>>>Begin Spectral Data<<<<<
187.836	-7.09
188.309	-7.09
188.782	-7.09
189.255	5.31
189.728	0.11
190.201	5.91
190.674	1.51
191.147	3.21
191.619	-10.69
192.092	0.21
192.565	2.31
193.038	2.21
193.511	3.11
193.984	0.51
194.456	-0.79
194.929	-0.59
195.402	-2.19
195.874	-3.09
196.347	-2.89
196.82	-7.99
197.292	0.91
197.765	-1.19
198.237	-3.29
198.71	0.71
199.182	2.01
199.655	-1.59
200.127	1.91
200.6	-3.99
201.072	6.41
201.544	-4.79
202.017	-2.19
202.489	2.71
202.961	5.01
203.433	-3.99
203.906	-8.59
204.378	-5.49
204.85	4.31
205.322	-8.19
205.794	3.01
206.266	-0.79
206.739	-2.69
207.211	3.21
207.683	-14.79
208.155	-8.39
208.627	-9.49
209.099	-2.69
209.57	-12.59
210.042	-1.09
210.514	1.51
210.986	0.71
211.458	-9.99
211.93	-2.29
212.402	3.21
212.873	-5.69
213.345	-8.89
213.817	-10.39
214.288	-5.59
214.76	-15.19
215.232	-5.59
215.703	2.61
216.175	-2.89
216.646	-7.09
217.118	-5.19
217.589	-6.09
218.061	-3.29
218.532	-6.39
219.004	-2.79
219.475	-1.69
219.946	-0.89
220.418	-4.59
220.889	-1.19
221.36	-0.59
221.832	-2.59
222.303	-5.89
222.774	0.91
223.245	-8.69
223.717	-5.59
224.188	-8.59
224.659	0.71
225.13	-5.69
225.601	0.31
226.072	4.71
226.543	-4.09
227.014	1.61
227.485	-3.99
227.956	-6.59
228.427	-4.99
228.898	-0.09
229.369	0.01
229.839	1.21
230.31	-3.49
230.781	-2.59
231.252	-2.09
231.722	-7.59
232.193	-4.09
232.664	-2.09
233.135	1.21
233.605	-1.29
234.076	-4.79
234.546	-2.19
235.017	5.41
235.487	-0.59
235.958	-6.39
236.428	-5.49
236.899	1.11
237.369	-0.59
237.84	-7.89
238.31	-1.49
238.78	-1.09
239.251	-10.89
239.721	-3.99
240.191	3.91
240.662	-2.49
241.132	-0.09
241.602	-6.39
242.072	-3.39
242.542	2.71
243.013	-1.39
243.483	0.41
243.953	2.61
244.423	-4.49
244.893	-5.49
245.363	6.01
245.833	-1.09
246.303	-4.19
246.773	0.81
247.243	-3.89
247.712	0.41
248.182	7.01
248.652	-1.79
249.122	-8.29
249.592	8.31
250.061	5.51
250.531	13.21
251.001	0.81
251.471	3.71
251.94	7.61
252.41	-5.69
252.879	-1.59
253.349	9.31
253.818	6.11
254.288	3.81
254.757	4.61
255.227	-0.39
255.696	-1.29
256.166	7.81
256.635	2.41
257.105	0.61
257.574	1.41
258.043	0.61
258.513	-3.89
258.982	4.91
259.451	1.21
259.92	0.51
260.389	-2.49
260.859	9.41
261.328	5.11
261.797	3.91
262.266	4.01
262.735	2.31
263.204	5.81
263.673	-1.69
264.142	6.51
264.611	-4.09
265.08	-3.79
265.549	-2.79
266.018	5.71
266.487	0.91
266.955	-5.99
267.424	-6.69
267.893	-0.39
268.362	4.51
268.83	4.21
269.299	5.81
269.768	2.41
270.236	0.91
270.705	-0.59
271.174	2.81
271.642	1.21
272.111	4.81
272.579	-2.69
273.048	5.61
273.516	9.31
273.985	5.71
274.453	3.81
274.922	11.41
275.39	5.61
275.858	-4.89
276.327	5.41
276.795	6.71
277.263	5.21
277.731	10.31
278.2	15.11
278.668	12.21
279.136	16.71
279.604	9.61
280.072	8.21
280.54	11.21
281.008	7.91
281.477	11.31
281.945	10.51
282.413	12.21
282.881	10.71
283.348	7.71
283.816	12.51
284.284	10.01
284.752	16.61
285.22	11.71
285.688	16.01
286.156	10.51
286.623	20.71
287.091	6.31
287.559	10.81
288.026	13.01
288.494	8.61
288.962	2.31
289.429	9.91
289.897	13.61
290.364	10.11
290.832	15.61
291.3	12.21
291.767	10.61
292.234	17.01
292.702	10.61
293.169	17.11
293.637	14.31
294.104	17.11
294.571	3.41
295.039	7.41
295.506	12.01
295.973	15.61
296.44	9.61
296.908	16.11
297.375	14.81
297.842	10.91
298.309	12.91
298.776	9.31
299.243	11.41
299.71	8.91
300.177	14.31
300.644	15.81
301.111	18.01
301.578	14.71
302.045	8.11
302.512	15.71
302.979	19.51
303.446	16.51
303.913	16.51
304.379	15.61
304.846	26.51
305.313	19.21
305.78	17.51
306.246	20.21
306.713	20.01
307.18	22.01
307.646	16.61
308.113	24.91
308.579	22.31
309.046	25.01
309.512	23.81
309.979	9.41
310.445	21.41
310.912	32.41
311.378	28.01
311.845	25.31
312.311	27.61
312.777	20.91
313.244	22.11
313.71	28.01
314.176	23.71
314.642	25.01
315.109	26.41
315.575	31.71
316.041	27.91
316.507	29.91
316.973	29.11
317.439	28.41
317.905	34.81
318.371	26.61
318.837	30.21
319.303	27.91
319.769	32.51
320.235	28.11
320.701	32.11
321.167	29.21
321.633	28.51
322.099	34.41
322.564	40.71
323.03	35.71
323.496	31.01
323.962	37.11
324.427	35.01
324.893	36.71
325.359	32.01
325.824	35.61
326.29	29.51
326.755	29.41
327.221	34.41
327.686	36.01
328.152	41.71
328.617	39.81
329.083	45.51
329.548	48.01
330.014	42.41
330.479	37.51
330.944	38.41
331.41	38.11
331.875	50.81
332.34	39.71
332.805	43.61
333.271	40.81
333.736	37.51
334.201	42.21
334.666	46.41
335.131	46.71
335.596	49.01
336.061	44.51
336.526	39.01
336.991	46.11
337.456	49.81
337.921	40.41
338.386	43.81
338.851	46.71
339.316	39.11
339.781	51.81
340.246	48.01
340.711	45.11
341.175	54.91
341.64	46.81
342.105	48.41
342.569	55.61
343.034	49.31
343.499	51.11
343.963	48.41
344.428	62.81
344.893	59.01
345.357	55.41
345.822	58.51
346.286	59.71
346.751	67.31
347.215	64.41
347.679	65.11
348.144	85.51
348.608	73.11
349.073	64.51
349.537	70.11
350.001	81.01
350.465	82.81
350.93	76.91
351.394	75.41
351.858	65.61
352.322	81.41
352.786	67.41
353.25	86.61
353.715	106.51
354.179	89.21
354.643	107.01
355.107	109.51
355.571	96.81
356.035	90.61
356.498	110.11
356.962	105.91
357.426	112.61
357.89	112.21
358.354	88.21
358.818	76.21
359.281	72.61
359.745	70.01
360.209	72.11
360.673	67.71
361.136	79.61
361.6	79.61
362.064	79.31
362.527	77.81
362.991	86.31
363.454	73.81
363.918	67.71
364.381	74.21
364.845	81.01
365.308	86.61
365.772	78.61
366.235	84.81
366.698	79.01
367.162	73.71
367.625	81.11
368.088	88.51
368.552	85.61
369.015	85.31
369.478	87.01
369.941	89.01
370.404	86.71
370.867	95.81
371.331	100.41
371.794	98.71
372.257	95.71
372.72	97.71
373.183	102.21
373.646	88.61
374.109	90.51
374.572	98.31
375.035	96.61
375.497	105.31
375.96	99.11
376.423	101.11
376.886	108.51
377.349	108.21
377.811	100.51
378.274	101.11
378.737	99.01
379.199	106.31
379.662	106.61
380.125	113.11
380.587	99.21
381.05	108.21
381.512	110.91
381.975	121.01
382.437	121.31
382.9	118.01
383.362	118.71
383.825	126.71
384.287	129.81
384.75	123.71
385.212	119.31
385.674	143.51
386.136	133.41
386.599	119.01
387.061	122.71
387.523	117.31
387.985	126.81
388.447	128.51
388.91	124.21
389.372	125.51
389.834	134.61
390.296	125.81
390.758	137.21
391.22	139.01
391.682	150.91
392.144	174.31
392.606	153.41
393.068	140.21
393.529	150.91
393.991	139.31
394.453	130.61
394.915	133.11
395.377	139.31
395.838	144.91
396.3	145.11
396.762	135.81
397.224	134.21
397.685	135.21
398.147	134.71
398.608	139.91
399.07	133.91
399.531	140.41
399.993	149.41
400.454	155.61
400.916	149.01
401.377	143.41
401.839	154.11
402.3	153.91
402.762	166.71
403.223	180.51
403.684	173.51
404.145	162.71
404.607	165.11
405.068	167.71
405.529	166.81
405.99	182.61
406.451	177.21
406.913	179.41
407.374	165.11
407.835	166.61
408.296	174.31
408.757	177.61
409.218	184.81
409.679	183.71
410.14	174.41
410.601	180.51
411.062	181.21
411.522	190.81
411.983	185.11
412.444	177.51
412.905	193.51
413.366	188.71
413.826	202.31
414.287	224.51
414.748	270.11
415.208	253.81
415.669	221.71
416.13	222.61
416.59	219.11
417.051	223.71
417.511	232.31
417.972	245.91
418.432	258.91
418.893	298.61
419.353	267.41
419.814	212.01
420.274	194.31
420.734	192.71
421.195	205.81
421.655	201.11
422.115	198.71
422.576	197.61
423.036	208.91
423.496	216.81
423.956	216.31
424.416	236.81
424.876	281.41
425.336	265.11
425.797	268.31
426.257	273.61
426.717	251.11
427.177	244.51
427.637	233.11
428.097	244.21
428.556	259.91
429.016	279.91
429.476	269.41
429.936	285.21
430.396	286.21
430.856	292.51
431.315	323.31
431.775	352.91
432.235	389.01
432.694	357.61
433.154	369.21
433.614	391.91
434.073	334.71
434.533	287.81
434.993	272.01
435.452	285.51
435.912	294.01
436.371	294.11
436.83	293.21
437.29	267.11
437.749	259.91
438.209	252.71
438.668	282.91
439.127	298.11
439.587	270.91
440.046	254.01
440.505	271.91
440.964	288.21
441.424	342.91
441.883	321.51
442.342	273.91
442.801	247.21
443.26	239.11
443.719	239.51
444.178	237.21
444.637	226.71
445.096	240.41
445.555	238.31
446.014	239.31
446.473	241.51
446.932	249.21
447.391	246.01
447.849	244.71
448.308	238.61
448.767	234.61
449.226	246.11
449.685	258.31
450.143	265.11
450.602	260.71
451.061	239.11
451.519	248.01
451.978	248.71
452.436	249.01
452.895	252.41
453.353	265.31
453.812	261.71
454.27	255.41
454.729	251.71
455.187	257.71
455.646	257.51
456.104	267.31
456.562	273.31
457.021	283.71
457.479	268.81
457.937	277.21
458.395	278.11
458.854	269.61
459.312	275.31
459.77	295.31
460.228	267.11
460.686	261.81
461.144	269.01
461.602	263.51
462.06	268.51
462.518	272.51
462.976	268.01
463.434	281.41
463.892	281.71
464.35	288.21
464.808	307.51
465.266	282.01
465.724	283.71
466.181	298.71
466.639	291.41
467.097	312.91
467.555	321.91
468.012	324.81
468.47	332.61
468.928	346.01
469.385	353.11
469.843	363.61
470.3	366.31
470.758	380.21
471.215	403.21
471.673	446.91
472.13	433.81
472.588	445.41
473.045	398.81
473.503	406.61
473.96	417.61
474.417	427.61
474.875	456.11
475.332	494.71
475.789	491.41
476.246	498.31
476.704	515.71
477.161	530.21
477.618	550.61
478.075	597.01
478.532	639.21
478.989	724.21
479.446	817.41
479.903	780.41
480.36	819.31
480.817	867.71
481.274	947.61
481.731	1054.81
482.188	1131.01
482.645	1253.51
483.102	1346.71
483.558	1469.21
484.015	1513.91
484.472	1494.51
484.929	1447.91
485.385	1403.21
485.842	1358.31
486.299	1315.11
486.755	1273.91
487.212	1090.71
487.668	927.91
488.125	865.41
488.582	806.61
489.038	767.11
489.494	728.21
489.951	706.71
490.407	700.81
490.864	668.01
491.32	673.71
491.776	668.21
492.233	675.41
492.689	640.51
493.145	640.11
493.602	637.81
494.058	641.11
494.514	638.81
494.97	664.81
495.426	674.31
495.882	645.21
496.338	642.31
496.794	642.21
497.251	650.21
497.707	646.01
498.163	660.21
498.618	663.11
499.074	667.81
499.53	701.81
499.986	701.81
500.442	684.11
500.898	656.81
501.354	645.21
501.809	653.21
502.265	653.61
502.721	669.11
503.177	672.21
503.632	668.51
504.088	673.41
504.543	710.71
504.999	730.11
505.455	682.81
505.91	663.71
506.366	671.91
506.821	661.01
507.277	663.61
507.732	657.31
508.187	666.91
508.643	676.81
509.098	674.01
509.553	691.71
510.009	703.11
510.464	707.81
510.919	732.91
511.375	739.91
511.83	746.01
512.285	759.61
512.74	792.51
513.195	810.61
513.65	816.61
514.105	806.61
514.56	808.91
515.015	818.41
515.47	828.61
515.925	823.11
516.38	816.11
516.835	839.01
517.29	816.21
517.745	819.61
518.2	808.01
518.655	800.71
519.109	775.91
519.564	772.71
520.019	767.81
520.474	763.61
520.928	765.51
521.383	761.31
521.838	747.21
522.292	751.51
522.747	745.11
523.201	747.11
523.656	736.11
524.11	730.01
524.565	725.11
525.019	740.21
525.474	737.01
525.928	737.91
526.382	725.91
526.837	736.01
527.291	740.61
527.745	731.21
528.2	722.21
528.654	717.41
529.108	717.31
529.562	725.21
530.016	728.51
530.47	725.11
530.925	727.81
531.379	730.61
531.833	745.11
532.287	738.11
532.741	746.61
533.195	737.21
533.649	756.31
534.103	751.81
534.556	736.21
535.01	747.21
535.464	741.71
535.918	749.41
536.372	754.61
536.826	757.31
537.279	748.01
537.733	750.21
538.187	755.91
538.64	750.91
539.094	759.01
539.548	768.31
540.001	754.01
540.455	764.61
540.908	768.31
541.362	783.11
541.815	790.41
542.269	786.91
542.722	796.21
543.175	818.71
543.629	804.71
544.082	832.21
544.536	823.51
544.989	822.31
545.442	830.31
545.895	831.31
546.349	835.91
546.802	854.11
547.255	845.71
547.708	844.61
548.161	858.01
548.614	855.21
549.067	871.41
549.52	858.91
549.973	850.51
550.426	855.21
550.879	834.51
551.332	842.11
551.785	847.81
552.238	854.61
552.691	865.71
553.144	886.81
553.596	900.31
554.049	913.11
554.502	945.61
554.955	966.11
555.407	965.51
555.86	948.01
556.313	946.31
556.765	934.21
557.218	931.81
557.67	930.01
558.123	926.81
558.576	920.01
559.028	925.21
559.48	936.51
559.933	928.61
560.385	890.31
560.838	854.41
561.29	831.11
561.742	833.61
562.195	818.01
562.647	811.31
563.099	823.71
563.551	825.71
564.004	836.01
564.456	817.11
564.908	800.21
565.36	788.81
565.812	770.81
566.264	756.31
566.716	756.31
567.168	753.01
567.62	757.11
568.072	745.71
568.524	732.01
568.976	722.01
569.428	729.71
569.88	712.61
570.332	729.21
570.784	717.81
571.235	729.21
571.687	731.21
572.139	742.61
572.59	765.11
573.042	752.81
573.494	753.11
573.945	750.71
574.397	723.71
574.849	732.61
575.3	730.61
575.752	735.41
576.203	725.21
576.655	727.91
577.106	709.61
577.557	709.91
578.009	713.81
578.46	716.01
578.912	702.21
579.363	718.61
579.814	707.51
580.265	705.91
580.717	708.11
581.168	710.61
581.619	721.01
582.07	725.91
582.521	716.11
582.972	708.71
583.423	717.41
583.875	715.31
584.326	732.61
584.777	742.11
585.227	774.81
585.678	791.51
586.129	814.81
586.58	831.31
587.031	867.71
587.482	901.91
587.933	949.71
588.384	914.11
588.834	851.01
589.285	821.81
589.736	820.91
590.186	812.11
590.637	812.01
591.088	788.21
591.538	781.11
591.989	779.81
592.439	762.31
592.89	760.11
593.34	741.41
593.791	741.71
594.241	750.51
594.692	747.11
595.142	735.91
595.593	730.81
596.043	746.61
596.493	747.91
596.943	747.21
597.394	758.81
597.844	764.71
598.294	785.91
598.744	803.41
599.195	832.81
599.645	877.21
600.095	916.71
600.545	977.91
600.995	1029.81
601.445	1080.81
601.895	1157.81
602.345	1204.01
602.795	1188.01
603.245	1132.01
603.695	1064.51
604.145	1013.01
604.594	962.81
605.044	911.11
605.494	855.31
605.944	803.61
606.393	787.11
606.843	762.01
607.293	772.51
607.743	769.71
608.192	784.51
608.642	797.41
609.091	795.81
609.541	803.01
609.99	819.91
610.44	806.71
610.889	760.11
611.339	740.01
611.788	728.51
612.238	728.71
612.687	744.61
613.136	744.31
613.586	745.81
614.035	731.81
614.484	756.91
614.933	751.81
615.383	764.51
615.832	751.31
616.281	744.71
616.73	706.81
617.179	689.91
617.628	682.51
618.077	664.61
618.526	651.21
618.975	651.41
619.424	652.71
619.873	646.81
620.322	645.21
620.771	642.61
621.22	636.41
621.669	628.51
622.118	621.31
622.567	619.41
623.015	604.61
623.464	607.21
623.913	593.21
624.361	583.41
624.81	576.91
625.259	584.51
625.707	586.11
626.156	595.71
626.604	601.41
627.053	603.81
627.501	601.41
627.95	604.91
628.398	619.81
628.847	616.71
629.295	606.31
629.744	603.81
630.192	602.61
630.64	592.71
631.089	587.61
631.537	575.81
631.985	558.41
632.433	574.11
632.881	557.71
633.33	567.81
633.778	568.21
634.226	555.01
634.674	575.31
635.122	576.81
635.57	586.41
636.018	591.91
636.466	596.61
636.914	596.51
637.362	607.61
637.81	617.41
638.258	616.81
638.705	622.01
639.153	654.61
639.601	662.91
640.049	674.11
640.497	700.91
640.944	729.11
641.392	678.31
641.84	655.81
642.287	616.01
642.735	590.91
643.182	601.11
643.63	603.51
644.078	612.41
644.525	611.51
644.973	621.71
645.42	634.51
645.867	662.31
646.315	676.91
646.762	684.71
647.21	728.41
647.657	746.21
648.104	780.61
648.551	797.01
648.999	858.41
649.446	945.51
649.893	1031.61
650.34	1171.41
650.787	1401.11
651.234	1736.41
651.682	2228.11
652.129	3033.31
652.576	4296.71
653.023	6251.41
653.47	8455.31
653.917	10421.01
654.363	11918.91
654.81	13034.21
655.257	12361.11
655.704	8211.51
656.151	4970.01
656.598	3257.41
657.044	2347.21
657.491	1813.71
657.938	1470.41
658.385	1240.21
658.831	1078.51
659.278	976.71
659.724	871.01
660.171	822.51
660.618	744.91
661.064	711.31
661.511	690.51
661.957	675.21
662.404	665.91
662.85	684.01
663.296	656.01
663.743	593.51
664.189	562.91
664.635	560.41
665.082	560.71
665.528	556.81
665.974	550.31
666.42	538.21
666.867	537.11
667.313	512.51
667.759	499.01
668.205	486.11
668.651	491.11
669.097	471.91
669.543	475.81
669.989	473.61
670.435	472.41
670.881	475.91
671.327	479.41
671.773	505.21
672.219	531.81
672.665	583.71
673.11	626.31
673.556	674.51
674.002	719.41
674.448	708.31
674.893	590.51
675.339	512.21
675.785	475.21
676.23	450.71
676.676	419.31
677.122	417.41
677.567	398.21
678.013	395.31
678.458	391.91
678.904	383.31
679.349	370.31
679.794	379.91
680.24	377.61
680.685	369.21
681.131	375.71
681.576	379.21
682.021	378.81
682.466	374.61
682.912	370.41
683.357	388.41
683.802	413.21
684.247	439.71
684.692	487.61
685.137	534.71
685.583	574.31
686.028	597.91
686.473	551.11
686.918	480.31
687.363	452.51
687.807	426.31
688.252	395.11
688.697	383.41
689.142	363.51
689.587	366.21
690.032	354.91
690.477	367.61
690.921	382.81
691.366	411.71
691.811	441.51
692.255	466.11
692.7	495.51
693.145	544.11
693.589	776.61
694.034	1259.31
694.478	1691.31
694.923	1871.11
695.367	2399.01
695.812	1286.01
696.256	537.01
696.701	401.21
697.145	368.51
697.59	360.01
698.034	343.51
698.478	352.01
698.922	350.11
699.367	349.31
699.811	352.61
700.255	372.81
700.699	409.01
701.143	459.51
701.588	504.31
702.032	552.51
702.476	560.71
702.92	525.81
703.364	534.21
703.808	714.41
704.252	1156.11
704.696	1593.21
705.14	1806.11
705.584	2275.21
706.027	1157.71
706.471	567.91
706.915	422.81
707.359	379.71
707.803	348.21
708.246	340.61
708.69	343.31
709.134	342.61
709.577	331.21
710.021	338.41
710.465	322.41
710.908	321.91
711.352	319.71
711.795	341.11
712.239	382.51
712.682	418.91
713.126	443.61
713.569	488.11
714.012	388.01
714.456	331.01
714.899	306.61
715.342	298.11
715.786	280.51
716.229	276.21
716.672	270.31
717.115	269.41
717.558	278.01
718.002	273.31
718.445	286.31
718.888	306.51
719.331	313.61
719.774	333.51
720.217	328.21
720.66	314.41
721.103	288.41
721.546	283.71
721.989	274.91
722.432	256.41
722.874	251.21
723.317	244.81
723.76	258.81
724.203	277.91
724.645	344.71
725.088	482.81
725.531	623.91
725.974	690.51
726.416	591.91
726.859	336.01
727.301	272.11
727.744	253.11
728.187	258.11
728.629	262.71
729.071	269.11
729.514	279.01
729.956	287.91
730.399	302.81
730.841	314.31
731.283	297.01
731.726	287.61
732.168	285.01
732.61	296.81
733.053	307.91
733.495	337.01
733.937	388.21
734.379	433.91
734.821	481.21
735.263	605.31
735.705	937.91
736.148	1783.81
736.59	2847.21
737.032	3256.61
737.474	2662.01
737.916	883.51
738.357	464.81
738.799	355.81
739.241	321.01
739.683	307.31
740.125	317.01
740.567	318.61
741.008	343.21
741.45	349.61
741.892	343.51
742.334	384.71
742.775	390.21
743.217	376.71
743.658	293.01
744.1	283.41
744.542	288.61
744.983	340.91
745.425	380.01
745.866	373.01
746.307	300.51
746.749	307.41
747.19	358.91
747.632	509.81
748.073	996.31
748.514	2082.01
748.956	3092.61
749.397	3914.61
749.838	3255.01
750.279	3150.31
750.72	1616.11
751.162	604.61
751.603	347.31
752.044	273.31
752.485	239.01
752.926	227.61
753.367	218.21
753.808	207.11
754.249	208.71
754.69	200.91
755.131	192.51
755.572	192.11
756.013	193.21
756.453	202.71
756.894	203.61
757.335	203.01
757.776	215.21
758.216	212.31
758.657	210.91
759.098	214.71
759.538	246.71
759.979	290.31
760.42	425.21
760.86	810.51
761.301	2078.21
761.741	4887.61
762.182	6824.41
762.622	4854.11
763.063	1426.01
763.503	572.51
763.943	362.31
764.384	298.21
764.824	293.31
765.264	278.31
765.705	233.01
766.145	206.61
766.585	196.81
767.025	184.31
767.465	182.11
767.906	203.71
768.346	221.21
768.786	237.31
769.226	234.91
769.666	347.01
770.106	686.61
770.546	1755.91
770.986	2834.41
771.426	2509.81
771.866	855.21
772.306	360.41
772.745	224.81
773.185	189.51
773.625	184.11
774.065	168.41
774.505	180.91
774.944	234.61
775.384	412.51
775.824	660.21
776.263	632.61
776.703	317.51
777.142	179.11
777.582	140.71
778.021	136.01
778.461	136.41
778.9	134.11
779.34	132.01
779.779	124.81
780.219	115.41
780.658	116.21
781.097	118.51
781.537	130.21
781.976	120.11
782.415	111.71
782.855	113.31
783.294	109.61
783.733	113.21
784.172	113.91
784.611	114.81
785.05	112.81
785.489	122.71
785.928	131.81
786.367	131.81
786.806	125.31
787.245	137.21
787.684	140.91
788.123	161.81
788.562	145.21
789.001	138.41
789.44	139.51
789.879	123.01
790.317	128.51
790.756	135.71
791.195	137.71
791.634	159.31
792.072	224.51
792.511	414.11
792.95	1138.71
793.388	2290.91
793.827	2018.01
794.265	720.11
794.704	308.11
795.142	206.81
795.581	164.71
796.019	150.71
796.458	137.21
796.896	135.31
797.334	145.91
797.773	166.71
798.211	242.31
798.649	498.31
799.087	1127.61
799.526	1742.11
799.964	2193.81
800.402	2131.01
800.84	827.61
801.278	327.01
801.716	202.01
802.154	161.61
802.592	161.61
803.03	155.21
803.468	149.31
803.906	152.11
804.344	165.21
804.782	156.51
805.22	140.51
805.658	145.81
806.096	164.51
806.533	167.81
806.971	190.31
807.409	238.61
807.847	357.21
808.284	748.21
808.722	2097.61
809.16	3561.51
809.597	3493.31
810.035	5932.61
810.472	6088.81
810.91	2263.51
811.347	890.81
811.785	444.81
812.222	277.81
812.66	213.81
813.097	182.01
813.535	149.51
813.972	141.51
814.409	125.71
814.846	115.41
815.284	123.81
815.721	110.31
816.158	110.31
816.595	117.81
817.032	167.61
817.47	191.51
817.907	140.21
818.344	106.51
818.781	110.71
819.218	107.01
819.655	134.91
820.092	208.11
820.529	229.51
820.966	183.11
821.403	134.51
821.839	103.01
822.276	107.61
822.713	132.01
823.15	149.61
823.587	134.81
824.023	169.51
824.46	340.31
824.897	997.71
825.333	1445.91
825.77	619.21
826.206	254.01
826.643	145.71
827.08	110.81
827.516	87.21
827.953	88.11
828.389	82.61
828.825	85.21
829.262	74.91
829.698	69.91
830.135	61.21
830.571	65.91
831.007	70.71
831.443	69.01
831.88	73.21
832.316	69.91
832.752	68.01
833.188	66.91
833.624	69.11
834.06	74.41
834.497	70.51
834.933	83.51
835.369	80.61
835.805	78.71
836.241	84.41
836.677	87.01
837.112	98.31
837.548	114.31
837.984	149.81
838.42	228.71
838.856	574.01
839.292	1681.01
839.727	2466.41
840.163	1161.41
840.599	1046.51
841.034	2218.91
841.47	2242.01
841.906	834.81
842.341	361.21
842.777	219.51
843.212	226.51
843.648	201.41
844.083	120.81
844.519	87.91
844.954	79.21
845.39	61.11
845.825	58.21
846.261	57.41
846.696	53.81
847.131	57.81
847.566	61.71
848.002	51.81
848.437	63.81
848.872	69.11
849.307	74.61
849.742	97.51
850.177	207.01
850.613	616.61
851.048	934.51
851.483	414.11
851.918	175.31
852.353	93.61
852.788	60.21
853.223	48.81
853.657	58.61
854.092	52.11
854.527	45.21
854.962	50.21
855.397	51.51
855.832	55.41
856.266	45.41
856.701	42.81
857.136	46.51
857.57	45.51
858.005	56.81
858.44	62.01
858.874	49.91
859.309	56.41
859.743	48.61
860.178	51.91
860.612	46.41
861.047	61.61
861.481	73.91
861.915	82.41
862.35	55.61
862.784	41.61
863.218	46.01
863.653	42.51
864.087	48.21
864.521	58.81
864.955	77.91
865.39	161.11
865.824	192.21
866.258	128.71
866.692	187.71
867.126	196.31
867.56	119.41
867.994	55.71
868.428	37.21
868.862	53.21
869.296	59.21
869.73	66.81
870.164	62.31
870.598	55.91
871.031	36.01
871.465	33.51
871.899	35.21
872.333	25.41
872.766	22.31
873.2	26.81
873.634	32.61
874.067	27.31
874.501	29.11
874.935	32.81
875.368	35.41
875.802	31.71
876.235	27.31
876.669	28.21
877.102	26.41
877.535	37.01
877.969	28.31
878.402	26.11
878.836	18.41
879.269	23.21
879.702	26.91
880.135	24.51
880.569	27.51
881.002	20.11
881.435	23.01
881.868	16.61
882.301	22.51
882.734	21.41
883.167	26.71
883.601	23.61
884.034	23.41
884.467	19.21
884.899	24.71
885.332	21.91
885.765	18.51
886.198	22.21
886.631	23.01
887.064	22.31
887.497	21.71
887.929	26.21
888.362	26.11
888.795	14.01
889.228	16.01
889.66	18.61
890.093	25.11
890.526	19.01
890.958	18.01
891.391	20.11
891.823	24.91
892.256	18.71
892.688	10.41
893.121	11.01
893.553	15.11
893.985	25.31
894.418	18.71
894.85	19.01
895.282	19.01
895.715	17.61
896.147	16.11
896.579	16.01
897.011	16.11
897.444	21.61
897.876	16.51
898.308	20.61
898.74	14.61
899.172	13.31
899.604	28.01
900.036	22.11
900.468	18.91
900.9	15.21
901.332	30.61
901.764	14.61
902.196	23.61
902.628	23.11
903.06	21.71
903.491	33.01
903.923	27.41
904.355	19.91
904.787	24.71
905.218	21.51
905.65	27.21
906.082	13.91
906.513	21.81
906.945	27.11
907.376	15.41
907.808	20.61
908.239	26.11
908.671	18.91
909.102	21.81
909.534	32.61
909.965	55.91
910.397	99.81
910.828	344.01
911.259	505.81
911.691	233.91
912.122	126.61
912.553	58.51
912.984	33.81
913.415	26.61
913.847	27.51
914.278	17.21
914.709	15.51
915.14	18.41
915.571	22.61
916.002	12.31
916.433	23.21
916.864	19.61
917.295	18.61
917.726	21.61
918.157	12.41
918.587	30.01
919.018	29.01
919.449	23.01
919.88	27.91
920.311	34.11
920.741	52.41
921.172	181.81
921.603	164.71
922.033	81.81
922.464	54.01
922.895	22.01
923.325	23.51
923.756	13.31
924.186	14.11
924.617	18.11
925.047	21.91
925.478	30.31
925.908	26.21
926.338	16.01
926.769	15.41
927.199	21.01
927.629	7.41
928.06	15.81
928.49	16.91
928.92	10.41
929.35	9.91
929.78	8.91
930.21	8.11
930.641	8.01
931.071	8.11
931.501	2.41
931.931	10.81
932.361	11.51
932.791	5.01
933.221	2.61
933.651	14.01
934.08	18.21
934.51	33.71
934.94	9.51
935.37	14.01
935.8	17.11
936.229	6.91
936.659	15.31
937.089	4.31
937.519	15.01
937.948	23.11
938.378	18.11
938.807	9.91
939.237	5.71
939.666	9.31
940.096	-6.49
940.525	3.51
940.955	0.91
941.384	7.91
941.814	-3.79
942.243	-1.79
942.672	6.51
943.102	-4.09
943.531	5.11
943.96	6.61
944.39	5.61
944.819	2.61
945.248	5.11
945.677	3.51
946.106	3.21
946.535	6.31
946.964	5.21
947.393	4.71
947.822	-1.89
948.251	-6.49
948.68	6.71
949.109	6.21
949.538	4.11
949.967	1.91
950.396	0.11
950.825	0.81
951.254	-1.29
951.682	-7.09
952.111	6.21
952.54	5.41
952.969	-0.89
953.397	-4.69
953.826	-0.09
954.254	-7.49
954.683	3.51
955.112	-4.09
955.54	-2.59
955.969	0.01
956.397	0.91
956.826	3.71
957.254	-1.99
957.682	5.21
958.111	7.21
958.539	3.31
958.967	1.21
959.396	-3.29
959.824	6.41
960.252	4.31
960.68	-7.29
961.109	-3.19
961.537	-7.39
961.965	-3.39
962.393	0.31
962.821	-0.99
963.249	-2.79
963.677	6.81
964.105	10.91
964.533	46.11
964.961	47.31
965.389	23.81
965.817	4.31
966.245	7.41
966.672	5.11
967.1	-6.29
967.528	6.41
967.956	-2.49
968.383	-0.29
968.811	-1.09
969.239	-5.99
969.666	-2.49
970.094	3.01
970.522	-4.09
970.949	-3.89
971.377	-6.39
971.804	-3.39
972.232	-1.89
972.659	-1.09
973.087	-6.69
973.514	-4.09
973.941	-3.39
974.369	6.81
974.796	-2.29
975.223	2.21
975.651	-0.99
976.078	2.11
976.505	-3.29
976.932	10.81
977.359	17.21
977.786	13.61
978.214	3.11
978.641	-3.49
979.068	-3.59
979.495	-6.79
979.922	0.11
980.349	-0.59
980.776	4.71
981.202	1.21
981.629	7.51
982.056	-0.59
982.483	-3.69
982.91	6.51
983.337	-4.69
983.763	0.31
984.19	-3.49
984.617	-1.19
985.043	-5.59
985.47	-1.89
985.897	-1.19
986.323	-7.59
986.75	4.11
987.176	-4.69
987.603	-2.59
988.029	0.21
988.456	2.71
988.882	0.61
989.308	-5.49
989.735	4.81
990.161	2.81
990.587	0.81
991.014	-1.29
991.44	5.71
991.866	-5.29
992.292	-4.49
992.719	-1.69
993.145	11.81
993.571	-7.79
993.997	-5.59
994.423	2.31
994.849	-3.39
995.275	0.81
995.701	0.01
996.127	5.71
996.553	4.41
996.979	-4.49
997.405	-0.59
997.83	-0.89
998.256	-1.89
998.682	0.01
999.108	-6.59
999.534	1.51
999.959	4.71
1000.385	-3.49
1000.811	1.41
1001.236	0.01
1001.662	-2.59
1002.087	-5.39
1002.513	-4.09
1002.938	3.11
1003.364	-3.29
1003.789	2.01
1004.215	-0.69
1004.64	-0.89
1005.066	3.41
1005.491	-3.49
1005.916	-1.89
1006.342	-4.69
1006.767	-5.99
1007.192	6.41
1007.617	-3.09
1008.042	-6.09
1008.468	-7.79
1008.893	-4.99
1009.318	-1.49
1009.743	0.21
1010.168	-0.09
1010.593	0.01
1011.018	-11.99
1011.443	-2.59
1011.868	-0.49
1012.293	-5.09
1012.718	-8.39
1013.143	-0.19
1013.567	-0.49
1013.992	-7.99
1014.417	-11.09
1014.842	2.81
1015.267	-5.79
1015.691	-4.89
1016.116	-2.49
1016.541	-6.69
1016.965	-0.69
1017.39	-0.09
1017.814	-1.29
1018.239	-3.29
1018.663	-8.99
1019.088	-6.69
1019.512	-4.19
1019.937	1.01
1020.361	-6.59
1020.785	-10.79
1021.21	-4.19
1021.634	1.51
1022.058	6.01
1022.483	2.21
1022.907	-1.19
1023.331	-9.39
1023.755	-6.99
1024.179	-2.09
1024.604	-8.99
1025.028	-2.59
1025.452	0.11
1025.876	0.31
1026.3	-1.79
1026.724	-12.19
1027.148	-3.09
1027.572	-5.19
1027.996	-8.79
1028.42	-4.49
1028.843	-5.69
1029.267	-1.39
1029.691	-2.59
1030.115	-1.19
1030.539	-5.09
1030.962	-2.79
1031.386	-9.79
1031.81	4.91
1032.233	-0.59
1032.657	-7.39
1033.08	-0.39
1033.504	2.11
1033.927	-2.69
1034.351	-1.59
1034.774	-1.99
1035.198	-3.29
1035.621	-3.59
1036.045	-5.69
1036.468	1.81
1036.891	-6.99
1037.315	-3.59
1037.738	-7.59
1038.161	5.11
1038.584	-6.99
1039.008	-10.09
1039.431	-4.79
1039.854	-3.09
1040.277	-7.99
1040.7	-12.89
1041.123	-1.99
1041.546	-3.99
1041.969	-3.09
1042.392	-12.19
1042.815	-2.29
1043.238	3.41
1043.661	4.41
1044.084	-8.09
1044.507	-8.09
1044.93	-4.99
1045.352	-1.29
1045.775	0.41
1046.198	-2.19
1046.621	-1.79
1047.043	5.91
1047.466	8.61
1047.889	0.21
1048.311	-6.39
1048.734	-2.79
1049.156	-2.99
1049.579	-2.19
1050.001	-10.69
1050.424	-7.49
1050.846	1.61
1051.269	-2.29
1051.691	-4.39
1052.113	-6.59
1052.536	-1.69
1052.958	-1.79
1053.38	-0.59
1053.802	-9.69
1054.225	6.21
1054.647	-16.89
1055.069	-8.89
1055.491	2.61
1055.913	-7.79
1056.335	1.51
1056.757	-5.79
1057.179	-3.99
1057.601	-3.69
1058.023	-3.19
1058.445	-5.19
1058.867	-4.89
1059.289	-2.29
1059.711	-5.29
1060.133	-3.09
1060.555	-0.69
1060.976	-5.89
1061.398	-0.69
1061.82	-3.19
1062.241	-2.79
1062.663	-4.19
1063.085	-8.79
1063.506	-2.19
1063.928	-3.39
1064.35	-3.89
1064.771	-9.99
1065.193	-3.59
1065.614	-7.29
1066.035	0.11
1066.457	-0.39
1066.878	-0.99
1067.3	-8.29
1067.721	-3.29
1068.142	-4.39
1068.564	-5.59
1068.985	-4.29
1069.406	-5.59
1069.827	-9.19
1070.248	-1.29
1070.67	-2.99
1071.091	-7.29
1071.512	-1.19
1071.933	-9.79
1072.354	-3.49
1072.775	-7.49
1073.196	-6.89
1073.617	-2.29
1074.038	-10.79
1074.459	-8.09
1074.88	-11.39
1075.3	0.31
1075.721	-9.69
1076.142	-1.69
1076.563	0.21
1076.983	-5.39
1077.404	-3.99
1077.825	-12.39
1078.246	-0.99
1078.666	-8.29
1079.087	-1.29
1079.507	-4.09
1079.928	1.11
1080.348	-4.19
1080.769	-6.29
1081.189	0.51
1081.61	-5.69
1082.03	0.41
1082.451	0.81
1082.871	-2.69
1083.291	-1.89
1083.711	-2.99
1084.132	-2.19
1084.552	-2.29
1084.972	-1.09
1085.392	-13.49
1085.813	-7.59
1086.233	-13.19
1086.653	-9.19
1087.073	-4.19
1087.493	-7.39
1087.913	-8.59
1088.333	-9.39
1088.753	-10.39
1089.173	-1.29
1089.593	-6.69
1090.013	-1.59
1090.433	2.41
1090.852	-4.59
1091.272	1.31
1091.692	-3.49
1092.112	-4.09
1092.531	-11.69
1092.951	-11.49
1093.371	-5.09
1093.79	-3.89
1094.21	-2.39
1094.63	-7.49
1095.049	-5.99
1095.469	-7.59
1095.888	0.41
1096.308	0.81
1096.727	4.81
1097.146	-9.19
1097.566	2.51
1097.985	-5.19
1098.405	-2.19
1098.824	-11.79
1099.243	-1.89
1099.662	-5.29
1100.082	-6.59
1100.501	0.41
1100.92	-10.09
1101.339	-3.59
1101.758	-7.69
