Data from 20171114-ORNL-Ar_H_NY_Subt18_08-05-09-760.txt Node
Date: Tue Nov 14 08:05:09 EST 2017
User: Ender
Spectrometer: HR+D1039
Trigger mode: 0
Integration Time (sec): 2.730000E-2
Scans to average: 10
Electric dark correction enabled: true
Nonlinearity correction enabled: false
Boxcar width: 0
XAxis mode: Wavelengths
Number of Pixels in Spectrum: 2048
>>>>>Begin Spectral Data<<<<<
187.836	-0.53
188.309	-0.53
188.782	-0.53
189.255	-0.73
189.728	0.17
190.201	4.27
190.674	-0.83
191.147	-0.13
191.619	-7.83
192.092	2.07
192.565	6.87
193.038	-1.03
193.511	3.37
193.984	0.97
194.456	-1.83
194.929	-1.33
195.402	-2.33
195.874	-1.23
196.347	-2.93
196.82	-8.43
197.292	3.47
197.765	0.27
198.237	-7.23
198.71	1.77
199.182	6.07
199.655	2.17
200.127	5.67
200.6	-0.63
201.072	-1.83
201.544	-2.73
202.017	4.57
202.489	2.77
202.961	-5.63
203.433	-1.93
203.906	-4.93
204.378	-4.13
204.85	0.17
205.322	-12.93
205.794	3.47
206.266	-5.13
206.739	-7.53
207.211	1.67
207.683	-3.33
208.155	-4.23
208.627	-2.93
209.099	-1.23
209.57	-5.63
210.042	-4.73
210.514	-0.73
210.986	0.47
211.458	-12.73
211.93	-4.63
212.402	3.77
212.873	-11.33
213.345	-10.83
213.817	-10.93
214.288	-6.83
214.76	-8.23
215.232	-9.33
215.703	-4.73
216.175	-3.43
216.646	-7.73
217.118	-4.93
217.589	-6.33
218.061	-0.43
218.532	-5.63
219.004	-1.03
219.475	1.87
219.946	3.77
220.418	-3.73
220.889	2.87
221.36	3.87
221.832	-3.33
222.303	-5.33
222.774	-4.13
223.245	-7.53
223.717	-3.33
224.188	-5.53
224.659	-6.63
225.13	-9.33
225.601	-3.63
226.072	1.87
226.543	3.07
227.014	4.37
227.485	0.07
227.956	-4.53
228.427	-2.23
228.898	3.47
229.369	2.27
229.839	1.87
230.31	-2.13
230.781	1.57
231.252	-1.53
231.722	-7.93
232.193	0.97
232.664	-0.33
233.135	-0.33
233.605	2.57
234.076	-8.33
234.546	-2.63
235.017	3.07
235.487	0.87
235.958	-3.23
236.428	-6.83
236.899	2.17
237.369	8.17
237.84	1.37
238.31	9.27
238.78	0.77
239.251	1.07
239.721	2.27
240.191	-1.63
240.662	-0.63
241.132	1.27
241.602	0.87
242.072	-1.23
242.542	6.87
243.013	1.97
243.483	8.27
243.953	1.27
244.423	-1.33
244.893	0.37
245.363	3.07
245.833	0.47
246.303	-6.93
246.773	4.87
247.243	-0.43
247.712	5.57
248.182	5.07
248.652	12.57
249.122	4.37
249.592	14.17
250.061	19.47
250.531	37.87
251.001	15.97
251.471	21.47
251.94	23.47
252.41	2.17
252.879	5.87
253.349	12.57
253.818	14.57
254.288	6.67
254.757	3.27
255.227	-2.63
255.696	7.47
256.166	4.17
256.635	2.47
257.105	13.27
257.574	4.77
258.043	9.27
258.513	10.17
258.982	18.07
259.451	10.77
259.92	15.67
260.389	13.17
260.859	16.87
261.328	13.57
261.797	19.07
262.266	9.67
262.735	12.67
263.204	11.97
263.673	5.97
264.142	6.47
264.611	2.97
265.08	0.57
265.549	5.77
266.018	11.27
266.487	2.27
266.955	-0.83
267.424	4.07
267.893	11.97
268.362	6.87
268.83	12.77
269.299	14.07
269.768	9.17
270.236	10.87
270.705	12.17
271.174	10.07
271.642	13.67
272.111	9.07
272.579	17.37
273.048	29.77
273.516	30.77
273.985	37.57
274.453	19.27
274.922	21.67
275.39	11.67
275.858	3.47
276.327	13.27
276.795	17.17
277.263	13.17
277.731	37.77
278.2	62.17
278.668	65.67
279.136	55.17
279.604	20.27
280.072	20.27
280.54	16.47
281.008	12.67
281.477	21.97
281.945	17.07
282.413	15.87
282.881	20.67
283.348	15.07
283.816	24.37
284.284	19.47
284.752	24.97
285.22	16.67
285.688	18.97
286.156	19.37
286.623	51.87
287.091	55.67
287.559	28.77
288.026	16.97
288.494	21.57
288.962	8.37
289.429	11.47
289.897	18.27
290.364	18.67
290.832	19.87
291.3	14.77
291.767	24.27
292.234	25.37
292.702	21.37
293.169	19.97
293.637	26.57
294.104	21.67
294.571	13.87
295.039	16.77
295.506	16.97
295.973	21.07
296.44	10.37
296.908	22.37
297.375	19.77
297.842	22.07
298.309	17.67
298.776	14.17
299.243	24.37
299.71	14.17
300.177	26.67
300.644	23.37
301.111	24.17
301.578	24.77
302.045	15.27
302.512	27.27
302.979	27.57
303.446	27.57
303.913	20.77
304.379	18.47
304.846	33.17
305.313	30.77
305.78	19.67
306.246	29.57
306.713	25.57
307.18	29.97
307.646	28.77
308.113	26.67
308.579	32.47
309.046	30.17
309.512	25.87
309.979	15.37
310.445	28.57
310.912	25.97
311.378	35.97
311.845	30.57
312.311	32.17
312.777	35.47
313.244	33.57
313.71	45.77
314.176	34.07
314.642	39.17
315.109	33.17
315.575	38.47
316.041	37.97
316.507	36.07
316.973	46.67
317.439	33.97
317.905	44.97
318.371	34.57
318.837	39.57
319.303	37.67
319.769	37.67
320.235	37.47
320.701	39.07
321.167	44.57
321.633	34.57
322.099	44.57
322.564	46.67
323.03	41.37
323.496	36.07
323.962	43.97
324.427	50.67
324.893	40.27
325.359	40.97
325.824	40.27
326.29	37.27
326.755	41.07
327.221	45.57
327.686	41.27
328.152	47.17
328.617	46.77
329.083	50.17
329.548	50.67
330.014	57.07
330.479	48.67
330.944	46.87
331.41	49.37
331.875	49.87
332.34	47.17
332.805	50.77
333.271	55.27
333.736	42.37
334.201	59.47
334.666	61.47
335.131	56.47
335.596	55.77
336.061	53.37
336.526	46.67
336.991	49.27
337.456	61.87
337.921	53.67
338.386	51.67
338.851	53.77
339.316	48.97
339.781	49.77
340.246	51.67
340.711	49.87
341.175	51.47
341.64	51.77
342.105	57.07
342.569	62.37
343.034	62.37
343.499	59.07
343.963	55.97
344.428	71.37
344.893	70.77
345.357	59.57
345.822	65.07
346.286	69.87
346.751	81.07
347.215	73.77
347.679	75.07
348.144	100.27
348.608	85.97
349.073	72.37
349.537	81.37
350.001	85.07
350.465	90.67
350.93	82.77
351.394	86.47
351.858	74.47
352.322	89.77
352.786	90.47
353.25	109.37
353.715	111.67
354.179	113.57
354.643	129.97
355.107	123.97
355.571	113.17
356.035	106.97
356.498	123.87
356.962	130.67
357.426	137.97
357.89	120.77
358.354	94.67
358.818	87.97
359.281	80.57
359.745	79.97
360.209	82.67
360.673	78.87
361.136	90.37
361.6	89.37
362.064	85.87
362.527	93.77
362.991	95.97
363.454	89.97
363.918	83.17
364.381	84.87
364.845	84.17
365.308	90.17
365.772	88.97
366.235	94.17
366.698	89.07
367.162	91.67
367.625	98.77
368.088	96.27
368.552	92.87
369.015	94.67
369.478	97.17
369.941	104.27
370.404	95.67
370.867	105.77
371.331	109.77
371.794	118.57
372.257	119.87
372.72	125.07
373.183	109.37
373.646	106.27
374.109	106.97
374.572	108.47
375.035	117.77
375.497	115.87
375.96	108.27
376.423	110.77
376.886	120.27
377.349	107.47
377.811	101.67
378.274	107.47
378.737	106.47
379.199	116.97
379.662	116.07
380.125	120.97
380.587	115.87
381.05	125.77
381.512	134.07
381.975	138.87
382.437	136.67
382.9	135.07
383.362	138.77
383.825	147.97
384.287	143.27
384.75	149.27
385.212	138.97
385.674	146.97
386.136	141.37
386.599	131.07
387.061	132.67
387.523	129.87
387.985	142.27
388.447	154.47
388.91	142.67
389.372	165.47
389.834	150.27
390.296	147.67
390.758	157.77
391.22	173.17
391.682	212.57
392.144	296.17
392.606	234.37
393.068	167.97
393.529	170.97
393.991	155.07
394.453	151.07
394.915	154.87
395.377	189.07
395.838	218.07
396.3	153.17
396.762	145.17
397.224	139.97
397.685	141.47
398.147	129.87
398.608	134.27
399.07	132.77
399.531	142.57
399.993	148.97
400.454	156.47
400.916	146.37
401.377	152.07
401.839	152.07
402.3	148.67
402.762	167.97
403.223	188.97
403.684	175.57
404.145	164.37
404.607	165.77
405.068	165.57
405.529	175.17
405.99	192.97
406.451	174.47
406.913	172.37
407.374	170.27
407.835	167.97
408.296	169.87
408.757	185.67
409.218	190.27
409.679	181.87
410.14	185.07
410.601	186.47
411.062	187.37
411.522	192.37
411.983	195.77
412.444	181.17
412.905	182.77
413.366	187.07
413.826	195.37
414.287	223.97
414.748	265.27
415.208	246.77
415.669	216.87
416.13	221.27
416.59	211.07
417.051	210.37
417.511	226.07
417.972	235.57
418.432	254.07
418.893	290.37
419.353	255.77
419.814	196.47
420.274	189.87
420.734	180.87
421.195	207.17
421.655	199.17
422.115	191.37
422.576	194.67
423.036	195.97
423.496	208.47
423.956	225.88
424.416	233.37
424.876	265.87
425.336	264.77
425.797	264.17
426.257	256.17
426.717	251.17
427.177	234.97
427.637	232.27
428.097	232.57
428.556	248.57
429.016	281.87
429.476	266.47
429.936	277.88
430.396	277.97
430.856	287.07
431.315	316.47
431.775	355.47
432.235	390.57
432.694	353.97
433.154	365.17
433.614	391.87
434.073	344.77
434.533	289.97
434.993	278.47
435.452	281.27
435.912	302.67
436.371	293.07
436.83	287.17
437.29	266.87
437.749	250.37
438.209	256.57
438.668	273.77
439.127	293.27
439.587	272.07
440.046	256.27
440.505	268.27
440.964	284.07
441.424	331.67
441.883	323.47
442.342	271.88
442.801	231.97
443.26	222.07
443.719	219.37
444.178	221.97
444.637	213.38
445.096	222.17
445.555	221.57
446.014	222.87
446.473	225.07
446.932	231.97
447.391	228.27
447.849	230.37
448.308	223.47
448.767	226.77
449.226	241.17
449.685	243.07
450.143	251.07
450.602	243.07
451.061	224.47
451.519	237.77
451.978	238.07
452.436	237.47
452.895	239.88
453.353	259.87
453.812	245.07
454.27	244.47
454.729	245.38
455.187	236.37
455.646	248.37
456.104	251.37
456.562	267.67
457.021	272.37
457.479	264.27
457.937	278.37
458.395	266.37
458.854	249.47
459.312	261.57
459.77	278.27
460.228	258.57
460.686	244.97
461.144	248.57
461.602	246.07
462.06	243.37
462.518	253.47
462.976	263.47
463.434	265.27
463.892	263.47
464.35	276.67
464.808	298.17
465.266	268.47
465.724	275.97
466.181	275.97
466.639	280.57
467.097	288.77
467.555	308.17
468.012	304.47
468.47	311.07
468.928	330.87
469.385	351.47
469.843	355.87
470.3	358.67
470.758	367.97
471.215	389.67
471.673	407.77
472.13	416.87
472.588	426.87
473.045	375.97
473.503	378.27
473.96	402.27
474.417	410.37
474.875	430.87
475.332	474.07
475.789	458.07
476.246	471.47
476.704	483.67
477.161	509.37
477.618	518.97
478.075	569.77
478.532	623.97
478.989	700.27
479.446	802.17
479.903	784.97
480.36	811.27
480.817	861.57
481.274	967.87
481.731	1072.97
482.188	1176.38
482.645	1310.27
483.102	1424.17
483.558	1566.08
484.015	1622.17
484.472	1577.97
484.929	1534.08
485.385	1488.88
485.842	1440.68
486.299	1377.57
486.755	1329.07
487.212	1105.17
487.668	941.67
488.125	868.37
488.582	796.47
489.038	757.97
489.494	721.07
489.951	695.17
490.407	676.88
490.864	653.37
491.32	644.47
491.776	652.67
492.233	649.07
492.689	613.57
493.145	607.87
493.602	595.07
494.058	617.07
494.514	620.17
494.97	642.38
495.426	652.77
495.882	628.47
496.338	613.57
496.794	619.27
497.251	616.97
497.707	639.67
498.163	630.57
498.618	654.47
499.074	654.17
499.53	681.17
499.986	692.27
500.442	660.17
500.898	632.27
501.354	631.87
501.809	640.77
502.265	646.07
502.721	661.17
503.177	672.47
503.632	668.07
504.088	667.27
504.543	719.77
504.999	710.67
505.455	662.07
505.91	634.87
506.366	639.47
506.821	623.47
507.277	625.37
507.732	635.67
508.187	628.27
508.643	632.17
509.098	642.17
509.553	660.27
510.009	666.17
510.464	671.07
510.919	688.47
511.375	685.27
511.83	714.67
512.285	730.77
512.74	768.37
513.195	792.67
513.65	774.07
514.105	764.77
514.56	770.07
515.015	789.88
515.47	805.17
515.925	789.27
516.38	796.57
516.835	794.47
517.29	775.47
517.745	782.67
518.2	763.67
518.655	751.07
519.109	734.97
519.564	734.67
520.019	734.37
520.474	718.07
520.928	725.77
521.383	718.57
521.838	707.67
522.292	717.17
522.747	715.97
523.201	703.37
523.656	694.67
524.11	679.07
524.565	680.77
525.019	691.27
525.474	687.27
525.928	699.07
526.382	690.07
526.837	693.97
527.291	687.17
527.745	688.67
528.2	689.87
528.654	687.47
529.108	681.07
529.562	682.37
530.016	674.57
530.47	685.07
530.925	681.47
531.379	698.87
531.833	700.57
532.287	703.37
532.741	699.07
533.195	706.17
533.649	709.27
534.103	710.67
534.556	704.97
535.01	702.97
535.464	705.67
535.918	720.38
536.372	713.57
536.826	708.27
537.279	699.97
537.733	709.47
538.187	708.67
538.64	693.37
539.094	715.27
539.548	720.57
540.001	721.27
540.455	723.17
540.908	719.27
541.362	726.47
541.815	732.37
542.269	748.87
542.722	742.27
543.175	759.17
543.629	759.27
544.082	773.57
544.536	776.37
544.989	770.17
545.442	782.27
545.895	770.07
546.349	772.88
546.802	778.77
547.255	782.97
547.708	799.37
548.161	811.17
548.614	802.57
549.067	825.17
549.52	813.87
549.973	803.87
550.426	795.17
550.879	771.97
551.332	783.37
551.785	782.87
552.238	791.87
552.691	806.47
553.144	816.17
553.596	833.88
554.049	842.97
554.502	877.57
554.955	900.87
555.407	906.57
555.86	890.97
556.313	892.37
556.765	870.57
557.218	867.47
557.67	869.37
558.123	873.07
558.576	857.87
559.028	863.57
559.48	860.77
559.933	855.07
560.385	830.47
560.838	777.07
561.29	762.07
561.742	759.47
562.195	744.77
562.647	742.07
563.099	756.17
563.551	759.17
564.004	759.57
564.456	762.87
564.908	741.87
565.36	733.87
565.812	717.97
566.264	705.17
566.716	703.57
567.168	695.07
567.62	714.07
568.072	687.57
568.524	674.17
568.976	676.07
569.428	664.97
569.88	655.97
570.332	667.67
570.784	668.47
571.235	667.97
571.687	681.17
572.139	687.47
572.59	694.17
573.042	692.37
573.494	691.97
573.945	692.37
574.397	667.57
574.849	674.87
575.3	681.87
575.752	669.07
576.203	667.57
576.655	654.27
577.106	652.07
577.557	648.77
578.009	652.67
578.46	648.37
578.912	644.47
579.363	637.37
579.814	638.57
580.265	646.87
580.717	646.97
581.168	661.67
581.619	666.97
582.07	663.97
582.521	656.87
582.972	649.37
583.423	657.47
583.875	667.07
584.326	680.97
584.777	709.97
585.227	782.57
585.678	868.87
586.129	965.37
586.58	1031.67
587.031	1104.88
587.482	1273.57
587.933	1452.97
588.384	1250.87
588.834	944.57
589.285	786.47
589.736	747.27
590.186	744.47
590.637	732.87
591.088	720.77
591.538	711.87
591.989	702.67
592.439	698.37
592.89	692.77
593.34	682.17
593.791	681.77
594.241	676.57
594.692	686.27
595.142	676.37
595.593	669.27
596.043	675.97
596.493	681.67
596.943	686.88
597.394	686.37
597.844	686.87
598.294	702.88
598.744	726.37
599.195	743.17
599.645	779.77
600.095	822.77
600.545	861.97
600.995	914.27
601.445	975.27
601.895	1036.07
602.345	1092.47
602.795	1062.77
603.245	1019.67
603.695	969.27
604.145	916.47
604.594	869.07
605.044	818.07
605.494	768.37
605.944	720.37
606.393	706.17
606.843	691.77
607.293	703.67
607.743	699.87
608.192	705.57
608.642	721.67
609.091	736.77
609.541	725.97
609.99	732.67
610.44	732.27
610.889	684.88
611.339	672.67
611.788	654.27
612.238	655.67
612.687	688.87
613.136	683.47
613.586	701.37
614.035	701.67
614.484	714.17
614.933	709.57
615.383	726.17
615.832	695.27
616.281	683.27
616.73	657.57
617.179	640.57
617.628	613.37
618.077	599.37
618.526	588.47
618.975	589.77
619.424	586.47
619.873	579.57
620.322	589.57
620.771	567.37
621.22	564.57
621.669	564.88
622.118	562.87
622.567	556.27
623.015	546.87
623.464	546.07
623.913	536.87
624.361	525.87
624.81	523.87
625.259	533.17
625.707	519.57
626.156	525.37
626.604	531.37
627.053	528.77
627.501	533.17
627.95	546.47
628.398	538.07
628.847	536.27
629.295	542.57
629.744	544.77
630.192	540.67
630.64	532.97
631.089	537.27
631.537	550.27
631.985	553.27
632.433	576.37
632.881	569.97
633.33	623.27
633.778	603.37
634.226	540.07
634.674	541.07
635.122	541.17
635.57	563.87
636.018	592.37
636.466	538.47
636.914	534.47
637.362	537.38
637.81	532.57
638.258	557.97
638.705	554.87
639.153	573.27
639.601	581.87
640.049	607.67
640.497	626.77
640.944	648.97
641.392	607.27
641.84	565.37
642.287	555.57
642.735	529.37
643.182	537.88
643.63	535.97
644.078	541.27
644.525	553.77
644.973	556.47
645.42	563.87
645.867	585.37
646.315	601.27
646.762	618.88
647.21	646.67
647.657	676.67
648.104	704.07
648.551	718.37
648.999	778.97
649.446	862.77
649.893	943.57
650.34	1082.17
650.787	1294.07
651.234	1601.67
651.682	2078.68
652.129	2845.38
652.576	4106.88
653.023	6055.57
653.47	8328.87
653.917	10504.87
654.363	12188.58
654.81	13649.27
655.257	12941.57
655.704	8419.57
656.151	4992.68
656.598	3236.77
657.044	2277.38
657.491	1757.47
657.938	1402.58
658.385	1180.67
658.831	1004.47
659.278	910.27
659.724	800.07
660.171	739.37
660.618	675.97
661.064	647.27
661.511	620.27
661.957	604.87
662.404	601.47
662.85	601.17
663.296	589.27
663.743	520.07
664.189	505.87
664.635	504.27
665.082	490.97
665.528	482.27
665.974	487.47
666.42	475.77
666.867	476.37
667.313	458.27
667.759	452.57
668.205	451.07
668.651	458.27
669.097	460.87
669.543	464.17
669.989	441.37
670.435	417.77
670.881	415.97
671.327	415.37
671.773	423.97
672.219	449.67
672.665	495.17
673.11	541.17
673.556	584.07
674.002	623.07
674.448	615.77
674.893	506.27
675.339	443.97
675.785	403.97
676.23	384.77
676.676	357.97
677.122	353.47
677.567	346.17
678.013	343.17
678.458	333.07
678.904	332.27
679.349	325.97
679.794	330.47
680.24	325.87
680.685	323.37
681.131	325.67
681.576	316.97
682.021	325.87
682.466	324.27
682.912	324.77
683.357	328.77
683.802	349.67
684.247	377.87
684.692	412.57
685.137	453.87
685.583	491.57
686.028	512.87
686.473	476.67
686.918	410.67
687.363	390.47
687.807	367.27
688.252	336.97
688.697	327.67
689.142	313.37
689.587	299.57
690.032	301.27
690.477	313.97
690.921	327.07
691.366	345.87
691.811	370.57
692.255	399.37
692.7	421.27
693.145	465.77
693.589	625.17
694.034	1024.27
694.478	1404.07
694.923	1607.57
695.367	2129.57
695.812	1106.97
696.256	464.07
696.701	344.87
697.145	323.77
697.59	296.67
698.034	301.77
698.478	308.17
698.922	298.97
699.367	303.67
699.811	306.87
700.255	325.27
700.699	345.57
701.143	396.88
701.588	440.07
702.032	479.37
702.476	462.27
702.92	445.67
703.364	448.77
703.808	579.27
704.252	927.37
704.696	1307.67
705.14	1547.07
705.584	1982.27
706.027	978.57
706.471	482.97
706.915	361.27
707.359	325.07
707.803	293.97
708.246	288.88
708.69	289.87
709.134	292.27
709.577	286.17
710.021	289.77
710.465	285.87
710.908	279.67
711.352	275.07
711.795	282.97
712.239	317.87
712.682	351.17
713.126	380.17
713.569	425.37
714.012	343.27
714.456	295.27
714.899	278.67
715.342	250.07
715.786	229.37
716.229	238.67
716.672	236.57
717.115	229.67
717.558	222.77
718.002	229.37
718.445	242.97
718.888	261.47
719.331	267.17
719.774	287.77
720.217	284.17
720.66	251.77
721.103	250.37
721.546	238.47
721.989	235.07
722.432	214.87
722.874	219.67
723.317	212.77
723.76	212.87
724.203	238.17
724.645	284.87
725.088	400.17
725.531	515.17
725.974	593.87
726.416	501.07
726.859	288.57
727.301	232.27
727.744	217.38
728.187	212.88
728.629	218.37
729.071	221.57
729.514	233.07
729.956	247.57
730.399	258.57
730.841	264.17
731.283	248.47
731.726	247.07
732.168	240.27
732.61	241.47
733.053	265.88
733.495	280.57
733.937	321.38
734.379	359.27
734.821	397.77
735.263	489.67
735.705	743.67
736.148	1407.77
736.59	2323.97
737.032	2840.07
737.474	2299.47
737.916	744.37
738.357	392.77
738.799	302.87
739.241	279.07
739.683	260.37
740.125	260.07
740.567	278.37
741.008	285.27
741.45	281.37
741.892	290.07
742.334	317.67
742.775	331.97
743.217	314.87
743.658	245.37
744.1	234.17
744.542	248.07
744.983	280.97
745.425	311.67
745.866	325.97
746.307	253.97
746.749	258.67
747.19	304.27
747.632	407.77
748.073	765.27
748.514	1653.47
748.956	2610.17
749.397	3264.08
749.838	2716.38
750.279	2752.17
750.72	1390.27
751.162	501.87
751.603	296.27
752.044	229.77
752.485	202.97
752.926	192.87
753.367	186.77
753.808	180.17
754.249	178.07
754.69	170.07
755.131	165.77
755.572	170.47
756.013	169.67
756.453	175.77
756.894	175.67
757.335	176.37
757.776	181.37
758.216	175.97
758.657	184.57
759.098	185.27
759.538	209.07
759.979	242.47
760.42	350.57
760.86	612.67
761.301	1588.97
761.741	3953.57
762.182	6005.58
762.622	4217.38
763.063	1205.87
763.503	491.27
763.943	315.57
764.384	311.97
764.824	370.27
765.264	402.47
765.705	283.37
766.145	200.37
766.585	171.97
767.025	169.97
767.465	168.47
767.906	221.37
768.346	304.07
768.786	317.67
769.226	235.47
769.666	283.67
770.106	551.97
770.546	1378.27
770.986	2435.18
771.426	2206.18
771.866	729.57
772.306	301.77
772.745	201.47
773.185	159.87
773.625	154.67
774.065	156.37
774.505	177.37
774.944	269.27
775.384	601.17
775.824	1102.97
776.263	1088.28
776.703	463.97
777.142	205.97
777.582	143.97
778.021	128.17
778.461	126.37
778.9	132.17
779.34	126.67
779.779	109.17
780.219	104.47
780.658	102.27
781.097	101.67
781.537	103.27
781.976	98.27
782.415	86.67
782.855	92.87
783.294	94.97
783.733	96.57
784.172	102.77
784.611	96.97
785.05	99.37
785.489	97.87
785.928	111.77
786.367	109.27
786.806	106.77
787.245	120.07
787.684	123.97
788.123	136.67
788.562	125.47
789.001	121.17
789.44	111.57
789.879	108.07
790.317	108.47
790.756	118.57
791.195	117.77
791.634	132.37
792.072	185.97
792.511	322.57
792.95	885.07
793.388	1958.38
793.827	1808.47
794.265	632.27
794.704	259.87
795.142	171.27
795.581	135.17
796.019	117.97
796.458	114.27
796.896	109.87
797.334	120.07
797.773	145.07
798.211	196.67
798.649	382.57
799.087	912.77
799.526	1445.97
799.964	1827.97
800.402	1873.17
800.84	693.47
801.278	268.17
801.716	171.67
802.154	136.57
802.592	134.07
803.03	132.17
803.468	119.17
803.906	133.57
804.344	135.97
804.782	127.97
805.22	121.57
805.658	118.07
806.096	139.47
806.533	139.47
806.971	161.67
807.409	202.47
807.847	283.27
808.284	577.97
808.722	1662.47
809.16	3006.98
809.597	2809.38
810.035	4938.88
810.472	5436.78
810.91	1937.47
811.347	731.47
811.785	363.57
812.222	233.47
812.66	177.97
813.097	143.67
813.535	125.07
813.972	115.87
814.409	107.27
814.846	101.07
815.284	103.57
815.721	95.27
816.158	95.87
816.595	109.97
817.032	157.37
817.47	187.27
817.907	141.17
818.344	136.27
818.781	105.17
819.218	89.27
819.655	116.47
820.092	174.17
820.529	206.27
820.966	169.17
821.403	127.77
821.839	101.07
822.276	96.17
822.713	110.57
823.15	127.27
823.587	105.27
824.023	128.27
824.46	260.57
824.897	796.07
825.333	1263.47
825.77	546.67
826.206	210.47
826.643	125.27
827.08	97.47
827.516	74.77
827.953	67.17
828.389	76.07
828.825	64.57
829.262	60.97
829.698	53.97
830.135	58.37
830.571	59.57
831.007	54.17
831.443	60.37
831.88	62.77
832.316	61.07
832.752	57.47
833.188	59.67
833.624	55.57
834.06	59.57
834.497	60.97
834.933	64.27
835.369	63.87
835.805	61.37
836.241	70.87
836.677	72.47
837.112	82.37
837.548	93.57
837.984	126.67
838.42	171.57
838.856	435.77
839.292	1339.47
839.727	2127.57
840.163	985.17
840.599	818.87
841.034	1822.77
841.47	1965.67
841.906	718.27
842.341	303.17
842.777	206.67
843.212	278.67
843.648	289.77
844.083	137.57
844.519	94.07
844.954	73.07
845.39	54.17
845.825	57.27
846.261	47.57
846.696	49.17
847.131	47.17
847.566	52.07
848.002	45.37
848.437	52.07
848.872	56.77
849.307	57.27
849.742	72.07
850.177	160.47
850.613	492.38
851.048	810.17
851.483	346.97
851.918	133.77
852.353	73.47
852.788	53.67
853.223	50.37
853.657	53.27
854.092	41.27
854.527	38.47
854.962	40.07
855.397	37.17
855.832	44.77
856.266	42.47
856.701	38.17
857.136	34.57
857.57	42.67
858.005	48.97
858.44	56.07
858.874	43.07
859.309	52.77
859.743	33.57
860.178	40.07
860.612	41.57
861.047	43.87
861.481	63.37
861.915	68.97
862.35	48.87
862.784	33.57
863.218	37.57
863.653	33.47
864.087	42.07
864.521	52.77
864.955	60.67
865.39	144.27
865.824	155.87
866.258	112.87
866.692	155.67
867.126	167.17
867.56	98.57
867.994	51.77
868.428	32.47
868.862	40.57
869.296	48.97
869.73	54.27
870.164	48.47
870.598	47.07
871.031	30.27
871.465	31.37
871.899	28.37
872.333	18.37
872.766	26.57
873.2	20.67
873.634	30.57
874.067	24.17
874.501	22.57
874.935	36.87
875.368	28.37
875.802	19.17
876.235	22.07
876.669	21.27
877.102	20.17
877.535	25.87
877.969	20.37
878.402	19.47
878.836	18.27
879.269	25.17
879.702	27.47
880.135	19.27
880.569	24.27
881.002	29.47
881.435	21.17
881.868	16.37
882.301	25.47
882.734	12.87
883.167	25.27
883.601	17.77
884.034	22.77
884.467	14.77
884.899	20.77
885.332	13.97
885.765	17.57
886.198	16.17
886.631	14.87
887.064	19.57
887.497	19.67
887.929	28.47
888.362	10.37
888.795	11.07
889.228	18.97
889.66	23.67
890.093	14.57
890.526	16.17
890.958	15.37
891.391	22.57
891.823	23.07
892.256	16.47
892.688	13.77
893.121	22.47
893.553	16.97
893.985	22.57
894.418	22.87
894.85	10.07
895.282	18.27
895.715	13.77
896.147	16.37
896.579	22.37
897.011	13.77
897.444	17.17
897.876	16.77
898.308	18.67
898.74	13.87
899.172	13.07
899.604	27.27
900.036	15.87
900.468	14.47
900.9	14.77
901.332	15.07
901.764	12.77
902.196	14.97
902.628	18.17
903.06	14.57
903.491	27.77
903.923	20.37
904.355	21.87
904.787	21.07
905.218	17.67
905.65	14.37
906.082	18.87
906.513	14.07
906.945	12.37
907.376	13.67
907.808	20.37
908.239	17.37
908.671	19.57
909.102	18.47
909.534	23.37
909.965	46.37
910.397	84.07
910.828	284.07
911.259	448.07
911.691	198.77
912.122	95.47
912.553	49.77
912.984	31.37
913.415	21.77
913.847	25.67
914.278	12.57
914.709	12.97
915.14	17.37
915.571	17.07
916.002	15.77
916.433	14.57
916.864	16.27
917.295	9.27
917.726	20.17
918.157	14.87
918.587	27.77
919.018	24.07
919.449	21.47
919.88	21.87
920.311	31.47
920.741	45.67
921.172	144.87
921.603	145.27
922.033	65.67
922.464	43.37
922.895	20.47
923.325	15.97
923.756	16.57
924.186	15.97
924.617	27.77
925.047	39.57
925.478	47.57
925.908	38.57
926.338	24.07
926.769	19.87
927.199	23.37
927.629	11.27
928.06	17.37
928.49	14.17
928.92	14.17
929.35	16.47
929.78	9.87
930.21	12.47
930.641	9.77
931.071	13.07
931.501	3.27
931.931	4.37
932.361	5.17
932.791	8.87
933.221	8.37
933.651	4.57
934.08	20.07
934.51	27.37
934.94	11.17
935.37	10.27
935.8	7.37
936.229	9.47
936.659	6.87
937.089	3.37
937.519	9.67
937.948	19.97
938.378	15.27
938.807	8.77
939.237	4.77
939.666	6.67
940.096	-6.03
940.525	3.17
940.955	7.77
941.384	2.27
941.814	0.67
942.243	-0.33
942.672	4.37
943.102	-4.83
943.531	1.27
943.96	1.97
944.39	7.27
944.819	3.87
945.248	3.17
945.677	2.17
946.106	-2.23
946.535	5.17
946.964	0.87
947.393	5.37
947.822	-1.83
948.251	-5.13
948.68	7.57
949.109	9.07
949.538	5.87
949.967	-3.63
950.396	3.47
950.825	1.57
951.254	6.67
951.682	-1.23
952.111	1.17
952.54	8.77
952.969	-3.93
953.397	-7.43
953.826	-0.83
954.254	-5.13
954.683	0.37
955.112	0.07
955.54	-3.73
955.969	0.77
956.397	3.77
956.826	-5.03
957.254	-3.83
957.682	0.97
958.111	11.17
958.539	-0.53
958.967	1.47
959.396	1.27
959.824	6.47
960.252	1.27
960.68	2.47
961.109	-1.13
961.537	-6.33
961.965	5.37
962.393	0.67
962.821	0.27
963.249	-1.43
963.677	11.47
964.105	-0.23
964.533	45.97
964.961	42.07
965.389	20.07
965.817	14.47
966.245	7.47
966.672	3.97
967.1	-10.53
967.528	-6.83
967.956	-1.23
968.383	5.57
968.811	-3.33
969.239	7.17
969.666	-2.33
970.094	3.97
970.522	1.67
970.949	2.17
971.377	-3.23
971.804	-1.93
972.232	-6.73
972.659	1.17
973.087	-1.13
973.514	-6.33
973.941	-2.03
974.369	0.77
974.796	5.17
975.223	2.17
975.651	-3.23
976.078	4.97
976.505	6.37
976.932	-1.93
977.359	18.87
977.786	12.47
978.214	5.47
978.641	-2.33
979.068	-4.13
979.495	-5.23
979.922	-5.43
980.349	-7.13
980.776	2.37
981.202	-2.43
981.629	-1.13
982.056	8.07
982.483	-0.53
982.91	5.87
983.337	-6.33
983.763	3.47
984.19	-1.63
984.617	-5.33
985.043	-8.13
985.47	-3.33
985.897	-2.53
986.323	-6.23
986.75	7.37
987.176	1.97
987.603	-9.13
988.029	1.67
988.456	-2.53
988.882	1.57
989.308	-4.33
989.735	-3.43
990.161	-3.93
990.587	-4.13
991.014	-0.93
991.44	7.37
991.866	-0.13
992.292	-3.83
992.719	1.27
993.145	5.17
993.571	-7.23
993.997	-4.03
994.423	-2.13
994.849	-0.03
995.275	2.37
995.701	5.17
996.127	-1.33
996.553	3.37
996.979	-8.33
997.405	0.47
997.83	-3.23
998.256	-8.83
998.682	-12.63
999.108	-8.93
999.534	-1.83
999.959	-3.03
1000.385	-6.73
1000.811	-1.93
1001.236	-8.93
1001.662	-8.83
1002.087	-10.93
1002.513	0.67
1002.938	0.67
1003.364	1.57
1003.789	2.77
1004.215	1.77
1004.64	-1.63
1005.066	5.37
1005.491	-0.23
1005.916	-2.13
1006.342	1.07
1006.767	-1.33
1007.192	4.97
1007.617	-1.73
1008.042	-2.23
1008.468	-3.33
1008.893	-4.93
1009.318	-1.83
1009.743	-3.73
1010.168	3.07
1010.593	2.27
1011.018	-3.73
1011.443	-1.63
1011.868	1.67
1012.293	-1.23
1012.718	-5.53
1013.143	-3.93
1013.567	0.67
1013.992	-6.13
1014.417	-8.03
1014.842	-0.13
1015.267	-3.33
1015.691	-3.13
1016.116	6.97
1016.541	0.87
1016.965	2.47
1017.39	7.77
1017.814	3.17
1018.239	3.17
1018.663	-3.03
1019.088	-1.83
1019.512	-0.73
1019.937	0.77
1020.361	-1.43
1020.785	-9.33
1021.21	1.67
1021.634	-6.43
1022.058	-0.63
1022.483	-1.23
1022.907	-6.53
1023.331	-5.13
1023.755	-4.03
1024.179	-3.93
1024.604	-5.13
1025.028	-7.33
1025.452	-3.83
1025.876	-2.83
1026.3	2.37
1026.724	-0.63
1027.148	-5.53
1027.572	-12.63
1027.996	-1.33
1028.42	0.67
1028.843	-1.03
1029.267	-4.23
1029.691	-0.83
1030.115	-0.53
1030.539	-1.83
1030.962	-2.13
1031.386	-9.23
1031.81	-0.13
1032.233	-0.03
1032.657	1.57
1033.08	-3.03
1033.504	-1.23
1033.927	-3.83
1034.351	-7.03
1034.774	-7.73
1035.198	0.67
1035.621	-4.73
1036.045	-6.93
1036.468	6.37
1036.891	-9.43
1037.315	-9.33
1037.738	-8.83
1038.161	0.47
1038.584	-5.03
1039.008	-6.83
1039.431	-2.03
1039.854	-1.33
1040.277	-9.23
1040.7	-15.03
1041.123	-4.13
1041.546	-10.93
1041.969	-1.33
1042.392	-5.73
1042.815	-3.03
1043.238	-3.03
1043.661	3.37
1044.084	-7.03
1044.507	-6.13
1044.93	-8.03
1045.352	-3.43
1045.775	1.77
1046.198	-2.33
1046.621	-3.43
1047.043	2.17
1047.466	2.47
1047.889	-3.83
1048.311	-7.43
1048.734	-0.43
1049.156	-4.63
1049.579	-6.63
1050.001	-6.53
1050.424	0.37
1050.846	-5.33
1051.269	-6.03
1051.691	-0.33
1052.113	-4.93
1052.536	-4.53
1052.958	-5.23
1053.38	-2.73
1053.802	-11.33
1054.225	-1.73
1054.647	-7.63
1055.069	0.67
1055.491	1.87
1055.913	-5.63
1056.335	-0.03
1056.757	-7.03
1057.179	-7.43
1057.601	-10.83
1058.023	-3.03
1058.445	0.07
1058.867	-0.73
1059.289	-7.33
1059.711	-4.43
1060.133	-0.33
1060.555	-0.93
1060.976	-4.83
1061.398	-7.23
1061.82	-3.33
1062.241	-9.13
1062.663	-9.43
1063.085	-0.93
1063.506	-0.43
1063.928	-8.73
1064.35	0.77
1064.771	-16.03
1065.193	-1.93
1065.614	-6.73
1066.035	-4.53
1066.457	-2.23
1066.878	2.87
1067.3	-4.83
1067.721	3.17
1068.142	-1.33
1068.564	-1.83
1068.985	-6.73
1069.406	-2.73
1069.827	-6.03
1070.248	1.27
1070.67	-6.23
1071.091	-2.83
1071.512	-3.13
1071.933	-11.33
1072.354	-9.53
1072.775	-10.33
1073.196	-8.13
1073.617	-1.63
1074.038	-5.43
1074.459	-1.53
1074.88	-4.53
1075.3	0.17
1075.721	-7.43
1076.142	1.27
1076.563	-0.73
1076.983	-8.23
1077.404	-8.53
1077.825	-9.83
1078.246	-2.83
1078.666	-10.43
1079.087	-1.73
1079.507	-7.43
1079.928	-4.53
1080.348	-2.63
1080.769	2.37
1081.189	-4.63
1081.61	-2.23
1082.03	-6.93
1082.451	-7.73
1082.871	-2.03
1083.291	-5.63
1083.711	-8.63
1084.132	-8.93
1084.552	-8.43
1084.972	1.97
1085.392	-7.93
1085.813	-11.53
1086.233	-2.83
1086.653	-8.13
1087.073	-8.33
1087.493	-7.33
1087.913	-6.43
1088.333	-1.43
1088.753	-6.13
1089.173	7.87
1089.593	-3.83
1090.013	2.67
1090.433	2.87
1090.852	-2.63
1091.272	1.37
1091.692	-3.43
1092.112	-0.63
1092.531	-16.93
1092.951	-9.43
1093.371	-1.63
1093.79	0.47
1094.21	-3.13
1094.63	-5.93
1095.049	-4.53
1095.469	3.87
1095.888	-2.63
1096.308	3.27
1096.727	5.87
1097.146	-3.53
1097.566	-1.83
1097.985	-4.33
1098.405	-2.23
1098.824	-8.33
1099.243	-6.73
1099.662	-8.73
1100.082	-5.53
1100.501	-4.13
1100.92	-6.63
1101.339	-6.63
1101.758	-10.43
