Data from 20171114-ORNL-Ar_H_NY_Subt18_08-07-30-343.txt Node
Date: Tue Nov 14 08:07:30 EST 2017
User: Ender
Spectrometer: HR+D1039
Trigger mode: 0
Integration Time (sec): 2.730000E-2
Scans to average: 10
Electric dark correction enabled: true
Nonlinearity correction enabled: false
Boxcar width: 0
XAxis mode: Wavelengths
Number of Pixels in Spectrum: 2048
>>>>>Begin Spectral Data<<<<<
187.836	-2.12
188.309	-2.12
188.782	-2.12
189.255	1.68
189.728	-9.12
190.201	4.18
190.674	6.08
191.147	-0.42
191.619	-4.12
192.092	0.08
192.565	6.68
193.038	1.78
193.511	1.68
193.984	2.08
194.456	-2.02
194.929	-2.12
195.402	-3.62
195.874	-0.72
196.347	-5.02
196.82	-5.52
197.292	5.68
197.765	-4.62
198.237	-5.82
198.71	2.08
199.182	-1.02
199.655	0.38
200.127	-3.62
200.6	-1.12
201.072	-5.52
201.544	-7.62
202.017	-3.72
202.489	6.08
202.961	-0.52
203.433	-2.42
203.906	-4.22
204.378	-6.32
204.85	-0.02
205.322	-10.82
205.794	-5.32
206.266	-2.02
206.739	-9.52
207.211	2.68
207.683	-11.12
208.155	-5.42
208.627	-3.42
209.099	-9.42
209.57	-10.12
210.042	-3.92
210.514	-4.72
210.986	3.38
211.458	-12.42
211.93	-0.52
212.402	0.78
212.873	-2.62
213.345	-1.62
213.817	-17.12
214.288	-6.72
214.76	-8.92
215.232	-4.72
215.703	-2.72
216.175	-6.62
216.646	-6.42
217.118	-4.92
217.589	-6.42
218.061	-7.52
218.532	-10.32
219.004	-5.72
219.475	-1.32
219.946	-3.82
220.418	-2.42
220.889	-3.72
221.36	-2.42
221.832	-4.02
222.303	-7.62
222.774	-3.62
223.245	-7.62
223.717	-8.22
224.188	-4.62
224.659	-8.52
225.13	-7.02
225.601	-8.32
226.072	1.88
226.543	-2.22
227.014	-2.02
227.485	-4.42
227.956	-6.72
228.427	-5.82
228.898	0.88
229.369	2.68
229.839	-6.02
230.31	-9.12
230.781	-6.12
231.252	-3.32
231.722	-4.62
232.193	-4.62
232.664	-1.02
233.135	-1.12
233.605	1.18
234.076	-10.32
234.546	2.28
235.017	0.88
235.487	-0.12
235.958	-4.32
236.428	-4.72
236.899	-0.02
237.369	2.88
237.84	-4.02
238.31	5.78
238.78	-3.02
239.251	-1.62
239.721	7.98
240.191	-0.22
240.662	-3.52
241.132	-5.22
241.602	-5.52
242.072	-7.12
242.542	4.68
243.013	0.88
243.483	0.68
243.953	1.78
244.423	5.28
244.893	-0.72
245.363	3.98
245.833	1.98
246.303	-3.22
246.773	2.18
247.243	7.08
247.712	-1.82
248.182	4.08
248.652	1.68
249.122	-0.52
249.592	8.08
250.061	16.68
250.531	21.88
251.001	9.88
251.471	14.78
251.94	16.48
252.41	3.78
252.879	-1.82
253.349	9.38
253.818	4.48
254.288	3.28
254.757	-0.32
255.227	-2.92
255.696	2.98
256.166	-1.12
256.635	9.18
257.105	5.88
257.574	2.48
258.043	1.68
258.513	0.88
258.982	7.98
259.451	-3.92
259.92	6.98
260.389	6.98
260.859	13.58
261.328	8.18
261.797	11.48
262.266	-1.82
262.735	7.98
263.204	4.18
263.673	-1.72
264.142	0.58
264.611	-10.02
265.08	-4.82
265.549	-7.62
266.018	2.88
266.487	-1.72
266.955	-9.12
267.424	-7.92
267.893	5.38
268.362	0.48
268.83	0.58
269.299	5.58
269.768	2.18
270.236	8.28
270.705	4.08
271.174	1.38
271.642	0.68
272.111	3.78
272.579	14.88
273.048	12.28
273.516	26.78
273.985	22.68
274.453	16.88
274.922	14.78
275.39	6.98
275.858	1.48
276.327	8.78
276.795	16.78
277.263	4.58
277.731	21.98
278.2	38.98
278.668	45.78
279.136	25.88
279.604	11.08
280.072	9.18
280.54	2.88
281.008	7.28
281.477	10.58
281.945	12.78
282.413	9.38
282.881	13.18
283.348	6.38
283.816	8.98
284.284	7.28
284.752	18.38
285.22	7.18
285.688	13.48
286.156	6.68
286.623	34.58
287.091	40.88
287.559	21.28
288.026	12.68
288.494	8.78
288.962	-1.02
289.429	7.78
289.897	14.68
290.364	15.38
290.832	12.38
291.3	11.28
291.767	6.48
292.234	12.18
292.702	5.48
293.169	13.28
293.637	15.78
294.104	6.58
294.571	5.48
295.039	6.08
295.506	9.08
295.973	12.98
296.44	10.48
296.908	9.48
297.375	11.28
297.842	14.58
298.309	15.48
298.776	11.38
299.243	12.68
299.71	6.18
300.177	18.58
300.644	14.58
301.111	11.28
301.578	16.28
302.045	5.98
302.512	16.48
302.979	22.68
303.446	13.88
303.913	11.28
304.379	9.88
304.846	17.18
305.313	16.68
305.78	9.98
306.246	16.48
306.713	18.48
307.18	18.18
307.646	24.28
308.113	21.58
308.579	23.98
309.046	14.48
309.512	16.38
309.979	11.58
310.445	16.98
310.912	25.48
311.378	24.68
311.845	22.38
312.311	25.58
312.777	23.88
313.244	26.18
313.71	20.68
314.176	23.48
314.642	21.68
315.109	24.88
315.575	28.78
316.041	28.58
316.507	21.58
316.973	27.18
317.439	30.58
317.905	27.98
318.371	30.28
318.837	25.78
319.303	21.08
319.769	24.28
320.235	28.28
320.701	23.68
321.167	21.68
321.633	27.08
322.099	31.48
322.564	39.08
323.03	31.48
323.496	25.08
323.962	24.18
324.427	26.58
324.893	35.08
325.359	21.88
325.824	29.98
326.29	25.48
326.755	26.18
327.221	32.38
327.686	29.28
328.152	36.48
328.617	34.48
329.083	37.18
329.548	42.08
330.014	35.68
330.479	35.58
330.944	39.58
331.41	29.08
331.875	33.68
332.34	33.28
332.805	37.38
333.271	37.88
333.736	28.18
334.201	45.18
334.666	41.38
335.131	43.28
335.596	45.38
336.061	36.98
336.526	32.28
336.991	38.18
337.456	49.68
337.921	31.08
338.386	33.88
338.851	29.68
339.316	40.78
339.781	36.98
340.246	39.98
340.711	37.88
341.175	37.38
341.64	40.78
342.105	38.18
342.569	44.28
343.034	48.58
343.499	40.48
343.963	38.98
344.428	53.08
344.893	49.28
345.357	48.38
345.822	49.38
346.286	53.18
346.751	57.98
347.215	54.18
347.679	57.98
348.144	83.68
348.608	61.88
349.073	56.08
349.537	56.78
350.001	54.28
350.465	68.28
350.93	64.98
351.394	65.18
351.858	56.88
352.322	71.88
352.786	67.18
353.25	80.08
353.715	88.68
354.179	78.08
354.643	95.48
355.107	99.98
355.571	85.48
356.035	81.58
356.498	97.48
356.962	91.88
357.426	105.18
357.89	90.28
358.354	72.98
358.818	70.58
359.281	65.78
359.745	57.38
360.209	68.08
360.673	65.58
361.136	70.28
361.6	73.68
362.064	74.28
362.527	65.28
362.991	73.78
363.454	62.18
363.918	60.08
364.381	67.98
364.845	65.08
365.308	71.58
365.772	72.08
366.235	73.68
366.698	74.38
367.162	76.48
367.625	72.88
368.088	70.48
368.552	73.48
369.015	68.68
369.478	83.68
369.941	89.08
370.404	78.38
370.867	86.38
371.331	91.98
371.794	96.78
372.257	93.28
372.72	97.48
373.183	91.48
373.646	93.58
374.109	90.48
374.572	90.38
375.035	93.88
375.497	91.88
375.96	89.68
376.423	83.48
376.886	103.18
377.349	93.68
377.811	86.98
378.274	92.88
378.737	93.68
379.199	97.98
379.662	99.48
380.125	104.08
380.587	99.48
381.05	108.88
381.512	110.78
381.975	118.18
382.437	114.98
382.9	109.48
383.362	117.18
383.825	121.48
384.287	130.58
384.75	120.58
385.212	121.68
385.674	125.58
386.136	121.08
386.599	109.28
387.061	120.18
387.523	114.28
387.985	120.18
388.447	128.58
388.91	122.28
389.372	139.18
389.834	140.78
390.296	131.68
390.758	140.58
391.22	153.28
391.682	186.78
392.144	266.38
392.606	207.68
393.068	151.38
393.529	153.08
393.991	137.58
394.453	133.68
394.915	133.88
395.377	172.78
395.838	190.58
396.3	142.98
396.762	131.68
397.224	122.78
397.685	115.08
398.147	119.38
398.608	113.08
399.07	118.48
399.531	122.98
399.993	129.58
400.454	140.48
400.916	138.18
401.377	135.98
401.839	141.18
402.3	132.28
402.762	146.38
403.223	162.28
403.684	155.58
404.145	145.08
404.607	142.68
405.068	150.18
405.529	154.68
405.99	169.98
406.451	158.78
406.913	161.28
407.374	152.18
407.835	149.78
408.296	148.78
408.757	154.18
409.218	170.48
409.679	160.98
410.14	167.18
410.601	159.38
411.062	168.08
411.522	168.58
411.983	180.48
412.444	161.98
412.905	170.78
413.366	170.28
413.826	179.18
414.287	200.88
414.748	239.68
415.208	229.08
415.669	193.68
416.13	181.68
416.59	184.58
417.051	197.08
417.511	204.68
417.972	217.98
418.432	229.38
418.893	267.58
419.353	232.68
419.814	185.48
420.274	174.48
420.734	164.28
421.195	186.18
421.655	178.38
422.115	183.78
422.576	180.08
423.036	182.48
423.496	191.18
423.956	200.98
424.416	217.98
424.876	242.88
425.336	240.78
425.797	240.38
426.257	234.58
426.717	226.18
427.177	217.88
427.637	200.68
428.097	220.58
428.556	227.78
429.016	246.58
429.476	247.88
429.936	250.68
430.396	262.98
430.856	277.18
431.315	297.28
431.775	326.28
432.235	349.48
432.694	329.98
433.154	332.78
433.614	362.68
434.073	311.88
434.533	269.78
434.993	249.58
435.452	262.78
435.912	271.28
436.371	262.78
436.83	267.38
437.29	246.58
437.749	230.38
438.209	229.88
438.668	261.58
439.127	266.28
439.587	244.18
440.046	227.08
440.505	235.48
440.964	251.68
441.424	291.68
441.883	283.58
442.342	238.48
442.801	210.28
443.26	205.18
443.719	210.78
444.178	206.48
444.637	201.08
445.096	203.98
445.555	205.28
446.014	213.58
446.473	214.28
446.932	220.48
447.391	208.58
447.849	215.98
448.308	207.88
448.767	206.48
449.226	232.18
449.685	219.08
450.143	233.28
450.602	221.08
451.061	220.08
451.519	217.68
451.978	223.48
452.436	224.78
452.895	221.68
453.353	236.68
453.812	232.38
454.27	226.38
454.729	218.18
455.187	225.28
455.646	232.38
456.104	234.78
456.562	253.28
457.021	249.98
457.479	250.18
457.937	255.78
458.395	240.98
458.854	236.38
459.312	244.38
459.77	254.18
460.228	238.98
460.686	230.28
461.144	234.98
461.602	231.68
462.06	234.58
462.518	254.18
462.976	242.88
463.434	246.88
463.892	245.58
464.35	260.08
464.808	278.48
465.266	255.18
465.724	257.28
466.181	256.48
466.639	263.28
467.097	276.88
467.555	279.48
468.012	281.48
468.47	292.48
468.928	313.38
469.385	325.58
469.843	326.58
470.3	332.48
470.758	347.98
471.215	357.08
471.673	383.68
472.13	385.58
472.588	395.98
473.045	358.18
473.503	358.28
473.96	370.38
474.417	385.18
474.875	413.98
475.332	448.78
475.789	437.08
476.246	443.88
476.704	467.98
477.161	489.78
477.618	502.18
478.075	541.88
478.532	586.58
478.989	658.38
479.446	768.98
479.903	740.38
480.36	772.48
480.817	833.88
481.274	933.78
481.731	1022.18
482.188	1114.58
482.645	1243.98
483.102	1337.58
483.558	1459.88
484.015	1524.18
484.472	1494.18
484.929	1444.98
485.385	1398.38
485.842	1359.58
486.299	1308.78
486.755	1235.18
487.212	1033.68
487.668	890.38
488.125	813.28
488.582	752.18
489.038	712.88
489.494	684.18
489.951	660.08
490.407	647.88
490.864	627.28
491.32	612.28
491.776	617.18
492.233	621.68
492.689	591.88
493.145	584.78
493.602	578.28
494.058	587.48
494.514	596.48
494.97	613.98
495.426	627.78
495.882	604.58
496.338	588.58
496.794	604.28
497.251	594.88
497.707	613.98
498.163	612.78
498.618	616.78
499.074	619.18
499.53	645.88
499.986	642.48
500.442	627.68
500.898	612.88
501.354	597.78
501.809	612.68
502.265	625.28
502.721	636.58
503.177	641.28
503.632	638.28
504.088	657.78
504.543	676.88
504.999	687.98
505.455	637.78
505.91	617.28
506.366	616.08
506.821	611.08
507.277	602.38
507.732	604.98
508.187	610.28
508.643	615.78
509.098	607.38
509.553	639.48
510.009	642.58
510.464	650.48
510.919	666.38
511.375	668.58
511.83	691.18
512.285	702.78
512.74	736.58
513.195	759.38
513.65	754.88
514.105	747.58
514.56	750.58
515.015	772.88
515.47	779.18
515.925	759.58
516.38	757.98
516.835	768.58
517.29	757.48
517.745	748.48
518.2	742.08
518.655	719.98
519.109	711.38
519.564	717.88
520.019	704.88
520.474	695.78
520.928	706.18
521.383	693.48
521.838	687.88
522.292	688.58
522.747	692.18
523.201	679.58
523.656	680.38
524.11	678.18
524.565	668.48
525.019	678.88
525.474	697.58
525.928	680.08
526.382	676.28
526.837	675.38
527.291	685.28
527.745	675.28
528.2	678.58
528.654	676.08
529.108	671.98
529.562	683.68
530.016	673.68
530.47	670.48
530.925	671.78
531.379	681.18
531.833	675.08
532.287	681.78
532.741	679.18
533.195	692.78
533.649	697.48
534.103	701.58
534.556	691.78
535.01	682.58
535.464	687.68
535.918	694.48
536.372	695.38
536.826	695.18
537.279	688.98
537.733	683.68
538.187	700.38
538.64	695.38
539.094	703.58
539.548	725.08
540.001	705.08
540.455	699.48
540.908	722.88
541.362	718.98
541.815	725.78
542.269	739.18
542.722	741.18
543.175	753.38
543.629	748.48
544.082	767.78
544.536	768.18
544.989	762.48
545.442	774.48
545.895	766.98
546.349	767.28
546.802	777.38
547.255	781.28
547.708	783.88
548.161	803.88
548.614	803.08
549.067	818.38
549.52	803.68
549.973	787.18
550.426	793.38
550.879	777.78
551.332	784.98
551.785	791.18
552.238	793.58
552.691	808.78
553.144	812.98
553.596	820.48
554.049	854.68
554.502	876.38
554.955	888.88
555.407	886.58
555.86	877.88
556.313	878.98
556.765	864.78
557.218	868.88
557.67	862.08
558.123	862.58
558.576	857.38
559.028	855.98
559.48	857.38
559.933	844.78
560.385	820.08
560.838	788.38
561.29	772.18
561.742	768.38
562.195	752.78
562.647	744.18
563.099	762.58
563.551	749.78
564.004	766.98
564.456	757.98
564.908	754.38
565.36	730.28
565.812	725.28
566.264	721.28
566.716	713.18
567.168	699.08
567.62	705.18
568.072	700.28
568.524	687.68
568.976	682.08
569.428	668.28
569.88	669.08
570.332	669.78
570.784	679.48
571.235	676.28
571.687	680.38
572.139	689.78
572.59	698.98
573.042	701.88
573.494	699.58
573.945	701.28
574.397	666.78
574.849	678.28
575.3	681.88
575.752	665.48
576.203	658.58
576.655	670.98
577.106	663.38
577.557	661.98
578.009	654.78
578.46	652.78
578.912	651.98
579.363	654.38
579.814	652.28
580.265	663.38
580.717	656.88
581.168	649.08
581.619	674.48
582.07	672.58
582.521	662.78
582.972	653.98
583.423	671.38
583.875	673.88
584.326	698.78
584.777	734.18
585.227	801.88
585.678	889.98
586.129	973.68
586.58	1036.18
587.031	1129.18
587.482	1265.68
587.933	1430.98
588.384	1254.68
588.834	949.08
589.285	797.58
589.736	775.08
590.186	759.08
590.637	758.58
591.088	731.88
591.538	730.38
591.989	726.18
592.439	718.98
592.89	724.38
593.34	709.88
593.791	692.18
594.241	695.78
594.692	694.58
595.142	694.28
595.593	703.18
596.043	701.48
596.493	711.38
596.943	711.08
597.394	713.88
597.844	704.08
598.294	725.58
598.744	744.08
599.195	763.88
599.645	807.78
600.095	849.48
600.545	909.58
600.995	962.38
601.445	1010.48
601.895	1076.08
602.345	1118.68
602.795	1095.38
603.245	1059.68
603.695	999.88
604.145	945.48
604.594	888.98
605.044	846.98
605.494	801.38
605.944	752.48
606.393	731.58
606.843	720.58
607.293	724.48
607.743	718.18
608.192	740.98
608.642	754.48
609.091	750.58
609.541	764.98
609.99	761.38
610.44	755.68
610.889	712.08
611.339	687.38
611.788	690.08
612.238	691.68
612.687	709.68
613.136	697.38
613.586	729.98
614.035	724.38
614.484	745.58
614.933	744.88
615.383	736.88
615.832	727.28
616.281	719.48
616.73	681.18
617.179	653.28
617.628	650.58
618.077	624.78
618.526	616.18
618.975	619.48
619.424	607.58
619.873	606.98
620.322	614.68
620.771	595.48
621.22	602.38
621.669	587.98
622.118	578.48
622.567	575.38
623.015	572.18
623.464	560.48
623.913	551.08
624.361	546.48
624.81	538.68
625.259	544.88
625.707	545.38
626.156	552.88
626.604	562.98
627.053	559.58
627.501	540.98
627.95	563.28
628.398	572.18
628.847	560.38
629.295	563.78
629.744	568.18
630.192	565.48
630.64	570.18
631.089	559.38
631.537	571.88
631.985	576.48
632.433	588.28
632.881	600.28
633.33	645.28
633.778	644.38
634.226	548.28
634.674	566.28
635.122	563.98
635.57	584.48
636.018	609.88
636.466	570.08
636.914	544.38
637.362	563.78
637.81	565.48
638.258	566.58
638.705	574.48
639.153	609.48
639.601	627.38
640.049	634.18
640.497	671.08
640.944	684.08
641.392	632.08
641.84	600.78
642.287	586.88
642.735	564.08
643.182	566.98
643.63	573.18
644.078	578.48
644.525	581.48
644.973	593.28
645.42	601.28
645.867	624.68
646.315	632.38
646.762	651.28
647.21	676.98
647.657	706.48
648.104	746.78
648.551	758.18
648.999	826.08
649.446	906.18
649.893	997.68
650.34	1145.48
650.787	1380.98
651.234	1733.48
651.682	2250.68
652.129	3083.68
652.576	4425.98
653.023	6530.58
653.47	8955.18
653.917	11139.78
654.363	12842.28
654.81	14099.18
655.257	13402.48
655.704	8758.18
656.151	5188.78
656.598	3366.58
657.044	2374.68
657.491	1834.58
657.938	1462.98
658.385	1237.48
658.831	1068.08
659.278	954.38
659.724	848.48
660.171	787.18
660.618	723.68
661.064	682.88
661.511	667.88
661.957	648.98
662.404	638.38
662.85	639.68
663.296	621.98
663.743	559.08
664.189	537.08
664.635	523.38
665.082	515.08
665.528	532.98
665.974	511.38
666.42	504.68
666.867	499.58
667.313	495.58
667.759	471.78
668.205	470.88
668.651	472.78
669.097	479.88
669.543	490.58
669.989	467.48
670.435	447.78
670.881	448.48
671.327	449.08
671.773	460.38
672.219	493.58
672.665	537.58
673.11	586.38
673.556	628.68
674.002	658.88
674.448	653.58
674.893	548.48
675.339	467.88
675.785	436.78
676.23	413.88
676.676	393.78
677.122	382.38
677.567	361.88
678.013	363.48
678.458	359.18
678.904	354.78
679.349	353.08
679.794	349.58
680.24	349.78
680.685	343.48
681.131	344.08
681.576	349.48
682.021	347.58
682.466	341.78
682.912	346.08
683.357	340.58
683.802	374.08
684.247	407.68
684.692	453.18
685.137	489.58
685.583	527.38
686.028	547.98
686.473	513.08
686.918	441.98
687.363	419.48
687.807	378.98
688.252	358.08
688.697	351.88
689.142	326.08
689.587	324.68
690.032	323.38
690.477	337.48
690.921	346.68
691.366	380.58
691.811	399.38
692.255	421.78
692.7	455.48
693.145	500.88
693.589	692.28
694.034	1136.18
694.478	1520.38
694.923	1718.48
695.367	2245.38
695.812	1186.48
696.256	495.98
696.701	369.38
697.145	345.28
697.59	329.68
698.034	319.88
698.478	325.18
698.922	317.88
699.367	322.98
699.811	329.68
700.255	347.18
700.699	375.98
701.143	420.18
701.588	479.18
702.032	521.08
702.476	506.88
702.92	481.18
703.364	489.18
703.808	634.28
704.252	1045.48
704.696	1434.08
705.14	1655.18
705.584	2104.38
706.027	1052.18
706.471	511.78
706.915	387.78
707.359	346.58
707.803	315.98
708.246	311.78
708.69	306.58
709.134	315.78
709.577	305.98
710.021	314.08
710.465	309.18
710.908	298.28
711.352	292.18
711.795	316.68
712.239	355.48
712.682	382.18
713.126	415.18
713.569	470.58
714.012	364.78
714.456	314.28
714.899	293.18
715.342	269.38
715.786	255.48
716.229	246.38
716.672	250.98
717.115	250.58
717.558	253.88
718.002	248.28
718.445	256.98
718.888	279.68
719.331	288.48
719.774	308.38
720.217	300.48
720.66	284.48
721.103	265.38
721.546	255.38
721.989	249.68
722.432	228.08
722.874	229.78
723.317	233.18
723.76	228.68
724.203	264.08
724.645	323.68
725.088	443.98
725.531	569.28
725.974	632.38
726.416	544.68
726.859	299.98
727.301	247.68
727.744	245.28
728.187	232.68
728.629	237.78
729.071	244.58
729.514	254.58
729.956	270.68
730.399	278.48
730.841	282.28
731.283	273.68
731.726	261.28
732.168	259.28
732.61	266.38
733.053	280.18
733.495	318.78
733.937	353.68
734.379	399.58
734.821	428.28
735.263	538.98
735.705	841.78
736.148	1585.28
736.59	2586.98
737.032	3027.08
737.474	2428.48
737.916	801.38
738.357	428.98
738.799	323.18
739.241	296.58
739.683	280.28
740.125	284.08
740.567	296.88
741.008	308.18
741.45	309.68
741.892	311.58
742.334	344.78
742.775	358.98
743.217	338.68
743.658	267.68
744.1	248.38
744.542	253.68
744.983	306.08
745.425	331.48
745.866	341.08
746.307	277.48
746.749	283.48
747.19	322.88
747.632	460.38
748.073	900.28
748.514	1878.38
748.956	2830.08
749.397	3566.58
749.838	2932.78
750.279	2928.88
750.72	1477.18
751.162	542.88
751.603	323.68
752.044	261.58
752.485	217.38
752.926	203.28
753.367	193.18
753.808	186.38
754.249	190.78
754.69	185.88
755.131	181.98
755.572	176.08
756.013	181.78
756.453	183.68
756.894	189.18
757.335	190.78
757.776	200.18
758.216	188.28
758.657	187.98
759.098	198.88
759.538	219.58
759.979	268.38
760.42	377.58
760.86	712.58
761.301	1850.28
761.741	4451.38
762.182	6312.68
762.622	4455.58
763.063	1294.28
763.503	536.08
763.943	337.28
764.384	328.78
764.824	386.88
765.264	418.18
765.705	293.98
766.145	198.68
766.585	183.28
767.025	179.78
767.465	184.48
767.906	232.18
768.346	296.78
768.786	323.58
769.226	259.78
769.666	320.38
770.106	641.78
770.546	1583.28
770.986	2631.08
771.426	2337.58
771.866	783.98
772.306	321.08
772.745	209.78
773.185	168.68
773.625	170.18
774.065	155.98
774.505	194.88
774.944	301.98
775.384	651.88
775.824	1163.18
776.263	1119.08
776.703	483.98
777.142	209.18
777.582	150.78
778.021	128.78
778.461	126.68
778.9	136.88
779.34	132.68
779.779	125.18
780.219	105.08
780.658	105.38
781.097	106.48
781.537	117.08
781.976	108.88
782.415	103.88
782.855	94.68
783.294	103.98
783.733	104.88
784.172	103.58
784.611	106.58
785.05	111.28
785.489	111.38
785.928	118.78
786.367	122.28
786.806	119.48
787.245	133.48
787.684	139.68
788.123	146.78
788.562	136.48
789.001	121.88
789.44	128.88
789.879	116.68
790.317	111.38
790.756	130.98
791.195	126.88
791.634	144.18
792.072	210.68
792.511	377.58
792.95	1020.38
793.388	2119.68
793.827	1905.88
794.265	663.68
794.704	286.18
795.142	176.38
795.581	154.98
796.019	132.68
796.458	127.38
796.896	122.98
797.334	126.08
797.773	155.98
798.211	223.68
798.649	453.08
799.087	1022.08
799.526	1599.28
799.964	2013.98
800.402	1974.08
800.84	744.28
801.278	301.38
801.716	183.98
802.154	152.18
802.592	148.78
803.03	141.08
803.468	133.48
803.906	141.18
804.344	147.88
804.782	143.58
805.22	129.58
805.658	128.48
806.096	144.78
806.533	150.68
806.971	174.98
807.409	214.58
807.847	317.68
808.284	674.78
808.722	1884.18
809.16	3252.18
809.597	3121.08
810.035	5425.28
810.472	5655.08
810.91	2056.98
811.347	786.58
811.785	397.08
812.222	256.68
812.66	194.28
813.097	165.78
813.535	139.08
813.972	125.78
814.409	116.18
814.846	108.58
815.284	110.78
815.721	101.28
816.158	105.38
816.595	122.48
817.032	175.38
817.47	189.88
817.907	155.58
818.344	145.18
818.781	109.58
819.218	95.88
819.655	125.68
820.092	182.28
820.529	209.48
820.966	174.08
821.403	133.78
821.839	107.48
822.276	105.88
822.713	122.78
823.15	127.08
823.587	117.98
824.023	145.18
824.46	304.88
824.897	889.38
825.333	1328.38
825.77	563.18
826.206	227.28
826.643	137.78
827.08	101.88
827.516	86.68
827.953	81.18
828.389	78.98
828.825	74.18
829.262	65.88
829.698	64.68
830.135	65.68
830.571	64.88
831.007	61.98
831.443	66.68
831.88	57.68
832.316	64.18
832.752	66.88
833.188	62.38
833.624	69.08
834.06	69.18
834.497	71.58
834.933	73.18
835.369	74.88
835.805	68.08
836.241	78.28
836.677	80.88
837.112	85.78
837.548	106.78
837.984	133.98
838.42	199.48
838.856	498.48
839.292	1532.78
839.727	2277.08
840.163	1070.88
840.599	940.18
841.034	2034.88
841.47	2092.38
841.906	768.98
842.341	335.68
842.777	230.98
843.212	313.98
843.648	302.48
844.083	152.38
844.519	94.38
844.954	76.18
845.39	61.38
845.825	57.88
846.261	58.68
846.696	58.48
847.131	54.48
847.566	56.68
848.002	51.48
848.437	55.18
848.872	61.68
849.307	60.68
849.742	88.38
850.177	183.98
850.613	548.18
851.048	867.48
851.483	373.48
851.918	154.98
852.353	82.28
852.788	58.88
853.223	52.08
853.657	52.78
854.092	52.48
854.527	38.38
854.962	43.08
855.397	42.88
855.832	47.18
856.266	32.58
856.701	39.38
857.136	34.78
857.57	43.78
858.005	50.08
858.44	54.38
858.874	50.48
859.309	55.78
859.743	40.88
860.178	43.88
860.612	37.48
861.047	58.08
861.481	67.38
861.915	71.98
862.35	50.28
862.784	38.28
863.218	39.88
863.653	32.38
864.087	42.88
864.521	59.18
864.955	74.68
865.39	159.68
865.824	170.68
866.258	113.78
866.692	159.38
867.126	171.48
867.56	97.88
867.994	51.08
868.428	42.48
868.862	51.28
869.296	56.38
869.73	56.78
870.164	48.48
870.598	47.48
871.031	37.88
871.465	33.48
871.899	33.18
872.333	23.78
872.766	29.18
873.2	23.28
873.634	34.88
874.067	19.48
874.501	23.68
874.935	29.28
875.368	30.38
875.802	26.58
876.235	21.48
876.669	30.38
877.102	24.88
877.535	25.78
877.969	20.38
878.402	24.28
878.836	22.48
879.269	27.78
879.702	21.88
880.135	22.38
880.569	21.38
881.002	26.68
881.435	22.88
881.868	17.78
882.301	19.98
882.734	20.38
883.167	22.48
883.601	21.18
884.034	28.88
884.467	15.88
884.899	20.78
885.332	17.28
885.765	12.28
886.198	19.88
886.631	14.98
887.064	19.48
887.497	15.08
887.929	29.08
888.362	16.18
888.795	13.38
889.228	16.08
889.66	19.88
890.093	16.18
890.526	14.68
890.958	16.38
891.391	14.58
891.823	21.38
892.256	12.58
892.688	10.78
893.121	11.88
893.553	17.38
893.985	23.78
894.418	17.18
894.85	15.68
895.282	16.48
895.715	20.48
896.147	17.78
896.579	19.88
897.011	20.18
897.444	12.18
897.876	17.88
898.308	23.18
898.74	15.38
899.172	16.58
899.604	26.58
900.036	24.98
900.468	14.88
900.9	13.28
901.332	17.08
901.764	9.98
902.196	19.28
902.628	17.28
903.06	23.78
903.491	32.88
903.923	19.88
904.355	18.48
904.787	25.28
905.218	20.88
905.65	20.98
906.082	13.58
906.513	12.98
906.945	14.88
907.376	16.48
907.808	18.68
908.239	17.78
908.671	17.48
909.102	28.18
909.534	26.38
909.965	45.78
910.397	92.88
910.828	310.28
911.259	474.48
911.691	206.48
912.122	107.18
912.553	51.38
912.984	28.78
913.415	27.48
913.847	20.38
914.278	16.68
914.709	11.18
915.14	19.38
915.571	19.78
916.002	14.68
916.433	17.18
916.864	17.48
917.295	12.28
917.726	27.18
918.157	15.48
918.587	33.68
919.018	23.28
919.449	21.08
919.88	26.98
920.311	32.28
920.741	47.78
921.172	169.28
921.603	147.88
922.033	68.48
922.464	45.78
922.895	23.78
923.325	17.88
923.756	16.48
924.186	20.08
924.617	28.18
925.047	45.48
925.478	40.68
925.908	43.58
926.338	28.18
926.769	15.18
927.199	17.78
927.629	11.58
928.06	13.38
928.49	14.28
928.92	13.18
929.35	6.28
929.78	13.28
930.21	10.88
930.641	3.58
931.071	10.78
931.501	9.98
931.931	9.38
932.361	5.98
932.791	1.38
933.221	4.08
933.651	6.38
934.08	20.98
934.51	25.98
934.94	4.58
935.37	6.18
935.8	11.48
936.229	11.08
936.659	10.08
937.089	6.98
937.519	13.38
937.948	19.78
938.378	14.68
938.807	3.98
939.237	11.68
939.666	7.68
940.096	-0.22
940.525	5.08
940.955	0.28
941.384	2.18
941.814	-2.82
942.243	-1.42
942.672	5.08
943.102	-4.02
943.531	4.18
943.96	7.58
944.39	-0.92
944.819	-0.72
945.248	-0.42
945.677	1.18
946.106	6.38
946.535	7.68
946.964	3.48
947.393	7.18
947.822	3.08
948.251	-0.92
948.68	2.08
949.109	6.88
949.538	7.38
949.967	-4.62
950.396	-0.02
950.825	-1.42
951.254	2.38
951.682	-9.62
952.111	2.18
952.54	3.98
952.969	1.48
953.397	-3.62
953.826	0.88
954.254	-0.52
954.683	0.38
955.112	-0.82
955.54	-2.02
955.969	3.18
956.397	4.08
956.826	-4.72
957.254	4.98
957.682	6.78
958.111	-0.62
958.539	6.38
958.967	5.08
959.396	2.08
959.824	-0.22
960.252	1.78
960.68	-7.52
961.109	-2.02
961.537	1.78
961.965	-0.12
962.393	4.88
962.821	-3.22
963.249	1.58
963.677	2.68
964.105	4.38
964.533	48.08
964.961	36.48
965.389	19.38
965.817	7.08
966.245	0.68
966.672	-5.12
967.1	-6.52
967.528	0.08
967.956	-4.72
968.383	2.38
968.811	-3.12
969.239	0.68
969.666	0.28
970.094	-3.02
970.522	1.08
970.949	-4.42
971.377	-6.82
971.804	2.48
972.232	-2.52
972.659	-2.32
973.087	-6.22
973.514	-5.82
973.941	2.18
974.369	8.48
974.796	2.18
975.223	2.88
975.651	-0.92
976.078	3.18
976.505	-4.32
976.932	7.58
977.359	15.28
977.786	8.58
978.214	-4.32
978.641	-1.22
979.068	1.38
979.495	-7.82
979.922	-2.72
980.349	-2.42
980.776	4.78
981.202	1.38
981.629	2.88
982.056	7.48
982.483	3.88
982.91	3.68
983.337	-8.12
983.763	5.98
984.19	0.08
984.617	-0.02
985.043	-7.62
985.47	0.58
985.897	1.98
986.323	-2.32
986.75	2.18
987.176	-3.42
987.603	-6.32
988.029	0.78
988.456	-3.92
988.882	1.68
989.308	-3.02
989.735	-5.82
990.161	0.48
990.587	-6.02
991.014	6.28
991.44	7.38
991.866	-2.32
992.292	-7.72
992.719	-0.92
993.145	4.48
993.571	-9.72
993.997	-5.52
994.423	-3.22
994.849	-11.62
995.275	0.48
995.701	-5.32
996.127	-5.92
996.553	-3.72
996.979	-4.02
997.405	-0.52
997.83	-4.12
998.256	-10.62
998.682	-5.52
999.108	-9.02
999.534	1.98
999.959	-3.02
1000.385	-4.02
1000.811	-3.02
1001.236	-2.72
1001.662	-7.62
1002.087	-4.72
1002.513	3.18
1002.938	-1.22
1003.364	-3.12
1003.789	-3.32
1004.215	5.78
1004.64	-1.42
1005.066	2.58
1005.491	-3.42
1005.916	-3.02
1006.342	-6.02
1006.767	-9.62
1007.192	5.68
1007.617	0.18
1008.042	-6.82
1008.468	-3.92
1008.893	-6.02
1009.318	-7.52
1009.743	-8.92
1010.168	-3.32
1010.593	1.38
1011.018	-8.82
1011.443	-4.02
1011.868	0.28
1012.293	-4.82
1012.718	-4.72
1013.143	-6.32
1013.567	-2.62
1013.992	-5.62
1014.417	-14.72
1014.842	1.48
1015.267	-5.92
1015.691	-1.92
1016.116	11.28
1016.541	-2.92
1016.965	5.38
1017.39	3.78
1017.814	-5.82
1018.239	-6.42
1018.663	-7.82
1019.088	-12.82
1019.512	-6.02
1019.937	3.88
1020.361	-3.82
1020.785	-7.02
1021.21	-2.62
1021.634	-2.52
1022.058	2.18
1022.483	5.18
1022.907	-8.92
1023.331	-7.82
1023.755	-7.22
1024.179	0.48
1024.604	-0.42
1025.028	-1.12
1025.452	-0.62
1025.876	-7.82
1026.3	-2.22
1026.724	-9.72
1027.148	-8.82
1027.572	-12.02
1027.996	-3.72
1028.42	-1.72
1028.843	-1.72
1029.267	-0.02
1029.691	-4.62
1030.115	-4.42
1030.539	-8.22
1030.962	-8.52
1031.386	-13.92
1031.81	-2.62
1032.233	-3.22
1032.657	-0.72
1033.08	-0.62
1033.504	-5.92
1033.927	-5.82
1034.351	-2.92
1034.774	-5.62
1035.198	-4.32
1035.621	-5.42
1036.045	-9.02
1036.468	-4.32
1036.891	-12.42
1037.315	-14.92
1037.738	-8.22
1038.161	-2.02
1038.584	-6.32
1039.008	-2.52
1039.431	-2.52
1039.854	-4.02
1040.277	-8.72
1040.7	-3.92
1041.123	0.18
1041.546	-3.42
1041.969	-2.82
1042.392	-7.82
1042.815	-2.72
1043.238	-9.02
1043.661	0.58
1044.084	-4.32
1044.507	-9.32
1044.93	-6.32
1045.352	-7.82
1045.775	-3.72
1046.198	-5.72
1046.621	-6.92
1047.043	-3.52
1047.466	6.48
1047.889	-8.32
1048.311	-4.92
1048.734	-6.32
1049.156	-0.42
1049.579	-0.72
1050.001	-1.42
1050.424	4.88
1050.846	-4.72
1051.269	0.58
1051.691	-7.02
1052.113	-9.42
1052.536	-5.22
1052.958	-3.82
1053.38	-4.32
1053.802	-10.12
1054.225	2.98
1054.647	-11.02
1055.069	-7.32
1055.491	-2.52
1055.913	-4.02
1056.335	-0.52
1056.757	-6.22
1057.179	-7.42
1057.601	-6.12
1058.023	-10.52
1058.445	-4.82
1058.867	-1.22
1059.289	-1.92
1059.711	-3.92
1060.133	-1.52
1060.555	-3.92
1060.976	-4.82
1061.398	-4.22
1061.82	-1.52
1062.241	-7.02
1062.663	-13.42
1063.085	-9.82
1063.506	-0.12
1063.928	-6.62
1064.35	-2.72
1064.771	-9.92
1065.193	-4.52
1065.614	-7.12
1066.035	1.08
1066.457	-1.32
1066.878	3.58
1067.3	-9.42
1067.721	-2.92
1068.142	-5.42
1068.564	-3.42
1068.985	-9.12
1069.406	-4.92
1069.827	-12.12
1070.248	-7.42
1070.67	-5.52
1071.091	-5.92
1071.512	-2.82
1071.933	-1.92
1072.354	-12.02
1072.775	-7.72
1073.196	-12.22
1073.617	-1.92
1074.038	-10.62
1074.459	-8.22
1074.88	-1.92
1075.3	0.08
1075.721	-13.32
1076.142	-4.12
1076.563	-4.52
1076.983	-8.62
1077.404	-5.02
1077.825	-15.22
1078.246	-9.02
1078.666	-12.92
1079.087	-8.52
1079.507	-5.92
1079.928	2.88
1080.348	-2.52
1080.769	-7.62
1081.189	-0.82
1081.61	-1.12
1082.03	-0.92
1082.451	-6.52
1082.871	-5.92
1083.291	-11.32
1083.711	-10.82
1084.132	-2.32
1084.552	-4.22
1084.972	-1.72
1085.392	-12.02
1085.813	-10.32
1086.233	-9.82
1086.653	-6.32
1087.073	-1.02
1087.493	-5.22
1087.913	0.98
1088.333	-9.52
1088.753	-2.32
1089.173	-4.22
1089.593	0.38
1090.013	1.18
1090.433	1.78
1090.852	-7.82
1091.272	-1.22
1091.692	-3.62
1092.112	-4.72
1092.531	-4.92
1092.951	-13.92
1093.371	-1.62
1093.79	-0.82
1094.21	-8.32
1094.63	-6.12
1095.049	-1.32
1095.469	0.18
1095.888	1.48
1096.308	4.98
1096.727	7.58
1097.146	-7.02
1097.566	-3.02
1097.985	-6.92
1098.405	-5.92
1098.824	-6.92
1099.243	-4.62
1099.662	-7.22
1100.082	-5.42
1100.501	-0.02
1100.92	-5.52
1101.339	-7.92
1101.758	-9.12
