Data from 20171114-ORNL-Ar_H_NY_Subt18_08-04-02-335.txt Node
Date: Tue Nov 14 08:04:02 EST 2017
User: Ender
Spectrometer: HR+D1039
Trigger mode: 0
Integration Time (sec): 2.730000E-2
Scans to average: 10
Electric dark correction enabled: true
Nonlinearity correction enabled: false
Boxcar width: 0
XAxis mode: Wavelengths
Number of Pixels in Spectrum: 2048
>>>>>Begin Spectral Data<<<<<
187.836	-8.29
188.309	-8.29
188.782	-8.29
189.255	2.91
189.728	-4.09
190.201	5.71
190.674	2.61
191.147	6.51
191.619	-7.09
192.092	4.21
192.565	2.51
193.038	-3.79
193.511	0.01
193.984	3.91
194.456	-3.99
194.929	-2.59
195.402	3.71
195.874	-2.29
196.347	-2.89
196.82	-5.19
197.292	8.01
197.765	2.91
198.237	-12.79
198.71	-3.89
199.182	-3.79
199.655	3.71
200.127	3.11
200.6	0.51
201.072	-4.59
201.544	-3.49
202.017	-0.99
202.489	3.41
202.961	-2.59
203.433	-6.29
203.906	-5.89
204.378	-5.09
204.85	-2.19
205.322	-4.69
205.794	0.01
206.266	-4.79
206.739	-8.69
207.211	4.31
207.683	-2.29
208.155	-4.19
208.627	-3.79
209.099	-3.29
209.57	-5.49
210.042	0.61
210.514	-7.39
210.986	-6.99
211.458	-5.49
211.93	-2.49
212.402	4.51
212.873	1.61
213.345	-9.09
213.817	-8.69
214.288	-4.59
214.76	-11.09
215.232	-3.99
215.703	-0.89
216.175	-3.19
216.646	0.21
217.118	-8.29
217.589	-3.49
218.061	-0.59
218.532	-8.29
219.004	0.21
219.475	-0.99
219.946	-1.49
220.418	-7.89
220.889	1.31
221.36	1.51
221.832	-0.29
222.303	-7.29
222.774	3.61
223.245	-8.59
223.717	-6.69
224.188	-4.99
224.659	-6.29
225.13	-4.49
225.601	-0.49
226.072	5.91
226.543	3.91
227.014	2.31
227.485	-3.89
227.956	-7.09
228.427	-0.99
228.898	3.51
229.369	0.01
229.839	-3.19
230.31	-8.89
230.781	2.71
231.252	-4.09
231.722	-2.89
232.193	-1.39
232.664	-4.99
233.135	-2.99
233.605	-4.19
234.076	-11.69
234.546	-1.89
235.017	1.21
235.487	1.01
235.958	0.01
236.428	-2.29
236.899	-0.59
237.369	-1.79
237.84	-0.59
238.31	6.81
238.78	-3.69
239.251	2.81
239.721	4.51
240.191	-0.79
240.662	-2.89
241.132	1.51
241.602	-7.89
242.072	2.31
242.542	4.51
243.013	-7.69
243.483	4.71
243.953	2.61
244.423	1.61
244.893	-0.79
245.363	-0.89
245.833	1.91
246.303	-3.49
246.773	5.41
247.243	-2.69
247.712	0.71
248.182	13.21
248.652	7.81
249.122	-7.89
249.592	4.61
250.061	16.21
250.531	16.41
251.001	10.31
251.471	18.71
251.94	10.81
252.41	1.61
252.879	0.51
253.349	12.41
253.818	5.71
254.288	6.21
254.757	1.31
255.227	1.01
255.696	4.21
256.166	4.91
256.635	6.71
257.105	7.71
257.574	2.71
258.043	6.21
258.513	3.81
258.982	13.61
259.451	5.11
259.92	9.81
260.389	8.01
260.859	16.81
261.328	4.71
261.797	11.91
262.266	6.21
262.735	9.11
263.204	2.11
263.673	-2.79
264.142	5.61
264.611	-10.99
265.08	-2.89
265.549	1.51
266.018	5.21
266.487	-6.69
266.955	0.11
267.424	-5.09
267.893	5.91
268.362	0.11
268.83	3.61
269.299	11.41
269.768	1.51
270.236	2.51
270.705	3.01
271.174	3.31
271.642	9.21
272.111	1.81
272.579	6.51
273.048	20.21
273.516	16.31
273.985	15.81
274.453	14.01
274.922	14.11
275.39	6.11
275.858	4.11
276.327	7.51
276.795	9.51
277.263	8.51
277.731	21.41
278.2	34.21
278.668	39.81
279.136	30.81
279.604	9.71
280.072	14.81
280.54	8.71
281.008	6.41
281.477	11.21
281.945	6.71
282.413	6.71
282.881	15.11
283.348	5.61
283.816	13.11
284.284	9.21
284.752	18.01
285.22	8.91
285.688	7.11
286.156	12.51
286.623	29.81
287.091	33.81
287.559	18.21
288.026	8.71
288.494	16.41
288.962	2.71
289.429	3.91
289.897	17.51
290.364	6.71
290.832	9.61
291.3	6.91
291.767	14.81
292.234	14.71
292.702	14.11
293.169	7.71
293.637	11.31
294.104	15.81
294.571	8.31
295.039	6.51
295.506	4.71
295.973	12.71
296.44	13.31
296.908	9.41
297.375	8.11
297.842	9.21
298.309	11.51
298.776	9.31
299.243	14.81
299.71	6.31
300.177	10.01
300.644	15.91
301.111	14.91
301.578	15.91
302.045	15.11
302.512	21.91
302.979	20.11
303.446	22.41
303.913	13.61
304.379	10.71
304.846	14.11
305.313	11.21
305.78	11.51
306.246	16.41
306.713	16.81
307.18	15.21
307.646	19.31
308.113	17.31
308.579	17.31
309.046	17.51
309.512	12.11
309.979	14.71
310.445	22.31
310.912	18.91
311.378	19.51
311.845	23.01
312.311	22.61
312.777	22.21
313.244	26.71
313.71	29.71
314.176	25.51
314.642	23.11
315.109	20.11
315.575	22.21
316.041	27.81
316.507	22.51
316.973	32.71
317.439	20.21
317.905	27.91
318.371	27.21
318.837	29.01
319.303	25.71
319.769	27.41
320.235	25.51
320.701	23.71
321.167	29.91
321.633	23.01
322.099	19.71
322.564	35.11
323.03	32.21
323.496	24.11
323.962	25.31
324.427	23.81
324.893	32.41
325.359	28.81
325.824	31.21
326.29	24.91
326.755	32.71
327.221	31.51
327.686	33.71
328.152	33.71
328.617	37.61
329.083	37.41
329.548	43.91
330.014	39.81
330.479	33.61
330.944	28.61
331.41	30.81
331.875	38.61
332.34	31.61
332.805	31.81
333.271	41.41
333.736	34.11
334.201	40.81
334.666	38.91
335.131	43.01
335.596	38.61
336.061	47.31
336.526	33.71
336.991	40.81
337.456	41.11
337.921	33.31
338.386	38.51
338.851	42.91
339.316	37.31
339.781	35.31
340.246	38.01
340.711	34.41
341.175	41.01
341.64	39.31
342.105	43.41
342.569	43.31
343.034	47.61
343.499	43.91
343.963	42.51
344.428	46.61
344.893	50.01
345.357	49.61
345.822	45.61
346.286	52.61
346.751	50.51
347.215	56.41
347.679	54.81
348.144	64.91
348.608	60.91
349.073	55.31
349.537	61.81
350.001	56.41
350.465	64.51
350.93	61.41
351.394	68.61
351.858	52.51
352.322	63.71
352.786	68.21
353.25	78.21
353.715	84.61
354.179	72.41
354.643	85.91
355.107	91.51
355.571	81.41
356.035	77.41
356.498	87.31
356.962	97.01
357.426	93.51
357.89	90.11
358.354	73.41
358.818	69.81
359.281	67.41
359.745	64.31
360.209	61.91
360.673	57.51
361.136	69.01
361.6	63.11
362.064	71.81
362.527	71.71
362.991	72.71
363.454	73.01
363.918	62.61
364.381	63.71
364.845	74.01
365.308	71.81
365.772	72.31
366.235	75.71
366.698	63.11
367.162	72.81
367.625	75.41
368.088	73.91
368.552	78.41
369.015	80.61
369.478	71.21
369.941	83.21
370.404	83.31
370.867	89.11
371.331	87.21
371.794	93.21
372.257	90.21
372.72	103.21
373.183	92.71
373.646	87.41
374.109	88.11
374.572	97.81
375.035	88.61
375.497	93.31
375.96	95.01
376.423	89.31
376.886	99.61
377.349	93.31
377.811	87.41
378.274	92.71
378.737	94.31
379.199	90.91
379.662	89.21
380.125	96.21
380.587	98.31
381.05	100.91
381.512	105.01
381.975	118.21
382.437	108.71
382.9	107.71
383.362	111.31
383.825	114.91
384.287	132.11
384.75	118.41
385.212	121.41
385.674	122.91
386.136	116.11
386.599	107.71
387.061	118.21
387.523	117.01
387.985	110.41
388.447	126.91
388.91	119.91
389.372	136.21
389.834	128.01
390.296	121.31
390.758	128.91
391.22	137.31
391.682	172.61
392.144	238.51
392.606	187.51
393.068	143.61
393.529	146.41
393.991	137.21
394.453	132.91
394.915	136.81
395.377	163.51
395.838	181.81
396.3	131.81
396.762	124.31
397.224	121.01
397.685	113.91
398.147	116.81
398.608	117.71
399.07	114.21
399.531	124.81
399.993	127.31
400.454	134.21
400.916	129.11
401.377	129.11
401.839	130.81
402.3	135.01
402.762	145.91
403.223	164.61
403.684	153.71
404.145	136.81
404.607	144.61
405.068	149.51
405.529	146.01
405.99	162.01
406.451	145.31
406.913	150.01
407.374	142.81
407.835	145.41
408.296	148.71
408.757	148.41
409.218	158.51
409.679	153.61
410.14	161.41
410.601	158.31
411.062	157.61
411.522	162.11
411.983	165.51
412.444	157.51
412.905	164.81
413.366	159.71
413.826	183.41
414.287	200.61
414.748	232.01
415.208	221.71
415.669	190.71
416.13	188.11
416.59	176.61
417.051	198.11
417.511	192.61
417.972	214.31
418.432	223.21
418.893	262.71
419.353	233.51
419.814	177.61
420.274	163.01
420.734	161.81
421.195	177.61
421.655	180.51
422.115	172.31
422.576	168.41
423.036	175.01
423.496	181.71
423.956	191.21
424.416	204.71
424.876	239.51
425.336	230.91
425.797	232.41
426.257	226.21
426.717	205.71
427.177	204.51
427.637	199.61
428.097	214.41
428.556	209.01
429.016	242.51
429.476	236.51
429.936	239.81
430.396	244.31
430.856	247.21
431.315	279.81
431.775	302.71
432.235	328.21
432.694	303.21
433.154	311.51
433.614	320.31
434.073	281.21
434.533	251.61
434.993	239.51
435.452	239.11
435.912	241.71
436.371	242.11
436.83	243.61
437.29	244.41
437.749	217.91
438.209	209.51
438.668	235.81
439.127	240.81
439.587	229.11
440.046	208.71
440.505	223.91
440.964	226.81
441.424	266.61
441.883	247.21
442.342	224.61
442.801	196.91
443.26	194.31
443.719	196.61
444.178	198.21
444.637	188.91
445.096	186.31
445.555	198.01
446.014	203.51
446.473	206.91
446.932	203.51
447.391	205.61
447.849	201.61
448.308	193.01
448.767	191.11
449.226	208.81
449.685	214.51
450.143	225.21
450.602	211.51
451.061	202.71
451.519	210.31
451.978	207.21
452.436	204.21
452.895	209.21
453.353	219.41
453.812	210.41
454.27	208.81
454.729	216.01
455.187	212.11
455.646	213.31
456.104	221.61
456.562	221.41
457.021	224.41
457.479	224.01
457.937	228.11
458.395	232.11
458.854	216.21
459.312	225.31
459.77	228.11
460.228	222.11
460.686	218.71
461.144	223.51
461.602	215.81
462.06	218.21
462.518	231.51
462.976	228.61
463.434	230.71
463.892	231.11
464.35	235.91
464.808	245.31
465.266	236.11
465.724	242.01
466.181	248.71
466.639	237.01
467.097	256.81
467.555	262.31
468.012	271.91
468.47	268.91
468.928	281.41
469.385	296.51
469.843	303.71
470.3	304.01
470.758	312.01
471.215	324.51
471.673	346.11
472.13	347.31
472.588	356.21
473.045	328.81
473.503	330.51
473.96	336.51
474.417	350.81
474.875	372.11
475.332	406.61
475.789	391.71
476.246	411.71
476.704	421.11
477.161	441.21
477.618	444.21
478.075	471.01
478.532	526.01
478.989	576.61
479.446	653.71
479.903	658.01
480.36	697.01
480.817	755.11
481.274	842.21
481.731	917.11
482.188	1000.41
482.645	1124.71
483.102	1221.11
483.558	1327.01
484.015	1373.01
484.472	1377.41
484.929	1324.41
485.385	1296.61
485.842	1256.11
486.299	1188.81
486.755	1119.71
487.212	949.31
487.668	816.71
488.125	762.31
488.582	690.31
489.038	667.61
489.494	622.11
489.951	594.51
490.407	587.71
490.864	567.11
491.32	564.51
491.776	554.31
492.233	547.01
492.689	531.01
493.145	521.01
493.602	517.71
494.058	531.51
494.514	533.11
494.97	542.31
495.426	552.01
495.882	534.21
496.338	533.71
496.794	534.11
497.251	527.71
497.707	543.71
498.163	543.81
498.618	547.51
499.074	555.81
499.53	575.21
499.986	575.71
500.442	549.81
500.898	531.81
501.354	537.11
501.809	547.31
502.265	550.31
502.721	558.71
503.177	563.61
503.632	572.31
504.088	576.31
504.543	593.61
504.999	590.21
505.455	560.01
505.91	543.11
506.366	542.51
506.821	535.91
507.277	541.11
507.732	544.61
508.187	539.01
508.643	555.01
509.098	547.31
509.553	559.21
510.009	573.41
510.464	579.91
510.919	586.81
511.375	589.71
511.83	601.41
512.285	616.21
512.74	651.21
513.195	660.31
513.65	654.81
514.105	651.61
514.56	657.21
515.015	677.11
515.47	686.41
515.925	675.31
516.38	669.31
516.835	680.81
517.29	674.11
517.745	673.21
518.2	657.31
518.655	642.31
519.109	644.81
519.564	633.71
520.019	618.31
520.474	617.61
520.928	621.11
521.383	613.61
521.838	602.61
522.292	601.11
522.747	602.71
523.201	600.81
523.656	595.51
524.11	587.81
524.565	577.01
525.019	590.41
525.474	580.61
525.928	592.81
526.382	579.91
526.837	586.51
527.291	583.71
527.745	584.61
528.2	584.31
528.654	586.81
529.108	572.41
529.562	580.81
530.016	579.41
530.47	579.91
530.925	574.81
531.379	578.61
531.833	591.01
532.287	587.11
532.741	583.51
533.195	589.41
533.649	598.41
534.103	599.51
534.556	578.11
535.01	598.21
535.464	577.51
535.918	598.81
536.372	593.31
536.826	584.41
537.279	578.61
537.733	594.11
538.187	597.11
538.64	591.81
539.094	604.31
539.548	604.61
540.001	599.01
540.455	595.81
540.908	609.11
541.362	611.41
541.815	622.11
542.269	626.61
542.722	627.01
543.175	633.81
543.629	636.11
544.082	650.81
544.536	653.81
544.989	641.81
545.442	658.01
545.895	642.31
546.349	650.11
546.802	649.21
547.255	662.61
547.708	668.41
548.161	670.51
548.614	684.21
549.067	681.51
549.52	670.21
549.973	666.91
550.426	668.21
550.879	652.01
551.332	662.41
551.785	657.61
552.238	657.41
552.691	669.81
553.144	688.41
553.596	687.71
554.049	701.41
554.502	726.61
554.955	737.41
555.407	737.21
555.86	734.41
556.313	730.51
556.765	717.51
557.218	715.61
557.67	717.41
558.123	705.71
558.576	712.71
559.028	712.41
559.48	721.91
559.933	711.41
560.385	681.21
560.838	654.01
561.29	636.31
561.742	629.31
562.195	618.61
562.647	616.51
563.099	630.91
563.551	622.61
564.004	637.51
564.456	622.91
564.908	613.01
565.36	600.61
565.812	586.21
566.264	577.51
566.716	575.41
567.168	564.61
567.62	578.91
568.072	554.51
568.524	556.01
568.976	552.51
569.428	539.81
569.88	538.11
570.332	549.61
570.784	538.01
571.235	541.91
571.687	552.31
572.139	557.51
572.59	561.01
573.042	574.61
573.494	552.31
573.945	556.21
574.397	549.41
574.849	544.51
575.3	548.61
575.752	538.01
576.203	539.31
576.655	540.11
577.106	531.81
577.557	520.71
578.009	524.81
578.46	526.81
578.912	520.91
579.363	524.61
579.814	529.71
580.265	517.61
580.717	510.61
581.168	523.31
581.619	537.21
582.07	532.91
582.521	533.01
582.972	532.01
583.423	531.01
583.875	537.21
584.326	545.51
584.777	582.51
585.227	641.41
585.678	708.71
586.129	778.01
586.58	842.71
587.031	913.71
587.482	1046.91
587.933	1194.81
588.384	1034.41
588.834	759.81
589.285	630.51
589.736	606.21
590.186	607.71
590.637	590.41
591.088	588.81
591.538	567.71
591.989	566.51
592.439	562.31
592.89	565.01
593.34	554.71
593.791	547.51
594.241	546.01
594.692	546.51
595.142	537.71
595.593	536.21
596.043	549.11
596.493	559.81
596.943	546.51
597.394	558.61
597.844	546.31
598.294	562.91
598.744	580.71
599.195	599.41
599.645	624.61
600.095	653.51
600.545	709.61
600.995	742.41
601.445	779.21
601.895	832.71
602.345	878.81
602.795	859.31
603.245	823.51
603.695	777.21
604.145	738.21
604.594	705.71
605.044	658.51
605.494	612.31
605.944	568.41
606.393	568.21
606.843	557.71
607.293	555.31
607.743	550.31
608.192	560.41
608.642	567.01
609.091	575.61
609.541	580.41
609.99	570.61
610.44	582.31
610.889	540.71
611.339	529.91
611.788	516.91
612.238	529.41
612.687	548.51
613.136	542.51
613.586	550.11
614.035	561.11
614.484	564.21
614.933	572.51
615.383	558.21
615.832	546.91
616.281	544.31
616.73	517.51
617.179	505.51
617.628	490.21
618.077	471.41
618.526	473.91
618.975	466.31
619.424	461.81
619.873	461.41
620.322	468.61
620.771	452.31
621.22	458.31
621.669	446.81
622.118	433.81
622.567	437.31
623.015	425.91
623.464	425.91
623.913	424.71
624.361	410.51
624.81	404.11
625.259	409.51
625.707	421.71
626.156	418.41
626.604	424.61
627.053	422.11
627.501	422.91
627.95	435.31
628.398	436.01
628.847	424.51
629.295	427.81
629.744	432.71
630.192	428.21
630.64	422.91
631.089	427.31
631.537	419.41
631.985	417.11
632.433	425.41
632.881	433.11
633.33	454.41
633.778	445.41
634.226	416.91
634.674	415.31
635.122	421.71
635.57	440.71
636.018	448.91
636.466	429.11
636.914	419.41
637.362	421.21
637.81	426.41
638.258	431.91
638.705	431.81
639.153	441.91
639.601	453.41
640.049	474.41
640.497	496.41
640.944	525.01
641.392	476.41
641.84	446.41
642.287	427.11
642.735	421.31
643.182	421.41
643.63	428.11
644.078	420.01
644.525	440.81
644.973	437.21
645.42	445.81
645.867	454.71
646.315	467.61
646.762	485.61
647.21	511.81
647.657	519.11
648.104	551.21
648.551	566.61
648.999	608.91
649.446	665.81
649.893	724.41
650.34	825.51
650.787	990.61
651.234	1231.91
651.682	1587.21
652.129	2153.61
652.576	3096.11
653.023	4601.21
653.47	6404.21
653.917	8125.01
654.363	9550.91
654.81	10842.91
655.257	10310.61
655.704	6684.21
656.151	3881.71
656.598	2517.01
657.044	1780.01
657.491	1358.91
657.938	1087.71
658.385	912.91
658.831	791.01
659.278	705.11
659.724	618.11
660.171	574.91
660.618	525.31
661.064	493.71
661.511	470.91
661.957	468.61
662.404	449.41
662.85	462.21
663.296	437.61
663.743	406.91
664.189	396.21
664.635	385.41
665.082	383.91
665.528	384.91
665.974	365.81
666.42	364.91
666.867	356.31
667.313	354.51
667.759	344.91
668.205	348.51
668.651	351.41
669.097	358.31
669.543	365.51
669.989	338.81
670.435	324.21
670.881	321.41
671.327	320.21
671.773	341.51
672.219	353.41
672.665	390.31
673.11	418.11
673.556	455.51
674.002	483.11
674.448	485.31
674.893	398.11
675.339	346.41
675.785	318.21
676.23	302.11
676.676	286.61
677.122	280.31
677.567	263.91
678.013	268.41
678.458	258.71
678.904	257.81
679.349	253.21
679.794	261.41
680.24	242.91
680.685	252.11
681.131	247.51
681.576	250.51
682.021	259.81
682.466	253.91
682.912	250.71
683.357	250.11
683.802	270.01
684.247	291.01
684.692	314.41
685.137	353.11
685.583	395.81
686.028	404.81
686.473	371.51
686.918	321.21
687.363	303.41
687.807	280.51
688.252	266.61
688.697	257.01
689.142	244.01
689.587	234.51
690.032	227.81
690.477	242.11
690.921	246.81
691.366	271.11
691.811	286.21
692.255	313.51
692.7	333.21
693.145	356.01
693.589	482.81
694.034	785.41
694.478	1088.31
694.923	1292.41
695.367	1713.41
695.812	899.31
696.256	364.01
696.701	268.41
697.145	252.31
697.59	233.21
698.034	223.01
698.478	241.21
698.922	230.91
699.367	239.11
699.811	244.91
700.255	259.61
700.699	269.21
701.143	295.91
701.588	343.31
702.032	372.11
702.476	372.01
702.92	357.91
703.364	345.81
703.808	435.11
704.252	712.01
704.696	1015.11
705.14	1232.71
705.584	1616.81
706.027	793.41
706.471	379.11
706.915	281.01
707.359	247.21
707.803	225.11
708.246	215.61
708.69	227.01
709.134	221.71
709.577	221.91
710.021	234.81
710.465	224.01
710.908	215.21
711.352	214.41
711.795	226.51
712.239	242.41
712.682	270.01
713.126	301.11
713.569	334.31
714.012	272.61
714.456	231.81
714.899	216.11
715.342	190.91
715.786	187.61
716.229	184.01
716.672	188.31
717.115	167.41
717.558	185.51
718.002	176.01
718.445	185.91
718.888	203.51
719.331	207.11
719.774	223.51
720.217	212.21
720.66	206.41
721.103	186.01
721.546	180.51
721.989	171.51
722.432	165.31
722.874	162.81
723.317	163.61
723.76	168.71
724.203	183.81
724.645	224.61
725.088	303.71
725.531	410.01
725.974	478.71
726.416	396.71
726.859	218.01
727.301	173.11
727.744	170.91
728.187	171.01
728.629	173.71
729.071	171.41
729.514	182.91
729.956	195.81
730.399	197.51
730.841	207.01
731.283	193.91
731.726	180.71
732.168	185.31
732.61	192.71
733.053	202.01
733.495	218.31
733.937	245.01
734.379	279.41
734.821	305.21
735.263	379.61
735.705	581.11
736.148	1080.31
736.59	1839.11
737.032	2283.81
737.474	1865.21
737.916	587.11
738.357	305.71
738.799	227.81
739.241	211.11
739.683	200.11
740.125	209.31
740.567	213.21
741.008	235.01
741.45	228.81
741.892	229.51
742.334	249.01
742.775	263.81
743.217	255.61
743.658	194.31
744.1	183.21
744.542	186.01
744.983	223.11
745.425	261.91
745.866	256.11
746.307	208.81
746.749	197.41
747.19	224.91
747.632	308.81
748.073	591.91
748.514	1294.61
748.956	2074.21
749.397	2597.61
749.838	2159.41
750.279	2236.71
750.72	1117.01
751.162	393.31
751.603	233.81
752.044	178.51
752.485	151.51
752.926	158.01
753.367	151.91
753.808	138.21
754.249	136.81
754.69	130.11
755.131	133.61
755.572	131.01
756.013	132.31
756.453	128.81
756.894	130.61
757.335	137.21
757.776	140.01
758.216	150.11
758.657	140.91
759.098	140.81
759.538	159.91
759.979	181.31
760.42	256.01
760.86	485.01
761.301	1256.71
761.741	3171.61
762.182	4958.51
762.622	3498.21
763.063	977.81
763.503	399.91
763.943	241.31
764.384	237.11
764.824	293.51
765.264	330.31
765.705	214.91
766.145	144.01
766.585	134.21
767.025	131.61
767.465	139.21
767.906	173.81
768.346	230.41
768.786	241.71
769.226	188.31
769.666	226.61
770.106	421.11
770.546	1075.41
770.986	1969.21
771.426	1808.61
771.866	589.41
772.306	238.01
772.745	148.61
773.185	122.91
773.625	128.31
774.065	119.61
774.505	136.21
774.944	206.81
775.384	446.01
775.824	841.51
776.263	847.51
776.703	358.71
777.142	151.01
777.582	113.11
778.021	95.41
778.461	106.31
778.9	99.11
779.34	92.51
779.779	83.81
780.219	81.71
780.658	77.21
781.097	80.71
781.537	79.81
781.976	69.01
782.415	70.81
782.855	66.61
783.294	75.61
783.733	65.21
784.172	80.81
784.611	73.91
785.05	78.41
785.489	85.61
785.928	86.51
786.367	80.91
786.806	77.41
787.245	88.01
787.684	90.61
788.123	106.41
788.562	92.71
789.001	90.81
789.44	88.71
789.879	85.11
790.317	82.51
790.756	95.81
791.195	95.41
791.634	104.21
792.072	142.81
792.511	246.71
792.95	703.91
793.388	1564.21
793.827	1486.81
794.265	491.11
794.704	198.21
795.142	132.91
795.581	113.91
796.019	100.91
796.458	86.91
796.896	83.21
797.334	86.81
797.773	110.51
798.211	155.21
798.649	289.81
799.087	715.61
799.526	1148.41
799.964	1460.11
800.402	1538.31
800.84	557.91
801.278	215.41
801.716	132.01
802.154	114.31
802.592	105.61
803.03	96.11
803.468	95.11
803.906	101.51
804.344	106.01
804.782	99.41
805.22	91.61
805.658	86.31
806.096	101.91
806.533	111.91
806.971	126.21
807.409	148.91
807.847	213.11
808.284	457.91
808.722	1322.31
809.16	2466.21
809.597	2255.41
810.035	4042.01
810.472	4586.01
810.91	1614.51
811.347	589.91
811.785	298.91
812.222	189.11
812.66	142.81
813.097	122.71
813.535	98.31
813.972	93.61
814.409	79.21
814.846	83.41
815.284	78.21
815.721	73.81
816.158	78.11
816.595	84.31
817.032	126.51
817.47	150.61
817.907	120.41
818.344	105.71
818.781	76.41
819.218	72.51
819.655	87.41
820.092	141.01
820.529	159.91
820.966	136.31
821.403	100.31
821.839	76.41
822.276	74.81
822.713	88.71
823.15	105.01
823.587	80.81
824.023	105.21
824.46	208.61
824.897	638.11
825.333	1034.21
825.77	437.71
826.206	166.51
826.643	103.71
827.08	68.81
827.516	59.21
827.953	53.01
828.389	55.21
828.825	52.41
829.262	48.11
829.698	43.01
830.135	41.71
830.571	45.11
831.007	46.01
831.443	42.51
831.88	45.31
832.316	37.71
832.752	40.91
833.188	48.81
833.624	48.41
834.06	56.51
834.497	51.91
834.933	51.41
835.369	63.71
835.805	44.21
836.241	55.11
836.677	56.71
837.112	58.41
837.548	75.71
837.984	93.61
838.42	137.81
838.856	342.31
839.292	1096.01
839.727	1770.81
840.163	798.51
840.599	660.91
841.034	1504.51
841.47	1654.01
841.906	583.41
842.341	245.71
842.777	157.51
843.212	221.11
843.648	224.11
844.083	111.01
844.519	71.11
844.954	54.91
845.39	39.91
845.825	42.71
846.261	43.31
846.696	34.11
847.131	39.41
847.566	48.61
848.002	38.71
848.437	38.61
848.872	43.11
849.307	42.31
849.742	59.21
850.177	116.61
850.613	390.31
851.048	664.91
851.483	279.01
851.918	109.41
852.353	58.71
852.788	38.11
853.223	36.21
853.657	40.01
854.092	36.31
854.527	32.91
854.962	26.11
855.397	31.91
855.832	34.81
856.266	29.11
856.701	30.81
857.136	33.51
857.57	22.21
858.005	31.81
858.44	46.01
858.874	32.61
859.309	42.91
859.743	29.11
860.178	37.81
860.612	30.21
861.047	35.61
861.481	48.01
861.915	52.41
862.35	39.81
862.784	25.91
863.218	34.21
863.653	25.51
864.087	36.71
864.521	41.31
864.955	46.51
865.39	118.11
865.824	128.61
866.258	84.51
866.692	121.91
867.126	139.21
867.56	85.21
867.994	43.21
868.428	28.81
868.862	34.41
869.296	46.11
869.73	47.21
870.164	46.11
870.598	36.71
871.031	31.51
871.465	26.31
871.899	23.61
872.333	16.81
872.766	16.41
873.2	18.61
873.634	18.81
874.067	14.91
874.501	15.61
874.935	29.11
875.368	23.51
875.802	18.01
876.235	18.41
876.669	20.71
877.102	12.41
877.535	21.11
877.969	12.11
878.402	15.91
878.836	11.61
879.269	16.51
879.702	18.31
880.135	15.61
880.569	17.71
881.002	18.71
881.435	21.91
881.868	7.41
882.301	12.11
882.734	11.71
883.167	19.21
883.601	9.91
884.034	12.21
884.467	14.31
884.899	20.21
885.332	10.11
885.765	11.41
886.198	9.91
886.631	16.01
887.064	16.61
887.497	14.61
887.929	17.11
888.362	12.61
888.795	9.21
889.228	15.61
889.66	20.61
890.093	12.11
890.526	9.01
890.958	13.71
891.391	11.21
891.823	18.51
892.256	12.31
892.688	10.91
893.121	12.81
893.553	10.21
893.985	14.41
894.418	16.31
894.85	5.81
895.282	13.11
895.715	11.51
896.147	9.41
896.579	15.11
897.011	9.51
897.444	14.61
897.876	7.81
898.308	10.91
898.74	8.61
899.172	6.31
899.604	18.01
900.036	21.91
900.468	5.71
900.9	10.91
901.332	13.41
901.764	9.61
902.196	19.21
902.628	11.71
903.06	6.81
903.491	26.11
903.923	20.21
904.355	14.51
904.787	13.81
905.218	12.91
905.65	20.61
906.082	8.71
906.513	6.91
906.945	10.11
907.376	8.91
907.808	20.01
908.239	13.41
908.671	15.01
909.102	12.11
909.534	22.21
909.965	32.71
910.397	67.31
910.828	230.31
911.259	375.21
911.691	164.31
912.122	74.11
912.553	36.01
912.984	27.91
913.415	19.51
913.847	13.91
914.278	10.31
914.709	8.61
915.14	11.71
915.571	14.61
916.002	10.51
916.433	10.41
916.864	17.71
917.295	6.81
917.726	16.71
918.157	11.91
918.587	17.91
919.018	16.81
919.449	21.81
919.88	20.21
920.311	19.31
920.741	37.61
921.172	116.11
921.603	119.61
922.033	53.51
922.464	32.71
922.895	20.91
923.325	20.51
923.756	15.71
924.186	16.01
924.617	16.71
925.047	27.31
925.478	34.01
925.908	30.11
926.338	15.41
926.769	9.41
927.199	15.81
927.629	9.11
928.06	12.61
928.49	10.91
928.92	12.71
929.35	4.31
929.78	13.21
930.21	3.61
930.641	4.11
931.071	6.31
931.501	3.81
931.931	7.31
932.361	1.11
932.791	3.41
933.221	3.11
933.651	-2.89
934.08	12.61
934.51	28.41
934.94	1.41
935.37	6.81
935.8	8.41
936.229	7.51
936.659	2.11
937.089	3.41
937.519	10.81
937.948	23.01
938.378	11.81
938.807	3.01
939.237	2.11
939.666	9.91
940.096	-12.49
940.525	1.71
940.955	5.11
941.384	4.11
941.814	-5.19
942.243	2.21
942.672	7.81
943.102	-1.09
943.531	1.61
943.96	5.01
944.39	2.01
944.819	-3.59
945.248	1.41
945.677	0.51
946.106	3.41
946.535	1.61
946.964	1.31
947.393	0.91
947.822	-1.69
948.251	-9.29
948.68	-0.69
949.109	7.81
949.538	2.21
949.967	2.51
950.396	4.61
950.825	-6.29
951.254	3.01
951.682	-8.09
952.111	4.21
952.54	6.91
952.969	-5.39
953.397	-0.29
953.826	2.41
954.254	-7.39
954.683	-2.19
955.112	-1.09
955.54	-1.59
955.969	2.41
956.397	-0.09
956.826	-6.09
957.254	1.31
957.682	-0.39
958.111	-3.19
958.539	0.11
958.967	0.71
959.396	-3.09
959.824	-2.59
960.252	3.41
960.68	0.71
961.109	-3.69
961.537	-7.99
961.965	-3.79
962.393	-0.39
962.821	-4.39
963.249	0.81
963.677	5.11
964.105	5.81
964.533	36.71
964.961	32.91
965.389	17.51
965.817	3.41
966.245	1.91
966.672	-4.59
967.1	-5.39
967.528	1.71
967.956	-6.59
968.383	2.31
968.811	-5.19
969.239	-3.99
969.666	-3.39
970.094	1.11
970.522	0.01
970.949	-0.99
971.377	-8.49
971.804	-1.99
972.232	-2.19
972.659	-0.29
973.087	-6.29
973.514	-6.39
973.941	-5.59
974.369	5.51
974.796	-3.39
975.223	2.61
975.651	-3.79
976.078	1.61
976.505	0.51
976.932	-0.69
977.359	12.11
977.786	15.51
978.214	3.81
978.641	-3.19
979.068	-1.49
979.495	-5.99
979.922	1.41
980.349	-2.99
980.776	6.51
981.202	2.41
981.629	7.11
982.056	3.81
982.483	-5.19
982.91	0.11
983.337	-7.09
983.763	-3.69
984.19	0.11
984.617	-2.89
985.043	-7.29
985.47	6.01
985.897	-3.79
986.323	-7.89
986.75	4.51
987.176	-5.29
987.603	-1.29
988.029	-0.59
988.456	-3.69
988.882	2.71
989.308	0.31
989.735	-8.29
990.161	-1.69
990.587	-0.19
991.014	-0.69
991.44	13.41
991.866	2.11
992.292	-3.09
992.719	1.51
993.145	0.91
993.571	-4.89
993.997	-10.29
994.423	-7.49
994.849	-8.79
995.275	3.61
995.701	-2.19
996.127	-3.69
996.553	2.61
996.979	-3.79
997.405	2.91
997.83	-3.19
998.256	-2.19
998.682	3.21
999.108	-4.09
999.534	-0.89
999.959	-3.59
1000.385	-6.79
1000.811	0.91
1001.236	-8.89
1001.662	-7.69
1002.087	-5.29
1002.513	0.71
1002.938	7.11
1003.364	3.11
1003.789	-0.59
1004.215	2.01
1004.64	-4.69
1005.066	6.21
1005.491	-1.89
1005.916	-3.89
1006.342	-1.49
1006.767	-11.09
1007.192	5.61
1007.617	-1.09
1008.042	-6.89
1008.468	-6.79
1008.893	-5.69
1009.318	0.11
1009.743	-4.99
1010.168	3.11
1010.593	4.11
1011.018	-3.29
1011.443	-1.29
1011.868	-5.69
1012.293	-6.49
1012.718	-5.19
1013.143	2.31
1013.567	-1.99
1013.992	-2.79
1014.417	-13.89
1014.842	2.61
1015.267	-8.79
1015.691	-1.99
1016.116	10.71
1016.541	-4.69
1016.965	4.11
1017.39	-0.89
1017.814	2.11
1018.239	1.31
1018.663	-3.69
1019.088	-6.59
1019.512	-3.29
1019.937	-0.99
1020.361	-6.19
1020.785	-6.99
1021.21	-3.49
1021.634	-4.69
1022.058	-3.39
1022.483	1.11
1022.907	0.21
1023.331	-8.59
1023.755	-8.79
1024.179	-1.49
1024.604	-5.39
1025.028	-6.89
1025.452	-3.29
1025.876	-3.29
1026.3	1.21
1026.724	-4.19
1027.148	-5.19
1027.572	-12.59
1027.996	-4.19
1028.42	0.31
1028.843	-3.19
1029.267	-4.39
1029.691	-4.29
1030.115	0.01
1030.539	-5.09
1030.962	0.21
1031.386	-6.99
1031.81	-2.29
1032.233	0.51
1032.657	1.11
1033.08	-3.09
1033.504	-2.09
1033.927	-3.09
1034.351	-1.09
1034.774	-1.19
1035.198	-2.99
1035.621	-1.29
1036.045	-9.79
1036.468	-1.09
1036.891	-7.99
1037.315	-12.69
1037.738	-11.69
1038.161	-4.79
1038.584	-9.49
1039.008	0.61
1039.431	-7.49
1039.854	1.41
1040.277	-9.19
1040.7	-13.19
1041.123	-0.49
1041.546	-2.49
1041.969	-2.99
1042.392	-5.99
1042.815	-2.09
1043.238	3.11
1043.661	5.31
1044.084	-10.99
1044.507	-1.29
1044.93	-6.59
1045.352	-1.29
1045.775	0.11
1046.198	1.81
1046.621	-4.09
1047.043	-5.49
1047.466	5.71
1047.889	0.11
1048.311	0.31
1048.734	-7.19
1049.156	-1.49
1049.579	-2.39
1050.001	1.81
1050.424	-0.49
1050.846	-4.39
1051.269	0.91
1051.691	-8.59
1052.113	-4.59
1052.536	-2.39
1052.958	-8.69
1053.38	-7.29
1053.802	-10.89
1054.225	-1.29
1054.647	-10.09
1055.069	-4.59
1055.491	1.21
1055.913	-8.59
1056.335	-1.69
1056.757	1.71
1057.179	-6.09
1057.601	-5.39
1058.023	0.21
1058.445	0.31
1058.867	-3.19
1059.289	-4.09
1059.711	-7.29
1060.133	-0.79
1060.555	-2.49
1060.976	-2.99
1061.398	-1.79
1061.82	-7.09
1062.241	-7.39
1062.663	-11.39
1063.085	-4.49
1063.506	-1.29
1063.928	0.71
1064.35	-4.49
1064.771	-8.69
1065.193	-4.09
1065.614	-10.19
1066.035	-2.19
1066.457	-7.19
1066.878	-0.99
1067.3	-8.39
1067.721	-6.09
1068.142	-3.79
1068.564	0.01
1068.985	-7.49
1069.406	-6.79
1069.827	-2.89
1070.248	2.41
1070.67	-12.29
1071.091	-7.99
1071.512	-0.79
1071.933	-0.79
1072.354	-4.99
1072.775	-9.79
1073.196	-1.99
1073.617	-3.69
1074.038	-2.99
1074.459	-4.89
1074.88	-7.29
1075.3	6.81
1075.721	-7.99
1076.142	1.51
1076.563	1.01
1076.983	-11.19
1077.404	-6.89
1077.825	-7.99
1078.246	-0.09
1078.666	-13.39
1079.087	-2.69
1079.507	-6.89
1079.928	-0.29
1080.348	-3.59
1080.769	-5.19
1081.189	-2.69
1081.61	2.11
1082.03	-3.89
1082.451	-2.99
1082.871	-5.29
1083.291	-11.59
1083.711	-12.69
1084.132	-2.29
1084.552	-4.89
1084.972	-4.59
1085.392	-7.79
1085.813	-9.69
1086.233	-6.69
1086.653	-11.19
1087.073	2.91
1087.493	-7.29
1087.913	-8.79
1088.333	-7.29
1088.753	4.21
1089.173	0.11
1089.593	-9.59
1090.013	-1.59
1090.433	6.11
1090.852	0.81
1091.272	0.41
1091.692	-0.09
1092.112	5.71
1092.531	-7.89
1092.951	-11.49
1093.371	3.91
1093.79	0.31
1094.21	-5.59
1094.63	-5.59
1095.049	-10.09
1095.469	-0.69
1095.888	1.61
1096.308	3.11
1096.727	6.81
1097.146	-3.19
1097.566	-2.49
1097.985	-4.79
1098.405	-0.19
1098.824	-4.89
1099.243	-8.29
1099.662	-10.79
1100.082	-5.49
1100.501	-2.19
1100.92	-7.59
1101.339	-2.89
1101.758	-2.09
