Data from 20171114-ORNL-Ar_H_NY_Subt18_08-05-31-325.txt Node
Date: Tue Nov 14 08:05:31 EST 2017
User: Ender
Spectrometer: HR+D1039
Trigger mode: 0
Integration Time (sec): 2.730000E-2
Scans to average: 10
Electric dark correction enabled: true
Nonlinearity correction enabled: false
Boxcar width: 0
XAxis mode: Wavelengths
Number of Pixels in Spectrum: 2048
>>>>>Begin Spectral Data<<<<<
187.836	-1.38
188.309	-1.38
188.782	-1.38
189.255	6.22
189.728	-1.58
190.201	5.52
190.674	0.32
191.147	0.62
191.619	-6.98
192.092	4.52
192.565	5.32
193.038	-0.58
193.511	0.92
193.984	0.72
194.456	-2.08
194.929	-3.68
195.402	-7.08
195.874	-0.88
196.347	-3.58
196.82	-2.68
197.292	5.82
197.765	1.02
198.237	-5.68
198.71	1.72
199.182	1.22
199.655	4.92
200.127	-5.38
200.6	-6.48
201.072	-5.88
201.544	-2.98
202.017	0.82
202.489	1.72
202.961	1.32
203.433	-5.38
203.906	-9.68
204.378	-2.88
204.85	-6.38
205.322	-7.08
205.794	-4.28
206.266	-3.08
206.739	-9.18
207.211	6.52
207.683	-10.68
208.155	-7.98
208.627	-7.18
209.099	-5.28
209.57	-14.48
210.042	-5.98
210.514	-5.08
210.986	2.92
211.458	-4.58
211.93	-5.58
212.402	3.62
212.873	-4.68
213.345	-14.28
213.817	-9.48
214.288	-3.38
214.76	-10.58
215.232	-5.98
215.703	-1.38
216.175	-3.78
216.646	-6.78
217.118	-13.58
217.589	-7.48
218.061	0.92
218.532	-7.48
219.004	-3.88
219.475	-4.38
219.946	-1.18
220.418	-4.28
220.889	-0.78
221.36	2.92
221.832	-3.38
222.303	-10.08
222.774	-4.68
223.245	-14.38
223.717	-10.78
224.188	-9.08
224.659	-5.48
225.13	-11.08
225.601	-4.78
226.072	5.72
226.543	-1.18
227.014	-3.78
227.485	-5.78
227.956	-9.38
228.427	-8.68
228.898	-0.88
229.369	2.02
229.839	-6.98
230.31	-9.48
230.781	9.52
231.252	-1.08
231.722	-2.98
232.193	-1.48
232.664	-0.58
233.135	1.72
233.605	-1.18
234.076	-6.88
234.546	5.52
235.017	8.02
235.487	0.42
235.958	6.12
236.428	-3.78
236.899	4.52
237.369	8.52
237.84	0.12
238.31	1.62
238.78	6.32
239.251	-1.28
239.721	1.92
240.191	0.92
240.662	-0.38
241.132	3.02
241.602	-2.68
242.072	0.02
242.542	5.02
243.013	1.92
243.483	0.02
243.953	4.82
244.423	3.42
244.893	-3.68
245.363	3.32
245.833	3.62
246.303	0.42
246.773	6.92
247.243	-2.58
247.712	4.32
248.182	4.02
248.652	5.02
249.122	-1.38
249.592	18.02
250.061	24.22
250.531	38.42
251.001	9.22
251.471	23.82
251.94	17.62
252.41	4.12
252.879	-0.58
253.349	10.42
253.818	5.72
254.288	4.32
254.757	7.02
255.227	6.22
255.696	3.92
256.166	6.72
256.635	5.72
257.105	6.52
257.574	5.22
258.043	13.62
258.513	16.22
258.982	16.42
259.451	6.02
259.92	18.32
260.389	14.62
260.859	16.52
261.328	12.52
261.797	21.92
262.266	7.12
262.735	11.22
263.204	6.32
263.673	0.62
264.142	7.72
264.611	5.22
265.08	1.62
265.549	-2.08
266.018	8.22
266.487	-1.88
266.955	-8.08
267.424	-1.08
267.893	7.22
268.362	4.12
268.83	5.82
269.299	4.12
269.768	4.32
270.236	7.72
270.705	3.92
271.174	12.02
271.642	7.32
272.111	6.72
272.579	19.22
273.048	25.12
273.516	34.22
273.985	34.32
274.453	20.92
274.922	20.12
275.39	14.82
275.858	4.72
276.327	10.42
276.795	17.02
277.263	11.32
277.731	33.82
278.2	59.62
278.668	62.12
279.136	55.32
279.604	22.42
280.072	14.42
280.54	11.32
281.008	14.12
281.477	11.42
281.945	18.22
282.413	17.62
282.881	15.42
283.348	10.12
283.816	17.52
284.284	16.02
284.752	21.82
285.22	12.22
285.688	17.72
286.156	23.52
286.623	52.92
287.091	51.82
287.559	30.02
288.026	21.42
288.494	16.52
288.962	5.92
289.429	10.62
289.897	18.92
290.364	12.12
290.832	18.72
291.3	11.92
291.767	21.02
292.234	19.82
292.702	15.62
293.169	17.52
293.637	19.52
294.104	17.92
294.571	7.82
295.039	13.22
295.506	18.12
295.973	16.72
296.44	17.32
296.908	18.62
297.375	21.12
297.842	22.72
298.309	15.62
298.776	15.92
299.243	21.12
299.71	5.72
300.177	18.72
300.644	23.12
301.111	27.12
301.578	26.62
302.045	21.62
302.512	27.02
302.979	28.82
303.446	18.72
303.913	20.52
304.379	22.12
304.846	25.02
305.313	26.72
305.78	26.12
306.246	30.12
306.713	24.22
307.18	28.02
307.646	35.12
308.113	31.52
308.579	25.62
309.046	30.72
309.512	26.42
309.979	23.82
310.445	27.82
310.912	32.32
311.378	34.42
311.845	28.92
312.311	37.82
312.777	35.92
313.244	28.72
313.71	33.62
314.176	35.12
314.642	26.82
315.109	29.12
315.575	38.92
316.041	36.92
316.507	30.12
316.973	41.42
317.439	42.12
317.905	44.22
318.371	36.72
318.837	37.02
319.303	31.02
319.769	35.92
320.235	36.52
320.701	39.82
321.167	42.62
321.633	40.42
322.099	43.72
322.564	47.62
323.03	45.42
323.496	36.42
323.962	45.82
324.427	39.42
324.893	46.92
325.359	36.32
325.824	36.82
326.29	35.62
326.755	44.72
327.221	39.12
327.686	44.32
328.152	48.72
328.617	42.12
329.083	46.72
329.548	52.42
330.014	50.02
330.479	43.82
330.944	46.22
331.41	44.42
331.875	43.62
332.34	43.22
332.805	39.62
333.271	53.02
333.736	45.52
334.201	55.12
334.666	55.02
335.131	48.62
335.596	53.22
336.061	55.62
336.526	45.72
336.991	44.62
337.456	57.92
337.921	53.12
338.386	47.02
338.851	50.12
339.316	47.12
339.781	51.22
340.246	51.52
340.711	48.52
341.175	53.22
341.64	45.92
342.105	53.02
342.569	55.12
343.034	62.32
343.499	60.72
343.963	48.92
344.428	64.32
344.893	67.12
345.357	64.92
345.822	66.62
346.286	68.12
346.751	78.12
347.215	70.82
347.679	76.42
348.144	100.52
348.608	81.42
349.073	71.22
349.537	78.22
350.001	88.92
350.465	91.62
350.93	80.72
351.394	84.92
351.858	73.12
352.322	93.92
352.786	86.02
353.25	100.72
353.715	114.42
354.179	98.92
354.643	126.12
355.107	128.92
355.571	105.02
356.035	98.72
356.498	117.92
356.962	124.72
357.426	131.82
357.89	113.12
358.354	94.72
358.818	84.12
359.281	80.72
359.745	74.42
360.209	80.32
360.673	76.72
361.136	84.02
361.6	89.62
362.064	85.82
362.527	83.62
362.991	93.02
363.454	81.02
363.918	77.22
364.381	77.32
364.845	83.42
365.308	95.62
365.772	87.32
366.235	87.52
366.698	84.42
367.162	82.92
367.625	81.42
368.088	89.52
368.552	86.02
369.015	94.62
369.478	91.12
369.941	101.62
370.404	92.52
370.867	102.72
371.331	103.52
371.794	116.12
372.257	109.22
372.72	116.82
373.183	107.32
373.646	99.32
374.109	99.52
374.572	108.82
375.035	106.52
375.497	110.42
375.96	106.52
376.423	108.92
376.886	117.82
377.349	106.42
377.811	104.12
378.274	114.12
378.737	103.62
379.199	119.12
379.662	115.02
380.125	121.32
380.587	118.02
381.05	124.62
381.512	128.22
381.975	127.42
382.437	132.12
382.9	129.32
383.362	130.02
383.825	132.52
384.287	148.02
384.75	143.82
385.212	138.52
385.674	142.42
386.136	136.02
386.599	124.12
387.061	123.12
387.523	126.92
387.985	132.72
388.447	148.32
388.91	149.62
389.372	155.62
389.834	154.32
390.296	149.52
390.758	152.22
391.22	173.82
391.682	209.92
392.144	290.52
392.606	222.22
393.068	164.52
393.529	160.32
393.991	152.62
394.453	148.22
394.915	157.12
395.377	188.52
395.838	211.32
396.3	157.02
396.762	148.22
397.224	131.32
397.685	128.92
398.147	130.52
398.608	132.82
399.07	126.92
399.531	129.42
399.993	140.72
400.454	152.22
400.916	152.42
401.377	148.52
401.839	153.62
402.3	153.02
402.762	164.92
403.223	178.52
403.684	169.12
404.145	156.82
404.607	167.62
405.068	170.22
405.529	167.32
405.99	189.42
406.451	178.42
406.913	173.22
407.374	163.52
407.835	160.42
408.296	159.82
408.757	169.32
409.218	190.92
409.679	178.12
410.14	179.12
410.601	176.82
411.062	182.92
411.522	193.02
411.983	190.02
412.444	179.52
412.905	175.02
413.366	178.62
413.826	193.52
414.287	212.62
414.748	260.42
415.208	247.92
415.669	210.92
416.13	206.72
416.59	206.12
417.051	203.12
417.511	213.92
417.972	238.72
418.432	250.52
418.893	284.62
419.353	247.42
419.814	191.92
420.274	176.42
420.734	177.42
421.195	194.12
421.655	202.62
422.115	191.52
422.576	198.22
423.036	201.02
423.496	203.42
423.956	209.82
424.416	228.22
424.876	263.42
425.336	259.72
425.797	256.02
426.257	258.72
426.717	238.62
427.177	230.02
427.637	220.52
428.097	247.12
428.556	247.92
429.016	269.42
429.476	262.72
429.936	269.52
430.396	274.12
430.856	293.62
431.315	314.92
431.775	354.42
432.235	381.02
432.694	349.82
433.154	361.52
433.614	390.02
434.073	340.02
434.533	288.22
434.993	279.22
435.452	285.82
435.912	292.42
436.371	297.92
436.83	287.22
437.29	271.52
437.749	244.82
438.209	248.02
438.668	267.72
439.127	288.02
439.587	264.52
440.046	248.22
440.505	260.42
440.964	280.02
441.424	325.22
441.883	318.02
442.342	268.02
442.801	229.42
443.26	224.42
443.719	219.72
444.178	213.32
444.637	208.92
445.096	222.62
445.555	216.92
446.014	227.92
446.473	224.32
446.932	231.72
447.391	223.42
447.849	224.72
448.308	215.82
448.767	222.02
449.226	240.02
449.685	237.42
450.143	248.92
450.602	242.72
451.061	225.92
451.519	232.02
451.978	232.52
452.436	237.52
452.895	240.42
453.353	249.92
453.812	241.32
454.27	236.82
454.729	239.72
455.187	238.32
455.646	245.42
456.104	244.42
456.562	261.62
457.021	267.42
457.479	270.02
457.937	275.22
458.395	272.52
458.854	243.22
459.312	252.02
459.77	275.12
460.228	258.52
460.686	245.02
461.144	243.22
461.602	242.92
462.06	236.62
462.518	253.32
462.976	256.12
463.434	262.22
463.892	271.12
464.35	272.12
464.808	292.12
465.266	268.02
465.724	274.72
466.181	268.12
466.639	272.42
467.097	291.22
467.555	299.12
468.012	307.62
468.47	314.52
468.928	330.22
469.385	338.62
469.843	348.42
470.3	352.42
470.758	362.32
471.215	389.12
471.673	407.62
472.13	407.52
472.588	418.92
473.045	364.42
473.503	370.72
473.96	395.42
474.417	402.62
474.875	437.92
475.332	477.92
475.789	467.62
476.246	463.32
476.704	483.02
477.161	505.82
477.618	523.02
478.075	558.12
478.532	621.12
478.989	698.12
479.446	812.12
479.903	789.72
480.36	811.82
480.817	870.32
481.274	984.92
481.731	1070.62
482.188	1177.32
482.645	1312.92
483.102	1418.82
483.558	1556.12
484.015	1611.02
484.472	1599.22
484.929	1535.42
485.385	1486.12
485.842	1444.32
486.299	1364.22
486.755	1306.82
487.212	1106.02
487.668	934.42
488.125	858.32
488.582	778.22
489.038	736.72
489.494	712.12
489.951	687.52
490.407	665.92
490.864	647.72
491.32	648.82
491.776	636.62
492.233	651.62
492.689	603.92
493.145	604.62
493.602	599.92
494.058	624.52
494.514	616.32
494.97	641.92
495.426	650.72
495.882	624.02
496.338	620.62
496.794	623.52
497.251	608.62
497.707	634.62
498.163	639.42
498.618	654.02
499.074	656.72
499.53	683.32
499.986	676.42
500.442	654.12
500.898	632.42
501.354	622.02
501.809	638.52
502.265	641.92
502.721	666.82
503.177	672.82
503.632	672.92
504.088	679.82
504.543	712.42
504.999	710.92
505.455	663.22
505.91	634.42
506.366	636.92
506.821	635.82
507.277	623.62
507.732	625.72
508.187	620.72
508.643	634.92
509.098	633.42
509.553	649.92
510.009	667.52
510.464	674.62
510.919	688.62
511.375	695.22
511.83	711.12
512.285	715.32
512.74	754.32
513.195	783.82
513.65	769.82
514.105	779.32
514.56	769.62
515.015	802.52
515.47	810.42
515.925	782.82
516.38	790.02
516.835	797.72
517.29	792.72
517.745	774.72
518.2	765.62
518.655	744.52
519.109	748.32
519.564	744.92
520.019	736.82
520.474	743.92
520.928	734.52
521.383	719.72
521.838	709.92
522.292	716.62
522.747	705.22
523.201	702.52
523.656	691.72
524.11	688.72
524.565	688.12
525.019	681.92
525.474	695.62
525.928	705.02
526.382	692.82
526.837	699.42
527.291	701.42
527.745	688.82
528.2	693.52
528.654	693.22
529.108	695.82
529.562	689.62
530.016	693.22
530.47	686.82
530.925	696.02
531.379	695.12
531.833	709.32
532.287	694.42
532.741	713.62
533.195	704.62
533.649	717.12
534.103	715.52
534.556	708.72
535.01	712.62
535.464	714.62
535.918	716.52
536.372	720.62
536.826	720.42
537.279	702.02
537.733	710.12
538.187	712.62
538.64	713.12
539.094	716.42
539.548	732.02
540.001	715.12
540.455	721.72
540.908	719.72
541.362	721.22
541.815	747.82
542.269	741.32
542.722	755.02
543.175	769.12
543.629	774.82
544.082	784.52
544.536	789.72
544.989	781.22
545.442	791.12
545.895	789.52
546.349	784.62
546.802	782.42
547.255	788.52
547.708	800.82
548.161	814.92
548.614	820.22
549.067	838.22
549.52	822.02
549.973	805.52
550.426	798.32
550.879	784.02
551.332	797.72
551.785	798.32
552.238	799.92
552.691	810.22
553.144	827.32
553.596	838.72
554.049	850.72
554.502	889.52
554.955	905.82
555.407	908.72
555.86	902.62
556.313	876.52
556.765	888.02
557.218	868.82
557.67	877.02
558.123	875.42
558.576	858.62
559.028	866.32
559.48	884.92
559.933	869.82
560.385	834.82
560.838	797.02
561.29	788.02
561.742	776.52
562.195	745.22
562.647	758.32
563.099	765.52
563.551	761.92
564.004	774.02
564.456	767.12
564.908	749.42
565.36	745.72
565.812	725.02
566.264	717.92
566.716	719.72
567.168	704.32
567.62	713.02
568.072	688.92
568.524	683.32
568.976	683.92
569.428	668.22
569.88	671.02
570.332	672.02
570.784	675.22
571.235	683.72
571.687	678.42
572.139	682.82
572.59	696.72
573.042	700.22
573.494	701.52
573.945	688.82
574.397	684.72
574.849	681.62
575.3	678.82
575.752	673.72
576.203	661.72
576.655	673.92
577.106	662.22
577.557	659.32
578.009	663.92
578.46	659.92
578.912	651.52
579.363	662.82
579.814	653.52
580.265	658.22
580.717	660.22
581.168	657.12
581.619	663.12
582.07	664.42
582.521	662.72
582.972	668.72
583.423	670.72
583.875	673.62
584.326	682.52
584.777	732.62
585.227	804.92
585.678	893.62
586.129	980.52
586.58	1057.22
587.031	1142.82
587.482	1298.52
587.933	1474.02
588.384	1283.42
588.834	962.42
589.285	788.32
589.736	770.42
590.186	754.22
590.637	757.12
591.088	731.52
591.538	716.82
591.989	720.42
592.439	707.12
592.89	700.62
593.34	693.02
593.791	703.02
594.241	689.72
594.692	685.62
595.142	687.82
595.593	691.02
596.043	693.02
596.493	699.92
596.943	696.32
597.394	697.62
597.844	691.92
598.294	703.72
598.744	730.72
599.195	761.92
599.645	795.62
600.095	822.32
600.545	895.92
600.995	934.82
601.445	994.32
601.895	1064.83
602.345	1097.92
602.795	1089.03
603.245	1048.12
603.695	991.22
604.145	949.02
604.594	895.52
605.044	831.42
605.494	784.72
605.944	736.62
606.393	721.22
606.843	704.52
607.293	721.32
607.743	728.72
608.192	726.72
608.642	743.82
609.091	749.22
609.541	757.82
609.99	742.92
610.44	756.02
610.889	703.52
611.339	685.52
611.788	664.12
612.238	678.22
612.687	705.72
613.136	698.42
613.586	719.92
614.035	715.92
614.484	734.82
614.933	738.22
615.383	736.12
615.832	713.72
616.281	701.02
616.73	675.82
617.179	652.42
617.628	642.42
618.077	615.12
618.526	607.02
618.975	600.32
619.424	597.92
619.873	593.82
620.322	591.52
620.771	589.52
621.22	584.12
621.669	573.42
622.118	565.02
622.567	563.02
623.015	558.42
623.464	552.72
623.913	541.92
624.361	531.62
624.81	536.42
625.259	537.52
625.707	543.72
626.156	544.92
626.604	534.72
627.053	542.22
627.501	544.42
627.95	555.92
628.398	561.92
628.847	555.52
629.295	547.72
629.744	554.82
630.192	554.62
630.64	544.42
631.089	544.82
631.537	548.72
631.985	547.52
632.433	577.22
632.881	578.72
633.33	626.62
633.778	609.12
634.226	546.42
634.674	547.02
635.122	547.32
635.57	570.92
636.018	606.02
636.466	564.22
636.914	532.42
637.362	538.32
637.81	555.52
638.258	553.52
638.705	552.52
639.153	583.82
639.601	593.82
640.049	609.02
640.497	641.12
640.944	668.72
641.392	619.02
641.84	587.72
642.287	560.62
642.735	559.72
643.182	556.22
643.63	558.32
644.078	549.32
644.525	564.52
644.973	575.22
645.42	572.22
645.867	602.22
646.315	616.22
646.762	644.82
647.21	670.52
647.657	686.32
648.104	720.12
648.551	750.02
648.999	814.22
649.446	868.92
649.893	973.62
650.34	1133.42
650.787	1329.52
651.234	1660.12
651.682	2159.72
652.129	2963.02
652.576	4266.43
653.023	6292.52
653.47	8650.52
653.917	10890.12
654.363	12636.63
654.81	14054.33
655.257	13355.53
655.704	8733.02
656.151	5166.52
656.598	3328.12
657.044	2360.42
657.491	1808.82
657.938	1455.52
658.385	1215.92
658.831	1041.92
659.278	920.52
659.724	824.92
660.171	760.42
660.618	699.92
661.064	657.62
661.511	644.22
661.957	632.12
662.404	627.42
662.85	628.32
663.296	602.92
663.743	542.72
664.189	518.22
664.635	507.92
665.082	507.12
665.528	509.22
665.974	500.82
666.42	484.92
666.867	485.62
667.313	472.32
667.759	455.22
668.205	461.52
668.651	475.42
669.097	461.42
669.543	475.92
669.989	454.12
670.435	427.62
670.881	426.22
671.327	424.72
671.773	449.82
672.219	474.02
672.665	518.72
673.11	548.02
673.556	593.52
674.002	638.72
674.448	634.22
674.893	532.02
675.339	453.32
675.785	423.22
676.23	397.42
676.676	373.92
677.122	357.02
677.567	354.12
678.013	348.22
678.458	335.02
678.904	338.42
679.349	326.82
679.794	334.22
680.24	336.02
680.685	336.72
681.131	336.22
681.576	331.82
682.021	332.92
682.466	328.92
682.912	329.02
683.357	339.42
683.802	357.12
684.247	384.82
684.692	432.52
685.137	468.22
685.583	503.82
686.028	535.52
686.473	485.92
686.918	426.82
687.363	393.32
687.807	373.02
688.252	351.52
688.697	339.62
689.142	316.72
689.587	320.52
690.032	304.32
690.477	321.82
690.921	329.02
691.366	356.32
691.811	383.92
692.255	406.32
692.7	429.52
693.145	469.02
693.589	648.42
694.034	1042.92
694.478	1436.72
694.923	1647.42
695.367	2152.82
695.812	1144.12
696.256	475.82
696.701	351.22
697.145	328.02
697.59	310.12
698.034	299.02
698.478	307.32
698.922	305.02
699.367	311.82
699.811	323.42
700.255	329.52
700.699	359.92
701.143	398.12
701.588	454.72
702.032	491.02
702.476	483.52
702.92	462.22
703.364	466.82
703.808	592.92
704.252	957.62
704.696	1363.52
705.14	1587.52
705.584	2037.42
706.027	1006.92
706.471	487.42
706.915	377.42
707.359	337.82
707.803	299.92
708.246	294.62
708.69	291.42
709.134	295.12
709.577	292.22
710.021	296.42
710.465	286.42
710.908	282.92
711.352	273.12
711.795	294.32
712.239	330.52
712.682	360.82
713.126	397.22
713.569	439.12
714.012	351.42
714.456	308.02
714.899	292.12
715.342	263.32
715.786	243.52
716.229	240.82
716.672	243.22
717.115	222.92
717.558	232.42
718.002	234.92
718.445	242.42
718.888	266.42
719.331	280.82
719.774	287.42
720.217	286.22
720.66	265.42
721.103	253.42
721.546	231.82
721.989	231.62
722.432	221.52
722.874	224.82
723.317	216.12
723.76	226.02
724.203	243.42
724.645	299.02
725.088	417.62
725.531	535.12
725.974	607.92
726.416	515.32
726.859	282.42
727.301	229.72
727.744	227.62
728.187	226.82
728.629	223.32
729.071	225.32
729.514	241.72
729.956	250.72
730.399	263.42
730.841	274.02
731.283	257.42
731.726	248.42
732.168	247.42
732.61	255.52
733.053	269.02
733.495	298.92
733.937	332.42
734.379	372.22
734.821	402.92
735.263	508.22
735.705	760.62
736.148	1444.02
736.59	2410.82
737.032	2891.32
737.474	2352.52
737.916	757.52
738.357	396.32
738.799	305.62
739.241	283.82
739.683	263.52
740.125	278.62
740.567	280.52
741.008	301.02
741.45	300.42
741.892	292.92
742.334	322.62
742.775	343.22
743.217	322.52
743.658	250.32
744.1	228.22
744.542	251.02
744.983	298.02
745.425	322.72
745.866	331.12
746.307	273.22
746.749	260.52
747.19	302.52
747.632	417.52
748.073	789.92
748.514	1704.62
748.956	2661.42
749.397	3354.03
749.838	2779.62
750.279	2814.72
750.72	1425.72
751.162	521.02
751.603	306.02
752.044	237.72
752.485	193.92
752.926	196.92
753.367	190.92
753.808	183.82
754.249	175.82
754.69	177.32
755.131	171.42
755.572	164.12
756.013	172.02
756.453	177.72
756.894	169.92
757.335	173.62
757.776	177.52
758.216	184.82
758.657	175.62
759.098	186.72
759.538	208.42
759.979	244.32
760.42	341.92
760.86	643.42
761.301	1643.02
761.741	4084.52
762.182	6098.32
762.622	4315.93
763.063	1240.72
763.503	506.62
763.943	319.12
764.384	323.82
764.824	387.02
765.264	414.32
765.705	292.82
766.145	196.32
766.585	177.02
767.025	169.72
767.465	173.72
767.906	231.72
768.346	302.72
768.786	325.92
769.226	250.92
769.666	299.22
770.106	565.52
770.546	1425.52
770.986	2490.93
771.426	2247.52
771.866	736.62
772.306	313.62
772.745	195.72
773.185	158.52
773.625	159.92
774.065	156.22
774.505	187.12
774.944	282.72
775.384	631.32
775.824	1165.22
776.263	1160.22
776.703	483.72
777.142	207.32
777.582	141.32
778.021	127.22
778.461	133.42
778.9	134.32
779.34	134.62
779.779	108.12
780.219	103.72
780.658	99.72
781.097	106.72
781.537	101.02
781.976	101.32
782.415	107.32
782.855	96.72
783.294	94.62
783.733	102.52
784.172	104.52
784.611	93.02
785.05	97.72
785.489	103.42
785.928	108.72
786.367	113.42
786.806	112.82
787.245	120.52
787.684	121.92
788.123	137.92
788.562	126.82
789.001	113.22
789.44	120.32
789.879	110.72
790.317	116.52
790.756	120.62
791.195	116.52
791.634	141.22
792.072	190.42
792.511	335.42
792.95	924.62
793.388	2008.02
793.827	1842.92
794.265	642.32
794.704	264.52
795.142	176.52
795.581	141.12
796.019	128.82
796.458	125.02
796.896	119.82
797.334	121.02
797.773	147.42
798.211	203.72
798.649	392.62
799.087	947.92
799.526	1485.52
799.964	1880.12
800.402	1916.92
800.84	720.42
801.278	283.12
801.716	179.82
802.154	141.02
802.592	135.32
803.03	135.92
803.468	124.62
803.906	136.22
804.344	137.32
804.782	135.62
805.22	125.52
805.658	116.82
806.096	137.72
806.533	143.92
806.971	167.82
807.409	202.22
807.847	288.02
808.284	597.42
808.722	1702.92
809.16	3067.72
809.597	2882.93
810.035	5042.72
810.472	5524.93
810.91	1980.82
811.347	751.02
811.785	385.22
812.222	238.22
812.66	188.32
813.097	150.82
813.535	129.92
813.972	122.92
814.409	109.12
814.846	97.62
815.284	111.62
815.721	89.12
816.158	103.12
816.595	99.52
817.032	162.82
817.47	191.92
817.907	163.72
818.344	146.22
818.781	110.52
819.218	94.22
819.655	114.72
820.092	173.52
820.529	197.42
820.966	165.72
821.403	127.52
821.839	104.62
822.276	100.42
822.713	112.22
823.15	127.62
823.587	110.12
824.023	138.92
824.46	273.42
824.897	823.52
825.333	1281.42
825.77	544.62
826.206	215.52
826.643	124.62
827.08	99.22
827.516	72.52
827.953	71.72
828.389	76.62
828.825	61.72
829.262	65.32
829.698	63.42
830.135	59.92
830.571	60.62
831.007	58.22
831.443	60.92
831.88	54.62
832.316	58.22
832.752	59.92
833.188	57.82
833.624	60.92
834.06	58.42
834.497	61.62
834.933	62.22
835.369	70.32
835.805	62.22
836.241	71.52
836.677	71.82
837.112	82.42
837.548	98.82
837.984	122.02
838.42	180.12
838.856	447.32
839.292	1384.92
839.727	2175.72
840.163	1009.52
840.599	852.22
841.034	1883.62
841.47	2021.82
841.906	732.02
842.341	314.82
842.777	219.42
843.212	300.62
843.648	300.92
844.083	143.62
844.519	91.62
844.954	71.12
845.39	52.52
845.825	55.02
846.261	54.52
846.696	53.92
847.131	47.52
847.566	50.72
848.002	47.52
848.437	55.82
848.872	57.62
849.307	56.22
849.742	76.52
850.177	163.42
850.613	503.32
851.048	831.22
851.483	362.32
851.918	139.82
852.353	77.92
852.788	61.72
853.223	58.62
853.657	49.62
854.092	42.52
854.527	35.72
854.962	38.92
855.397	32.32
855.832	44.32
856.266	37.62
856.701	37.12
857.136	34.32
857.57	36.02
858.005	49.52
858.44	52.82
858.874	39.82
859.309	50.42
859.743	36.52
860.178	40.72
860.612	37.12
861.047	55.42
861.481	62.62
861.915	66.62
862.35	51.62
862.784	33.72
863.218	36.72
863.653	32.22
864.087	48.62
864.521	48.72
864.955	59.32
865.39	143.32
865.824	161.32
866.258	100.12
866.692	149.62
867.126	157.42
867.56	101.42
867.994	46.82
868.428	34.92
868.862	44.42
869.296	51.42
869.73	50.12
870.164	46.12
870.598	43.32
871.031	32.42
871.465	26.92
871.899	29.82
872.333	21.12
872.766	20.82
873.2	18.72
873.634	30.62
874.067	26.62
874.501	28.82
874.935	31.62
875.368	30.02
875.802	25.32
876.235	20.32
876.669	19.02
877.102	20.92
877.535	25.52
877.969	18.32
878.402	21.92
878.836	20.12
879.269	21.82
879.702	16.52
880.135	26.72
880.569	19.62
881.002	28.52
881.435	22.02
881.868	17.32
882.301	20.92
882.734	15.22
883.167	16.62
883.601	14.52
884.034	24.12
884.467	11.72
884.899	15.22
885.332	14.02
885.765	13.52
886.198	12.42
886.631	16.42
887.064	17.92
887.497	16.12
887.929	22.02
888.362	13.12
888.795	13.82
889.228	17.62
889.66	14.32
890.093	21.02
890.526	17.12
890.958	17.52
891.391	13.22
891.823	20.52
892.256	14.62
892.688	11.52
893.121	17.82
893.553	12.42
893.985	23.92
894.418	17.52
894.85	13.52
895.282	10.72
895.715	12.72
896.147	13.82
896.579	12.32
897.011	11.32
897.444	12.72
897.876	14.52
898.308	12.62
898.74	15.32
899.172	10.82
899.604	24.52
900.036	19.82
900.468	20.52
900.9	13.52
901.332	18.82
901.764	8.62
902.196	22.52
902.628	21.02
903.06	20.72
903.491	25.82
903.923	18.52
904.355	17.82
904.787	26.62
905.218	23.22
905.65	20.02
906.082	10.92
906.513	14.82
906.945	10.62
907.376	14.52
907.808	20.72
908.239	15.22
908.671	20.32
909.102	16.32
909.534	19.72
909.965	44.12
910.397	82.02
910.828	296.22
911.259	455.72
911.691	201.62
912.122	96.62
912.553	50.02
912.984	35.42
913.415	24.82
913.847	24.62
914.278	14.92
914.709	6.42
915.14	10.32
915.571	11.02
916.002	13.12
916.433	18.32
916.864	17.62
917.295	10.12
917.726	14.92
918.157	13.42
918.587	27.72
919.018	22.12
919.449	22.42
919.88	23.32
920.311	27.72
920.741	45.32
921.172	155.12
921.603	145.32
922.033	62.92
922.464	43.62
922.895	20.42
923.325	21.72
923.756	22.12
924.186	10.02
924.617	28.12
925.047	35.92
925.478	48.32
925.908	36.92
926.338	20.42
926.769	22.22
927.199	14.32
927.629	14.02
928.06	19.12
928.49	10.82
928.92	15.52
929.35	11.12
929.78	8.42
930.21	5.52
930.641	7.82
931.071	9.42
931.501	9.32
931.931	5.32
932.361	6.02
932.791	2.32
933.221	7.12
933.651	5.02
934.08	15.22
934.51	26.12
934.94	14.42
935.37	9.92
935.8	11.02
936.229	6.02
936.659	11.32
937.089	2.62
937.519	15.92
937.948	26.72
938.378	16.22
938.807	3.92
939.237	1.02
939.666	12.52
940.096	-8.78
940.525	-0.38
940.955	5.62
941.384	3.02
941.814	0.02
942.243	0.42
942.672	0.62
943.102	-3.38
943.531	-3.58
943.96	1.02
944.39	9.62
944.819	-5.78
945.248	2.62
945.677	-1.88
946.106	5.82
946.535	6.22
946.964	5.32
947.393	-0.08
947.822	3.12
948.251	-2.78
948.68	1.22
949.109	-1.58
949.538	5.42
949.967	-2.28
950.396	3.02
950.825	-3.48
951.254	-0.88
951.682	-7.98
952.111	3.02
952.54	12.32
952.969	-1.78
953.397	-4.78
953.826	-4.18
954.254	-7.58
954.683	0.72
955.112	-1.78
955.54	-0.58
955.969	-0.68
956.397	-1.98
956.826	-1.58
957.254	0.72
957.682	-1.08
958.111	4.52
958.539	-2.38
958.967	-0.98
959.396	-2.48
959.824	4.32
960.252	-2.08
960.68	-8.98
961.109	-1.58
961.537	-2.98
961.965	0.72
962.393	4.42
962.821	-3.38
963.249	-0.58
963.677	2.72
964.105	5.02
964.533	40.02
964.961	32.72
965.389	18.12
965.817	9.22
966.245	-0.28
966.672	0.92
967.1	-4.78
967.528	-1.28
967.956	0.12
968.383	0.32
968.811	3.02
969.239	0.12
969.666	-5.68
970.094	-5.88
970.522	3.12
970.949	-4.88
971.377	1.82
971.804	-2.78
972.232	-2.18
972.659	-3.98
973.087	4.02
973.514	0.22
973.941	-8.58
974.369	0.82
974.796	1.32
975.223	4.12
975.651	-1.08
976.078	-3.48
976.505	-0.68
976.932	2.72
977.359	15.12
977.786	15.02
978.214	-0.48
978.641	-5.98
979.068	-5.88
979.495	-4.48
979.922	-3.28
980.349	-4.98
980.776	3.32
981.202	-3.78
981.629	3.72
982.056	3.22
982.483	-6.38
982.91	1.12
983.337	-10.18
983.763	-1.18
984.19	-6.88
984.617	-2.28
985.043	-6.88
985.47	-1.08
985.897	1.12
986.323	-4.58
986.75	3.72
987.176	-2.48
987.603	0.02
988.029	-0.28
988.456	-6.98
988.882	3.92
989.308	-6.58
989.735	-1.38
990.161	-2.68
990.587	-1.68
991.014	-1.48
991.44	3.82
991.866	-1.08
992.292	-6.38
992.719	-3.88
993.145	2.72
993.571	-10.38
993.997	-5.28
994.423	-5.78
994.849	-6.18
995.275	4.12
995.701	2.12
996.127	-6.68
996.553	1.52
996.979	-9.68
997.405	0.02
997.83	-3.08
998.256	-10.38
998.682	-8.78
999.108	-5.58
999.534	-4.38
999.959	-2.68
1000.385	-3.08
1000.811	-0.98
1001.236	-10.28
1001.662	-10.38
1002.087	-5.98
1002.513	-1.18
1002.938	0.12
1003.364	-5.28
1003.789	1.42
1004.215	0.02
1004.64	-2.58
1005.066	-0.18
1005.491	-4.38
1005.916	1.72
1006.342	2.02
1006.767	-9.68
1007.192	3.02
1007.617	-6.08
1008.042	-2.98
1008.468	-9.38
1008.893	-6.18
1009.318	-3.08
1009.743	0.02
1010.168	0.72
1010.593	2.02
1011.018	-3.88
1011.443	-0.88
1011.868	-0.08
1012.293	-7.98
1012.718	-11.58
1013.143	-2.78
1013.567	-1.68
1013.992	-6.48
1014.417	-9.78
1014.842	-0.18
1015.267	-7.58
1015.691	-3.58
1016.116	7.82
1016.541	0.52
1016.965	2.92
1017.39	-2.08
1017.814	-3.08
1018.239	-5.88
1018.663	-7.78
1019.088	-10.78
1019.512	1.42
1019.937	-5.48
1020.361	-9.78
1020.785	-9.18
1021.21	-2.18
1021.634	-8.08
1022.058	-5.78
1022.483	1.02
1022.907	-5.78
1023.331	-3.58
1023.755	-3.08
1024.179	1.02
1024.604	-7.38
1025.028	-5.88
1025.452	-1.28
1025.876	-1.78
1026.3	4.52
1026.724	-13.58
1027.148	-4.08
1027.572	-8.08
1027.996	-3.68
1028.42	-4.78
1028.843	-0.98
1029.267	-9.28
1029.691	-6.78
1030.115	-5.08
1030.539	-7.68
1030.962	-4.88
1031.386	-8.58
1031.81	0.32
1032.233	-1.88
1032.657	-4.68
1033.08	-1.98
1033.504	-1.78
1033.927	-4.98
1034.351	-1.98
1034.774	-7.38
1035.198	-7.28
1035.621	-12.28
1036.045	-10.48
1036.468	4.42
1036.891	-16.38
1037.315	-8.58
1037.738	-7.78
1038.161	-0.68
1038.584	-2.78
1039.008	-5.88
1039.431	-1.38
1039.854	-3.28
1040.277	-5.98
1040.7	-9.38
1041.123	3.82
1041.546	-6.88
1041.969	-9.48
1042.392	-4.28
1042.815	-12.28
1043.238	-1.48
1043.661	2.62
1044.084	-9.68
1044.507	-5.38
1044.93	-5.98
1045.352	-10.58
1045.775	0.02
1046.198	-6.98
1046.621	-2.18
1047.043	-1.58
1047.466	1.02
1047.889	-1.28
1048.311	-1.98
1048.734	-3.78
1049.156	5.42
1049.579	1.32
1050.001	0.72
1050.424	3.02
1050.846	-10.28
1051.269	0.22
1051.691	-3.18
1052.113	0.22
1052.536	-0.28
1052.958	1.62
1053.38	-8.18
1053.802	-7.58
1054.225	0.92
1054.647	-5.98
1055.069	0.72
1055.491	-3.68
1055.913	-11.18
1056.335	2.82
1056.757	-1.68
1057.179	-3.88
1057.601	-2.48
1058.023	-6.78
1058.445	-6.18
1058.867	-4.98
1059.289	-3.38
1059.711	-4.38
1060.133	-7.88
1060.555	-9.88
1060.976	-8.58
1061.398	-3.88
1061.82	-1.68
1062.241	-2.28
1062.663	-14.18
1063.085	-7.98
1063.506	-0.48
1063.928	-0.78
1064.35	1.62
1064.771	-9.68
1065.193	-6.48
1065.614	-11.28
1066.035	-3.28
1066.457	-5.68
1066.878	-0.78
1067.3	-2.88
1067.721	-0.98
1068.142	-2.48
1068.564	-2.38
1068.985	-6.78
1069.406	-4.08
1069.827	-1.78
1070.248	-3.28
1070.67	-5.38
1071.091	-11.78
1071.512	-5.98
1071.933	-1.38
1072.354	-6.38
1072.775	-5.18
1073.196	-9.68
1073.617	-1.78
1074.038	-3.28
1074.459	-2.98
1074.88	-12.48
1075.3	0.22
1075.721	-4.78
1076.142	-0.78
1076.563	1.32
1076.983	-11.48
1077.404	-7.78
1077.825	-13.48
1078.246	-2.08
1078.666	-11.58
1079.087	-8.48
1079.507	-7.18
1079.928	-0.08
1080.348	-3.18
1080.769	-6.48
1081.189	-2.78
1081.61	-5.78
1082.03	-7.48
1082.451	-10.48
1082.871	-6.78
1083.291	-10.68
1083.711	-14.48
1084.132	-5.38
1084.552	-4.98
1084.972	-1.48
1085.392	-10.38
1085.813	-12.58
1086.233	-6.08
1086.653	-0.38
1087.073	-4.08
1087.493	-11.28
1087.913	-9.78
1088.333	-10.58
1088.753	-7.18
1089.173	0.52
1089.593	-6.68
1090.013	-1.68
1090.433	-2.48
1090.852	-2.48
1091.272	0.32
1091.692	-5.28
1092.112	-5.58
1092.531	-5.28
1092.951	-14.68
1093.371	-5.18
1093.79	0.52
1094.21	-9.58
1094.63	-5.58
1095.049	-5.98
1095.469	-2.28
1095.888	-2.18
1096.308	-2.18
1096.727	1.02
1097.146	-7.68
1097.566	2.12
1097.985	-3.28
1098.405	-2.48
1098.824	-2.28
1099.243	-10.08
1099.662	-4.08
1100.082	-6.78
1100.501	-2.68
1100.92	-10.38
1101.339	-3.38
1101.758	-6.08
