Data from 20171114-ORNL-Ar_H_NY_Subt18_08-05-06-212.txt Node
Date: Tue Nov 14 08:05:06 EST 2017
User: Ender
Spectrometer: HR+D1039
Trigger mode: 0
Integration Time (sec): 2.730000E-2
Scans to average: 10
Electric dark correction enabled: true
Nonlinearity correction enabled: false
Boxcar width: 0
XAxis mode: Wavelengths
Number of Pixels in Spectrum: 2048
>>>>>Begin Spectral Data<<<<<
187.836	0.71
188.309	0.71
188.782	0.71
189.255	1.41
189.728	1.91
190.201	3.61
190.674	-0.79
191.147	3.41
191.619	-6.69
192.092	-1.99
192.565	2.21
193.038	2.11
193.511	-4.79
193.984	3.81
194.456	-3.09
194.929	0.51
195.402	1.21
195.874	-3.49
196.347	-3.99
196.82	-8.99
197.292	9.81
197.765	-3.79
198.237	-4.39
198.71	3.61
199.182	-3.49
199.655	4.21
200.127	1.11
200.6	1.41
201.072	-3.49
201.544	-4.69
202.017	-5.69
202.489	2.31
202.961	-0.09
203.433	-1.19
203.906	-7.09
204.378	-7.49
204.85	-1.89
205.322	-6.09
205.794	-3.89
206.266	-6.79
206.739	-9.79
207.211	-0.39
207.683	-12.29
208.155	-6.39
208.627	-8.59
209.099	0.51
209.57	-1.79
210.042	-5.29
210.514	-2.79
210.986	-3.49
211.458	-9.39
211.93	-3.99
212.402	2.51
212.873	-7.99
213.345	-12.19
213.817	-10.39
214.288	-2.79
214.76	-10.99
215.232	-1.59
215.703	1.81
216.175	-5.09
216.646	-0.39
217.118	-11.69
217.589	2.21
218.061	3.71
218.532	-3.19
219.004	-3.89
219.475	-5.69
219.946	-0.19
220.418	-3.29
220.889	2.91
221.36	0.31
221.832	-3.29
222.303	-10.79
222.774	-0.39
223.245	-3.29
223.717	-5.29
224.188	-8.69
224.659	-7.39
225.13	-8.39
225.601	-0.19
226.072	-3.19
226.543	-6.39
227.014	-0.19
227.485	-4.29
227.956	-7.69
228.427	-1.99
228.898	0.61
229.369	4.01
229.839	2.71
230.31	0.11
230.781	1.81
231.252	0.21
231.722	-1.19
232.193	-0.29
232.664	-1.59
233.135	2.71
233.605	3.01
234.076	-0.59
234.546	1.91
235.017	7.51
235.487	7.91
235.958	3.41
236.428	3.91
236.899	8.21
237.369	9.11
237.84	-6.09
238.31	-1.49
238.78	2.41
239.251	4.31
239.721	6.11
240.191	3.41
240.662	-0.09
241.132	2.21
241.602	-4.29
242.072	6.11
242.542	8.41
243.013	0.41
243.483	5.11
243.953	7.31
244.423	-4.89
244.893	-0.69
245.363	0.81
245.833	2.81
246.303	2.51
246.773	10.61
247.243	0.51
247.712	4.11
248.182	10.91
248.652	7.01
249.122	6.51
249.592	15.61
250.061	19.41
250.531	37.71
251.001	21.81
251.471	30.31
251.94	20.21
252.41	11.61
252.879	-1.39
253.349	16.61
253.818	10.31
254.288	4.71
254.757	5.21
255.227	10.61
255.696	2.71
256.166	5.51
256.635	4.21
257.105	10.01
257.574	9.91
258.043	11.41
258.513	14.21
258.982	19.01
259.451	11.91
259.92	20.81
260.389	16.71
260.859	17.41
261.328	11.31
261.797	19.21
262.266	7.31
262.735	13.51
263.204	7.11
263.673	2.61
264.142	-0.49
264.611	-1.49
265.08	-4.49
265.549	2.11
266.018	11.41
266.487	-3.69
266.955	-5.09
267.424	-1.79
267.893	5.21
268.362	7.91
268.83	7.71
269.299	15.11
269.768	10.81
270.236	11.51
270.705	2.91
271.174	11.61
271.642	8.81
272.111	14.71
272.579	19.91
273.048	27.41
273.516	33.61
273.985	30.91
274.453	29.81
274.922	13.41
275.39	13.21
275.858	10.51
276.327	18.31
276.795	19.31
277.263	13.21
277.731	31.01
278.2	60.31
278.668	62.71
279.136	58.11
279.604	24.81
280.072	15.11
280.54	10.11
281.008	10.71
281.477	12.51
281.945	16.71
282.413	16.51
282.881	22.61
283.348	12.61
283.816	17.41
284.284	11.61
284.752	21.71
285.22	13.51
285.688	15.41
286.156	21.81
286.623	44.61
287.091	62.41
287.559	28.81
288.026	27.01
288.494	18.41
288.962	10.01
289.429	10.01
289.897	23.11
290.364	16.21
290.832	12.61
291.3	18.01
291.767	22.31
292.234	22.31
292.702	15.51
293.169	22.01
293.637	23.31
294.104	23.01
294.571	12.31
295.039	12.01
295.506	18.51
295.973	22.11
296.44	22.41
296.908	19.61
297.375	19.31
297.842	21.61
298.309	19.51
298.776	17.81
299.243	18.11
299.71	15.91
300.177	19.81
300.644	30.41
301.111	22.91
301.578	27.31
302.045	20.91
302.512	20.01
302.979	23.31
303.446	25.51
303.913	20.01
304.379	16.31
304.846	31.11
305.313	29.91
305.78	30.11
306.246	27.31
306.713	30.51
307.18	26.91
307.646	39.81
308.113	35.71
308.579	26.51
309.046	29.81
309.512	30.71
309.979	17.51
310.445	28.11
310.912	25.11
311.378	37.01
311.845	28.61
312.311	36.81
312.777	38.41
313.244	36.81
313.71	43.21
314.176	43.21
314.642	40.71
315.109	37.51
315.575	36.01
316.041	44.71
316.507	37.81
316.973	41.51
317.439	37.01
317.905	34.81
318.371	36.81
318.837	30.91
319.303	39.91
319.769	41.81
320.235	36.11
320.701	41.41
321.167	46.91
321.633	41.61
322.099	43.71
322.564	48.61
323.03	45.51
323.496	51.31
323.962	43.81
324.427	38.11
324.893	44.91
325.359	48.81
325.824	40.51
326.29	46.11
326.755	41.01
327.221	44.61
327.686	37.21
328.152	45.51
328.617	44.71
329.083	57.71
329.548	56.21
330.014	52.81
330.479	39.91
330.944	45.71
331.41	41.71
331.875	56.71
332.34	49.11
332.805	45.01
333.271	51.91
333.736	42.81
334.201	52.11
334.666	59.21
335.131	48.81
335.596	56.61
336.061	52.71
336.526	49.21
336.991	48.31
337.456	63.41
337.921	53.41
338.386	51.21
338.851	51.21
339.316	52.81
339.781	50.01
340.246	57.41
340.711	53.61
341.175	48.11
341.64	46.21
342.105	54.41
342.569	59.01
343.034	62.91
343.499	59.51
343.963	52.11
344.428	66.41
344.893	59.01
345.357	69.31
345.822	65.21
346.286	74.61
346.751	72.51
347.215	74.91
347.679	83.41
348.144	98.81
348.608	85.01
349.073	73.91
349.537	79.51
350.001	78.51
350.465	92.21
350.93	82.51
351.394	82.71
351.858	80.01
352.322	92.91
352.786	89.51
353.25	105.91
353.715	113.51
354.179	105.01
354.643	123.71
355.107	127.51
355.571	106.41
356.035	106.41
356.498	123.91
356.962	133.21
357.426	134.11
357.89	121.91
358.354	92.91
358.818	89.81
359.281	82.11
359.745	80.61
360.209	80.11
360.673	78.81
361.136	85.41
361.6	86.21
362.064	86.11
362.527	89.41
362.991	93.91
363.454	89.31
363.918	78.91
364.381	82.31
364.845	91.91
365.308	85.01
365.772	91.11
366.235	89.61
366.698	77.61
367.162	88.01
367.625	85.51
368.088	87.81
368.552	92.71
369.015	93.11
369.478	95.91
369.941	103.71
370.404	97.71
370.867	109.31
371.331	110.31
371.794	113.81
372.257	117.11
372.72	122.31
373.183	113.71
373.646	101.01
374.109	103.81
374.572	115.31
375.035	109.21
375.497	114.61
375.96	112.31
376.423	106.31
376.886	111.61
377.349	115.71
377.811	106.81
378.274	108.01
378.737	108.11
379.199	112.51
379.662	110.21
380.125	119.21
380.587	117.11
381.05	125.31
381.512	130.31
381.975	135.81
382.437	129.01
382.9	126.11
383.362	129.21
383.825	148.41
384.287	145.51
384.75	140.71
385.212	139.81
385.674	142.01
386.136	135.21
386.599	123.91
387.061	129.91
387.523	129.81
387.985	133.61
388.447	141.51
388.91	143.01
389.372	151.31
389.834	152.31
390.296	142.21
390.758	152.51
391.22	166.91
391.682	206.81
392.144	295.71
392.606	231.21
393.068	165.01
393.529	169.71
393.991	152.01
394.453	150.91
394.915	150.81
395.377	190.21
395.838	210.91
396.3	156.11
396.762	139.01
397.224	131.21
397.685	129.11
398.147	130.81
398.608	133.41
399.07	135.71
399.531	136.81
399.993	147.21
400.454	161.11
400.916	138.21
401.377	149.21
401.839	153.61
402.3	154.51
402.762	162.91
403.223	177.61
403.684	171.11
404.145	160.01
404.607	162.01
405.068	165.01
405.529	170.01
405.99	187.11
406.451	171.31
406.913	171.61
407.374	160.31
407.835	159.21
408.296	160.71
408.757	166.31
409.218	182.91
409.679	172.61
410.14	181.01
410.601	180.41
411.062	185.11
411.522	190.61
411.983	191.41
412.444	179.21
412.905	179.81
413.366	182.11
413.826	191.61
414.287	212.31
414.748	251.01
415.208	255.41
415.669	208.01
416.13	206.51
416.59	195.71
417.051	217.31
417.511	219.11
417.972	244.01
418.432	245.91
418.893	275.91
419.353	242.31
419.814	194.41
420.274	184.61
420.734	175.61
421.195	195.41
421.655	188.01
422.115	193.11
422.576	185.01
423.036	194.01
423.496	205.21
423.956	213.41
424.416	229.11
424.876	266.01
425.336	261.51
425.797	257.51
426.257	263.91
426.717	235.01
427.177	232.01
427.637	227.61
428.097	227.81
428.556	239.61
429.016	279.91
429.476	261.81
429.936	270.41
430.396	275.11
430.856	287.21
431.315	314.11
431.775	349.41
432.235	380.61
432.694	349.41
433.154	363.41
433.614	382.71
434.073	329.61
434.533	287.21
434.993	270.01
435.452	289.01
435.912	288.01
436.371	292.11
436.83	276.01
437.29	262.61
437.749	245.81
438.209	241.11
438.668	269.01
439.127	281.81
439.587	264.21
440.046	243.51
440.505	260.41
440.964	279.81
441.424	326.01
441.883	312.21
442.342	258.51
442.801	226.81
443.26	217.91
443.719	224.91
444.178	214.71
444.637	205.91
445.096	223.01
445.555	221.01
446.014	218.31
446.473	224.21
446.932	228.81
447.391	225.91
447.849	228.51
448.308	215.01
448.767	225.31
449.226	230.81
449.685	230.61
450.143	245.01
450.602	228.91
451.061	222.81
451.519	234.41
451.978	228.41
452.436	239.61
452.895	232.61
453.353	245.51
453.812	242.91
454.27	242.41
454.729	236.41
455.187	232.81
455.646	239.21
456.104	247.41
456.562	255.61
457.021	271.31
457.479	259.71
457.937	273.71
458.395	262.61
458.854	249.61
459.312	256.81
459.77	268.01
460.228	257.01
460.686	242.21
461.144	246.61
461.602	244.01
462.06	243.01
462.518	247.01
462.976	250.21
463.434	243.21
463.892	260.61
464.35	277.91
464.808	289.51
465.266	257.11
465.724	268.31
466.181	267.71
466.639	266.31
467.097	283.81
467.555	297.81
468.012	297.41
468.47	302.41
468.928	323.31
469.385	347.61
469.843	345.01
470.3	350.91
470.758	364.61
471.215	376.71
471.673	396.51
472.13	403.01
472.588	408.21
473.045	365.51
473.503	368.31
473.96	385.11
474.417	402.61
474.875	434.11
475.332	474.51
475.789	453.81
476.246	459.01
476.704	479.31
477.161	508.71
477.618	517.11
478.075	552.81
478.532	614.61
478.989	681.51
479.446	799.31
479.903	768.11
480.36	805.11
480.817	873.01
481.274	969.21
481.731	1056.31
482.188	1158.11
482.645	1303.41
483.102	1405.41
483.558	1532.11
484.015	1607.21
484.472	1570.41
484.929	1526.31
485.385	1472.21
485.842	1429.61
486.299	1362.71
486.755	1292.91
487.212	1086.01
487.668	916.31
488.125	849.01
488.582	771.91
489.038	744.51
489.494	717.81
489.951	683.71
490.407	662.71
490.864	636.31
491.32	637.51
491.776	644.11
492.233	643.41
492.689	607.01
493.145	600.11
493.602	596.21
494.058	606.51
494.514	605.81
494.97	636.01
495.426	637.31
495.882	613.81
496.338	608.91
496.794	617.21
497.251	624.01
497.707	627.11
498.163	633.51
498.618	648.31
499.074	650.71
499.53	672.41
499.986	679.11
500.442	642.31
500.898	626.71
501.354	613.61
501.809	634.61
502.265	628.41
502.721	647.41
503.177	669.81
503.632	663.21
504.088	662.21
504.543	701.51
504.999	708.81
505.455	651.21
505.91	624.71
506.366	634.11
506.821	618.91
507.277	624.01
507.732	617.71
508.187	624.61
508.643	631.01
509.098	624.61
509.553	646.11
510.009	661.41
510.464	665.41
510.919	685.01
511.375	683.71
511.83	699.31
512.285	718.81
512.74	750.01
513.195	783.11
513.65	769.51
514.105	772.21
514.56	763.41
515.015	791.71
515.47	794.61
515.925	777.51
516.38	790.21
516.835	784.91
517.29	782.41
517.745	761.91
518.2	750.31
518.655	744.81
519.109	739.11
519.564	731.31
520.019	724.71
520.474	722.71
520.928	727.51
521.383	714.01
521.838	707.31
522.292	710.41
522.747	705.81
523.201	698.41
523.656	687.41
524.11	689.31
524.565	693.41
525.019	682.41
525.474	693.41
525.928	698.31
526.382	687.61
526.837	690.31
527.291	690.51
527.745	694.11
528.2	686.91
528.654	688.21
529.108	675.41
529.562	683.61
530.016	681.91
530.47	678.51
530.925	679.91
531.379	696.41
531.833	692.71
532.287	695.21
532.741	699.31
533.195	696.91
533.649	699.01
534.103	712.41
534.556	710.01
535.01	707.11
535.464	700.31
535.918	719.91
536.372	712.71
536.826	709.01
537.279	698.91
537.733	705.91
538.187	709.51
538.64	704.31
539.094	715.51
539.548	718.71
540.001	723.71
540.455	702.41
540.908	710.51
541.362	724.91
541.815	731.01
542.269	747.61
542.722	744.91
543.175	763.31
543.629	754.01
544.082	775.61
544.536	767.51
544.989	771.01
545.442	772.41
545.895	773.51
546.349	773.51
546.802	772.81
547.255	782.31
547.708	785.11
548.161	798.61
548.614	806.31
549.067	806.21
549.52	806.71
549.973	803.31
550.426	783.61
550.879	787.21
551.332	777.21
551.785	795.41
552.238	790.41
552.691	797.31
553.144	815.61
553.596	819.61
554.049	836.61
554.502	870.51
554.955	887.11
555.407	896.41
555.86	894.01
556.313	870.01
556.765	868.21
557.218	857.91
557.67	868.31
558.123	862.71
558.576	857.21
559.028	864.11
559.48	858.11
559.933	847.11
560.385	817.71
560.838	790.21
561.29	770.61
561.742	756.11
562.195	742.21
562.647	741.01
563.099	760.41
563.551	745.61
564.004	767.41
564.456	750.41
564.908	745.41
565.36	732.91
565.812	721.91
566.264	710.51
566.716	708.11
567.168	704.11
567.62	704.31
568.072	685.71
568.524	672.71
568.976	672.61
569.428	661.61
569.88	655.91
570.332	660.91
570.784	661.81
571.235	659.61
571.687	669.81
572.139	674.51
572.59	687.51
573.042	695.31
573.494	691.01
573.945	683.11
574.397	665.41
574.849	674.31
575.3	675.91
575.752	658.31
576.203	654.61
576.655	669.41
577.106	653.51
577.557	643.91
578.009	652.71
578.46	651.81
578.912	641.21
579.363	647.81
579.814	644.81
580.265	643.51
580.717	638.61
581.168	649.01
581.619	658.21
582.07	663.01
582.521	660.91
582.972	641.71
583.423	650.41
583.875	666.91
584.326	684.81
584.777	716.91
585.227	795.31
585.678	878.11
586.129	970.01
586.58	1038.61
587.031	1114.11
587.482	1275.41
587.933	1464.81
588.384	1273.31
588.834	939.61
589.285	771.31
589.736	746.71
590.186	750.41
590.637	735.81
591.088	714.01
591.538	708.51
591.989	696.11
592.439	706.61
592.89	688.01
593.34	675.31
593.791	687.41
594.241	689.91
594.692	684.01
595.142	667.01
595.593	673.81
596.043	682.81
596.493	680.61
596.943	687.61
597.394	686.61
597.844	677.71
598.294	706.91
598.744	712.71
599.195	741.11
599.645	770.51
600.095	810.91
600.545	875.41
600.995	922.71
601.445	982.31
601.895	1037.81
602.345	1089.71
602.795	1061.61
603.245	1026.61
603.695	969.51
604.145	918.81
604.594	875.51
605.044	811.21
605.494	767.01
605.944	721.31
606.393	709.11
606.843	692.01
607.293	699.01
607.743	698.21
608.192	710.41
608.642	725.61
609.091	730.11
609.541	734.81
609.99	725.81
610.44	734.91
610.889	677.81
611.339	656.11
611.788	648.91
612.238	666.91
612.687	684.31
613.136	686.51
613.586	704.11
614.035	688.21
614.484	711.01
614.933	713.11
615.383	716.41
615.832	697.91
616.281	699.61
616.73	649.51
617.179	635.01
617.628	620.41
618.077	598.81
618.526	586.91
618.975	578.31
619.424	580.31
619.873	581.31
620.322	585.31
620.771	574.41
621.22	568.21
621.669	567.61
622.118	559.51
622.567	554.11
623.015	543.71
623.464	533.61
623.913	525.51
624.361	522.51
624.81	524.11
625.259	517.31
625.707	521.21
626.156	526.01
626.604	534.91
627.053	528.71
627.501	532.91
627.95	539.81
628.398	546.01
628.847	540.21
629.295	538.71
629.744	547.71
630.192	538.91
630.64	536.11
631.089	535.71
631.537	534.01
631.985	545.91
632.433	560.51
632.881	571.41
633.33	615.51
633.778	590.51
634.226	533.71
634.674	533.21
635.122	531.81
635.57	563.01
636.018	573.51
636.466	546.01
636.914	521.21
637.362	535.11
637.81	546.81
638.258	549.81
638.705	551.61
639.153	568.01
639.601	579.21
640.049	606.81
640.497	634.01
640.944	655.81
641.392	599.51
641.84	572.21
642.287	541.81
642.735	534.41
643.182	531.21
643.63	547.11
644.078	540.21
644.525	559.41
644.973	562.51
645.42	554.21
645.867	591.91
646.315	595.91
646.762	627.01
647.21	653.81
647.657	664.21
648.104	704.81
648.551	723.41
648.999	785.71
649.446	848.71
649.893	938.61
650.34	1079.51
650.787	1294.61
651.234	1601.71
651.682	2086.81
652.129	2872.81
652.576	4114.61
653.023	6075.61
653.47	8357.61
653.917	10514.01
654.363	12240.11
654.81	13652.91
655.257	13048.01
655.704	8484.71
656.151	4990.21
656.598	3225.41
657.044	2291.01
657.491	1751.71
657.938	1408.71
658.385	1165.81
658.831	1016.01
659.278	906.91
659.724	798.31
660.171	735.71
660.618	668.41
661.064	645.11
661.511	624.21
661.957	606.61
662.404	597.81
662.85	612.21
663.296	580.91
663.743	532.91
664.189	496.61
664.635	494.11
665.082	487.81
665.528	492.31
665.974	484.01
666.42	465.91
666.867	480.81
667.313	458.91
667.759	444.11
668.205	448.21
668.651	450.01
669.097	454.51
669.543	463.31
669.989	437.81
670.435	414.91
670.881	416.01
671.327	414.71
671.773	441.71
672.219	449.41
672.665	502.81
673.11	542.21
673.556	578.11
674.002	614.01
674.448	603.91
674.893	506.01
675.339	437.31
675.785	411.11
676.23	385.01
676.676	367.91
677.122	351.01
677.567	339.01
678.013	337.41
678.458	332.71
678.904	340.71
679.349	333.11
679.794	331.01
680.24	334.11
680.685	321.31
681.131	325.51
681.576	326.01
682.021	324.01
682.466	319.91
682.912	320.21
683.357	324.11
683.802	345.01
684.247	376.51
684.692	409.01
685.137	453.51
685.583	484.41
686.028	520.01
686.473	476.11
686.918	409.11
687.363	381.51
687.807	370.01
688.252	334.61
688.697	334.01
689.142	310.71
689.587	307.31
690.032	299.91
690.477	313.21
690.921	325.51
691.366	339.71
691.811	371.61
692.255	405.21
692.7	422.41
693.145	457.71
693.589	630.31
694.034	1006.51
694.478	1394.21
694.923	1606.51
695.367	2108.11
695.812	1100.51
696.256	456.51
696.701	337.61
697.145	316.11
697.59	309.11
698.034	288.01
698.478	305.61
698.922	297.01
699.367	303.61
699.811	308.31
700.255	317.91
700.699	353.61
701.143	390.41
701.588	433.11
702.032	472.11
702.476	479.11
702.92	453.21
703.364	446.11
703.808	570.81
704.252	915.41
704.696	1317.91
705.14	1536.41
705.584	1972.51
706.027	980.01
706.471	482.41
706.915	367.71
707.359	321.61
707.803	300.01
708.246	283.11
708.69	288.21
709.134	284.71
709.577	284.81
710.021	285.11
710.465	283.01
710.908	271.41
711.352	274.31
711.795	284.91
712.239	329.61
712.682	354.11
713.126	385.41
713.569	424.71
714.012	336.11
714.456	295.61
714.899	271.81
715.342	253.71
715.786	239.31
716.229	240.41
716.672	239.11
717.115	231.61
717.558	230.01
718.002	232.31
718.445	241.21
718.888	258.91
719.331	266.31
719.774	282.51
720.217	281.11
720.66	263.91
721.103	242.91
721.546	229.01
721.989	225.21
722.432	213.21
722.874	217.81
723.317	210.61
723.76	220.21
724.203	231.11
724.645	285.81
725.088	396.31
725.531	522.11
725.974	594.71
726.416	501.41
726.859	282.61
727.301	225.31
727.744	223.81
728.187	211.11
728.629	215.21
729.071	217.71
729.514	237.81
729.956	246.01
730.399	260.71
730.841	259.51
731.283	251.51
731.726	245.11
732.168	232.91
732.61	239.81
733.053	259.71
733.495	282.01
733.937	317.11
734.379	355.31
734.821	393.71
735.263	493.41
735.705	749.91
736.148	1404.71
736.59	2331.71
737.032	2816.91
737.474	2295.21
737.916	742.21
738.357	390.81
738.799	300.71
739.241	278.61
739.683	255.41
740.125	257.61
740.567	276.01
741.008	284.41
741.45	288.61
741.892	288.61
742.334	321.61
742.775	332.71
743.217	309.31
743.658	247.91
744.1	232.51
744.542	233.71
744.983	285.11
745.425	321.41
745.866	318.21
746.307	257.51
746.749	266.21
747.19	292.91
747.632	401.91
748.073	764.71
748.514	1666.71
748.956	2606.11
749.397	3239.01
749.838	2692.21
750.279	2755.31
750.72	1381.91
751.162	498.81
751.603	291.21
752.044	224.71
752.485	193.41
752.926	194.81
753.367	186.51
753.808	173.91
754.249	170.01
754.69	165.71
755.131	168.61
755.572	164.61
756.013	167.41
756.453	169.91
756.894	172.71
757.335	173.91
757.776	180.51
758.216	176.71
758.657	181.41
759.098	186.31
759.538	208.41
759.979	240.01
760.42	332.91
760.86	616.01
761.301	1588.71
761.741	3928.81
762.182	5985.01
762.622	4210.91
763.063	1204.41
763.503	494.21
763.943	313.61
764.384	308.51
764.824	377.71
765.264	416.01
765.705	279.61
766.145	189.31
766.585	168.31
767.025	168.11
767.465	170.01
767.906	221.51
768.346	301.01
768.786	322.71
769.226	236.61
769.666	282.01
770.106	542.31
770.546	1360.61
770.986	2417.61
771.426	2202.81
771.866	722.81
772.306	299.61
772.745	187.91
773.185	161.01
773.625	158.11
774.065	154.51
774.505	183.41
774.944	279.11
775.384	596.21
775.824	1123.51
776.263	1108.61
776.703	470.81
777.142	204.41
777.582	140.51
778.021	131.21
778.461	130.91
778.9	130.01
779.34	122.61
779.779	107.71
780.219	99.21
780.658	104.41
781.097	99.71
781.537	96.31
781.976	97.51
782.415	95.01
782.855	97.91
783.294	94.31
783.733	94.91
784.172	97.61
784.611	92.81
785.05	97.11
785.489	94.71
785.928	108.01
786.367	111.71
786.806	104.91
787.245	109.61
787.684	121.41
788.123	127.81
788.562	121.11
789.001	118.11
789.44	112.31
789.879	105.41
790.317	108.91
790.756	113.81
791.195	106.51
791.634	133.51
792.072	179.01
792.511	320.21
792.95	884.41
793.388	1950.51
793.827	1794.91
794.265	624.51
794.704	255.41
795.142	166.01
795.581	143.51
796.019	125.81
796.458	116.01
796.896	110.41
797.334	120.41
797.773	137.81
798.211	195.51
798.649	384.31
799.087	913.11
799.526	1446.31
799.964	1799.71
800.402	1873.01
800.84	698.11
801.278	278.61
801.716	166.81
802.154	134.81
802.592	134.61
803.03	129.11
803.468	123.21
803.906	126.41
804.344	136.41
804.782	123.81
805.22	118.61
805.658	116.71
806.096	138.41
806.533	144.51
806.971	154.71
807.409	204.81
807.847	276.21
808.284	574.91
808.722	1647.01
809.16	3013.81
809.597	2802.51
810.035	4908.31
810.472	5433.11
810.91	1914.01
811.347	718.91
811.785	361.11
812.222	237.51
812.66	176.31
813.097	148.51
813.535	130.01
813.972	117.91
814.409	103.41
814.846	100.41
815.284	102.31
815.721	91.31
816.158	97.11
816.595	108.71
817.032	160.31
817.47	192.31
817.907	155.01
818.344	143.01
818.781	100.51
819.218	93.91
819.655	116.51
820.092	168.41
820.529	197.91
820.966	163.71
821.403	122.11
821.839	100.51
822.276	98.61
822.713	113.71
823.15	122.11
823.587	107.51
824.023	132.11
824.46	259.11
824.897	793.31
825.333	1244.11
825.77	530.91
826.206	203.11
826.643	119.31
827.08	88.51
827.516	68.21
827.953	75.21
828.389	71.51
828.825	62.91
829.262	58.21
829.698	52.41
830.135	54.21
830.571	58.11
831.007	57.51
831.443	60.21
831.88	57.41
832.316	58.71
832.752	60.31
833.188	56.71
833.624	54.21
834.06	60.61
834.497	66.71
834.933	62.91
835.369	65.51
835.805	59.01
836.241	68.11
836.677	71.41
837.112	79.01
837.548	92.91
837.984	117.61
838.42	179.51
838.856	431.61
839.292	1347.11
839.727	2126.61
840.163	988.61
840.599	812.81
841.034	1834.01
841.47	1990.61
841.906	711.71
842.341	303.31
842.777	213.61
843.212	289.91
843.648	285.91
844.083	141.21
844.519	92.91
844.954	68.01
845.39	53.41
845.825	50.51
846.261	51.41
846.696	48.91
847.131	45.41
847.566	58.01
848.002	44.81
848.437	59.21
848.872	55.21
849.307	61.51
849.742	74.31
850.177	154.01
850.613	499.81
851.048	809.41
851.483	354.31
851.918	140.71
852.353	76.41
852.788	57.71
853.223	54.61
853.657	51.71
854.092	43.51
854.527	40.41
854.962	35.31
855.397	35.11
855.832	45.51
856.266	36.51
856.701	35.51
857.136	34.11
857.57	42.91
858.005	45.41
858.44	55.61
858.874	35.01
859.309	54.91
859.743	36.61
860.178	41.61
860.612	36.61
861.047	47.31
861.481	67.71
861.915	63.01
862.35	43.91
862.784	35.51
863.218	38.81
863.653	28.01
864.087	42.61
864.521	49.61
864.955	63.61
865.39	139.91
865.824	154.61
866.258	102.61
866.692	143.21
867.126	163.11
867.56	97.81
867.994	46.61
868.428	34.41
868.862	46.11
869.296	48.01
869.73	52.41
870.164	44.11
870.598	45.81
871.031	31.61
871.465	25.71
871.899	30.41
872.333	18.81
872.766	22.41
873.2	17.91
873.634	31.51
874.067	23.01
874.501	22.91
874.935	31.11
875.368	25.71
875.802	23.81
876.235	19.41
876.669	19.01
877.102	21.21
877.535	29.11
877.969	22.21
878.402	27.21
878.836	19.11
879.269	23.11
879.702	23.61
880.135	19.41
880.569	24.41
881.002	24.91
881.435	20.81
881.868	13.61
882.301	19.61
882.734	14.91
883.167	20.21
883.601	16.51
884.034	16.81
884.467	11.11
884.899	18.11
885.332	21.11
885.765	9.81
886.198	18.01
886.631	19.51
887.064	14.01
887.497	19.51
887.929	24.31
888.362	13.61
888.795	7.51
889.228	16.81
889.66	14.81
890.093	21.31
890.526	15.41
890.958	17.81
891.391	19.81
891.823	22.41
892.256	19.61
892.688	12.61
893.121	13.41
893.553	10.51
893.985	15.21
894.418	19.01
894.85	10.61
895.282	18.31
895.715	20.71
896.147	19.31
896.579	11.41
897.011	8.01
897.444	14.41
897.876	12.91
898.308	18.11
898.74	18.21
899.172	14.11
899.604	18.11
900.036	18.01
900.468	15.11
900.9	14.71
901.332	17.51
901.764	9.81
902.196	15.11
902.628	17.91
903.06	17.21
903.491	20.21
903.923	20.91
904.355	13.81
904.787	27.11
905.218	22.91
905.65	20.01
906.082	15.51
906.513	10.41
906.945	13.41
907.376	10.81
907.808	21.31
908.239	18.91
908.671	16.61
909.102	15.31
909.534	25.61
909.965	40.11
910.397	82.41
910.828	276.51
911.259	434.91
911.691	196.51
912.122	97.81
912.553	49.11
912.984	31.41
913.415	32.51
913.847	26.01
914.278	16.11
914.709	10.91
915.14	13.11
915.571	16.11
916.002	16.81
916.433	16.31
916.864	15.31
917.295	9.01
917.726	21.11
918.157	13.61
918.587	27.71
919.018	27.21
919.449	18.21
919.88	20.61
920.311	31.51
920.741	43.71
921.172	153.81
921.603	136.71
922.033	67.91
922.464	47.81
922.895	22.51
923.325	21.81
923.756	9.61
924.186	20.51
924.617	23.11
925.047	41.71
925.478	46.81
925.908	38.31
926.338	22.31
926.769	17.41
927.199	23.11
927.629	14.21
928.06	21.21
928.49	12.81
928.92	17.71
929.35	10.61
929.78	7.91
930.21	5.51
930.641	8.01
931.071	6.71
931.501	0.21
931.931	8.41
932.361	13.11
932.791	9.11
933.221	3.61
933.651	13.71
934.08	14.31
934.51	24.61
934.94	9.11
935.37	12.11
935.8	12.51
936.229	9.11
936.659	13.01
937.089	3.41
937.519	16.21
937.948	22.11
938.378	13.51
938.807	9.21
939.237	0.81
939.666	1.81
940.096	-6.29
940.525	4.41
940.955	2.11
941.384	3.41
941.814	-0.49
942.243	4.71
942.672	2.41
943.102	1.71
943.531	3.31
943.96	6.11
944.39	8.51
944.819	-0.89
945.248	8.71
945.677	-3.09
946.106	4.11
946.535	6.31
946.964	4.41
947.393	4.41
947.822	0.01
948.251	-4.89
948.68	4.41
949.109	10.21
949.538	5.71
949.967	-0.89
950.396	4.01
950.825	-1.09
951.254	-6.49
951.682	-2.59
952.111	6.61
952.54	10.01
952.969	-0.29
953.397	-6.39
953.826	-0.99
954.254	-11.99
954.683	1.51
955.112	-6.49
955.54	-0.49
955.969	6.11
956.397	4.51
956.826	1.81
957.254	7.61
957.682	-3.89
958.111	6.91
958.539	0.11
958.967	3.11
959.396	-0.79
959.824	0.71
960.252	-2.19
960.68	-3.19
961.109	-1.49
961.537	-1.59
961.965	-2.79
962.393	5.81
962.821	-6.89
963.249	0.61
963.677	5.81
964.105	0.71
964.533	37.91
964.961	44.51
965.389	18.61
965.817	6.61
966.245	3.91
966.672	-2.39
967.1	-5.09
967.528	2.91
967.956	-2.59
968.383	2.71
968.811	-2.59
969.239	-1.29
969.666	-3.39
970.094	1.31
970.522	-4.49
970.949	-3.29
971.377	-2.69
971.804	-0.29
972.232	-2.19
972.659	-2.49
973.087	-3.99
973.514	-2.19
973.941	-6.59
974.369	3.61
974.796	0.51
975.223	2.21
975.651	-1.69
976.078	0.21
976.505	3.31
976.932	-0.39
977.359	16.01
977.786	15.91
978.214	0.71
978.641	-6.99
979.068	-6.39
979.495	-7.79
979.922	-1.79
980.349	-1.09
980.776	1.71
981.202	1.81
981.629	8.91
982.056	1.01
982.483	-0.09
982.91	2.41
983.337	-1.19
983.763	1.81
984.19	-6.99
984.617	2.51
985.043	-6.29
985.47	1.31
985.897	-7.89
986.323	-1.19
986.75	2.21
987.176	4.21
987.603	5.11
988.029	-0.79
988.456	-0.79
988.882	-3.39
989.308	-2.89
989.735	-3.59
990.161	3.11
990.587	-2.19
991.014	-2.19
991.44	10.01
991.866	-2.29
992.292	-8.49
992.719	-0.39
993.145	6.71
993.571	-9.99
993.997	-5.99
994.423	-4.09
994.849	-4.89
995.275	-0.59
995.701	-0.69
996.127	-2.49
996.553	0.71
996.979	-2.29
997.405	-0.39
997.83	-3.39
998.256	-6.09
998.682	-8.69
999.108	-8.89
999.534	-2.69
999.959	1.21
1000.385	-5.79
1000.811	2.31
1001.236	-0.39
1001.662	-7.99
1002.087	-7.39
1002.513	-4.49
1002.938	-0.29
1003.364	-2.19
1003.789	1.71
1004.215	6.71
1004.64	-2.79
1005.066	1.31
1005.491	-2.19
1005.916	-9.69
1006.342	0.41
1006.767	-9.19
1007.192	-1.19
1007.617	-7.39
1008.042	-8.69
1008.468	-8.19
1008.893	-6.79
1009.318	-3.49
1009.743	-4.09
1010.168	4.11
1010.593	1.61
1011.018	-16.69
1011.443	-0.99
1011.868	1.51
1012.293	-2.39
1012.718	-5.89
1013.143	0.61
1013.567	2.61
1013.992	-6.79
1014.417	-12.49
1014.842	3.61
1015.267	-6.29
1015.691	-1.79
1016.116	6.41
1016.541	0.11
1016.965	10.81
1017.39	4.01
1017.814	4.51
1018.239	0.51
1018.663	-3.99
1019.088	-10.79
1019.512	-0.59
1019.937	4.31
1020.361	-9.09
1020.785	-15.09
1021.21	-5.69
1021.634	0.81
1022.058	-0.79
1022.483	7.01
1022.907	-1.89
1023.331	-0.79
1023.755	-4.89
1024.179	-5.09
1024.604	-0.09
1025.028	-3.39
1025.452	-2.19
1025.876	-4.69
1026.3	2.91
1026.724	-10.19
1027.148	-8.39
1027.572	-13.39
1027.996	-1.69
1028.42	0.61
1028.843	-2.99
1029.267	-1.89
1029.691	-5.89
1030.115	-8.39
1030.539	-3.89
1030.962	-5.89
1031.386	-7.19
1031.81	-6.09
1032.233	0.31
1032.657	-0.29
1033.08	0.51
1033.504	0.71
1033.927	-3.19
1034.351	0.81
1034.774	-2.99
1035.198	-2.89
1035.621	-4.39
1036.045	-7.19
1036.468	0.71
1036.891	-11.19
1037.315	-7.79
1037.738	-8.39
1038.161	2.01
1038.584	-4.29
1039.008	-0.69
1039.431	-5.79
1039.854	-1.19
1040.277	-8.89
1040.7	-15.19
1041.123	-5.99
1041.546	-1.89
1041.969	-2.59
1042.392	-5.19
1042.815	-5.79
1043.238	0.31
1043.661	2.21
1044.084	-5.69
1044.507	-2.39
1044.93	-3.59
1045.352	-2.29
1045.775	-2.79
1046.198	5.51
1046.621	2.21
1047.043	1.61
1047.466	1.31
1047.889	-4.09
1048.311	4.31
1048.734	-3.29
1049.156	-2.29
1049.579	-5.99
1050.001	2.61
1050.424	-1.99
1050.846	-2.09
1051.269	-4.39
1051.691	-6.99
1052.113	-4.29
1052.536	-1.09
1052.958	-1.99
1053.38	-4.99
1053.802	-5.69
1054.225	1.51
1054.647	-10.09
1055.069	-12.09
1055.491	-2.19
1055.913	-4.19
1056.335	-4.69
1056.757	-3.19
1057.179	-9.39
1057.601	-7.79
1058.023	-5.09
1058.445	-2.09
1058.867	-0.29
1059.289	-4.09
1059.711	-10.39
1060.133	-6.89
1060.555	-4.59
1060.976	-6.99
1061.398	-0.29
1061.82	-0.49
1062.241	-5.59
1062.663	-8.99
1063.085	-5.79
1063.506	2.11
1063.928	-5.29
1064.35	-0.19
1064.771	-11.99
1065.193	-2.49
1065.614	-7.99
1066.035	-5.49
1066.457	-2.19
1066.878	-0.19
1067.3	-8.29
1067.721	-1.49
1068.142	-0.89
1068.564	-9.09
1068.985	-1.59
1069.406	-7.59
1069.827	-1.99
1070.248	-5.59
1070.67	-5.89
1071.091	-4.39
1071.512	-4.49
1071.933	0.41
1072.354	-6.69
1072.775	-7.29
1073.196	-8.89
1073.617	-3.79
1074.038	-2.09
1074.459	0.61
1074.88	-9.89
1075.3	-0.79
1075.721	-3.99
1076.142	-3.29
1076.563	1.51
1076.983	-6.49
1077.404	-7.49
1077.825	-6.69
1078.246	-4.69
1078.666	-14.69
1079.087	-8.39
1079.507	-5.29
1079.928	-3.29
1080.348	2.91
1080.769	-9.59
1081.189	3.21
1081.61	1.91
1082.03	-7.39
1082.451	-7.69
1082.871	-7.09
1083.291	-6.59
1083.711	-7.89
1084.132	-5.89
1084.552	-6.79
1084.972	-8.29
1085.392	-14.79
1085.813	-10.59
1086.233	-8.09
1086.653	-0.49
1087.073	-3.19
1087.493	-8.19
1087.913	-8.29
1088.333	-6.49
1088.753	-0.29
1089.173	4.61
1089.593	-0.79
1090.013	1.91
1090.433	2.71
1090.852	-0.39
1091.272	-0.29
1091.692	0.41
1092.112	-14.89
1092.531	-8.39
1092.951	-16.49
1093.371	-4.89
1093.79	-1.49
1094.21	-7.29
1094.63	-7.49
1095.049	-5.39
1095.469	-1.79
1095.888	-3.59
1096.308	4.51
1096.727	0.21
1097.146	-10.69
1097.566	-1.99
1097.985	-3.69
1098.405	1.61
1098.824	-4.89
1099.243	-4.79
1099.662	-9.59
1100.082	-2.89
1100.501	-5.69
1100.92	-3.99
1101.339	-4.69
1101.758	-5.69
