Data from 20171114-ORNL-Ar_H_NY_Subt18_08-08-04-192.txt Node
Date: Tue Nov 14 08:08:04 EST 2017
User: Ender
Spectrometer: HR+D1039
Trigger mode: 0
Integration Time (sec): 2.730000E-2
Scans to average: 10
Electric dark correction enabled: true
Nonlinearity correction enabled: false
Boxcar width: 0
XAxis mode: Wavelengths
Number of Pixels in Spectrum: 2048
>>>>>Begin Spectral Data<<<<<
187.836	-1.59
188.309	-1.59
188.782	-1.59
189.255	0.71
189.728	-0.59
190.201	8.71
190.674	0.21
191.147	2.81
191.619	-8.49
192.092	0.31
192.565	4.71
193.038	-0.89
193.511	2.41
193.984	0.21
194.456	-6.49
194.929	-2.09
195.402	-3.09
195.874	3.21
196.347	1.31
196.82	-5.69
197.292	-2.29
197.765	-2.89
198.237	-10.39
198.71	2.21
199.182	-2.69
199.655	5.51
200.127	1.71
200.6	-7.39
201.072	-2.39
201.544	-4.49
202.017	-3.49
202.489	-1.19
202.961	-4.99
203.433	-4.29
203.906	-8.19
204.378	-6.29
204.85	-12.49
205.322	-11.99
205.794	-4.39
206.266	-2.89
206.739	-8.69
207.211	-3.59
207.683	-5.19
208.155	-2.99
208.627	-1.29
209.099	-3.89
209.57	-10.09
210.042	-1.59
210.514	-0.89
210.986	-1.19
211.458	-10.59
211.93	0.11
212.402	-0.69
212.873	-7.69
213.345	-12.89
213.817	-17.79
214.288	-3.39
214.76	-10.59
215.232	-2.99
215.703	-3.29
216.175	-7.09
216.646	-7.79
217.118	-11.09
217.589	-9.49
218.061	-2.19
218.532	-3.39
219.004	-8.99
219.475	-7.09
219.946	-7.49
220.418	-8.69
220.889	-1.19
221.36	-1.39
221.832	-4.69
222.303	-12.39
222.774	-5.89
223.245	-12.59
223.717	-0.69
224.188	-7.19
224.659	-1.19
225.13	-8.39
225.601	-9.09
226.072	0.81
226.543	0.71
227.014	0.01
227.485	-5.49
227.956	-11.99
228.427	-3.39
228.898	3.41
229.369	4.11
229.839	-1.59
230.31	-9.99
230.781	1.01
231.252	0.61
231.722	-3.99
232.193	-4.49
232.664	-0.89
233.135	6.61
233.605	-3.39
234.076	-9.49
234.546	-3.69
235.017	7.31
235.487	-0.39
235.958	-5.39
236.428	-5.39
236.899	-3.49
237.369	-2.29
237.84	-2.99
238.31	0.01
238.78	-0.79
239.251	-1.09
239.721	1.71
240.191	1.31
240.662	-3.49
241.132	-0.89
241.602	-3.79
242.072	0.01
242.542	4.91
243.013	0.61
243.483	3.91
243.953	-2.99
244.423	4.71
244.893	0.51
245.363	1.11
245.833	-1.29
246.303	-0.29
246.773	0.21
247.243	-1.79
247.712	1.31
248.182	5.31
248.652	10.51
249.122	-5.89
249.592	12.01
250.061	21.91
250.531	29.31
251.001	12.81
251.471	17.71
251.94	21.31
252.41	4.01
252.879	-0.29
253.349	7.11
253.818	8.91
254.288	2.11
254.757	-0.59
255.227	1.61
255.696	4.01
256.166	4.71
256.635	5.31
257.105	13.91
257.574	3.71
258.043	3.61
258.513	6.21
258.982	12.71
259.451	1.61
259.92	10.61
260.389	7.21
260.859	8.61
261.328	9.51
261.797	17.01
262.266	7.81
262.735	8.51
263.204	3.71
263.673	2.81
264.142	2.81
264.611	-2.99
265.08	-3.99
265.549	1.71
266.018	4.51
266.487	-1.79
266.955	2.51
267.424	-1.99
267.893	7.21
268.362	-0.09
268.83	2.81
269.299	10.21
269.768	-4.39
270.236	5.51
270.705	-3.69
271.174	5.91
271.642	1.51
272.111	1.41
272.579	17.21
273.048	23.01
273.516	20.81
273.985	21.51
274.453	24.51
274.922	20.31
275.39	12.31
275.858	1.91
276.327	9.51
276.795	17.51
277.263	10.41
277.731	32.21
278.2	49.11
278.668	49.31
279.136	47.61
279.604	18.61
280.072	14.61
280.54	13.81
281.008	13.61
281.477	16.21
281.945	9.01
282.413	6.61
282.881	13.51
283.348	10.31
283.816	12.41
284.284	13.81
284.752	16.81
285.22	11.11
285.688	15.31
286.156	11.51
286.623	47.61
287.091	44.11
287.559	31.51
288.026	14.71
288.494	15.01
288.962	-0.69
289.429	2.61
289.897	11.11
290.364	12.91
290.832	15.91
291.3	15.01
291.767	13.31
292.234	23.41
292.702	9.91
293.169	13.21
293.637	17.91
294.104	18.51
294.571	10.41
295.039	13.91
295.506	8.01
295.973	20.71
296.44	13.61
296.908	17.41
297.375	14.71
297.842	18.41
298.309	17.01
298.776	13.11
299.243	20.21
299.71	10.51
300.177	19.41
300.644	23.01
301.111	16.21
301.578	20.01
302.045	14.61
302.512	19.71
302.979	20.71
303.446	22.11
303.913	16.71
304.379	18.71
304.846	26.71
305.313	27.71
305.78	23.11
306.246	22.61
306.713	27.61
307.18	21.11
307.646	23.31
308.113	36.31
308.579	17.51
309.046	23.81
309.512	29.01
309.979	16.11
310.445	23.81
310.912	36.21
311.378	30.81
311.845	24.41
312.311	28.51
312.777	27.71
313.244	23.01
313.71	36.91
314.176	30.01
314.642	28.41
315.109	27.01
315.575	31.41
316.041	40.41
316.507	31.01
316.973	35.01
317.439	29.91
317.905	32.21
318.371	26.31
318.837	31.01
319.303	35.21
319.769	32.21
320.235	28.31
320.701	29.61
321.167	32.21
321.633	30.91
322.099	34.81
322.564	43.51
323.03	34.51
323.496	38.01
323.962	40.91
324.427	32.71
324.893	43.51
325.359	41.91
325.824	37.71
326.29	32.01
326.755	36.31
327.221	36.61
327.686	34.61
328.152	44.91
328.617	37.81
329.083	39.61
329.548	59.01
330.014	43.71
330.479	34.71
330.944	40.91
331.41	39.91
331.875	47.31
332.34	37.11
332.805	39.91
333.271	38.71
333.736	40.81
334.201	47.31
334.666	48.21
335.131	49.71
335.596	48.91
336.061	48.01
336.526	37.41
336.991	46.31
337.456	51.51
337.921	51.31
338.386	36.11
338.851	42.81
339.316	42.61
339.781	42.71
340.246	43.81
340.711	42.51
341.175	48.21
341.64	42.61
342.105	49.31
342.569	55.81
343.034	54.71
343.499	54.11
343.963	53.11
344.428	59.31
344.893	60.71
345.357	58.31
345.822	66.41
346.286	69.81
346.751	71.51
347.215	71.91
347.679	71.31
348.144	98.31
348.608	78.91
349.073	60.91
349.537	69.51
350.001	77.51
350.465	84.81
350.93	70.11
351.394	79.31
351.858	69.71
352.322	77.61
352.786	81.11
353.25	101.51
353.715	116.01
354.179	92.61
354.643	115.11
355.107	121.81
355.571	107.11
356.035	106.21
356.498	120.21
356.962	124.21
357.426	128.61
357.89	120.21
358.354	88.11
358.818	87.51
359.281	74.61
359.745	77.91
360.209	71.81
360.673	75.91
361.136	81.71
361.6	89.51
362.064	85.11
362.527	85.01
362.991	88.01
363.454	75.31
363.918	70.21
364.381	74.41
364.845	75.71
365.308	81.91
365.772	86.21
366.235	86.91
366.698	77.61
367.162	78.11
367.625	82.61
368.088	90.31
368.552	90.71
369.015	85.81
369.478	92.61
369.941	107.21
370.404	94.81
370.867	97.01
371.331	105.81
371.794	118.91
372.257	110.71
372.72	109.71
373.183	112.71
373.646	103.91
374.109	104.71
374.572	107.31
375.035	107.31
375.497	115.01
375.96	104.51
376.423	103.31
376.886	112.41
377.349	106.41
377.811	100.21
378.274	109.31
378.737	111.51
379.199	111.71
379.662	112.61
380.125	120.91
380.587	115.41
381.05	122.01
381.512	125.41
381.975	133.71
382.437	127.41
382.9	123.41
383.362	133.71
383.825	141.31
384.287	140.31
384.75	140.51
385.212	143.31
385.674	130.01
386.136	130.81
386.599	120.81
387.061	121.41
387.523	129.81
387.985	133.81
388.447	142.21
388.91	149.21
389.372	157.01
389.834	155.91
390.296	147.11
390.758	159.31
391.22	168.41
391.682	209.61
392.144	307.61
392.606	234.61
393.068	170.41
393.529	170.11
393.991	153.31
394.453	153.61
394.915	156.81
395.377	202.81
395.838	223.01
396.3	158.31
396.762	138.31
397.224	133.41
397.685	130.91
398.147	124.31
398.608	128.11
399.07	127.91
399.531	136.71
399.993	146.41
400.454	155.71
400.916	144.11
401.377	144.81
401.839	152.11
402.3	153.71
402.762	161.11
403.223	182.01
403.684	165.91
404.145	160.21
404.607	161.61
405.068	164.21
405.529	169.61
405.99	188.21
406.451	175.01
406.913	176.21
407.374	170.11
407.835	172.21
408.296	169.81
408.757	174.31
409.218	184.41
409.679	182.51
410.14	178.91
410.601	177.21
411.062	184.41
411.522	193.21
411.983	198.61
412.444	176.21
412.905	178.61
413.366	186.11
413.826	191.91
414.287	206.31
414.748	259.01
415.208	238.01
415.669	202.31
416.13	213.01
416.59	209.21
417.051	213.41
417.511	224.01
417.972	236.81
418.432	243.01
418.893	287.41
419.353	245.31
419.814	195.51
420.274	182.71
420.734	188.01
421.195	197.01
421.655	198.31
422.115	201.71
422.576	188.11
423.036	207.71
423.496	205.91
423.956	219.01
424.416	224.61
424.876	261.31
425.336	259.91
425.797	267.21
426.257	256.41
426.717	232.51
427.177	234.71
427.637	219.91
428.097	238.41
428.556	240.91
429.016	265.51
429.476	267.21
429.936	275.51
430.396	290.21
430.856	294.01
431.315	321.31
431.775	353.81
432.235	384.21
432.694	356.01
433.154	366.91
433.614	402.91
434.073	345.81
434.533	289.21
434.993	274.41
435.452	287.51
435.912	298.21
436.371	287.31
436.83	285.01
437.29	273.51
437.749	247.11
438.209	252.51
438.668	272.21
439.127	294.31
439.587	263.41
440.046	245.41
440.505	257.81
440.964	284.11
441.424	325.01
441.883	314.91
442.342	260.81
442.801	227.61
443.26	221.01
443.719	220.01
444.178	211.51
444.637	215.31
445.096	219.81
445.555	219.01
446.014	215.41
446.473	225.61
446.932	238.71
447.391	216.11
447.849	220.71
448.308	208.91
448.767	226.91
449.226	235.51
449.685	238.61
450.143	244.21
450.602	237.81
451.061	223.71
451.519	234.11
451.978	232.01
452.436	233.11
452.895	233.21
453.353	247.01
453.812	236.61
454.27	238.61
454.729	232.91
455.187	234.91
455.646	234.31
456.104	241.11
456.562	253.21
457.021	269.21
457.479	251.71
457.937	279.51
458.395	258.11
458.854	249.41
459.312	257.21
459.77	274.21
460.228	246.21
460.686	240.01
461.144	243.21
461.602	246.01
462.06	239.61
462.518	252.61
462.976	252.31
463.434	255.61
463.892	251.31
464.35	272.31
464.808	286.21
465.266	268.51
465.724	269.51
466.181	269.11
466.639	269.11
467.097	289.41
467.555	302.91
468.012	302.51
468.47	309.81
468.928	323.41
469.385	346.61
469.843	345.71
470.3	347.61
470.758	362.71
471.215	383.01
471.673	408.61
472.13	408.91
472.588	417.71
473.045	367.51
473.503	377.61
473.96	388.41
474.417	397.61
474.875	432.51
475.332	482.41
475.789	458.31
476.246	465.21
476.704	488.31
477.161	507.61
477.618	525.61
478.075	561.11
478.532	616.81
478.989	691.61
479.446	808.61
479.903	768.81
480.36	808.31
480.817	862.61
481.274	961.21
481.731	1072.41
482.188	1165.21
482.645	1307.21
483.102	1419.61
483.558	1550.01
484.015	1594.71
484.472	1571.11
484.929	1530.41
485.385	1483.41
485.842	1435.11
486.299	1363.31
486.755	1297.81
487.212	1088.61
487.668	927.11
488.125	839.61
488.582	775.31
489.038	747.11
489.494	701.01
489.951	691.31
490.407	658.81
490.864	637.41
491.32	634.51
491.776	638.01
492.233	638.11
492.689	604.11
493.145	596.11
493.602	599.61
494.058	617.81
494.514	615.31
494.97	629.91
495.426	638.61
495.882	619.41
496.338	606.81
496.794	615.91
497.251	611.21
497.707	630.51
498.163	631.11
498.618	638.91
499.074	644.21
499.53	664.71
499.986	674.01
500.442	655.51
500.898	624.91
501.354	624.71
501.809	639.61
502.265	644.71
502.721	655.51
503.177	670.71
503.632	657.71
504.088	668.91
504.543	715.11
504.999	706.11
505.455	656.61
505.91	625.71
506.366	634.61
506.821	614.51
507.277	620.31
507.732	622.91
508.187	623.41
508.643	620.51
509.098	632.41
509.553	642.91
510.009	658.81
510.464	656.01
510.919	680.31
511.375	685.01
511.83	702.31
512.285	708.01
512.74	756.71
513.195	776.91
513.65	754.41
514.105	757.21
514.56	769.21
515.015	785.61
515.47	798.11
515.925	779.41
516.38	774.71
516.835	777.91
517.29	767.91
517.745	773.71
518.2	757.41
518.655	745.41
519.109	731.11
519.564	723.51
520.019	722.61
520.474	710.71
520.928	717.71
521.383	715.01
521.838	700.11
522.292	703.91
522.747	706.21
523.201	698.71
523.656	684.31
524.11	680.31
524.565	687.21
525.019	686.71
525.474	692.91
525.928	696.51
526.382	684.71
526.837	696.01
527.291	691.31
527.745	690.01
528.2	685.21
528.654	678.91
529.108	672.81
529.562	688.61
530.016	687.81
530.47	690.91
530.925	689.01
531.379	688.01
531.833	698.11
532.287	683.91
532.741	686.91
533.195	691.31
533.649	706.61
534.103	705.91
534.556	691.01
535.01	705.01
535.464	694.21
535.918	708.11
536.372	707.71
536.826	706.71
537.279	691.41
537.733	701.91
538.187	711.11
538.64	698.91
539.094	713.61
539.548	722.21
540.001	714.71
540.455	719.71
540.908	714.81
541.362	725.01
541.815	744.91
542.269	745.71
542.722	751.51
543.175	753.31
543.629	753.21
544.082	777.11
544.536	780.01
544.989	769.31
545.442	786.41
545.895	791.31
546.349	766.31
546.802	780.51
547.255	788.81
547.708	797.91
548.161	807.91
548.614	809.41
549.067	826.31
549.52	809.21
549.973	804.61
550.426	801.91
550.879	789.11
551.332	786.71
551.785	797.51
552.238	800.91
552.691	808.01
553.144	820.71
553.596	836.91
554.049	850.41
554.502	888.81
554.955	905.91
555.407	906.41
555.86	884.01
556.313	877.11
556.765	870.91
557.218	872.01
557.67	869.81
558.123	860.71
558.576	861.51
559.028	870.21
559.48	869.11
559.933	844.51
560.385	824.41
560.838	799.21
561.29	769.71
561.742	769.31
562.195	759.41
562.647	746.11
563.099	767.11
563.551	768.61
564.004	777.41
564.456	769.21
564.908	755.81
565.36	747.41
565.812	734.91
566.264	723.01
566.716	717.31
567.168	705.61
567.62	717.11
568.072	698.91
568.524	700.51
568.976	677.31
569.428	666.21
569.88	667.31
570.332	671.21
570.784	674.41
571.235	680.31
571.687	692.21
572.139	683.21
572.59	705.31
573.042	711.31
573.494	704.91
573.945	706.01
574.397	676.71
574.849	675.51
575.3	682.71
575.752	680.21
576.203	672.41
576.655	677.91
577.106	659.91
577.557	651.91
578.009	665.91
578.46	665.91
578.912	651.01
579.363	661.31
579.814	660.31
580.265	660.51
580.717	659.81
581.168	669.81
581.619	664.71
582.07	667.61
582.521	668.31
582.972	662.11
583.423	665.01
583.875	677.71
584.326	701.81
584.777	754.81
585.227	822.81
585.678	922.71
586.129	1014.91
586.58	1091.71
587.031	1173.11
587.482	1339.11
587.933	1532.21
588.384	1325.11
588.834	981.01
589.285	809.41
589.736	781.51
590.186	778.11
590.637	753.91
591.088	740.11
591.538	727.81
591.989	726.51
592.439	722.61
592.89	711.61
593.34	706.01
593.791	711.21
594.241	704.41
594.692	712.51
595.142	704.71
595.593	698.91
596.043	713.91
596.493	703.01
596.943	701.41
597.394	719.41
597.844	718.01
598.294	733.51
598.744	745.61
599.195	767.61
599.645	816.21
600.095	854.71
600.545	908.51
600.995	967.01
601.445	1013.71
601.895	1078.41
602.345	1123.81
602.795	1111.31
603.245	1055.71
603.695	996.21
604.145	950.01
604.594	910.21
605.044	848.31
605.494	802.61
605.944	755.51
606.393	740.01
606.843	721.51
607.293	738.01
607.743	728.51
608.192	742.51
608.642	759.41
609.091	767.01
609.541	770.61
609.99	758.11
610.44	768.71
610.889	716.61
611.339	688.81
611.788	694.81
612.238	706.41
612.687	721.51
613.136	716.91
613.586	744.31
614.035	750.91
614.484	763.91
614.933	763.81
615.383	750.11
615.832	735.81
616.281	722.11
616.73	686.51
617.179	662.91
617.628	654.91
618.077	634.31
618.526	627.31
618.975	616.71
619.424	609.31
619.873	601.91
620.322	615.31
620.771	601.81
621.22	606.61
621.669	594.41
622.118	584.41
622.567	577.21
623.015	565.61
623.464	562.91
623.913	560.11
624.361	557.51
624.81	551.01
625.259	548.51
625.707	545.61
626.156	550.31
626.604	562.41
627.053	557.81
627.501	570.21
627.95	563.51
628.398	574.41
628.847	561.61
629.295	558.41
629.744	574.71
630.192	564.61
630.64	566.01
631.089	567.61
631.537	582.31
631.985	585.91
632.433	598.61
632.881	618.31
633.33	674.61
633.778	655.31
634.226	575.61
634.674	575.81
635.122	576.71
635.57	603.81
636.018	624.51
636.466	578.61
636.914	551.91
637.362	569.11
637.81	576.21
638.258	566.21
638.705	577.41
639.153	601.71
639.601	627.51
640.049	632.41
640.497	664.91
640.944	686.71
641.392	632.21
641.84	607.91
642.287	578.71
642.735	556.61
643.182	570.31
643.63	569.91
644.078	571.11
644.525	589.41
644.973	605.61
645.42	601.91
645.867	624.91
646.315	636.51
646.762	670.31
647.21	688.91
647.657	712.01
648.104	755.01
648.551	777.71
648.999	846.81
649.446	927.01
649.893	1021.01
650.34	1167.81
650.787	1409.41
651.234	1748.11
651.682	2287.01
652.129	3159.51
652.576	4584.01
653.023	6780.61
653.47	9244.21
653.917	11452.61
654.363	13150.01
654.81	14433.81
655.257	13770.51
655.704	8996.91
656.151	5327.61
656.598	3418.91
657.044	2411.71
657.491	1856.71
657.938	1497.71
658.385	1240.71
658.831	1075.61
659.278	955.81
659.724	852.21
660.171	784.31
660.618	723.61
661.064	674.01
661.511	667.51
661.957	656.81
662.404	645.81
662.85	650.71
663.296	623.41
663.743	560.01
664.189	531.61
664.635	531.21
665.082	526.21
665.528	516.71
665.974	522.01
666.42	513.21
666.867	504.61
667.313	496.31
667.759	480.31
668.205	488.01
668.651	486.71
669.097	488.71
669.543	516.71
669.989	469.11
670.435	454.21
670.881	454.21
671.327	445.11
671.773	465.61
672.219	491.11
672.665	547.41
673.11	580.41
673.556	613.21
674.002	658.61
674.448	654.01
674.893	538.61
675.339	469.11
675.785	432.61
676.23	416.01
676.676	389.51
677.122	384.31
677.567	371.61
678.013	371.51
678.458	354.51
678.904	362.81
679.349	348.41
679.794	350.81
680.24	342.21
680.685	343.21
681.131	341.11
681.576	342.91
682.021	351.01
682.466	342.81
682.912	343.41
683.357	347.51
683.802	375.61
684.247	405.31
684.692	455.91
685.137	498.31
685.583	531.11
686.028	556.51
686.473	510.81
686.918	440.61
687.363	410.21
687.807	386.21
688.252	365.41
688.697	358.51
689.142	337.91
689.587	323.01
690.032	326.61
690.477	341.41
690.921	353.11
691.366	377.41
691.811	399.01
692.255	428.41
692.7	458.01
693.145	511.21
693.589	707.01
694.034	1144.91
694.478	1531.21
694.923	1702.31
695.367	2206.81
695.812	1176.91
696.256	491.61
696.701	367.21
697.145	341.81
697.59	334.71
698.034	319.81
698.478	326.21
698.922	324.71
699.367	322.01
699.811	334.61
700.255	351.21
700.699	388.61
701.143	424.81
701.588	477.31
702.032	509.01
702.476	510.81
702.92	483.61
703.364	492.91
703.808	649.11
704.252	1050.51
704.696	1461.31
705.14	1652.81
705.584	2092.31
706.027	1047.51
706.471	513.41
706.915	389.01
707.359	346.41
707.803	318.11
708.246	312.31
708.69	314.21
709.134	310.71
709.577	310.51
710.021	313.31
710.465	303.11
710.908	306.31
711.352	301.31
711.795	307.01
712.239	351.01
712.682	383.51
713.126	409.91
713.569	458.31
714.012	367.61
714.456	318.71
714.899	297.91
715.342	275.61
715.786	257.11
716.229	254.91
716.672	254.21
717.115	247.21
717.558	251.21
718.002	248.21
718.445	260.01
718.888	282.71
719.331	291.81
719.774	303.01
720.217	309.21
720.66	280.21
721.103	264.81
721.546	253.41
721.989	242.81
722.432	227.91
722.874	231.11
723.317	219.51
723.76	243.11
724.203	259.41
724.645	328.71
725.088	440.91
725.531	561.11
725.974	634.01
726.416	549.71
726.859	304.61
727.301	239.61
727.744	247.91
728.187	234.41
728.629	237.51
729.071	239.41
729.514	257.51
729.956	266.41
730.399	272.21
730.841	285.61
731.283	271.71
731.726	263.91
732.168	258.41
732.61	269.81
733.053	287.31
733.495	315.51
733.937	349.71
734.379	406.51
734.821	436.61
735.263	550.81
735.705	842.31
736.148	1616.91
736.59	2573.41
737.032	2969.61
737.474	2416.31
737.916	799.11
738.357	420.71
738.799	327.41
739.241	294.81
739.683	279.41
740.125	296.11
740.567	292.51
741.008	309.81
741.45	308.71
741.892	316.41
742.334	348.01
742.775	356.91
743.217	335.41
743.658	260.51
744.1	254.81
744.542	264.71
744.983	308.71
745.425	338.21
745.866	342.11
746.307	278.61
746.749	273.51
747.19	322.11
747.632	469.21
748.073	904.11
748.514	1898.91
748.956	2822.21
749.397	3544.61
749.838	2941.41
750.279	2909.81
750.72	1465.91
751.162	546.71
751.603	323.81
752.044	253.51
752.485	209.91
752.926	202.51
753.367	203.71
753.808	184.11
754.249	187.11
754.69	191.31
755.131	181.51
755.572	183.11
756.013	184.61
756.453	182.31
756.894	188.71
757.335	192.51
757.776	192.91
758.216	190.21
758.657	197.21
759.098	198.31
759.538	225.61
759.979	270.21
760.42	378.81
760.86	725.71
761.301	1875.71
761.741	4458.11
762.182	6255.11
762.622	4377.41
763.063	1305.01
763.503	539.51
763.943	347.11
764.384	346.31
764.824	419.71
765.264	454.41
765.705	310.51
766.145	215.11
766.585	186.41
767.025	182.41
767.465	194.51
767.906	253.51
768.346	328.11
768.786	349.11
769.226	265.11
769.666	328.91
770.106	633.31
770.546	1578.31
770.986	2616.31
771.426	2298.71
771.866	784.21
772.306	328.41
772.745	211.11
773.185	174.51
773.625	172.21
774.065	169.91
774.505	198.11
774.944	327.71
775.384	709.61
775.824	1259.51
776.263	1217.21
776.703	513.11
777.142	230.01
777.582	160.01
778.021	141.31
778.461	141.31
778.9	137.31
779.34	137.71
779.779	120.61
780.219	110.81
780.658	110.71
781.097	111.41
781.537	111.31
781.976	112.51
782.415	107.41
782.855	105.91
783.294	103.21
783.733	106.51
784.172	108.21
784.611	98.11
785.05	106.21
785.489	109.41
785.928	124.71
786.367	125.71
786.806	113.91
787.245	128.11
787.684	126.11
788.123	146.11
788.562	130.51
789.001	129.91
789.44	119.11
789.879	120.31
790.317	110.61
790.756	129.41
791.195	130.11
791.634	149.71
792.072	207.31
792.511	367.41
792.95	1030.81
793.388	2119.31
793.827	1866.41
794.265	673.51
794.704	275.11
795.142	181.31
795.581	151.91
796.019	136.91
796.458	133.21
796.896	121.11
797.334	132.11
797.773	150.01
798.211	220.41
798.649	451.71
799.087	1032.01
799.526	1591.61
799.964	2000.11
800.402	1957.01
800.84	748.01
801.278	297.01
801.716	182.71
802.154	154.61
802.592	149.01
803.03	136.91
803.468	129.21
803.906	144.41
804.344	148.41
804.782	141.51
805.22	132.81
805.658	131.71
806.096	139.61
806.533	153.61
806.971	177.51
807.409	211.61
807.847	319.41
808.284	676.81
808.722	1877.91
809.16	3249.71
809.597	3145.41
810.035	5407.21
810.472	5584.11
810.91	2034.81
811.347	781.71
811.785	393.41
812.222	251.01
812.66	192.41
813.097	159.11
813.535	137.11
813.972	126.81
814.409	114.01
814.846	105.71
815.284	106.11
815.721	106.11
816.158	103.91
816.595	122.91
817.032	185.21
817.47	202.61
817.907	164.01
818.344	151.11
818.781	119.31
819.218	103.31
819.655	123.51
820.092	179.41
820.529	207.41
820.966	169.11
821.403	128.71
821.839	109.71
822.276	106.51
822.713	124.91
823.15	131.91
823.587	117.31
824.023	144.31
824.46	310.71
824.897	912.61
825.333	1320.31
825.77	568.01
826.206	223.91
826.643	128.71
827.08	98.81
827.516	82.01
827.953	74.91
828.389	70.11
828.825	73.91
829.262	68.11
829.698	64.51
830.135	59.51
830.571	60.41
831.007	67.31
831.443	64.91
831.88	55.71
832.316	66.61
832.752	75.01
833.188	62.91
833.624	57.21
834.06	61.71
834.497	69.21
834.933	74.91
835.369	73.61
835.805	62.81
836.241	72.91
836.677	74.61
837.112	85.11
837.548	101.11
837.984	129.41
838.42	203.91
838.856	507.81
839.292	1530.31
839.727	2244.31
840.163	1058.71
840.599	935.51
841.034	2036.51
841.47	2053.51
841.906	761.01
842.341	330.21
842.777	235.01
843.212	326.61
843.648	309.71
844.083	151.71
844.519	89.11
844.954	80.21
845.39	61.91
845.825	57.41
846.261	56.61
846.696	56.61
847.131	49.41
847.566	59.11
848.002	58.11
848.437	57.01
848.872	57.91
849.307	54.81
849.742	82.31
850.177	183.51
850.613	567.51
851.048	864.61
851.483	370.01
851.918	155.71
852.353	89.51
852.788	60.31
853.223	57.51
853.657	51.21
854.092	48.11
854.527	39.01
854.962	40.71
855.397	39.81
855.832	51.01
856.266	40.81
856.701	34.91
857.136	35.71
857.57	36.61
858.005	56.31
858.44	61.71
858.874	44.11
859.309	53.71
859.743	36.41
860.178	49.51
860.612	44.51
861.047	57.11
861.481	67.71
861.915	67.61
862.35	44.51
862.784	32.21
863.218	45.21
863.653	36.51
864.087	45.51
864.521	54.91
864.955	69.11
865.39	158.31
865.824	175.51
866.258	118.91
866.692	160.41
867.126	173.01
867.56	100.31
867.994	45.61
868.428	35.81
868.862	44.11
869.296	50.11
869.73	54.31
870.164	56.41
870.598	44.51
871.031	35.51
871.465	25.71
871.899	32.11
872.333	21.91
872.766	25.91
873.2	29.81
873.634	25.11
874.067	22.81
874.501	23.71
874.935	28.61
875.368	29.61
875.802	27.81
876.235	26.51
876.669	24.61
877.102	22.71
877.535	18.21
877.969	18.71
878.402	22.81
878.836	16.81
879.269	24.01
879.702	25.91
880.135	21.01
880.569	25.81
881.002	32.81
881.435	25.71
881.868	20.11
882.301	22.11
882.734	14.61
883.167	23.41
883.601	15.61
884.034	23.11
884.467	15.31
884.899	17.41
885.332	13.11
885.765	16.91
886.198	17.71
886.631	19.51
887.064	21.01
887.497	22.11
887.929	21.81
888.362	13.11
888.795	9.81
889.228	13.41
889.66	22.21
890.093	20.41
890.526	14.21
890.958	16.41
891.391	13.61
891.823	21.21
892.256	11.71
892.688	14.21
893.121	13.11
893.553	20.31
893.985	21.41
894.418	23.01
894.85	10.31
895.282	15.21
895.715	12.11
896.147	17.91
896.579	17.71
897.011	5.11
897.444	21.31
897.876	9.51
898.308	16.91
898.74	12.71
899.172	13.81
899.604	21.91
900.036	21.11
900.468	16.11
900.9	17.61
901.332	19.61
901.764	5.81
902.196	14.01
902.628	12.11
903.06	15.61
903.491	24.71
903.923	19.51
904.355	11.91
904.787	24.21
905.218	24.31
905.65	15.81
906.082	12.01
906.513	15.11
906.945	9.71
907.376	14.71
907.808	19.41
908.239	20.41
908.671	21.41
909.102	24.61
909.534	28.51
909.965	44.61
910.397	84.71
910.828	319.01
911.259	459.71
911.691	211.81
912.122	109.11
912.553	48.71
912.984	34.51
913.415	17.71
913.847	25.71
914.278	19.31
914.709	8.81
915.14	20.51
915.571	14.71
916.002	7.91
916.433	17.01
916.864	16.01
917.295	11.61
917.726	20.31
918.157	16.41
918.587	26.31
919.018	24.81
919.449	16.51
919.88	17.61
920.311	29.71
920.741	46.21
921.172	162.51
921.603	143.61
922.033	71.01
922.464	48.91
922.895	26.91
923.325	19.11
923.756	7.01
924.186	10.91
924.617	22.81
925.047	41.91
925.478	52.11
925.908	45.21
926.338	26.61
926.769	23.51
927.199	26.81
927.629	14.51
928.06	8.91
928.49	16.51
928.92	10.31
929.35	11.21
929.78	7.41
930.21	11.71
930.641	5.31
931.071	7.21
931.501	1.91
931.931	10.51
932.361	10.81
932.791	4.91
933.221	3.91
933.651	6.11
934.08	19.51
934.51	28.71
934.94	10.71
935.37	9.21
935.8	11.81
936.229	5.91
936.659	6.61
937.089	2.11
937.519	9.51
937.948	20.11
938.378	13.41
938.807	3.51
939.237	0.61
939.666	1.31
940.096	-7.49
940.525	3.51
940.955	2.61
941.384	5.11
941.814	-7.59
942.243	-5.09
942.672	4.91
943.102	3.51
943.531	-0.69
943.96	7.61
944.39	-1.99
944.819	3.81
945.248	-1.59
945.677	-2.99
946.106	4.21
946.535	-1.99
946.964	2.11
947.393	6.61
947.822	3.31
948.251	-2.69
948.68	3.31
949.109	5.61
949.538	7.51
949.967	-3.79
950.396	0.21
950.825	-0.89
951.254	-1.09
951.682	-7.49
952.111	4.61
952.54	-5.19
952.969	-7.29
953.397	-8.79
953.826	-2.49
954.254	-3.89
954.683	1.91
955.112	-5.29
955.54	-1.59
955.969	1.01
956.397	2.91
956.826	-4.19
957.254	1.81
957.682	2.11
958.111	7.61
958.539	-0.29
958.967	0.11
959.396	0.01
959.824	0.11
960.252	-0.89
960.68	-7.59
961.109	-1.89
961.537	-0.09
961.965	-1.79
962.393	-3.79
962.821	-9.09
963.249	1.11
963.677	-1.29
964.105	6.01
964.533	46.91
964.961	38.51
965.389	15.81
965.817	-2.09
966.245	-1.49
966.672	1.91
967.1	-7.69
967.528	-3.39
967.956	-3.49
968.383	3.41
968.811	-0.19
969.239	-5.19
969.666	-2.69
970.094	-0.09
970.522	0.21
970.949	1.91
971.377	-9.29
971.804	-6.99
972.232	-3.09
972.659	-8.59
973.087	-3.39
973.514	-6.29
973.941	-0.59
974.369	1.01
974.796	2.11
975.223	-0.39
975.651	-4.59
976.078	-1.79
976.505	-3.39
976.932	4.11
977.359	12.21
977.786	12.91
978.214	-3.19
978.641	-1.89
979.068	-4.89
979.495	-2.59
979.922	-1.89
980.349	0.91
980.776	3.91
981.202	-7.09
981.629	3.71
982.056	1.81
982.483	-8.09
982.91	3.31
983.337	-8.09
983.763	-4.29
984.19	-8.29
984.617	-10.49
985.043	-6.99
985.47	-2.79
985.897	-3.89
986.323	-10.49
986.75	2.61
987.176	-0.89
987.603	1.91
988.029	-3.09
988.456	-3.29
988.882	0.61
989.308	-2.99
989.735	-4.49
990.161	-2.39
990.587	-7.19
991.014	-3.89
991.44	5.81
991.866	-2.49
992.292	-11.99
992.719	-7.09
993.145	-0.69
993.571	-8.49
993.997	-7.49
994.423	-5.69
994.849	-1.39
995.275	0.91
995.701	0.41
996.127	-8.19
996.553	-2.99
996.979	-4.19
997.405	-4.89
997.83	-5.59
998.256	-6.39
998.682	-3.89
999.108	-13.79
999.534	-2.29
999.959	-7.09
1000.385	0.21
1000.811	-0.79
1001.236	-8.79
1001.662	-10.79
1002.087	-14.79
1002.513	-2.29
1002.938	-1.49
1003.364	0.61
1003.789	-1.29
1004.215	3.61
1004.64	-6.39
1005.066	-2.39
1005.491	1.41
1005.916	-2.09
1006.342	-4.39
1006.767	-5.89
1007.192	2.71
1007.617	-4.79
1008.042	0.21
1008.468	-5.49
1008.893	-9.69
1009.318	-9.29
1009.743	-5.19
1010.168	1.41
1010.593	-1.99
1011.018	-5.39
1011.443	-4.89
1011.868	-0.79
1012.293	-7.89
1012.718	-11.39
1013.143	-3.19
1013.567	0.21
1013.992	-1.19
1014.417	-14.89
1014.842	0.91
1015.267	-4.59
1015.691	-3.49
1016.116	2.51
1016.541	2.41
1016.965	0.41
1017.39	-4.39
1017.814	0.71
1018.239	-2.49
1018.663	-2.59
1019.088	-9.19
1019.512	-5.39
1019.937	-1.29
1020.361	-4.39
1020.785	-9.49
1021.21	-2.39
1021.634	-6.09
1022.058	-3.39
1022.483	2.21
1022.907	-9.59
1023.331	-3.99
1023.755	-5.39
1024.179	-1.09
1024.604	-7.69
1025.028	-7.19
1025.452	-5.29
1025.876	-4.49
1026.3	-1.89
1026.724	-11.09
1027.148	-3.69
1027.572	-12.79
1027.996	-8.09
1028.42	-7.19
1028.843	-10.19
1029.267	-9.59
1029.691	-10.99
1030.115	-7.69
1030.539	-9.19
1030.962	-10.09
1031.386	-12.59
1031.81	0.11
1032.233	-3.79
1032.657	-2.59
1033.08	-1.59
1033.504	-6.29
1033.927	-1.69
1034.351	0.81
1034.774	0.41
1035.198	-0.69
1035.621	-11.99
1036.045	-5.59
1036.468	-6.09
1036.891	-13.59
1037.315	-2.89
1037.738	-7.99
1038.161	-2.39
1038.584	-6.89
1039.008	-7.89
1039.431	-7.49
1039.854	-6.39
1040.277	-9.89
1040.7	-8.69
1041.123	-2.99
1041.546	-10.29
1041.969	-3.19
1042.392	-4.69
1042.815	-5.69
1043.238	-1.89
1043.661	0.51
1044.084	-4.99
1044.507	-2.69
1044.93	-8.69
1045.352	-6.69
1045.775	-3.99
1046.198	-3.99
1046.621	-2.99
1047.043	0.41
1047.466	2.91
1047.889	-4.99
1048.311	-9.59
1048.734	-1.29
1049.156	-0.79
1049.579	-6.79
1050.001	-6.39
1050.424	-2.59
1050.846	-4.49
1051.269	-3.99
1051.691	-7.19
1052.113	-6.29
1052.536	-5.99
1052.958	-2.69
1053.38	-4.79
1053.802	-10.69
1054.225	3.81
1054.647	-11.69
1055.069	-7.39
1055.491	0.21
1055.913	-8.09
1056.335	0.51
1056.757	-3.49
1057.179	-9.49
1057.601	-4.39
1058.023	-4.19
1058.445	-8.59
1058.867	-4.69
1059.289	-4.89
1059.711	-7.09
1060.133	3.21
1060.555	-6.89
1060.976	-9.89
1061.398	-4.79
1061.82	-5.89
1062.241	-11.89
1062.663	-7.09
1063.085	-5.89
1063.506	-0.49
1063.928	-6.39
1064.35	-6.69
1064.771	-14.29
1065.193	-4.99
1065.614	-11.89
1066.035	-7.89
1066.457	-6.49
1066.878	-0.39
1067.3	-5.69
1067.721	-5.49
1068.142	-4.09
1068.564	-4.29
1068.985	-8.59
1069.406	-5.39
1069.827	-4.29
1070.248	-4.79
1070.67	-8.39
1071.091	-9.79
1071.512	-7.19
1071.933	-12.39
1072.354	-10.59
1072.775	-10.89
1073.196	-15.49
1073.617	-3.29
1074.038	-7.69
1074.459	-6.79
1074.88	-7.09
1075.3	0.61
1075.721	-12.69
1076.142	-0.89
1076.563	-4.59
1076.983	-9.39
1077.404	-4.59
1077.825	-7.99
1078.246	-5.89
1078.666	-14.99
1079.087	-9.79
1079.507	-3.39
1079.928	-2.19
1080.348	-1.39
1080.769	-8.59
1081.189	4.61
1081.61	-2.59
1082.03	-3.49
1082.451	-9.39
1082.871	-9.29
1083.291	-5.89
1083.711	-7.69
1084.132	-6.29
1084.552	-9.59
1084.972	-8.89
1085.392	-13.89
1085.813	-7.99
1086.233	-3.99
1086.653	-9.29
1087.073	-2.49
1087.493	-11.09
1087.913	-8.99
1088.333	-10.79
1088.753	-4.19
1089.173	-0.69
1089.593	-3.09
1090.013	-1.29
1090.433	0.11
1090.852	-3.59
1091.272	-3.39
1091.692	-4.79
1092.112	-6.29
1092.531	-9.09
1092.951	-15.69
1093.371	-10.19
1093.79	-1.79
1094.21	-6.29
1094.63	-7.39
1095.049	-5.09
1095.469	-2.19
1095.888	-8.29
1096.308	-3.69
1096.727	0.21
1097.146	-7.69
1097.566	-0.59
1097.985	2.01
1098.405	-4.89
1098.824	-9.89
1099.243	-6.89
1099.662	-11.19
1100.082	-8.39
1100.501	-4.19
1100.92	-5.79
1101.339	-8.09
1101.758	-4.49
