Data from 20171114-ORNL-Ar_H_NY_Subt18_08-07-53-000.txt Node
Date: Tue Nov 14 08:07:53 EST 2017
User: Ender
Spectrometer: HR+D1039
Trigger mode: 0
Integration Time (sec): 2.730000E-2
Scans to average: 10
Electric dark correction enabled: true
Nonlinearity correction enabled: false
Boxcar width: 0
XAxis mode: Wavelengths
Number of Pixels in Spectrum: 2048
>>>>>Begin Spectral Data<<<<<
187.836	-3.83
188.309	-3.83
188.782	-3.83
189.255	-2.93
189.728	-2.12
190.201	5.07
190.674	-0.53
191.147	6.97
191.619	-10.83
192.092	-6.93
192.565	5.27
193.038	-0.73
193.511	7.77
193.984	2.97
194.456	-4.12
194.929	4.57
195.402	-0.73
195.874	0.07
196.347	-4.63
196.82	-6.63
197.292	-5.03
197.765	-2.83
198.237	-9.93
198.71	3.77
199.182	-6.73
199.655	-4.23
200.127	1.07
200.6	-5.83
201.072	-7.23
201.544	-7.43
202.017	-4.03
202.489	4.17
202.961	-0.93
203.433	-12.83
203.906	-7.23
204.378	-2.52
204.85	-4.83
205.322	-6.33
205.794	-0.73
206.266	-9.23
206.739	-13.83
207.211	0.38
207.683	-13.73
208.155	-6.83
208.627	-11.83
209.099	-4.03
209.57	-11.52
210.042	-7.43
210.514	-3.23
210.986	-5.03
211.458	-6.13
211.93	-0.83
212.402	1.47
212.873	-5.23
213.345	-8.93
213.817	-12.03
214.288	-6.13
214.76	-16.23
215.232	-6.83
215.703	-7.33
216.175	0.07
216.646	-7.83
217.118	-5.13
217.589	-6.52
218.061	-0.33
218.532	-4.02
219.004	-1.93
219.475	-2.62
219.946	-0.33
220.418	-4.93
220.889	0.97
221.36	-7.93
221.832	-6.73
222.303	-5.53
222.774	-4.83
223.245	-16.02
223.717	-14.93
224.188	-7.62
224.659	-6.03
225.13	-10.52
225.601	-4.83
226.072	0.97
226.543	-4.53
227.014	1.47
227.485	-6.13
227.956	-7.03
228.427	-3.33
228.898	2.88
229.369	0.47
229.839	-0.43
230.31	-5.93
230.781	-3.03
231.252	-10.83
231.722	-7.63
232.193	-1.73
232.664	-1.73
233.135	-9.73
233.605	-5.02
234.076	-4.43
234.546	1.47
235.017	-2.83
235.487	0.77
235.958	-4.12
236.428	-8.33
236.899	5.67
237.369	-1.23
237.84	-3.73
238.31	2.87
238.78	4.98
239.251	-1.33
239.721	-2.53
240.191	-2.62
240.662	-7.83
241.132	4.17
241.602	-3.33
242.072	9.37
242.542	5.88
243.013	-4.53
243.483	3.47
243.953	-2.93
244.423	-6.73
244.893	-7.83
245.363	-2.43
245.833	-0.83
246.303	-2.53
246.773	2.47
247.243	5.67
247.712	-2.53
248.182	5.57
248.652	7.67
249.122	-5.03
249.592	7.67
250.061	14.17
250.531	30.38
251.001	8.48
251.471	16.87
251.94	12.87
252.41	-0.83
252.879	-1.23
253.349	9.87
253.818	3.17
254.288	6.57
254.757	3.38
255.227	0.67
255.696	-1.03
256.166	-1.12
256.635	0.38
257.105	5.67
257.574	0.87
258.043	9.67
258.513	6.77
258.982	12.57
259.451	2.57
259.92	15.37
260.389	8.67
260.859	5.97
261.328	12.48
261.797	13.38
262.266	2.37
262.735	5.07
263.204	1.17
263.673	-6.63
264.142	1.88
264.611	-8.23
265.08	3.77
265.549	-1.23
266.018	0.77
266.487	-6.83
266.955	-2.33
267.424	0.57
267.893	4.48
268.362	-6.23
268.83	2.57
269.299	10.77
269.768	1.67
270.236	5.57
270.705	0.87
271.174	-3.12
271.642	6.37
272.111	2.77
272.579	9.27
273.048	22.27
273.516	25.38
273.985	19.17
274.453	18.57
274.922	15.47
275.39	6.17
275.858	-0.93
276.327	4.17
276.795	11.38
277.263	4.87
277.731	28.77
278.2	45.87
278.668	43.77
279.136	39.47
279.604	11.27
280.072	11.07
280.54	12.07
281.008	12.77
281.477	12.47
281.945	6.77
282.413	18.87
282.881	13.17
283.348	5.77
283.816	14.07
284.284	12.57
284.752	14.67
285.22	8.88
285.688	9.97
286.156	17.07
286.623	40.37
287.091	41.97
287.559	26.27
288.026	12.97
288.494	16.57
288.962	2.37
289.429	7.27
289.897	12.38
290.364	9.07
290.832	16.38
291.3	14.97
291.767	13.88
292.234	15.27
292.702	12.27
293.169	11.98
293.637	16.07
294.104	15.07
294.571	3.97
295.039	12.67
295.506	9.37
295.973	14.07
296.44	13.17
296.908	12.77
297.375	17.37
297.842	15.07
298.309	8.88
298.776	7.17
299.243	18.17
299.71	9.57
300.177	14.57
300.644	16.57
301.111	18.67
301.578	24.17
302.045	17.67
302.512	14.88
302.979	20.27
303.446	17.67
303.913	11.48
304.379	15.57
304.846	22.67
305.313	26.07
305.78	18.07
306.246	25.67
306.713	24.27
307.18	22.17
307.646	28.47
308.113	19.97
308.579	16.57
309.046	16.48
309.512	20.67
309.979	11.87
310.445	24.47
310.912	18.47
311.378	34.77
311.845	22.57
312.311	28.27
312.777	29.07
313.244	27.48
313.71	28.77
314.176	21.88
314.642	26.37
315.109	24.77
315.575	33.47
316.041	31.77
316.507	24.97
316.973	36.57
317.439	29.57
317.905	35.77
318.371	28.27
318.837	26.77
319.303	29.47
319.769	36.38
320.235	27.87
320.701	26.17
321.167	36.37
321.633	31.17
322.099	37.77
322.564	45.07
323.03	28.87
323.496	31.07
323.962	35.07
324.427	33.37
324.893	37.67
325.359	32.57
325.824	29.57
326.29	34.27
326.755	29.77
327.221	39.57
327.686	32.97
328.152	35.67
328.617	33.47
329.083	42.07
329.548	44.07
330.014	42.57
330.479	33.37
330.944	41.27
331.41	36.77
331.875	41.38
332.34	36.38
332.805	41.37
333.271	35.57
333.736	39.77
334.201	42.67
334.666	44.87
335.131	52.07
335.596	46.57
336.061	43.97
336.526	42.97
336.991	42.98
337.456	49.77
337.921	44.47
338.386	37.77
338.851	38.67
339.316	40.37
339.781	44.67
340.246	45.77
340.711	41.57
341.175	44.17
341.64	37.57
342.105	50.57
342.569	49.27
343.034	54.87
343.499	51.87
343.963	49.07
344.428	61.57
344.893	58.57
345.357	56.47
345.822	57.07
346.286	64.17
346.751	62.27
347.215	55.87
347.679	62.07
348.144	88.57
348.608	80.57
349.073	65.17
349.537	69.27
350.001	76.17
350.465	80.27
350.93	75.07
351.394	70.67
351.858	63.98
352.322	76.77
352.786	77.67
353.25	100.47
353.715	98.27
354.179	91.27
354.643	111.07
355.107	111.07
355.571	104.77
356.035	87.17
356.498	114.27
356.962	112.37
357.426	122.07
357.89	106.97
358.354	84.37
358.818	74.97
359.281	66.17
359.745	75.77
360.209	71.27
360.673	65.67
361.136	72.67
361.6	79.07
362.064	75.48
362.527	78.27
362.991	77.97
363.454	70.57
363.918	61.97
364.381	69.17
364.845	71.87
365.308	78.37
365.772	84.27
366.235	75.57
366.698	81.47
367.162	77.77
367.625	85.37
368.088	75.87
368.552	83.37
369.015	86.38
369.478	87.07
369.941	90.37
370.404	87.97
370.867	96.27
371.331	99.87
371.794	111.27
372.257	102.97
372.72	110.27
373.183	100.27
373.646	91.07
374.109	87.67
374.572	98.37
375.035	98.47
375.497	98.87
375.96	98.88
376.423	99.67
376.886	108.17
377.349	102.17
377.811	100.67
378.274	97.88
378.737	94.57
379.199	97.27
379.662	105.87
380.125	108.57
380.587	106.57
381.05	110.17
381.512	127.57
381.975	124.97
382.437	128.38
382.9	119.87
383.362	126.67
383.825	128.38
384.287	145.57
384.75	141.97
385.212	134.97
385.674	134.27
386.136	127.48
386.599	111.37
387.061	119.77
387.523	119.27
387.985	124.97
388.447	134.67
388.91	136.38
389.372	147.88
389.834	142.27
390.296	129.57
390.758	146.37
391.22	163.07
391.682	206.38
392.144	291.17
392.606	224.97
393.068	158.98
393.529	158.87
393.991	142.17
394.453	139.37
394.915	151.47
395.377	184.38
395.838	209.47
396.3	145.17
396.762	129.17
397.224	123.97
397.685	123.87
398.147	125.07
398.608	121.67
399.07	126.57
399.531	123.57
399.993	135.77
400.454	147.57
400.916	137.07
401.377	132.88
401.839	146.67
402.3	139.07
402.762	151.97
403.223	172.67
403.684	167.17
404.145	154.87
404.607	147.67
405.068	161.27
405.529	157.97
405.99	178.67
406.451	167.77
406.913	157.37
407.374	157.27
407.835	147.88
408.296	162.57
408.757	159.07
409.218	175.27
409.679	164.27
410.14	163.88
410.601	165.07
411.062	176.97
411.522	179.27
411.983	183.87
412.444	175.77
412.905	168.27
413.366	178.77
413.826	184.47
414.287	203.77
414.748	246.88
415.208	231.77
415.669	196.97
416.13	193.47
416.59	194.67
417.051	203.48
417.511	203.07
417.972	225.18
418.432	227.17
418.893	280.17
419.353	239.27
419.814	189.77
420.274	177.77
420.734	173.97
421.195	194.57
421.655	188.57
422.115	188.67
422.576	181.17
423.036	186.67
423.496	196.97
423.956	207.18
424.416	215.87
424.876	252.57
425.336	245.97
425.797	255.87
426.257	254.27
426.717	228.98
427.177	223.38
427.637	211.57
428.097	220.47
428.556	232.08
429.016	270.17
429.476	257.98
429.936	270.18
430.396	263.38
430.856	280.67
431.315	300.77
431.775	333.37
432.235	366.67
432.694	335.67
433.154	353.88
433.614	376.47
434.073	330.98
434.533	266.27
434.993	256.88
435.452	270.07
435.912	277.77
436.371	274.37
436.83	275.48
437.29	261.27
437.749	235.27
438.209	244.07
438.668	270.07
439.127	283.47
439.587	255.77
440.046	237.47
440.505	248.48
440.964	269.97
441.424	318.37
441.883	307.67
442.342	251.37
442.801	215.58
443.26	215.38
443.719	215.08
444.178	213.47
444.637	205.48
445.096	213.37
445.555	214.67
446.014	215.57
446.473	216.27
446.932	221.48
447.391	227.67
447.849	218.67
448.308	206.08
448.767	219.48
449.226	229.27
449.685	228.17
450.143	241.38
450.602	227.27
451.061	216.67
451.519	224.37
451.978	225.47
452.436	225.88
452.895	232.27
453.353	242.27
453.812	226.57
454.27	228.77
454.729	230.77
455.187	232.38
455.646	238.67
456.104	238.47
456.562	249.17
457.021	257.07
457.479	243.17
457.937	264.57
458.395	247.48
458.854	248.27
459.312	252.27
459.77	272.47
460.228	240.07
460.686	230.57
461.144	240.27
461.602	235.07
462.06	237.67
462.518	241.67
462.976	244.27
463.434	243.58
463.892	258.47
464.35	257.27
464.808	282.67
465.266	259.67
465.724	256.87
466.181	258.38
466.639	255.67
467.097	277.38
467.555	279.67
468.012	288.97
468.47	293.47
468.928	309.17
469.385	318.77
469.843	330.47
470.3	328.77
470.758	351.38
471.215	381.07
471.673	390.67
472.13	393.57
472.588	398.17
473.045	356.37
473.503	365.68
473.96	375.88
474.417	386.57
474.875	412.57
475.332	464.38
475.789	443.98
476.246	451.87
476.704	475.57
477.161	486.47
477.618	505.77
478.075	542.98
478.532	599.58
478.989	665.58
479.446	782.18
479.903	752.27
480.36	784.17
480.817	841.17
481.274	932.07
481.731	1037.88
482.188	1122.67
482.645	1254.88
483.102	1347.67
483.558	1494.67
484.015	1538.78
484.472	1513.57
484.929	1472.88
485.385	1423.07
485.842	1374.47
486.299	1317.67
486.755	1254.37
487.212	1053.07
487.668	885.57
488.125	816.27
488.582	748.77
489.038	724.77
489.494	684.57
489.951	650.27
490.407	644.48
490.864	618.17
491.32	621.58
491.776	622.97
492.233	619.97
492.689	594.97
493.145	582.37
493.602	574.97
494.058	584.27
494.514	589.68
494.97	616.77
495.426	621.97
495.882	606.38
496.338	594.47
496.794	589.67
497.251	594.47
497.707	617.98
498.163	605.57
498.618	617.47
499.074	613.47
499.53	639.48
499.986	653.97
500.442	628.68
500.898	611.48
501.354	595.87
501.809	615.47
502.265	615.08
502.721	637.77
503.177	649.37
503.632	649.67
504.088	657.07
504.543	691.87
504.999	689.17
505.455	624.07
505.91	599.77
506.366	605.77
506.821	601.77
507.277	595.27
507.732	604.67
508.187	600.38
508.643	605.67
509.098	613.27
509.553	626.27
510.009	643.77
510.464	652.67
510.919	657.88
511.375	670.57
511.83	689.87
512.285	689.67
512.74	720.08
513.195	752.47
513.65	748.87
514.105	741.87
514.56	747.27
515.015	764.48
515.47	785.77
515.925	759.98
516.38	745.17
516.835	761.97
517.29	751.68
517.745	748.48
518.2	726.57
518.655	719.87
519.109	712.57
519.564	713.27
520.019	700.88
520.474	694.77
520.928	702.77
521.383	699.07
521.838	685.88
522.292	688.97
522.747	690.27
523.201	680.37
523.656	678.38
524.11	669.37
524.565	669.27
525.019	670.67
525.474	669.38
525.928	673.68
526.382	665.47
526.837	667.17
527.291	671.57
527.745	674.17
528.2	671.87
528.654	662.88
529.108	664.38
529.562	668.97
530.016	666.87
530.47	669.88
530.925	668.27
531.379	679.08
531.833	675.67
532.287	679.37
532.741	674.77
533.195	669.48
533.649	687.38
534.103	694.67
534.556	680.57
535.01	682.48
535.464	686.88
535.918	693.07
536.372	691.67
536.826	684.67
537.279	678.57
537.733	685.67
538.187	683.27
538.64	680.67
539.094	696.17
539.548	701.77
540.001	694.97
540.455	701.27
540.908	706.67
541.362	716.88
541.815	722.67
542.269	726.17
542.722	733.77
543.175	735.77
543.629	749.37
544.082	755.77
544.536	752.88
544.989	758.48
545.442	765.38
545.895	767.97
546.349	764.87
546.802	758.47
547.255	775.47
547.708	771.58
548.161	780.47
548.614	799.47
549.067	792.88
549.52	787.38
549.973	777.27
550.426	768.17
550.879	767.77
551.332	779.17
551.785	778.67
552.238	781.77
552.691	782.87
553.144	803.07
553.596	805.98
554.049	840.38
554.502	865.57
554.955	873.57
555.407	873.77
555.86	875.88
556.313	868.47
556.765	863.98
557.218	854.57
557.67	849.47
558.123	856.57
558.576	842.07
559.028	859.98
559.48	857.98
559.933	834.38
560.385	801.07
560.838	774.57
561.29	768.57
561.742	758.37
562.195	747.97
562.647	729.37
563.099	742.97
563.551	741.17
564.004	756.67
564.456	748.57
564.908	742.07
565.36	722.47
565.812	707.48
566.264	709.68
566.716	709.87
567.168	701.17
567.62	699.07
568.072	685.97
568.524	665.37
568.976	662.17
569.428	654.27
569.88	653.97
570.332	666.48
570.784	663.47
571.235	662.87
571.687	673.67
572.139	680.07
572.59	692.67
573.042	689.17
573.494	678.77
573.945	675.07
574.397	655.67
574.849	660.67
575.3	663.27
575.752	658.57
576.203	655.47
576.655	651.17
577.106	649.17
577.557	652.68
578.009	643.37
578.46	650.48
578.912	640.67
579.363	650.47
579.814	649.27
580.265	644.87
580.717	641.17
581.168	649.47
581.619	654.57
582.07	659.48
582.521	660.67
582.972	652.17
583.423	663.77
583.875	658.27
584.326	688.17
584.777	736.48
585.227	801.27
585.678	883.77
586.129	974.88
586.58	1052.08
587.031	1128.88
587.482	1269.07
587.933	1456.27
588.384	1258.97
588.834	940.77
589.285	777.67
589.736	767.77
590.186	759.37
590.637	744.77
591.088	720.87
591.538	722.08
591.989	714.77
592.439	707.87
592.89	697.07
593.34	682.27
593.791	689.57
594.241	684.98
594.692	690.58
595.142	690.38
595.593	679.08
596.043	690.87
596.493	694.58
596.943	701.07
597.394	705.17
597.844	703.77
598.294	711.37
598.744	736.88
599.195	756.97
599.645	799.08
600.095	835.57
600.545	890.48
600.995	932.37
601.445	990.77
601.895	1052.17
602.345	1100.67
602.795	1077.18
603.245	1028.78
603.695	972.47
604.145	923.47
604.594	879.87
605.044	839.27
605.494	777.48
605.944	731.77
606.393	734.48
606.843	703.47
607.293	717.18
607.743	710.27
608.192	723.57
608.642	746.27
609.091	752.37
609.541	751.17
609.99	747.57
610.44	745.27
610.889	701.77
611.339	683.17
611.788	674.07
612.238	689.17
612.687	695.87
613.136	700.67
613.586	718.07
614.035	714.68
614.484	739.97
614.933	745.97
615.383	734.27
615.832	732.68
616.281	711.87
616.73	662.47
617.179	640.67
617.628	636.27
618.077	607.17
618.526	606.47
618.975	603.27
619.424	600.67
619.873	603.98
620.322	613.88
620.771	590.97
621.22	588.17
621.669	567.18
622.118	568.07
622.567	562.68
623.015	548.57
623.464	553.88
623.913	547.98
624.361	526.67
624.81	533.88
625.259	544.07
625.707	545.87
626.156	544.88
626.604	546.07
627.053	548.97
627.501	550.77
627.95	549.18
628.398	556.07
628.847	562.68
629.295	557.67
629.744	556.48
630.192	554.37
630.64	552.27
631.089	555.77
631.537	565.77
631.985	581.77
632.433	590.67
632.881	600.98
633.33	646.37
633.778	630.97
634.226	556.57
634.674	559.77
635.122	569.77
635.57	590.27
636.018	622.88
636.466	573.47
636.914	548.97
637.362	558.48
637.81	557.57
638.258	570.87
638.705	564.07
639.153	589.38
639.601	603.47
640.049	624.37
640.497	654.17
640.944	672.48
641.392	631.77
641.84	596.27
642.287	574.47
642.735	551.98
643.182	561.77
643.63	563.88
644.078	569.27
644.525	573.57
644.973	584.97
645.42	586.07
645.867	611.17
646.315	627.98
646.762	645.68
647.21	673.07
647.657	705.57
648.104	737.88
648.551	762.47
648.999	823.58
649.446	903.27
649.893	998.78
650.34	1140.57
650.787	1370.97
651.234	1699.47
651.682	2223.37
652.129	3067.57
652.576	4433.08
653.023	6537.88
653.47	8935.08
653.917	11119.48
654.363	12724.88
654.81	14063.88
655.257	13370.98
655.704	8726.77
656.151	5138.18
656.598	3327.37
657.044	2374.07
657.491	1823.78
657.938	1458.88
658.385	1213.48
658.831	1055.48
659.278	947.27
659.724	829.77
660.171	772.27
660.618	703.88
661.064	671.48
661.511	656.47
661.957	647.37
662.404	624.77
662.85	640.27
663.296	610.38
663.743	538.67
664.189	522.87
664.635	522.38
665.082	513.97
665.528	508.48
665.974	510.77
666.42	494.17
666.867	492.47
667.313	489.67
667.759	474.07
668.205	471.27
668.651	470.37
669.097	477.77
669.543	487.97
669.989	460.47
670.435	434.18
670.881	442.68
671.327	432.38
671.773	457.47
672.219	486.87
672.665	538.77
673.11	571.17
673.556	615.38
674.002	652.17
674.448	640.97
674.893	526.08
675.339	462.98
675.785	425.38
676.23	407.17
676.676	385.27
677.122	373.77
677.567	357.67
678.013	362.97
678.458	343.58
678.904	342.98
679.349	336.47
679.794	348.08
680.24	346.77
680.685	341.17
681.131	339.67
681.576	344.87
682.021	349.67
682.466	342.98
682.912	336.37
683.357	344.67
683.802	378.77
684.247	399.77
684.692	441.57
685.137	479.07
685.583	521.38
686.028	547.67
686.473	503.48
686.918	432.57
687.363	406.07
687.807	380.48
688.252	345.07
688.697	353.48
689.142	333.38
689.587	321.67
690.032	325.17
690.477	333.98
690.921	346.48
691.366	372.88
691.811	388.17
692.255	414.67
692.7	454.27
693.145	493.48
693.589	701.27
694.034	1124.57
694.478	1503.97
694.923	1690.38
695.367	2172.67
695.812	1155.78
696.256	487.27
696.701	356.07
697.145	334.38
697.59	311.17
698.034	309.47
698.478	314.87
698.922	327.18
699.367	328.58
699.811	333.27
700.255	343.57
700.699	386.47
701.143	416.18
701.588	472.27
702.032	500.67
702.476	496.27
702.92	475.37
703.364	481.47
703.808	637.47
704.252	1034.47
704.696	1440.87
705.14	1623.37
705.584	2055.57
706.027	1027.67
706.471	506.57
706.915	387.77
707.359	339.67
707.803	308.67
708.246	295.48
708.69	307.57
709.134	304.07
709.577	308.97
710.021	309.57
710.465	297.07
710.908	295.27
711.352	294.17
711.795	309.67
712.239	350.38
712.682	378.47
713.126	405.37
713.569	444.47
714.012	356.67
714.456	313.87
714.899	299.58
715.342	267.27
715.786	259.97
716.229	249.27
716.672	253.38
717.115	246.17
717.558	246.37
718.002	247.57
718.445	255.38
718.888	282.07
719.331	282.18
719.774	305.38
720.217	296.77
720.66	270.27
721.103	256.48
721.546	244.37
721.989	239.77
722.432	223.08
722.874	232.67
723.317	224.47
723.76	232.67
724.203	250.17
724.645	309.47
725.088	436.47
725.531	558.77
725.974	621.07
726.416	533.87
726.859	311.17
727.301	240.47
727.744	223.18
728.187	220.77
728.629	234.07
729.071	237.08
729.514	253.77
729.956	264.77
730.399	276.38
730.841	281.48
731.283	265.57
731.726	263.98
732.168	254.57
732.61	258.57
733.053	272.27
733.495	306.57
733.937	335.48
734.379	376.67
734.821	425.38
735.263	534.57
735.705	830.67
736.148	1578.78
736.59	2530.47
737.032	2949.77
737.474	2389.07
737.916	773.08
738.357	413.97
738.799	318.67
739.241	289.38
739.683	277.97
740.125	284.47
740.567	290.77
741.008	309.27
741.45	303.77
741.892	306.77
742.334	336.18
742.775	350.17
743.217	330.17
743.658	259.57
744.1	247.18
744.542	252.17
744.983	304.67
745.425	329.17
745.866	338.97
746.307	289.17
746.749	278.67
747.19	318.37
747.632	448.57
748.073	882.87
748.514	1852.67
748.956	2759.38
749.397	3478.07
749.838	2892.88
750.279	2840.77
750.72	1440.67
751.162	531.08
751.603	318.57
752.044	249.77
752.485	219.17
752.926	201.57
753.367	195.67
753.808	192.97
754.249	183.77
754.69	185.47
755.131	183.57
755.572	176.97
756.013	174.77
756.453	185.27
756.894	190.77
757.335	192.27
757.776	194.07
758.216	191.67
758.657	196.38
759.098	196.58
759.538	220.58
759.979	262.27
760.42	375.17
760.86	710.07
761.301	1836.87
761.741	4378.58
762.182	6167.08
762.622	4336.98
763.063	1282.47
763.503	530.17
763.943	340.98
764.384	339.87
764.824	393.68
765.264	427.47
765.705	293.17
766.145	203.38
766.585	180.87
767.025	172.87
767.465	177.87
767.906	230.67
768.346	309.67
768.786	331.48
769.226	256.58
769.666	314.87
770.106	626.57
770.546	1559.17
770.986	2560.27
771.426	2266.18
771.866	772.07
772.306	327.88
772.745	208.77
773.185	169.67
773.625	164.77
774.065	160.17
774.505	199.77
774.944	306.27
775.384	690.98
775.824	1196.77
776.263	1152.27
776.703	495.67
777.142	218.47
777.582	158.07
778.021	137.27
778.461	129.57
778.9	131.07
779.34	136.98
779.779	111.27
780.219	105.98
780.658	108.17
781.097	106.38
781.537	113.87
781.976	105.57
782.415	103.47
782.855	97.87
783.294	101.57
783.733	99.27
784.172	107.07
784.611	101.07
785.05	112.47
785.489	108.38
785.928	114.67
786.367	127.47
786.806	112.67
787.245	121.67
787.684	131.77
788.123	148.57
788.562	127.47
789.001	127.17
789.44	119.17
789.879	116.17
790.317	113.47
790.756	126.77
791.195	117.77
791.634	142.38
792.072	200.07
792.511	359.48
792.95	1014.78
793.388	2081.77
793.827	1856.88
794.265	661.17
794.704	278.38
795.142	184.98
795.581	145.17
796.019	131.97
796.458	120.17
796.896	115.57
797.334	128.17
797.773	155.57
798.211	215.77
798.649	436.27
799.087	1009.27
799.526	1572.17
799.964	1962.17
800.402	1920.17
800.84	726.77
801.278	295.97
801.716	180.07
802.154	149.07
802.592	139.67
803.03	138.27
803.468	133.67
803.906	138.17
804.344	143.17
804.782	137.07
805.22	129.57
805.658	121.67
806.096	144.48
806.533	152.27
806.971	171.57
807.409	219.37
807.847	312.87
808.284	665.07
808.722	1847.07
809.16	3179.28
809.597	3080.88
810.035	5307.28
810.472	5522.38
810.91	2011.28
811.347	771.07
811.785	390.48
812.222	247.07
812.66	188.67
813.097	157.17
813.535	131.77
813.972	122.97
814.409	117.57
814.846	109.38
815.284	109.47
815.721	105.07
816.158	101.17
816.595	121.17
817.032	176.07
817.47	194.57
817.907	152.38
818.344	148.77
818.781	114.77
819.218	99.38
819.655	116.48
820.092	184.67
820.529	205.27
820.966	172.98
821.403	131.17
821.839	100.17
822.276	94.38
822.713	120.77
823.15	127.67
823.587	109.67
824.023	140.87
824.46	306.68
824.897	885.08
825.333	1293.07
825.77	564.17
826.206	218.77
826.643	132.47
827.08	105.27
827.516	83.07
827.953	70.47
828.389	80.47
828.825	65.47
829.262	65.07
829.698	62.57
830.135	61.47
830.571	55.07
831.007	58.88
831.443	63.77
831.88	62.88
832.316	61.37
832.752	59.17
833.188	67.17
833.624	63.17
834.06	62.97
834.497	67.37
834.933	63.38
835.369	66.87
835.805	61.47
836.241	64.87
836.677	79.77
837.112	84.37
837.548	98.67
837.984	133.17
838.42	192.77
838.856	498.57
839.292	1497.57
839.727	2201.47
840.163	1033.47
840.599	922.08
841.034	1993.57
841.47	2024.47
841.906	746.27
842.341	320.17
842.777	223.48
843.212	316.27
843.648	297.17
844.083	144.37
844.519	97.38
844.954	70.67
845.39	61.07
845.825	56.67
846.261	57.57
846.696	48.97
847.131	44.57
847.566	55.37
848.002	57.88
848.437	50.47
848.872	60.07
849.307	61.48
849.742	81.88
850.177	177.27
850.613	546.18
851.048	847.57
851.483	370.37
851.918	150.67
852.353	79.27
852.788	57.07
853.223	51.97
853.657	46.77
854.092	42.77
854.527	38.27
854.962	37.97
855.397	43.97
855.832	47.47
856.266	35.07
856.701	40.17
857.136	33.88
857.57	41.27
858.005	45.88
858.44	54.47
858.874	41.77
859.309	49.48
859.743	35.17
860.178	40.97
860.612	42.87
861.047	52.37
861.481	61.97
861.915	68.07
862.35	52.37
862.784	36.87
863.218	38.47
863.653	32.17
864.087	42.87
864.521	50.77
864.955	70.88
865.39	158.77
865.824	169.17
866.258	116.88
866.692	154.88
867.126	167.17
867.56	97.47
867.994	47.37
868.428	35.17
868.862	36.38
869.296	48.77
869.73	54.67
870.164	49.27
870.598	45.27
871.031	33.37
871.465	23.57
871.899	30.88
872.333	19.48
872.766	24.27
873.2	18.17
873.634	30.47
874.067	22.97
874.501	19.97
874.935	33.57
875.368	31.87
875.802	28.97
876.235	21.17
876.669	23.17
877.102	20.07
877.535	22.27
877.969	24.27
878.402	24.47
878.836	20.07
879.269	20.48
879.702	15.47
880.135	22.67
880.569	18.67
881.002	27.07
881.435	21.07
881.868	17.67
882.301	20.17
882.734	21.47
883.167	22.97
883.601	16.47
884.034	18.17
884.467	8.98
884.899	16.97
885.332	16.57
885.765	14.57
886.198	15.77
886.631	16.17
887.064	16.47
887.497	17.57
887.929	23.87
888.362	16.77
888.795	13.97
889.228	22.57
889.66	20.27
890.093	18.67
890.526	15.67
890.958	15.48
891.391	21.17
891.823	24.27
892.256	14.97
892.688	11.37
893.121	11.77
893.553	17.57
893.985	20.07
894.418	16.17
894.85	13.07
895.282	14.57
895.715	16.47
896.147	4.27
896.579	14.17
897.011	16.38
897.444	11.07
897.876	13.07
898.308	18.97
898.74	12.27
899.172	10.67
899.604	26.77
900.036	19.77
900.468	12.47
900.9	6.87
901.332	16.77
901.764	13.87
902.196	24.88
902.628	15.97
903.06	17.57
903.491	24.37
903.923	24.27
904.355	21.88
904.787	22.77
905.218	20.77
905.65	22.97
906.082	11.77
906.513	11.17
906.945	16.37
907.376	9.77
907.808	20.57
908.239	21.07
908.671	15.38
909.102	18.77
909.534	22.27
909.965	44.57
910.397	88.77
910.828	317.97
911.259	457.57
911.691	208.17
912.122	107.98
912.553	49.27
912.984	32.07
913.415	24.88
913.847	25.57
914.278	11.37
914.709	14.87
915.14	14.48
915.571	15.37
916.002	2.87
916.433	14.48
916.864	12.67
917.295	5.37
917.726	26.77
918.157	14.47
918.587	24.77
919.018	22.67
919.449	18.57
919.88	21.57
920.311	26.38
920.741	47.97
921.172	164.07
921.603	149.77
922.033	66.47
922.464	41.57
922.895	18.37
923.325	17.57
923.756	13.17
924.186	14.38
924.617	27.67
925.047	39.57
925.478	49.77
925.908	40.07
926.338	23.77
926.769	16.27
927.199	19.48
927.629	6.17
928.06	18.97
928.49	12.17
928.92	7.37
929.35	9.77
929.78	10.67
930.21	4.07
930.641	6.27
931.071	5.87
931.501	5.47
931.931	6.07
932.361	6.77
932.791	1.97
933.221	3.67
933.651	-5.02
934.08	13.17
934.51	26.67
934.94	10.77
935.37	9.48
935.8	5.57
936.229	6.77
936.659	7.17
937.089	4.97
937.519	19.67
937.948	13.87
938.378	10.07
938.807	-1.53
939.237	2.48
939.666	6.67
940.096	-1.23
940.525	0.67
940.955	4.27
941.384	1.88
941.814	-7.03
942.243	1.57
942.672	5.07
943.102	1.17
943.531	0.67
943.96	0.57
944.39	2.47
944.819	-2.63
945.248	0.37
945.677	0.37
946.106	0.67
946.535	5.57
946.964	-4.83
947.393	0.67
947.822	2.98
948.251	-9.73
948.68	0.17
949.109	1.77
949.538	5.17
949.967	3.07
950.396	-1.03
950.825	-3.23
951.254	-2.83
951.682	-7.13
952.111	-9.03
952.54	2.77
952.969	0.17
953.397	-1.13
953.826	4.77
954.254	0.07
954.683	3.77
955.112	-2.03
955.54	-4.23
955.969	-3.53
956.397	-1.93
956.826	-4.53
957.254	6.48
957.682	-4.43
958.111	1.77
958.539	-0.03
958.967	1.27
959.396	-0.93
959.824	2.07
960.252	6.27
960.68	-4.23
961.109	-1.83
961.537	-4.43
961.965	-0.93
962.393	-0.73
962.821	-2.43
963.249	-3.03
963.677	-0.73
964.105	4.87
964.533	37.27
964.961	38.67
965.389	20.77
965.817	6.27
966.245	-1.63
966.672	0.27
967.1	-10.62
967.528	-3.63
967.956	-2.02
968.383	-3.63
968.811	-2.43
969.239	0.47
969.666	-7.62
970.094	1.47
970.522	-1.03
970.949	-5.23
971.377	-10.83
971.804	-4.33
972.232	-4.33
972.659	-1.73
973.087	-8.43
973.514	-8.33
973.941	-7.73
974.369	5.47
974.796	2.38
975.223	0.67
975.651	-1.93
976.078	2.47
976.505	-4.73
976.932	0.17
977.359	11.07
977.786	12.37
978.214	-0.03
978.641	-5.13
979.068	-6.93
979.495	0.27
979.922	-5.13
980.349	-7.53
980.776	0.17
981.202	-0.63
981.629	4.17
982.056	1.07
982.483	-1.23
982.91	0.38
983.337	-9.43
983.763	-1.23
984.19	-6.23
984.617	-8.43
985.043	-5.93
985.47	-2.33
985.897	-10.43
986.323	-12.33
986.75	0.77
987.176	-3.43
987.603	-4.03
988.029	-1.03
988.456	-4.83
988.882	0.98
989.308	-6.73
989.735	-3.83
990.161	-4.93
990.587	-4.33
991.014	2.27
991.44	2.37
991.866	-5.93
992.292	-5.83
992.719	-3.43
993.145	-1.83
993.571	-11.33
993.997	-7.13
994.423	-6.33
994.849	-11.23
995.275	-4.12
995.701	0.57
996.127	-5.03
996.553	3.07
996.979	-2.43
997.405	-4.23
997.83	-2.43
998.256	-6.53
998.682	-7.12
999.108	-7.03
999.534	-3.43
999.959	-6.73
1000.385	-4.53
1000.811	-1.73
1001.236	-8.53
1001.662	-3.93
1002.087	-6.43
1002.513	-1.93
1002.938	-1.93
1003.364	-2.23
1003.789	-2.23
1004.215	-0.43
1004.64	-0.73
1005.066	7.57
1005.491	-1.93
1005.916	-2.53
1006.342	-5.33
1006.767	-12.83
1007.192	2.88
1007.617	-5.03
1008.042	-6.53
1008.468	-6.73
1008.893	-5.62
1009.318	-7.53
1009.743	-8.93
1010.168	6.47
1010.593	-2.73
1011.018	-11.23
1011.443	-5.33
1011.868	-2.62
1012.293	-4.62
1012.718	-10.93
1013.143	-4.13
1013.567	-0.23
1013.992	-1.53
1014.417	-18.93
1014.842	-0.33
1015.267	-9.83
1015.691	-3.03
1016.116	2.57
1016.541	-2.03
1016.965	2.27
1017.39	2.97
1017.814	1.88
1018.239	-0.33
1018.663	-9.13
1019.088	-12.33
1019.512	-3.43
1019.937	-5.33
1020.361	-6.23
1020.785	-13.53
1021.21	-2.83
1021.634	-3.43
1022.058	-6.73
1022.483	-1.33
1022.907	-5.13
1023.331	-4.12
1023.755	-4.73
1024.179	-2.93
1024.604	-7.62
1025.028	-4.33
1025.452	-2.13
1025.876	-3.73
1026.3	-6.13
1026.724	-13.43
1027.148	-5.43
1027.572	-11.62
1027.996	-1.93
1028.42	-1.53
1028.843	-4.43
1029.267	-3.63
1029.691	-5.83
1030.115	-9.43
1030.539	-10.03
1030.962	-14.13
1031.386	-9.12
1031.81	0.57
1032.233	-2.12
1032.657	-2.62
1033.08	-6.13
1033.504	-1.53
1033.927	-6.73
1034.351	-7.02
1034.774	-5.93
1035.198	-2.73
1035.621	-7.02
1036.045	-9.73
1036.468	-2.53
1036.891	-8.93
1037.315	-8.13
1037.738	-7.43
1038.161	-2.33
1038.584	-5.63
1039.008	-12.23
1039.431	-6.73
1039.854	-3.53
1040.277	-3.33
1040.7	-11.73
1041.123	-0.03
1041.546	-8.23
1041.969	-4.12
1042.392	-6.33
1042.815	-5.73
1043.238	0.87
1043.661	2.37
1044.084	-4.33
1044.507	-11.23
1044.93	-5.23
1045.352	-3.33
1045.775	-4.53
1046.198	-4.43
1046.621	-9.02
1047.043	0.27
1047.466	8.17
1047.889	1.57
1048.311	-11.12
1048.734	-5.73
1049.156	1.47
1049.579	-0.63
1050.001	-2.53
1050.424	-1.13
1050.846	-5.13
1051.269	-2.02
1051.691	-12.02
1052.113	-8.43
1052.536	-8.12
1052.958	-3.33
1053.38	-8.13
1053.802	-11.23
1054.225	-2.53
1054.647	-14.23
1055.069	-10.43
1055.491	-0.53
1055.913	-5.63
1056.335	1.07
1056.757	-4.33
1057.179	-7.53
1057.601	-7.33
1058.023	-6.62
1058.445	-5.43
1058.867	-3.43
1059.289	1.07
1059.711	-7.12
1060.133	-3.13
1060.555	-7.03
1060.976	-7.53
1061.398	-3.83
1061.82	-11.83
1062.241	-3.73
1062.663	-8.73
1063.085	-9.53
1063.506	-1.12
1063.928	-2.43
1064.35	-3.43
1064.771	-13.13
1065.193	-10.83
1065.614	-13.93
1066.035	-4.83
1066.457	-2.33
1066.878	-2.23
1067.3	-4.43
1067.721	-5.53
1068.142	-12.03
1068.564	-6.93
1068.985	-7.63
1069.406	-12.43
1069.827	-7.53
1070.248	-6.73
1070.67	-6.03
1071.091	-3.02
1071.512	-5.83
1071.933	-8.63
1072.354	-11.12
1072.775	-7.53
1073.196	-8.03
1073.617	-2.43
1074.038	-13.43
1074.459	-11.43
1074.88	-5.93
1075.3	1.37
1075.721	-5.23
1076.142	4.07
1076.563	-9.53
1076.983	-11.33
1077.404	-10.83
1077.825	-13.12
1078.246	-1.43
1078.666	-10.83
1079.087	-4.83
1079.507	-11.53
1079.928	-0.83
1080.348	4.17
1080.769	-3.33
1081.189	2.88
1081.61	-9.23
1082.03	-3.53
1082.451	-9.93
1082.871	-6.12
1083.291	-5.23
1083.711	-10.33
1084.132	-9.03
1084.552	-5.23
1084.972	-1.93
1085.392	-11.53
1085.813	-9.33
1086.233	-4.13
1086.653	-1.53
1087.073	-5.23
1087.493	-10.73
1087.913	-8.53
1088.333	-13.53
1088.753	-5.73
1089.173	-2.13
1089.593	-7.93
1090.013	-3.03
1090.433	-2.03
1090.852	-6.13
1091.272	-2.83
1091.692	-5.33
1092.112	-6.13
1092.531	-19.23
1092.951	-19.62
1093.371	-5.13
1093.79	-4.62
1094.21	-3.83
1094.63	-5.62
1095.049	-5.23
1095.469	-7.43
1095.888	-3.73
1096.308	0.97
1096.727	-3.03
1097.146	-12.43
1097.566	-2.93
1097.985	-5.03
1098.405	-5.62
1098.824	-8.23
1099.243	-10.73
1099.662	-6.53
1100.082	-8.62
1100.501	-2.23
1100.92	-6.83
1101.339	-6.93
1101.758	-13.52
