Data from 20171114-ORNL-Ar_H_NY_Subt18_08-04-25-811.txt Node
Date: Tue Nov 14 08:04:25 EST 2017
User: Ender
Spectrometer: HR+D1039
Trigger mode: 0
Integration Time (sec): 2.730000E-2
Scans to average: 10
Electric dark correction enabled: true
Nonlinearity correction enabled: false
Boxcar width: 0
XAxis mode: Wavelengths
Number of Pixels in Spectrum: 2048
>>>>>Begin Spectral Data<<<<<
187.836	-2.31
188.309	-2.31
188.782	-2.31
189.255	1.49
189.728	-2.31
190.201	3.09
190.674	1.79
191.147	4.49
191.619	-4.41
192.092	-3.01
192.565	5.69
193.038	0.19
193.511	0.89
193.984	-0.81
194.456	-0.91
194.929	-1.41
195.402	-0.11
195.874	-2.31
196.347	-3.91
196.82	-5.01
197.292	8.19
197.765	3.39
198.237	-11.91
198.71	0.09
199.182	1.19
199.655	0.89
200.127	3.49
200.6	-4.11
201.072	-2.81
201.544	-6.51
202.017	-2.11
202.489	4.39
202.961	-2.11
203.433	-10.21
203.906	-5.31
204.378	-9.01
204.85	-2.41
205.322	-5.61
205.794	-5.61
206.266	-8.51
206.739	-9.11
207.211	3.29
207.683	-8.01
208.155	-5.01
208.627	-5.91
209.099	-3.81
209.57	-10.01
210.042	-4.41
210.514	-3.91
210.986	-6.51
211.458	-3.01
211.93	4.89
212.402	3.39
212.873	-8.31
213.345	-9.81
213.817	-7.11
214.288	-5.71
214.76	-8.01
215.232	-1.41
215.703	-0.81
216.175	-2.81
216.646	-3.61
217.118	-7.01
217.589	-6.41
218.061	-1.81
218.532	-6.41
219.004	-0.81
219.475	-3.61
219.946	-0.61
220.418	-5.41
220.889	-0.71
221.36	-0.51
221.832	-6.41
222.303	-14.41
222.774	3.69
223.245	-15.31
223.717	-12.81
224.188	-7.41
224.659	-6.41
225.13	-8.01
225.601	-6.91
226.072	-2.81
226.543	-2.41
227.014	1.29
227.485	3.09
227.956	-6.81
228.427	-3.81
228.898	0.59
229.369	0.09
229.839	-8.11
230.31	-8.11
230.781	3.09
231.252	-4.61
231.722	-9.31
232.193	-3.31
232.664	-4.71
233.135	3.59
233.605	0.19
234.076	-9.61
234.546	-0.21
235.017	2.09
235.487	-1.51
235.958	0.09
236.428	-3.91
236.899	5.69
237.369	6.29
237.84	0.79
238.31	7.29
238.78	3.59
239.251	-3.81
239.721	1.09
240.191	2.59
240.662	-8.11
241.132	-2.31
241.602	-4.21
242.072	-0.71
242.542	7.79
243.013	-4.21
243.483	9.29
243.953	-1.71
244.423	-4.51
244.893	-3.61
245.363	7.29
245.833	-0.31
246.303	-1.41
246.773	8.39
247.243	3.59
247.712	0.89
248.182	7.19
248.652	2.29
249.122	-0.31
249.592	12.99
250.061	20.59
250.531	37.39
251.001	21.99
251.471	26.09
251.94	21.59
252.41	5.99
252.879	0.49
253.349	11.99
253.818	7.19
254.288	8.59
254.757	3.49
255.227	2.49
255.696	5.09
256.166	10.69
256.635	8.59
257.105	12.99
257.574	6.69
258.043	10.09
258.513	14.69
258.982	15.59
259.451	7.49
259.92	22.09
260.389	13.69
260.859	19.99
261.328	14.09
261.797	16.79
262.266	7.09
262.735	13.99
263.204	3.99
263.673	0.79
264.142	5.59
264.611	-3.61
265.08	1.99
265.549	2.39
266.018	2.79
266.487	-3.21
266.955	-3.21
267.424	-1.31
267.893	7.59
268.362	2.39
268.83	3.39
269.299	15.49
269.768	10.99
270.236	10.39
270.705	6.19
271.174	5.09
271.642	12.19
272.111	7.69
272.579	20.09
273.048	22.79
273.516	28.39
273.985	29.19
274.453	20.89
274.922	15.99
275.39	11.39
275.858	-2.71
276.327	12.09
276.795	18.79
277.263	9.79
277.731	29.69
278.2	50.89
278.668	60.59
279.136	49.59
279.604	21.59
280.072	17.09
280.54	17.99
281.008	15.09
281.477	17.09
281.945	11.39
282.413	9.59
282.881	18.29
283.348	10.69
283.816	15.19
284.284	18.29
284.752	17.19
285.22	15.99
285.688	19.79
286.156	18.19
286.623	43.19
287.091	58.19
287.559	30.49
288.026	18.69
288.494	18.59
288.962	11.39
289.429	5.89
289.897	16.59
290.364	12.29
290.832	11.49
291.3	10.89
291.767	16.99
292.234	21.69
292.702	14.79
293.169	18.59
293.637	25.19
294.104	18.49
294.571	6.19
295.039	10.29
295.506	14.59
295.973	20.09
296.44	16.09
296.908	19.29
297.375	15.29
297.842	18.89
298.309	16.89
298.776	18.69
299.243	19.69
299.71	18.89
300.177	19.99
300.644	24.69
301.111	20.99
301.578	21.59
302.045	19.89
302.512	18.99
302.979	25.49
303.446	19.49
303.913	21.09
304.379	23.69
304.846	32.59
305.313	28.59
305.78	22.49
306.246	25.49
306.713	26.69
307.18	26.99
307.646	25.29
308.113	31.79
308.579	21.79
309.046	26.89
309.512	31.49
309.979	18.99
310.445	25.59
310.912	32.99
311.378	34.79
311.845	26.19
312.311	31.59
312.777	29.59
313.244	37.49
313.71	37.29
314.176	25.49
314.642	32.29
315.109	25.79
315.575	38.29
316.041	40.19
316.507	34.39
316.973	32.69
317.439	36.79
317.905	36.99
318.371	36.09
318.837	30.99
319.303	35.49
319.769	35.79
320.235	38.09
320.701	33.79
321.167	34.19
321.633	40.09
322.099	39.19
322.564	42.39
323.03	37.89
323.496	34.59
323.962	40.09
324.427	39.09
324.893	44.09
325.359	34.59
325.824	33.99
326.29	36.69
326.755	37.19
327.221	44.59
327.686	40.19
328.152	45.29
328.617	47.19
329.083	47.59
329.548	47.39
330.014	47.09
330.479	39.99
330.944	41.69
331.41	36.59
331.875	49.79
332.34	40.19
332.805	44.69
333.271	49.09
333.736	41.39
334.201	46.49
334.666	45.89
335.131	55.29
335.596	46.99
336.061	46.49
336.526	43.29
336.991	48.69
337.456	51.99
337.921	42.39
338.386	39.69
338.851	41.99
339.316	45.29
339.781	44.09
340.246	45.89
340.711	50.39
341.175	49.79
341.64	41.99
342.105	45.59
342.569	54.79
343.034	54.39
343.499	53.39
343.963	52.69
344.428	63.19
344.893	59.09
345.357	57.39
345.822	59.59
346.286	64.69
346.751	71.19
347.215	66.99
347.679	67.59
348.144	97.19
348.608	80.89
349.073	66.89
349.537	74.49
350.001	73.89
350.465	84.29
350.93	76.49
351.394	76.59
351.858	69.79
352.322	83.09
352.786	74.29
353.25	92.49
353.715	101.49
354.179	95.39
354.643	113.59
355.107	113.29
355.571	100.59
356.035	96.69
356.498	112.79
356.962	117.29
357.426	118.99
357.89	101.99
358.354	86.79
358.818	74.59
359.281	79.49
359.745	71.39
360.209	69.89
360.673	68.69
361.136	69.79
361.6	82.99
362.064	69.79
362.527	77.49
362.991	89.09
363.454	80.19
363.918	64.19
364.381	73.39
364.845	80.49
365.308	85.29
365.772	74.39
366.235	79.09
366.698	76.39
367.162	84.09
367.625	78.59
368.088	80.99
368.552	79.49
369.015	90.29
369.478	90.49
369.941	95.09
370.404	89.39
370.867	96.29
371.331	98.99
371.794	105.19
372.257	100.29
372.72	113.19
373.183	107.29
373.646	100.09
374.109	96.59
374.572	104.89
375.035	98.29
375.497	100.39
375.96	96.09
376.423	95.59
376.886	103.29
377.349	101.79
377.811	94.39
378.274	97.39
378.737	100.29
379.199	102.49
379.662	102.99
380.125	114.99
380.587	107.19
381.05	112.49
381.512	121.49
381.975	126.09
382.437	116.59
382.9	118.09
383.362	119.89
383.825	125.99
384.287	134.19
384.75	128.39
385.212	126.89
385.674	123.79
386.136	130.79
386.599	123.09
387.061	119.39
387.523	116.89
387.985	119.69
388.447	137.19
388.91	136.89
389.372	147.89
389.834	142.39
390.296	131.39
390.758	140.99
391.22	153.29
391.682	194.69
392.144	271.59
392.606	213.79
393.068	146.69
393.529	153.19
393.991	145.59
394.453	130.29
394.915	140.99
395.377	181.79
395.838	195.39
396.3	146.99
396.762	133.89
397.224	119.59
397.685	125.39
398.147	122.29
398.608	121.49
399.07	118.19
399.531	123.99
399.993	137.49
400.454	149.19
400.916	130.29
401.377	129.29
401.839	142.59
402.3	142.49
402.762	154.19
403.223	165.59
403.684	155.69
404.145	150.29
404.607	149.39
405.068	153.89
405.529	165.89
405.99	172.59
406.451	154.89
406.913	163.39
407.374	145.09
407.835	139.49
408.296	150.09
408.757	163.79
409.218	167.59
409.679	158.19
410.14	159.29
410.601	160.79
411.062	170.39
411.522	176.39
411.983	169.09
412.444	161.69
412.905	166.99
413.366	169.69
413.826	183.89
414.287	197.49
414.748	239.39
415.208	223.89
415.669	198.29
416.13	187.99
416.59	188.69
417.051	192.39
417.511	202.69
417.972	219.19
418.432	224.99
418.893	265.39
419.353	232.49
419.814	184.39
420.274	168.19
420.734	162.69
421.195	174.99
421.655	175.19
422.115	176.49
422.576	179.39
423.036	175.49
423.496	188.79
423.956	188.69
424.416	215.69
424.876	239.19
425.336	236.79
425.797	238.99
426.257	237.29
426.717	219.69
427.177	213.19
427.637	206.39
428.097	213.29
428.556	227.89
429.016	246.29
429.476	242.89
429.936	245.19
430.396	253.79
430.856	266.09
431.315	295.09
431.775	316.19
432.235	348.49
432.694	315.89
433.154	319.09
433.614	344.39
434.073	306.09
434.533	263.79
434.993	236.49
435.452	259.59
435.912	263.69
436.371	263.29
436.83	258.09
437.29	244.69
437.749	221.39
438.209	217.09
438.668	244.89
439.127	259.39
439.587	239.59
440.046	223.69
440.505	239.29
440.964	250.49
441.424	281.69
441.883	268.29
442.342	231.89
442.801	207.49
443.26	198.49
443.719	198.49
444.178	198.19
444.637	188.19
445.096	198.89
445.555	199.39
446.014	202.09
446.473	204.39
446.932	204.39
447.391	198.79
447.849	200.89
448.308	195.99
448.767	199.69
449.226	212.09
449.685	216.99
450.143	222.49
450.602	213.49
451.061	209.99
451.519	210.39
451.978	216.39
452.436	218.49
452.895	214.79
453.353	224.49
453.812	218.79
454.27	214.59
454.729	212.59
455.187	217.49
455.646	219.19
456.104	217.79
456.562	226.49
457.021	233.99
457.479	237.79
457.937	244.49
458.395	237.89
458.854	225.19
459.312	232.79
459.77	243.19
460.228	222.69
460.686	226.59
461.144	231.89
461.602	221.89
462.06	214.39
462.518	229.99
462.976	230.29
463.434	227.49
463.892	236.29
464.35	250.99
464.808	262.69
465.266	239.89
465.724	241.69
466.181	251.69
466.639	247.09
467.097	266.99
467.555	276.59
468.012	269.79
468.47	274.29
468.928	297.99
469.385	301.49
469.843	317.09
470.3	315.09
470.758	322.69
471.215	345.59
471.673	364.09
472.13	358.89
472.588	379.79
473.045	336.49
473.503	346.89
473.96	351.59
474.417	365.19
474.875	395.19
475.332	425.19
475.789	419.69
476.246	419.09
476.704	446.89
477.161	459.69
477.618	471.69
478.075	511.49
478.532	562.19
478.989	625.89
479.446	705.29
479.903	695.89
480.36	734.69
480.817	789.89
481.274	878.09
481.731	977.89
482.188	1071.29
482.645	1204.79
483.102	1297.79
483.558	1417.89
484.015	1470.79
484.472	1464.49
484.929	1406.89
485.385	1359.29
485.842	1316.39
486.299	1248.59
486.755	1188.79
487.212	1000.29
487.668	848.29
488.125	774.99
488.582	717.09
489.038	689.49
489.494	652.29
489.951	626.69
490.407	604.59
490.864	587.49
491.32	576.99
491.776	575.99
492.233	583.69
492.689	555.89
493.145	551.89
493.602	542.29
494.058	551.29
494.514	548.19
494.97	577.29
495.426	584.09
495.882	562.59
496.338	554.49
496.794	569.09
497.251	555.19
497.707	578.49
498.163	577.99
498.618	587.59
499.074	581.29
499.53	613.29
499.986	613.69
500.442	589.79
500.898	571.69
501.354	573.29
501.809	575.89
502.265	581.69
502.721	601.49
503.177	607.09
503.632	595.49
504.088	610.49
504.543	639.59
504.999	632.09
505.455	589.09
505.91	572.59
506.366	577.89
506.821	565.19
507.277	562.79
507.732	559.49
508.187	566.69
508.643	573.89
509.098	574.79
509.553	599.79
510.009	591.49
510.464	602.09
510.919	624.39
511.375	616.39
511.83	636.79
512.285	654.49
512.74	682.19
513.195	712.79
513.65	699.29
514.105	693.39
514.56	696.69
515.015	714.39
515.47	724.79
515.925	720.99
516.38	715.29
516.835	720.59
517.29	711.49
517.745	707.79
518.2	689.59
518.655	683.89
519.109	674.09
519.564	674.39
520.019	664.19
520.474	656.19
520.928	662.39
521.383	651.39
521.838	643.49
522.292	649.49
522.747	658.09
523.201	641.59
523.656	623.79
524.11	617.79
524.565	619.19
525.019	612.99
525.474	632.59
525.928	624.89
526.382	633.39
526.837	621.69
527.291	630.79
527.745	633.19
528.2	625.89
528.654	619.79
529.108	613.09
529.562	622.79
530.016	625.39
530.47	619.99
530.925	617.19
531.379	629.79
531.833	639.59
532.287	623.49
532.741	628.29
533.195	638.79
533.649	652.09
534.103	648.79
534.556	633.79
535.01	636.89
535.464	635.29
535.918	649.79
536.372	653.59
536.826	648.19
537.279	621.49
537.733	640.59
538.187	636.89
538.64	640.59
539.094	650.89
539.548	647.39
540.001	643.69
540.455	643.99
540.908	645.79
541.362	655.99
541.815	664.89
542.269	680.09
542.722	679.29
543.175	688.59
543.629	687.29
544.082	709.89
544.536	706.39
544.989	695.49
545.442	701.39
545.895	701.49
546.349	697.89
546.802	705.29
547.255	712.49
547.708	720.99
548.161	724.59
548.614	729.79
549.067	732.49
549.52	734.29
549.973	717.79
550.426	715.79
550.879	695.39
551.332	710.09
551.785	714.59
552.238	715.39
552.691	728.69
553.144	730.09
553.596	739.29
554.049	765.59
554.502	782.99
554.955	805.49
555.407	806.69
555.86	803.99
556.313	787.29
556.765	774.39
557.218	776.99
557.67	788.99
558.123	786.59
558.576	774.59
559.028	778.49
559.48	786.99
559.933	769.59
560.385	746.79
560.838	715.29
561.29	689.89
561.742	696.99
562.195	676.29
562.647	674.29
563.099	685.29
563.551	688.69
564.004	697.69
564.456	676.69
564.908	668.49
565.36	656.09
565.812	658.69
566.264	643.79
566.716	636.09
567.168	623.79
567.62	631.59
568.072	620.49
568.524	603.29
568.976	606.19
569.428	589.39
569.88	590.69
570.332	587.89
570.784	589.09
571.235	593.59
571.687	611.19
572.139	610.39
572.59	619.59
573.042	623.59
573.494	617.79
573.945	614.79
574.397	605.49
574.849	605.19
575.3	603.79
575.752	588.89
576.203	589.79
576.655	598.19
577.106	592.49
577.557	576.39
578.009	576.29
578.46	579.89
578.912	570.69
579.363	579.79
579.814	582.99
580.265	577.39
580.717	578.69
581.168	578.79
581.619	583.69
582.07	583.49
582.521	587.59
582.972	580.69
583.423	587.99
583.875	589.49
584.326	607.49
584.777	645.19
585.227	714.29
585.678	801.99
586.129	886.09
586.58	951.49
587.031	1024.29
587.482	1181.09
587.933	1359.79
588.384	1169.59
588.834	852.69
589.285	698.89
589.736	683.59
590.186	666.49
590.637	670.29
591.088	641.89
591.538	644.29
591.989	623.29
592.439	626.69
592.89	626.89
593.34	611.49
593.791	607.59
594.241	607.49
594.692	608.19
595.142	605.69
595.593	597.19
596.043	611.29
596.493	621.39
596.943	614.49
597.394	612.29
597.844	604.19
598.294	620.49
598.744	636.09
599.195	664.39
599.645	696.39
600.095	734.69
600.545	780.49
600.995	830.69
601.445	876.69
601.895	938.89
602.345	976.59
602.795	957.49
603.245	915.29
603.695	865.59
604.145	817.39
604.594	786.49
605.044	724.59
605.494	682.89
605.944	635.79
606.393	625.79
606.843	622.79
607.293	631.19
607.743	619.59
608.192	627.39
608.642	641.99
609.091	652.09
609.541	657.69
609.99	656.19
610.44	656.59
610.889	610.59
611.339	591.99
611.788	571.49
612.238	591.89
612.687	608.59
613.136	610.79
613.586	625.79
614.035	621.69
614.484	651.19
614.933	643.39
615.383	635.69
615.832	624.49
616.281	617.19
616.73	581.69
617.179	565.19
617.628	551.09
618.077	533.69
618.526	531.99
618.975	516.59
619.424	518.69
619.873	514.29
620.322	525.49
620.771	509.99
621.22	507.79
621.669	500.89
622.118	493.89
622.567	490.19
623.015	477.09
623.464	479.29
623.913	471.59
624.361	462.39
624.81	457.19
625.259	469.39
625.707	469.39
626.156	471.29
626.604	474.89
627.053	474.99
627.501	477.49
627.95	481.89
628.398	480.59
628.847	481.49
629.295	472.69
629.744	480.69
630.192	485.09
630.64	473.79
631.089	469.89
631.537	479.29
631.985	493.59
632.433	498.79
632.881	510.89
633.33	550.99
633.778	536.29
634.226	466.59
634.674	479.59
635.122	470.79
635.57	492.09
636.018	518.29
636.466	486.89
636.914	467.49
637.362	475.99
637.81	483.59
638.258	485.29
638.705	479.39
639.153	494.69
639.601	518.39
640.049	528.39
640.497	561.79
640.944	569.49
641.392	531.69
641.84	504.59
642.287	483.29
642.735	470.39
643.182	473.39
643.63	475.99
644.078	478.19
644.525	495.39
644.973	495.09
645.42	499.69
645.867	513.29
646.315	531.89
646.762	546.79
647.21	572.69
647.657	593.39
648.104	624.69
648.551	644.49
648.999	700.09
649.446	750.19
649.893	835.69
650.34	950.99
650.787	1141.89
651.234	1429.49
651.682	1851.29
652.129	2519.39
652.576	3613.99
653.023	5398.19
653.47	7469.69
653.917	9427.79
654.363	11053.29
654.81	12470.69
655.257	11853.89
655.704	7657.19
656.151	4489.59
656.598	2884.99
657.044	2039.59
657.491	1567.99
657.938	1237.39
658.385	1032.39
658.831	907.19
659.278	810.09
659.724	710.29
660.171	644.59
660.618	590.49
661.064	562.09
661.511	551.79
661.957	537.49
662.404	531.39
662.85	526.49
663.296	506.09
663.743	463.09
664.189	445.59
664.635	450.39
665.082	430.69
665.528	433.39
665.974	428.19
666.42	419.79
666.867	415.59
667.313	398.79
667.759	396.99
668.205	396.99
668.651	404.19
669.097	406.09
669.543	414.19
669.989	385.59
670.435	370.69
670.881	372.99
671.327	369.59
671.773	383.59
672.219	400.29
672.665	445.89
673.11	467.99
673.556	521.99
674.002	551.09
674.448	529.29
674.893	450.69
675.339	395.09
675.785	360.39
676.23	339.19
676.676	324.09
677.122	309.89
677.567	305.09
678.013	301.49
678.458	288.09
678.904	293.99
679.349	274.09
679.794	288.59
680.24	285.39
680.685	284.89
681.131	275.69
681.576	280.39
682.021	294.19
682.466	286.09
682.912	275.69
683.357	280.09
683.802	307.89
684.247	333.59
684.692	372.99
685.137	398.79
685.583	437.89
686.028	467.79
686.473	425.19
686.918	363.99
687.363	337.59
687.807	317.99
688.252	300.09
688.697	285.29
689.142	270.49
689.587	262.79
690.032	262.69
690.477	280.89
690.921	282.49
691.366	306.69
691.811	327.49
692.255	353.69
692.7	370.79
693.145	403.99
693.589	546.49
694.034	885.29
694.478	1227.09
694.923	1442.29
695.367	1900.69
695.812	992.89
696.256	415.69
696.701	298.99
697.145	279.69
697.59	270.89
698.034	257.89
698.478	268.79
698.922	264.89
699.367	263.49
699.811	272.29
700.255	286.09
700.699	306.89
701.143	344.29
701.588	389.59
702.032	423.79
702.476	412.19
702.92	390.89
703.364	393.99
703.808	499.69
704.252	813.99
704.696	1159.19
705.14	1359.59
705.584	1790.29
706.027	883.89
706.471	426.69
706.915	315.79
707.359	279.49
707.803	255.49
708.246	248.69
708.69	246.79
709.134	250.09
709.577	248.59
710.021	259.59
710.465	249.99
710.908	243.29
711.352	236.29
711.795	253.29
712.239	281.29
712.682	303.09
713.126	338.39
713.569	383.69
714.012	302.89
714.456	265.59
714.899	246.59
715.342	219.59
715.786	203.09
716.229	206.59
716.672	206.99
717.115	198.99
717.558	201.29
718.002	207.09
718.445	210.69
718.888	227.69
719.331	233.19
719.774	243.09
720.217	247.19
720.66	227.89
721.103	215.09
721.546	204.19
721.989	197.29
722.432	184.49
722.874	185.09
723.317	180.19
723.76	195.59
724.203	203.79
724.645	241.09
725.088	352.09
725.531	464.79
725.974	535.29
726.416	447.29
726.859	248.99
727.301	194.09
727.744	193.19
728.187	186.19
728.629	189.59
729.071	193.59
729.514	203.79
729.956	219.09
730.399	231.09
730.841	223.29
731.283	212.29
731.726	212.19
732.168	204.39
732.61	212.59
733.053	219.49
733.495	245.29
733.937	274.19
734.379	320.49
734.821	345.99
735.263	429.89
735.705	643.19
736.148	1236.19
736.59	2059.09
737.032	2546.89
737.474	2072.59
737.916	660.69
738.357	349.29
738.799	263.29
739.241	236.49
739.683	225.09
740.125	237.19
740.567	235.39
741.008	260.19
741.45	259.49
741.892	254.29
742.334	278.59
742.775	291.79
743.217	274.19
743.658	223.89
744.1	203.79
744.542	208.69
744.983	253.29
745.425	283.09
745.866	283.19
746.307	222.89
746.749	223.69
747.19	254.49
747.632	355.89
748.073	679.49
748.514	1463.89
748.956	2310.49
749.397	2877.89
749.838	2401.19
750.279	2494.19
750.72	1236.99
751.162	444.09
751.603	252.49
752.044	196.39
752.485	171.69
752.926	164.29
753.367	161.59
753.808	158.29
754.249	146.49
754.69	154.79
755.131	155.09
755.572	142.09
756.013	144.89
756.453	148.19
756.894	150.69
757.335	152.69
757.776	154.59
758.216	157.99
758.657	155.19
759.098	160.59
759.538	173.79
759.979	209.99
760.42	286.99
760.86	543.69
761.301	1407.29
761.741	3502.99
762.182	5464.49
762.622	3830.39
763.063	1073.99
763.503	434.69
763.943	283.99
764.384	276.49
764.824	328.39
765.264	368.09
765.705	255.09
766.145	163.99
766.585	153.59
767.025	143.79
767.465	147.59
767.906	195.39
768.346	270.59
768.786	295.39
769.226	210.39
769.666	251.29
770.106	471.69
770.546	1208.29
770.986	2170.89
771.426	1994.19
771.866	644.09
772.306	264.59
772.745	166.99
773.185	138.39
773.625	136.39
774.065	131.69
774.505	155.69
774.944	243.39
775.384	554.39
775.824	1044.89
776.263	1041.59
776.703	437.69
777.142	181.09
777.582	126.89
778.021	107.49
778.461	117.09
778.9	109.69
779.34	106.69
779.779	90.09
780.219	84.59
780.658	85.99
781.097	90.89
781.537	93.09
781.976	88.09
782.415	84.59
782.855	81.99
783.294	82.99
783.733	85.79
784.172	87.99
784.611	84.09
785.05	81.29
785.489	87.29
785.928	96.39
786.367	95.09
786.806	92.79
787.245	99.39
787.684	102.59
788.123	116.39
788.562	98.79
789.001	103.59
789.44	93.59
789.879	94.59
790.317	91.09
790.756	102.19
791.195	97.99
791.634	111.09
792.072	162.29
792.511	281.09
792.95	783.29
793.388	1744.89
793.827	1642.39
794.265	553.59
794.704	226.69
795.142	145.09
795.581	123.79
796.019	115.69
796.458	102.29
796.896	99.49
797.334	105.89
797.773	131.19
798.211	178.79
798.649	337.59
799.087	804.89
799.526	1289.39
799.964	1627.59
800.402	1674.29
800.84	617.59
801.278	240.09
801.716	151.09
802.154	123.89
802.592	117.99
803.03	106.09
803.468	100.99
803.906	109.29
804.344	121.39
804.782	107.19
805.22	103.99
805.658	102.89
806.096	117.49
806.533	129.99
806.971	137.69
807.409	171.99
807.847	247.49
808.284	515.49
808.722	1479.29
809.16	2726.79
809.597	2522.09
810.035	4430.79
810.472	4965.19
810.91	1757.19
811.347	652.99
811.785	327.19
812.222	211.69
812.66	159.29
813.097	134.89
813.535	108.19
813.972	96.19
814.409	92.39
814.846	88.39
815.284	83.79
815.721	77.79
816.158	80.49
816.595	95.49
817.032	142.09
817.47	158.79
817.907	132.89
818.344	122.59
818.781	92.89
819.218	81.49
819.655	101.79
820.092	154.09
820.529	173.59
820.966	147.59
821.403	105.39
821.839	87.49
822.276	79.29
822.713	99.29
823.15	107.49
823.587	92.19
824.023	107.89
824.46	225.49
824.897	712.99
825.333	1134.29
825.77	479.09
826.206	179.49
826.643	106.59
827.08	79.49
827.516	65.39
827.953	63.79
828.389	66.29
828.825	50.09
829.262	52.19
829.698	44.09
830.135	52.99
830.571	40.29
831.007	47.99
831.443	44.99
831.88	45.29
832.316	49.69
832.752	51.89
833.188	44.29
833.624	54.99
834.06	49.19
834.497	50.59
834.933	54.59
835.369	55.19
835.805	53.19
836.241	60.39
836.677	61.49
837.112	66.39
837.548	81.09
837.984	105.79
838.42	151.19
838.856	376.29
839.292	1216.69
839.727	1954.19
840.163	892.09
840.599	731.29
841.034	1647.09
841.47	1818.99
841.906	644.79
842.341	271.99
842.777	185.39
843.212	263.49
843.648	263.29
844.083	128.89
844.519	74.89
844.954	57.79
845.39	41.09
845.825	41.69
846.261	42.89
846.696	39.69
847.131	37.29
847.566	43.99
848.002	40.89
848.437	41.69
848.872	48.89
849.307	55.79
849.742	65.19
850.177	135.59
850.613	431.39
851.048	737.09
851.483	320.29
851.918	123.69
852.353	68.99
852.788	40.39
853.223	42.59
853.657	46.29
854.092	35.99
854.527	33.39
854.962	29.39
855.397	36.39
855.832	40.39
856.266	29.99
856.701	30.39
857.136	31.39
857.57	26.79
858.005	45.29
858.44	48.89
858.874	33.09
859.309	41.99
859.743	27.39
860.178	35.79
860.612	27.49
861.047	43.29
861.481	50.49
861.915	58.89
862.35	45.59
862.784	27.69
863.218	28.69
863.653	31.79
864.087	33.49
864.521	48.49
864.955	51.89
865.39	127.69
865.824	145.39
866.258	100.59
866.692	133.19
867.126	152.19
867.56	87.09
867.994	42.29
868.428	37.49
868.862	39.19
869.296	42.19
869.73	50.29
870.164	41.79
870.598	39.99
871.031	29.09
871.465	24.19
871.899	35.69
872.333	11.09
872.766	17.59
873.2	20.59
873.634	25.49
874.067	18.29
874.501	16.99
874.935	27.29
875.368	27.09
875.802	22.39
876.235	20.99
876.669	20.19
877.102	16.79
877.535	17.39
877.969	17.39
878.402	19.29
878.836	6.79
879.269	12.69
879.702	19.39
880.135	16.29
880.569	17.89
881.002	20.69
881.435	12.29
881.868	10.19
882.301	20.99
882.734	10.09
883.167	15.69
883.601	15.29
884.034	18.19
884.467	13.29
884.899	15.99
885.332	15.39
885.765	5.39
886.198	16.79
886.631	13.59
887.064	13.59
887.497	17.09
887.929	20.79
888.362	11.79
888.795	14.19
889.228	15.59
889.66	15.89
890.093	14.99
890.526	12.99
890.958	10.09
891.391	14.69
891.823	13.59
892.256	11.09
892.688	10.49
893.121	13.09
893.553	6.59
893.985	18.19
894.418	16.89
894.85	8.89
895.282	10.19
895.715	9.89
896.147	17.09
896.579	10.99
897.011	8.49
897.444	12.79
897.876	7.69
898.308	13.29
898.74	8.99
899.172	6.59
899.604	21.79
900.036	17.59
900.468	12.19
900.9	11.19
901.332	10.89
901.764	5.99
902.196	10.79
902.628	17.99
903.06	16.09
903.491	28.19
903.923	14.39
904.355	16.49
904.787	15.39
905.218	17.49
905.65	15.39
906.082	7.49
906.513	8.29
906.945	11.59
907.376	10.19
907.808	15.99
908.239	15.79
908.671	14.19
909.102	17.99
909.534	20.69
909.965	37.69
910.397	72.79
910.828	262.19
911.259	404.49
911.691	181.59
912.122	83.09
912.553	34.69
912.984	28.69
913.415	21.89
913.847	17.59
914.278	9.19
914.709	12.89
915.14	19.89
915.571	12.69
916.002	9.49
916.433	14.59
916.864	9.69
917.295	3.29
917.726	19.29
918.157	13.79
918.587	21.39
919.018	16.89
919.449	13.49
919.88	18.09
920.311	24.69
920.741	37.59
921.172	137.09
921.603	119.79
922.033	56.49
922.464	38.49
922.895	20.29
923.325	16.59
923.756	10.39
924.186	12.29
924.617	21.89
925.047	38.39
925.478	47.19
925.908	41.29
926.338	19.29
926.769	6.49
927.199	22.69
927.629	10.49
928.06	13.59
928.49	11.99
928.92	8.59
929.35	4.19
929.78	9.99
930.21	2.39
930.641	7.39
931.071	8.59
931.501	0.29
931.931	7.59
932.361	6.09
932.791	4.69
933.221	3.29
933.651	1.09
934.08	9.79
934.51	24.39
934.94	9.29
935.37	10.29
935.8	7.49
936.229	3.79
936.659	2.59
937.089	0.59
937.519	8.29
937.948	16.69
938.378	10.59
938.807	6.79
939.237	1.89
939.666	4.99
940.096	-10.41
940.525	-4.91
940.955	0.19
941.384	1.19
941.814	-7.81
942.243	1.79
942.672	4.19
943.102	-5.11
943.531	-4.11
943.96	1.79
944.39	0.29
944.819	-0.51
945.248	-0.21
945.677	-0.81
946.106	2.69
946.535	6.39
946.964	-3.71
947.393	4.69
947.822	-1.91
948.251	-7.01
948.68	1.79
949.109	6.99
949.538	5.69
949.967	2.19
950.396	-2.31
950.825	0.09
951.254	2.29
951.682	-13.81
952.111	3.09
952.54	3.79
952.969	1.19
953.397	-3.21
953.826	1.29
954.254	-4.51
954.683	2.99
955.112	-3.41
955.54	1.29
955.969	-0.81
956.397	-2.01
956.826	-4.61
957.254	6.79
957.682	3.29
958.111	2.39
958.539	-0.21
958.967	0.99
959.396	0.79
959.824	1.69
960.252	6.89
960.68	-6.31
961.109	-4.21
961.537	-3.31
961.965	-2.51
962.393	0.89
962.821	-2.61
963.249	-1.21
963.677	2.29
964.105	5.79
964.533	37.09
964.961	29.99
965.389	16.09
965.817	3.09
966.245	3.19
966.672	-0.71
967.1	-8.61
967.528	-1.11
967.956	-1.41
968.383	3.19
968.811	-2.21
969.239	-3.91
969.666	-6.91
970.094	-1.21
970.522	0.99
970.949	-1.91
971.377	-9.51
971.804	-5.91
972.232	-0.81
972.659	-8.71
973.087	-3.91
973.514	-7.01
973.941	-7.11
974.369	2.29
974.796	1.29
975.223	-5.21
975.651	-0.51
976.078	2.29
976.505	-0.91
976.932	9.59
977.359	11.99
977.786	12.79
978.214	5.49
978.641	-2.71
979.068	-3.21
979.495	-3.71
979.922	1.79
980.349	-2.41
980.776	-3.01
981.202	0.49
981.629	6.49
982.056	-0.51
982.483	-5.81
982.91	-1.01
983.337	0.69
983.763	3.29
984.19	-7.91
984.617	-3.51
985.043	-5.71
985.47	-0.91
985.897	-2.31
986.323	-1.11
986.75	-2.21
987.176	-3.91
987.603	2.29
988.029	-2.91
988.456	-0.91
988.882	-1.81
989.308	-8.91
989.735	-7.01
990.161	0.49
990.587	-7.81
991.014	0.49
991.44	4.29
991.866	-3.51
992.292	-6.31
992.719	-5.91
993.145	6.09
993.571	-7.21
993.997	-3.81
994.423	1.39
994.849	0.79
995.275	0.19
995.701	-0.01
996.127	-6.51
996.553	2.79
996.979	-3.01
997.405	-6.21
997.83	-8.51
998.256	-8.91
998.682	-5.11
999.108	-11.71
999.534	2.79
999.959	-7.51
1000.385	-7.91
1000.811	3.09
1001.236	-9.11
1001.662	-6.61
1002.087	-12.61
1002.513	-1.21
1002.938	0.89
1003.364	-2.81
1003.789	-0.51
1004.215	1.69
1004.64	-6.61
1005.066	-0.21
1005.491	-4.31
1005.916	-4.81
1006.342	-9.01
1006.767	-9.41
1007.192	3.09
1007.617	-6.81
1008.042	-9.91
1008.468	-4.71
1008.893	-4.81
1009.318	-6.81
1009.743	-5.61
1010.168	2.39
1010.593	-1.41
1011.018	-7.21
1011.443	-4.31
1011.868	-3.91
1012.293	-7.01
1012.718	-7.61
1013.143	-1.31
1013.567	-0.51
1013.992	0.69
1014.417	-16.11
1014.842	2.39
1015.267	-4.91
1015.691	-0.61
1016.116	1.49
1016.541	3.29
1016.965	-2.71
1017.39	-0.31
1017.814	-3.91
1018.239	-4.31
1018.663	-9.21
1019.088	-11.11
1019.512	-7.21
1019.937	-1.51
1020.361	-3.61
1020.785	-16.11
1021.21	0.59
1021.634	2.99
1022.058	-1.71
1022.483	5.09
1022.907	-2.21
1023.331	-4.51
1023.755	-7.11
1024.179	1.69
1024.604	-6.91
1025.028	-5.11
1025.452	-8.31
1025.876	-2.11
1026.3	-5.21
1026.724	-11.31
1027.148	-5.91
1027.572	-8.71
1027.996	-1.71
1028.42	3.59
1028.843	-2.31
1029.267	-2.51
1029.691	-1.91
1030.115	-3.21
1030.539	-11.21
1030.962	-7.21
1031.386	-15.01
1031.81	-5.81
1032.233	-0.51
1032.657	-1.81
1033.08	0.09
1033.504	-5.01
1033.927	-6.11
1034.351	-2.01
1034.774	-3.91
1035.198	-1.81
1035.621	-7.01
1036.045	-5.31
1036.468	2.99
1036.891	-11.21
1037.315	-12.01
1037.738	-8.71
1038.161	2.99
1038.584	-4.21
1039.008	-8.81
1039.431	-8.61
1039.854	-2.31
1040.277	-13.11
1040.7	-13.31
1041.123	-3.91
1041.546	-9.01
1041.969	-7.01
1042.392	-2.01
1042.815	-3.31
1043.238	-1.91
1043.661	-3.91
1044.084	-4.01
1044.507	-3.41
1044.93	0.49
1045.352	-6.81
1045.775	-4.01
1046.198	-1.41
1046.621	-4.81
1047.043	1.29
1047.466	5.99
1047.889	-1.71
1048.311	-4.21
1048.734	-0.21
1049.156	-2.21
1049.579	-2.91
1050.001	-1.71
1050.424	-1.01
1050.846	-6.61
1051.269	-4.21
1051.691	-10.01
1052.113	-5.11
1052.536	-1.71
1052.958	-8.31
1053.38	-9.31
1053.802	-10.41
1054.225	-3.61
1054.647	-16.11
1055.069	-5.21
1055.491	3.69
1055.913	-10.41
1056.335	-2.61
1056.757	-5.01
1057.179	-8.51
1057.601	-3.81
1058.023	-2.11
1058.445	1.29
1058.867	-6.81
1059.289	-3.71
1059.711	-11.01
1060.133	1.99
1060.555	-8.21
1060.976	-11.91
1061.398	-9.21
1061.82	-10.31
1062.241	-3.21
1062.663	-7.51
1063.085	-6.61
1063.506	-3.11
1063.928	-2.41
1064.35	-7.61
1064.771	-8.31
1065.193	-2.11
1065.614	-10.11
1066.035	-4.11
1066.457	-2.71
1066.878	-1.31
1067.3	1.19
1067.721	-9.11
1068.142	-1.31
1068.564	-5.91
1068.985	-9.31
1069.406	-9.21
1069.827	-9.71
1070.248	-7.41
1070.67	-1.31
1071.091	-9.81
1071.512	-6.71
1071.933	-4.61
1072.354	-6.21
1072.775	-2.41
1073.196	-8.01
1073.617	-0.11
1074.038	-8.21
1074.459	-4.01
1074.88	-11.31
1075.3	0.29
1075.721	-8.41
1076.142	1.29
1076.563	-1.01
1076.983	-14.51
1077.404	-1.41
1077.825	-10.51
1078.246	-8.91
1078.666	-12.41
1079.087	-2.01
1079.507	-9.01
1079.928	-1.11
1080.348	-1.01
1080.769	-7.31
1081.189	-1.61
1081.61	-5.01
1082.03	-9.71
1082.451	-5.21
1082.871	-6.91
1083.291	-9.81
1083.711	-9.91
1084.132	-2.21
1084.552	-5.11
1084.972	-0.61
1085.392	-15.71
1085.813	-9.21
1086.233	-6.51
1086.653	-4.71
1087.073	-8.91
1087.493	-5.21
1087.913	-3.41
1088.333	-14.91
1088.753	-7.71
1089.173	-0.91
1089.593	-6.01
1090.013	-4.31
1090.433	-1.81
1090.852	-1.81
1091.272	-3.41
1091.692	-1.71
1092.112	-4.91
1092.531	-8.91
1092.951	-11.21
1093.371	-3.41
1093.79	-3.21
1094.21	-7.31
1094.63	-11.71
1095.049	-5.61
1095.469	-9.41
1095.888	-5.61
1096.308	2.09
1096.727	2.89
1097.146	-1.11
1097.566	-5.21
1097.985	-3.11
1098.405	-4.41
1098.824	-2.41
1099.243	-6.71
1099.662	-9.41
1100.082	-7.81
1100.501	-0.81
1100.92	-6.81
1101.339	-1.61
1101.758	-12.91
