Data from 20171114-ORNL-Ar_H_NY_Subt18_08-05-53-982.txt Node
Date: Tue Nov 14 08:05:53 EST 2017
User: Ender
Spectrometer: HR+D1039
Trigger mode: 0
Integration Time (sec): 2.730000E-2
Scans to average: 10
Electric dark correction enabled: true
Nonlinearity correction enabled: false
Boxcar width: 0
XAxis mode: Wavelengths
Number of Pixels in Spectrum: 2048
>>>>>Begin Spectral Data<<<<<
187.836	-6.12
188.309	-6.12
188.782	-6.12
189.255	2.18
189.728	-5.12
190.201	7.78
190.674	-3.62
191.147	1.48
191.619	-4.82
192.092	-0.12
192.565	7.08
193.038	1.18
193.511	3.38
193.984	0.48
194.456	3.78
194.929	-2.32
195.402	-5.42
195.874	0.18
196.347	1.08
196.82	-2.62
197.292	5.88
197.765	-5.52
198.237	-4.22
198.71	4.38
199.182	-2.02
199.655	4.88
200.127	4.88
200.6	-2.42
201.072	5.68
201.544	-4.32
202.017	2.38
202.489	2.88
202.961	-3.82
203.433	-6.42
203.906	-4.92
204.378	-6.82
204.85	1.58
205.322	-4.92
205.794	2.68
206.266	0.88
206.739	-9.52
207.211	6.38
207.683	-4.62
208.155	-4.12
208.627	-5.32
209.099	-1.52
209.57	-10.22
210.042	0.58
210.514	4.78
210.986	1.38
211.458	-2.82
211.93	-1.42
212.402	2.48
212.873	-9.32
213.345	-8.42
213.817	-5.72
214.288	-0.62
214.76	-7.92
215.232	1.48
215.703	-0.22
216.175	-0.32
216.646	-1.32
217.118	-8.82
217.589	-3.02
218.061	-6.72
218.532	-3.22
219.004	-0.22
219.475	-4.92
219.946	-2.32
220.418	-1.32
220.889	2.58
221.36	-1.02
221.832	1.78
222.303	-5.22
222.774	1.28
223.245	-13.22
223.717	-1.62
224.188	-3.72
224.659	-6.92
225.13	-9.32
225.601	-7.62
226.072	2.08
226.543	-0.42
227.014	-5.92
227.485	-5.42
227.956	-7.02
228.427	-2.32
228.898	-0.52
229.369	4.18
229.839	4.18
230.31	-5.62
230.781	6.78
231.252	-0.62
231.722	-2.62
232.193	3.18
232.664	-1.52
233.135	-2.02
233.605	3.98
234.076	-3.42
234.546	7.98
235.017	12.38
235.487	5.48
235.958	0.28
236.428	0.68
236.899	4.68
237.369	7.68
237.84	-0.72
238.31	7.88
238.78	0.58
239.251	4.08
239.721	10.58
240.191	-1.92
240.662	-0.82
241.132	4.38
241.602	-3.02
242.072	-1.62
242.542	1.38
243.013	4.88
243.483	10.68
243.953	5.18
244.423	-2.92
244.893	-1.02
245.363	1.88
245.833	4.18
246.303	1.58
246.773	8.88
247.243	11.48
247.712	1.78
248.182	9.88
248.652	10.48
249.122	0.28
249.592	17.38
250.061	23.08
250.531	29.68
251.001	16.48
251.471	23.68
251.94	17.18
252.41	12.28
252.879	5.18
253.349	10.18
253.818	10.78
254.288	8.38
254.757	5.98
255.227	6.68
255.696	13.68
256.166	13.48
256.635	6.48
257.105	15.68
257.574	6.48
258.043	13.48
258.513	17.28
258.982	23.08
259.451	7.18
259.92	18.48
260.389	13.08
260.859	16.28
261.328	11.48
261.797	24.38
262.266	11.68
262.735	7.68
263.204	8.58
263.673	-0.82
264.142	11.08
264.611	-0.42
265.08	1.88
265.549	0.48
266.018	9.08
266.487	3.68
266.955	0.48
267.424	3.88
267.893	11.28
268.362	7.38
268.83	4.48
269.299	16.48
269.768	13.58
270.236	5.78
270.705	6.58
271.174	7.78
271.642	13.68
272.111	12.88
272.579	19.98
273.048	29.88
273.516	30.08
273.985	32.88
274.453	30.68
274.922	26.58
275.39	10.68
275.858	4.28
276.327	16.78
276.795	21.18
277.263	13.38
277.731	36.38
278.2	61.38
278.668	62.08
279.136	52.58
279.604	20.08
280.072	21.18
280.54	12.68
281.008	17.78
281.477	14.58
281.945	14.98
282.413	15.98
282.881	10.98
283.348	11.88
283.816	16.98
284.284	9.08
284.752	22.88
285.22	15.78
285.688	14.48
286.156	18.98
286.623	46.88
287.091	59.18
287.559	29.88
288.026	21.58
288.494	22.78
288.962	11.38
289.429	7.08
289.897	25.28
290.364	11.88
290.832	16.08
291.3	18.88
291.767	19.38
292.234	20.28
292.702	15.88
293.169	20.98
293.637	22.98
294.104	27.18
294.571	6.28
295.039	14.58
295.506	15.78
295.973	16.48
296.44	19.08
296.908	18.78
297.375	24.78
297.842	28.18
298.309	18.38
298.776	14.58
299.243	18.58
299.71	15.78
300.177	21.68
300.644	22.08
301.111	25.18
301.578	25.38
302.045	23.18
302.512	27.88
302.979	26.38
303.446	26.38
303.913	23.98
304.379	24.18
304.846	30.78
305.313	28.98
305.78	30.78
306.246	27.08
306.713	32.58
307.18	33.88
307.646	30.18
308.113	34.38
308.579	23.48
309.046	27.48
309.512	24.08
309.979	19.18
310.445	28.68
310.912	33.28
311.378	36.98
311.845	33.68
312.311	33.98
312.777	26.28
313.244	33.68
313.71	41.58
314.176	35.68
314.642	34.98
315.109	35.88
315.575	40.98
316.041	43.38
316.507	38.58
316.973	38.98
317.439	36.88
317.905	38.58
318.371	40.98
318.837	38.08
319.303	38.08
319.769	42.58
320.235	38.48
320.701	38.28
321.167	40.38
321.633	35.18
322.099	41.08
322.564	51.58
323.03	33.88
323.496	46.78
323.962	39.38
324.427	39.88
324.893	46.98
325.359	36.38
325.824	45.88
326.29	37.88
326.755	48.48
327.221	44.88
327.686	40.98
328.152	50.38
328.617	44.68
329.083	45.28
329.548	54.68
330.014	51.68
330.479	40.78
330.944	42.48
331.41	38.98
331.875	50.68
332.34	48.98
332.805	44.88
333.271	45.38
333.736	47.08
334.201	51.78
334.666	48.88
335.131	56.98
335.596	49.08
336.061	54.98
336.526	48.28
336.991	48.38
337.456	61.68
337.921	47.78
338.386	53.68
338.851	46.98
339.316	55.08
339.781	49.28
340.246	48.58
340.711	52.98
341.175	59.88
341.64	43.48
342.105	56.38
342.569	60.68
343.034	67.58
343.499	59.58
343.963	56.68
344.428	72.18
344.893	59.08
345.357	62.38
345.822	65.48
346.286	73.78
346.751	72.48
347.215	69.68
347.679	71.68
348.144	102.88
348.608	80.78
349.073	75.48
349.537	74.68
350.001	82.88
350.465	87.58
350.93	86.08
351.394	84.48
351.858	79.88
352.322	88.78
352.786	92.18
353.25	105.58
353.715	117.08
354.179	106.58
354.643	125.18
355.107	127.68
355.571	108.38
356.035	113.58
356.498	127.38
356.962	120.68
357.426	142.98
357.89	120.98
358.354	93.78
358.818	84.88
359.281	92.18
359.745	83.58
360.209	83.98
360.673	80.38
361.136	87.18
361.6	87.78
362.064	87.38
362.527	91.48
362.991	95.48
363.454	89.78
363.918	79.08
364.381	77.68
364.845	80.78
365.308	90.08
365.772	87.38
366.235	91.68
366.698	87.48
367.162	89.78
367.625	90.68
368.088	91.48
368.552	84.58
369.015	91.38
369.478	101.78
369.941	106.48
370.404	98.08
370.867	108.68
371.331	107.58
371.794	115.78
372.257	115.88
372.72	121.98
373.183	113.28
373.646	108.98
374.109	110.28
374.572	114.68
375.035	110.38
375.497	114.38
375.96	107.78
376.423	106.28
376.886	117.88
377.349	114.38
377.811	108.18
378.274	107.48
378.737	111.88
379.199	118.38
379.662	113.38
380.125	118.18
380.587	113.78
381.05	130.48
381.512	132.18
381.975	143.58
382.437	129.78
382.9	130.38
383.362	132.18
383.825	148.38
384.287	151.78
384.75	146.48
385.212	145.38
385.674	142.88
386.136	144.28
386.599	127.88
387.061	136.78
387.523	135.08
387.985	133.98
388.447	150.18
388.91	150.68
389.372	166.38
389.834	157.08
390.296	148.38
390.758	155.98
391.22	176.08
391.682	218.18
392.144	306.28
392.606	232.48
393.068	169.28
393.529	167.38
393.991	161.68
394.453	151.58
394.915	160.28
395.377	198.98
395.838	222.28
396.3	162.98
396.762	142.48
397.224	137.78
397.685	134.48
398.147	131.58
398.608	137.38
399.07	128.78
399.531	134.28
399.993	142.38
400.454	163.78
400.916	152.68
401.377	150.28
401.839	152.48
402.3	158.78
402.762	175.28
403.223	185.58
403.684	177.28
404.145	164.38
404.607	173.18
405.068	172.58
405.529	179.28
405.99	196.28
406.451	179.38
406.913	184.48
407.374	167.08
407.835	165.88
408.296	168.98
408.757	179.88
409.218	188.88
409.679	183.38
410.14	181.28
410.601	179.98
411.062	187.28
411.522	197.68
411.983	197.28
412.444	181.88
412.905	182.38
413.366	190.48
413.826	192.98
414.287	222.58
414.748	271.38
415.208	250.68
415.669	211.88
416.13	206.28
416.59	208.18
417.051	221.18
417.511	225.08
417.972	245.08
418.432	255.18
418.893	287.38
419.353	258.98
419.814	203.58
420.274	194.88
420.734	185.08
421.195	201.78
421.655	194.28
422.115	199.38
422.576	193.38
423.036	201.98
423.496	216.88
423.956	215.48
424.416	230.88
424.876	271.28
425.336	262.68
425.797	262.58
426.257	255.78
426.717	243.58
427.177	235.38
427.637	224.38
428.097	243.48
428.556	257.78
429.016	275.98
429.476	269.48
429.936	286.58
430.396	282.98
430.856	299.08
431.315	330.18
431.775	354.98
432.235	383.68
432.694	355.78
433.154	370.78
433.614	402.88
434.073	346.28
434.533	286.68
434.993	271.68
435.452	287.28
435.912	308.18
436.371	291.18
436.83	292.68
437.29	269.98
437.749	250.08
438.209	244.88
438.668	275.68
439.127	290.78
439.587	275.38
440.046	250.28
440.505	271.88
440.964	285.88
441.424	325.68
441.883	324.08
442.342	267.18
442.801	230.18
443.26	222.48
443.719	227.28
444.178	223.18
444.637	213.58
445.096	226.08
445.555	222.38
446.014	234.58
446.473	229.48
446.932	241.78
447.391	229.98
447.849	232.48
448.308	223.08
448.767	224.98
449.226	240.18
449.685	243.88
450.143	248.68
450.602	247.18
451.061	229.98
451.519	238.08
451.978	236.78
452.436	239.08
452.895	247.28
453.353	256.88
453.812	238.38
454.27	240.28
454.729	246.28
455.187	240.98
455.646	250.28
456.104	251.58
456.562	269.28
457.021	281.28
457.479	264.98
457.937	280.08
458.395	269.28
458.854	255.48
459.312	264.48
459.77	281.78
460.228	260.78
460.686	249.88
461.144	253.38
461.602	251.48
462.06	250.18
462.518	268.08
462.976	261.28
463.434	270.78
463.892	272.58
464.35	290.58
464.808	298.48
465.266	271.08
465.724	275.28
466.181	273.68
466.639	279.28
467.097	293.88
467.555	309.88
468.012	303.18
468.47	314.68
468.928	333.18
469.385	359.98
469.843	355.68
470.3	353.88
470.758	377.08
471.215	391.18
471.673	411.18
472.13	417.08
472.588	430.58
473.045	374.28
473.503	384.58
473.96	405.38
474.417	411.48
474.875	440.78
475.332	477.08
475.789	468.78
476.246	477.18
476.704	497.18
477.161	524.38
477.618	535.28
478.075	579.38
478.532	629.28
478.989	712.58
479.446	819.18
479.903	790.68
480.36	829.68
480.817	888.88
481.274	989.58
481.731	1099.68
482.188	1181.78
482.645	1330.38
483.102	1456.98
483.558	1579.98
484.015	1631.18
484.472	1591.68
484.929	1564.98
485.385	1516.98
485.842	1465.68
486.299	1408.68
486.755	1333.48
487.212	1131.68
487.668	951.28
488.125	862.98
488.582	790.98
489.038	768.28
489.494	721.98
489.951	703.88
490.407	678.98
490.864	656.08
491.32	658.88
491.776	648.78
492.233	659.38
492.689	626.28
493.145	613.78
493.602	608.08
494.058	622.48
494.514	631.98
494.97	654.08
495.426	658.38
495.882	633.18
496.338	632.78
496.794	632.28
497.251	633.08
497.707	648.48
498.163	659.68
498.618	660.78
499.074	653.88
499.53	697.18
499.986	698.18
500.442	667.18
500.898	646.18
501.354	633.38
501.809	640.68
502.265	647.68
502.721	667.68
503.177	683.48
503.632	678.08
504.088	688.78
504.543	724.48
504.999	727.98
505.455	676.28
505.91	646.38
506.366	643.88
506.821	640.08
507.277	638.98
507.732	630.48
508.187	637.98
508.643	639.28
509.098	641.68
509.553	666.38
510.009	672.98
510.464	682.88
510.919	705.18
511.375	705.08
511.83	722.48
512.285	738.58
512.74	771.88
513.195	798.28
513.65	779.08
514.105	788.18
514.56	796.78
515.015	809.08
515.47	828.98
515.925	804.88
516.38	794.68
516.835	807.88
517.29	789.28
517.745	790.18
518.2	768.78
518.655	766.58
519.109	752.08
519.564	754.58
520.019	749.78
520.474	742.68
520.928	740.88
521.383	731.28
521.838	720.18
522.292	717.98
522.747	725.28
523.201	716.98
523.656	704.98
524.11	702.08
524.565	700.88
525.019	696.88
525.474	706.98
525.928	716.18
526.382	712.28
526.837	721.38
527.291	724.38
527.745	712.08
528.2	709.18
528.654	703.48
529.108	697.88
529.562	700.38
530.016	703.28
530.47	698.88
530.925	694.48
531.379	699.08
531.833	720.68
532.287	719.38
532.741	715.58
533.195	728.58
533.649	722.58
534.103	732.58
534.556	722.98
535.01	723.38
535.464	713.68
535.918	733.88
536.372	724.58
536.826	740.68
537.279	709.28
537.733	723.68
538.187	715.58
538.64	728.78
539.094	739.38
539.548	740.78
540.001	739.78
540.455	730.38
540.908	746.68
541.362	743.68
541.815	755.48
542.269	768.28
542.722	770.58
543.175	774.48
543.629	777.58
544.082	798.38
544.536	793.58
544.989	795.88
545.442	804.28
545.895	800.38
546.349	797.88
546.802	799.88
547.255	812.88
547.708	827.18
548.161	831.08
548.614	830.18
549.067	831.58
549.52	838.38
549.973	828.08
550.426	812.48
550.879	802.28
551.332	807.78
551.785	818.48
552.238	825.88
552.691	827.48
553.144	829.28
553.596	854.78
554.049	879.28
554.502	911.58
554.955	924.28
555.407	913.38
555.86	903.18
556.313	913.48
556.765	896.48
557.218	895.68
557.67	899.88
558.123	882.58
558.576	886.58
559.028	879.68
559.48	891.68
559.933	871.18
560.385	847.58
560.838	817.18
561.29	795.38
561.742	787.58
562.195	772.28
562.647	772.88
563.099	784.28
563.551	771.88
564.004	788.78
564.456	781.88
564.908	781.38
565.36	747.88
565.812	747.68
566.264	725.08
566.716	728.08
567.168	714.38
567.62	736.18
568.072	704.38
568.524	711.78
568.976	698.28
569.428	693.18
569.88	678.98
570.332	692.28
570.784	684.58
571.235	690.28
571.687	699.58
572.139	718.98
572.59	721.18
573.042	722.48
573.494	720.98
573.945	708.38
574.397	694.58
574.849	692.78
575.3	690.68
575.752	694.18
576.203	680.58
576.655	699.48
577.106	667.58
577.557	668.68
578.009	667.08
578.46	665.08
578.912	660.68
579.363	668.48
579.814	677.38
580.265	670.08
580.717	673.38
581.168	672.18
581.619	680.48
582.07	680.68
582.521	680.48
582.972	674.68
583.423	687.88
583.875	691.58
584.326	706.38
584.777	746.78
585.227	824.98
585.678	921.68
586.129	1014.08
586.58	1084.08
587.031	1176.88
587.482	1337.08
587.933	1511.88
588.384	1320.18
588.834	979.78
589.285	815.38
589.736	790.18
590.186	775.38
590.637	768.58
591.088	753.38
591.538	734.88
591.989	723.88
592.439	723.18
592.89	722.78
593.34	714.78
593.791	705.68
594.241	702.88
594.692	709.38
595.142	710.08
595.593	696.58
596.043	708.98
596.493	716.18
596.943	718.18
597.394	728.48
597.844	716.78
598.294	734.38
598.744	751.08
599.195	779.18
599.645	815.08
600.095	856.48
600.545	912.68
600.995	969.88
601.445	1025.48
601.895	1088.78
602.345	1127.08
602.795	1116.18
603.245	1070.18
603.695	1013.68
604.145	960.18
604.594	902.38
605.044	856.58
605.494	787.18
605.944	758.88
606.393	745.48
606.843	731.78
607.293	733.28
607.743	734.08
608.192	738.98
608.642	759.78
609.091	759.58
609.541	774.08
609.99	761.48
610.44	767.38
610.889	725.78
611.339	701.58
611.788	692.58
612.238	704.98
612.687	721.88
613.136	716.58
613.586	731.58
614.035	735.18
614.484	755.98
614.933	748.88
615.383	747.98
615.832	749.08
616.281	728.58
616.73	694.18
617.179	662.98
617.628	643.08
618.077	636.48
618.526	624.18
618.975	623.08
619.424	607.08
619.873	625.38
620.322	619.98
620.771	600.48
621.22	609.78
621.669	596.08
622.118	583.78
622.567	566.38
623.015	569.48
623.464	563.18
623.913	565.38
624.361	550.98
624.81	559.98
625.259	545.78
625.707	560.38
626.156	546.08
626.604	551.58
627.053	557.28
627.501	552.48
627.95	566.88
628.398	579.28
628.847	567.38
629.295	562.88
629.744	559.38
630.192	565.08
630.64	562.78
631.089	570.78
631.537	571.48
631.985	590.28
632.433	594.88
632.881	606.78
633.33	649.98
633.778	638.28
634.226	573.48
634.674	575.38
635.122	570.78
635.57	599.48
636.018	624.28
636.466	580.68
636.914	554.88
637.362	565.48
637.81	577.68
638.258	567.88
638.705	574.18
639.153	608.68
639.601	610.08
640.049	632.88
640.497	666.68
640.944	689.88
641.392	639.98
641.84	609.08
642.287	580.78
642.735	569.68
643.182	571.28
643.63	564.48
644.078	574.98
644.525	591.28
644.973	595.08
645.42	597.18
645.867	617.48
646.315	642.08
646.762	652.68
647.21	686.88
647.657	707.38
648.104	738.38
648.551	770.58
648.999	821.08
649.446	908.18
649.893	998.88
650.34	1149.88
650.787	1377.38
651.234	1723.18
651.682	2229.98
652.129	3070.78
652.576	4413.88
653.023	6503.08
653.47	8969.08
653.917	11220.98
654.363	12996.48
654.81	14380.98
655.257	13695.38
655.704	8906.68
656.151	5297.88
656.598	3413.98
657.044	2410.88
657.491	1857.98
657.938	1481.28
658.385	1241.28
658.831	1074.48
659.278	956.48
659.724	849.88
660.171	793.28
660.618	716.18
661.064	684.18
661.511	661.18
661.957	654.18
662.404	636.88
662.85	649.68
663.296	623.58
663.743	560.08
664.189	544.08
664.635	526.48
665.082	523.38
665.528	518.98
665.974	513.48
666.42	510.08
666.867	499.88
667.313	486.98
667.759	468.18
668.205	468.28
668.651	483.28
669.097	476.58
669.543	503.48
669.989	466.28
670.435	443.18
670.881	444.68
671.327	444.28
671.773	461.58
672.219	475.08
672.665	519.78
673.11	574.68
673.556	617.08
674.002	666.88
674.448	641.98
674.893	550.08
675.339	468.68
675.785	426.88
676.23	413.98
676.676	386.28
677.122	376.28
677.567	364.78
678.013	354.28
678.458	349.98
678.904	355.98
679.349	342.48
679.794	348.18
680.24	349.58
680.685	345.38
681.131	345.58
681.576	333.18
682.021	354.58
682.466	343.58
682.912	344.78
683.357	341.18
683.802	381.38
684.247	400.38
684.692	448.68
685.137	491.58
685.583	524.28
686.028	561.88
686.473	516.18
686.918	433.58
687.363	414.58
687.807	392.28
688.252	359.78
688.697	357.68
689.142	336.98
689.587	327.08
690.032	317.98
690.477	342.78
690.921	345.28
691.366	375.58
691.811	384.48
692.255	424.68
692.7	451.08
693.145	487.58
693.589	678.48
694.034	1094.38
694.478	1496.48
694.923	1709.38
695.367	2215.18
695.812	1172.58
696.256	482.78
696.701	365.98
697.145	337.08
697.59	323.68
698.034	327.58
698.478	325.78
698.922	315.68
699.367	327.88
699.811	334.78
700.255	344.88
700.699	386.78
701.143	418.18
701.588	462.18
702.032	496.58
702.476	498.08
702.92	482.58
703.364	478.08
703.808	613.48
704.252	1000.78
704.696	1410.98
705.14	1629.98
705.584	2098.28
706.027	1042.58
706.471	511.58
706.915	396.08
707.359	344.08
707.803	316.98
708.246	309.68
708.69	313.98
709.134	311.38
709.577	303.08
710.021	319.38
710.465	299.18
710.908	292.58
711.352	289.98
711.795	307.48
712.239	343.78
712.682	369.88
713.126	403.38
713.569	457.48
714.012	365.98
714.456	314.68
714.899	299.68
715.342	274.18
715.786	258.58
716.229	256.68
716.672	250.78
717.115	239.78
717.558	247.18
718.002	246.58
718.445	254.38
718.888	280.98
719.331	287.98
719.774	305.38
720.217	292.18
720.66	284.08
721.103	260.18
721.546	249.38
721.989	249.68
722.432	224.28
722.874	234.48
723.317	223.68
723.76	233.18
724.203	248.88
724.645	303.48
725.088	430.48
725.531	553.88
725.974	629.98
726.416	543.88
726.859	296.48
727.301	237.78
727.744	235.98
728.187	229.58
728.629	228.58
729.071	231.68
729.514	258.18
729.956	268.48
730.399	278.58
730.841	280.08
731.283	262.78
731.726	264.08
732.168	252.58
732.61	260.88
733.053	279.78
733.495	303.78
733.937	341.98
734.379	392.78
734.821	423.58
735.263	522.98
735.705	793.08
736.148	1510.78
736.59	2494.58
737.032	2989.78
737.474	2421.58
737.916	781.88
738.357	410.78
738.799	319.08
739.241	291.78
739.683	280.18
740.125	286.68
740.567	285.58
741.008	302.78
741.45	305.68
741.892	305.08
742.334	332.68
742.775	353.58
743.217	330.38
743.658	265.38
744.1	243.38
744.542	259.08
744.983	302.48
745.425	330.28
745.866	335.98
746.307	278.48
746.749	278.88
747.19	309.98
747.632	436.68
748.073	829.28
748.514	1767.98
748.956	2761.28
749.397	3442.28
749.838	2867.08
750.279	2896.78
750.72	1470.58
751.162	532.18
751.603	313.88
752.044	251.58
752.485	216.28
752.926	208.08
753.367	196.08
753.808	192.68
754.249	180.38
754.69	187.28
755.131	183.28
755.572	179.78
756.013	173.38
756.453	181.28
756.894	186.78
757.335	189.48
757.776	190.28
758.216	200.88
758.657	191.68
759.098	195.18
759.538	218.68
759.979	259.18
760.42	359.68
760.86	668.48
761.301	1734.98
761.741	4225.78
762.182	6262.28
762.622	4416.28
763.063	1264.58
763.503	526.98
763.943	338.78
764.384	330.68
764.824	404.08
765.264	436.78
765.705	300.18
766.145	208.08
766.585	185.88
767.025	175.68
767.465	185.08
767.906	234.28
768.346	314.38
768.786	345.08
769.226	262.48
769.666	308.38
770.106	589.08
770.546	1487.38
770.986	2566.48
771.426	2309.58
771.866	760.38
772.306	315.28
772.745	204.18
773.185	173.88
773.625	167.68
774.065	165.78
774.505	193.78
774.944	303.88
775.384	665.68
775.824	1208.78
776.263	1185.48
776.703	514.08
777.142	224.28
777.582	152.28
778.021	136.88
778.461	138.08
778.9	140.98
779.34	129.28
779.779	116.98
780.219	111.88
780.658	115.38
781.097	109.88
781.537	105.78
781.976	109.58
782.415	107.58
782.855	101.38
783.294	98.18
783.733	102.38
784.172	105.88
784.611	101.18
785.05	111.68
785.489	112.78
785.928	117.58
786.367	115.38
786.806	122.88
787.245	124.48
787.684	134.48
788.123	143.68
788.562	136.48
789.001	132.28
789.44	124.78
789.879	117.28
790.317	111.78
790.756	120.48
791.195	124.68
791.634	138.58
792.072	195.98
792.511	343.58
792.95	951.68
793.388	2074.38
793.827	1897.78
794.265	663.88
794.704	275.48
795.142	181.38
795.581	152.08
796.019	134.78
796.458	121.48
796.896	124.18
797.334	127.68
797.773	154.88
798.211	209.18
798.649	417.98
799.087	982.28
799.526	1533.88
799.964	1941.98
800.402	1969.08
800.84	740.58
801.278	291.18
801.716	187.68
802.154	154.18
802.592	150.18
803.03	133.78
803.468	136.78
803.906	144.48
804.344	146.98
804.782	136.58
805.22	133.88
805.658	123.78
806.096	140.68
806.533	154.28
806.971	165.28
807.409	213.08
807.847	305.08
808.284	625.28
808.722	1778.38
809.16	3181.18
809.597	3001.08
810.035	5230.18
810.472	5658.28
810.91	2027.08
811.347	762.58
811.785	393.88
812.222	252.68
812.66	187.78
813.097	158.28
813.535	140.78
813.972	120.58
814.409	115.08
814.846	109.28
815.284	102.08
815.721	99.58
816.158	104.68
816.595	120.28
817.032	177.88
817.47	199.78
817.907	168.68
818.344	151.98
818.781	113.78
819.218	100.98
819.655	120.68
820.092	184.08
820.529	208.18
820.966	173.48
821.403	130.08
821.839	112.78
822.276	101.98
822.713	117.88
823.15	132.38
823.587	114.38
824.023	134.08
824.46	286.18
824.897	845.98
825.333	1310.78
825.77	568.48
826.206	221.68
826.643	125.48
827.08	96.38
827.516	86.78
827.953	71.48
828.389	81.78
828.825	62.78
829.262	61.98
829.698	63.58
830.135	65.58
830.571	62.38
831.007	64.68
831.443	74.38
831.88	57.38
832.316	63.58
832.752	61.78
833.188	61.48
833.624	59.28
834.06	66.88
834.497	68.78
834.933	69.08
835.369	74.98
835.805	62.78
836.241	71.88
836.677	80.88
837.112	90.08
837.548	102.78
837.984	129.88
838.42	191.28
838.856	475.28
839.292	1441.88
839.727	2232.68
840.163	1041.88
840.599	874.88
841.034	1947.78
841.47	2078.88
841.906	757.28
842.341	329.48
842.777	230.68
843.212	315.68
843.648	306.08
844.083	151.88
844.519	102.18
844.954	77.18
845.39	61.38
845.825	59.88
846.261	54.78
846.696	54.48
847.131	54.28
847.566	61.28
848.002	47.38
848.437	55.38
848.872	57.08
849.307	58.18
849.742	85.08
850.177	173.38
850.613	533.68
851.048	856.98
851.483	370.78
851.918	153.18
852.353	88.58
852.788	61.58
853.223	61.38
853.657	56.78
854.092	43.08
854.527	38.88
854.962	33.68
855.397	42.88
855.832	47.18
856.266	37.88
856.701	43.38
857.136	34.98
857.57	41.78
858.005	51.98
858.44	55.78
858.874	42.88
859.309	52.48
859.743	35.98
860.178	42.28
860.612	44.98
861.047	51.08
861.481	71.48
861.915	65.18
862.35	46.28
862.784	27.68
863.218	35.48
863.653	36.98
864.087	43.88
864.521	54.88
864.955	70.98
865.39	150.38
865.824	165.68
866.258	111.48
866.692	150.08
867.126	165.58
867.56	103.18
867.994	50.68
868.428	33.58
868.862	43.18
869.296	55.28
869.73	62.98
870.164	53.38
870.598	44.48
871.031	29.58
871.465	26.98
871.899	29.38
872.333	27.78
872.766	24.68
873.2	26.08
873.634	37.58
874.067	27.88
874.501	24.68
874.935	40.28
875.368	29.68
875.802	25.88
876.235	26.48
876.669	27.98
877.102	18.48
877.535	25.68
877.969	26.98
878.402	25.88
878.836	22.38
879.269	26.28
879.702	24.58
880.135	24.88
880.569	26.28
881.002	32.08
881.435	27.18
881.868	16.28
882.301	20.28
882.734	16.38
883.167	24.68
883.601	20.18
884.034	25.58
884.467	15.88
884.899	17.88
885.332	19.28
885.765	14.08
886.198	16.78
886.631	17.68
887.064	20.78
887.497	24.38
887.929	22.58
888.362	15.58
888.795	14.58
889.228	18.38
889.66	30.38
890.093	22.08
890.526	17.38
890.958	11.08
891.391	19.28
891.823	21.68
892.256	17.58
892.688	17.98
893.121	14.68
893.553	15.38
893.985	19.28
894.418	19.38
894.85	13.48
895.282	18.08
895.715	18.18
896.147	13.08
896.579	20.88
897.011	12.08
897.444	15.18
897.876	9.08
898.308	23.88
898.74	14.88
899.172	18.08
899.604	21.18
900.036	18.08
900.468	16.48
900.9	15.38
901.332	19.08
901.764	17.98
902.196	17.18
902.628	15.38
903.06	14.98
903.491	24.98
903.923	24.08
904.355	20.18
904.787	25.28
905.218	25.78
905.65	26.48
906.082	13.48
906.513	10.48
906.945	24.18
907.376	25.68
907.808	23.48
908.239	22.58
908.671	12.28
909.102	28.78
909.534	22.88
909.965	51.48
910.397	87.48
910.828	302.68
911.259	453.68
911.691	211.18
912.122	102.48
912.553	46.38
912.984	39.08
913.415	27.48
913.847	33.88
914.278	14.88
914.709	18.38
915.14	24.88
915.571	19.38
916.002	9.98
916.433	21.78
916.864	23.08
917.295	20.28
917.726	22.68
918.157	17.98
918.587	29.58
919.018	21.78
919.449	26.38
919.88	25.98
920.311	36.28
920.741	48.38
921.172	159.98
921.603	149.48
922.033	67.08
922.464	45.38
922.895	27.18
923.325	24.28
923.756	16.68
924.186	17.68
924.617	29.18
925.047	43.28
925.478	56.28
925.908	43.58
926.338	28.38
926.769	17.68
927.199	17.18
927.629	9.68
928.06	18.08
928.49	15.88
928.92	15.88
929.35	12.48
929.78	10.88
930.21	12.08
930.641	10.48
931.071	7.68
931.501	2.78
931.931	7.88
932.361	11.88
932.791	1.58
933.221	9.88
933.651	0.28
934.08	20.18
934.51	31.48
934.94	16.88
935.37	9.18
935.8	6.08
936.229	6.38
936.659	10.28
937.089	5.08
937.519	12.08
937.948	25.58
938.378	14.58
938.807	9.78
939.237	3.48
939.666	5.88
940.096	-2.82
940.525	4.28
940.955	1.58
941.384	4.88
941.814	-1.72
942.243	1.98
942.672	7.28
943.102	0.28
943.531	2.58
943.96	8.98
944.39	0.88
944.819	7.48
945.248	6.08
945.677	7.78
946.106	8.88
946.535	6.38
946.964	7.38
947.393	4.68
947.822	4.08
948.251	-6.52
948.68	7.08
949.109	7.98
949.538	9.58
949.967	2.08
950.396	0.38
950.825	-2.12
951.254	0.48
951.682	-10.32
952.111	7.38
952.54	10.78
952.969	-8.02
953.397	-5.12
953.826	1.58
954.254	-3.32
954.683	0.58
955.112	-1.42
955.54	2.48
955.969	-1.02
956.397	5.18
956.826	5.48
957.254	5.38
957.682	1.68
958.111	6.38
958.539	0.58
958.967	5.18
959.396	-3.92
959.824	6.28
960.252	3.28
960.68	-4.02
961.109	-0.12
961.537	-2.52
961.965	-6.52
962.393	3.58
962.821	1.88
963.249	2.38
963.677	9.88
964.105	3.08
964.533	38.98
964.961	42.98
965.389	22.68
965.817	10.78
966.245	1.88
966.672	-0.92
967.1	-4.72
967.528	8.48
967.956	-0.52
968.383	4.18
968.811	1.88
969.239	-6.62
969.666	0.78
970.094	4.48
970.522	6.28
970.949	-1.32
971.377	-4.72
971.804	0.58
972.232	1.78
972.659	-0.02
973.087	-1.72
973.514	1.18
973.941	-3.92
974.369	7.78
974.796	-0.02
975.223	-0.32
975.651	2.38
976.078	5.28
976.505	-1.22
976.932	4.48
977.359	21.08
977.786	14.28
978.214	6.38
978.641	-4.82
979.068	1.48
979.495	-2.92
979.922	1.18
980.349	1.88
980.776	4.88
981.202	2.08
981.629	3.38
982.056	7.28
982.483	1.58
982.91	4.88
983.337	-7.82
983.763	2.18
984.19	-4.12
984.617	-4.32
985.043	1.18
985.47	-7.72
985.897	-4.82
986.323	-11.92
986.75	12.18
987.176	-5.32
987.603	-3.42
988.029	-0.52
988.456	-7.52
988.882	4.58
989.308	-2.72
989.735	-2.02
990.161	1.78
990.587	-6.92
991.014	-2.52
991.44	9.68
991.866	-0.02
992.292	-4.42
992.719	-3.92
993.145	3.58
993.571	-5.22
993.997	-5.02
994.423	-0.22
994.849	-0.42
995.275	-0.72
995.701	6.18
996.127	0.48
996.553	2.78
996.979	-1.72
997.405	3.38
997.83	-4.42
998.256	-0.12
998.682	-9.92
999.108	-4.22
999.534	6.38
999.959	0.58
1000.385	-0.32
1000.811	2.28
1001.236	0.38
1001.662	-5.82
1002.087	-6.72
1002.513	-4.02
1002.938	3.98
1003.364	1.38
1003.789	-3.72
1004.215	8.48
1004.64	-1.02
1005.066	3.58
1005.491	5.48
1005.916	4.48
1006.342	-0.72
1006.767	-4.42
1007.192	9.28
1007.617	-4.02
1008.042	-5.42
1008.468	-6.32
1008.893	-8.92
1009.318	-2.62
1009.743	0.68
1010.168	1.38
1010.593	-3.72
1011.018	-5.92
1011.443	-7.02
1011.868	5.48
1012.293	3.08
1012.718	3.98
1013.143	0.78
1013.567	-0.22
1013.992	2.98
1014.417	-10.42
1014.842	1.08
1015.267	-5.42
1015.691	-1.82
1016.116	4.18
1016.541	1.78
1016.965	4.78
1017.39	10.58
1017.814	1.68
1018.239	3.58
1018.663	-3.92
1019.088	-5.12
1019.512	1.48
1019.937	-1.82
1020.361	5.58
1020.785	-10.62
1021.21	-1.52
1021.634	1.08
1022.058	1.68
1022.483	0.68
1022.907	-3.72
1023.331	-3.22
1023.755	-2.12
1024.179	1.58
1024.604	-9.02
1025.028	-5.52
1025.452	-7.12
1025.876	-2.02
1026.3	0.68
1026.724	-8.92
1027.148	-8.82
1027.572	-5.22
1027.996	-4.32
1028.42	-3.42
1028.843	-6.92
1029.267	-8.02
1029.691	-3.62
1030.115	-9.32
1030.539	-7.92
1030.962	-2.42
1031.386	-6.72
1031.81	4.98
1032.233	-0.72
1032.657	-2.22
1033.08	3.08
1033.504	-1.12
1033.927	-7.52
1034.351	1.28
1034.774	-8.82
1035.198	-2.72
1035.621	-10.42
1036.045	-5.22
1036.468	0.58
1036.891	-7.52
1037.315	-6.82
1037.738	-15.72
1038.161	-1.32
1038.584	-4.82
1039.008	0.38
1039.431	-3.92
1039.854	-7.02
1040.277	-7.82
1040.7	-7.52
1041.123	-1.62
1041.546	-6.92
1041.969	-0.72
1042.392	-6.52
1042.815	-4.42
1043.238	-0.32
1043.661	2.68
1044.084	-4.52
1044.507	-9.22
1044.93	-8.52
1045.352	-6.62
1045.775	-1.32
1046.198	-4.02
1046.621	0.98
1047.043	0.88
1047.466	8.28
1047.889	5.68
1048.311	-2.42
1048.734	1.68
1049.156	-3.12
1049.579	-1.02
1050.001	-1.82
1050.424	1.48
1050.846	-4.12
1051.269	-2.12
1051.691	-10.12
1052.113	-2.82
1052.536	-0.32
1052.958	-1.52
1053.38	0.38
1053.802	-13.32
1054.225	-3.92
1054.647	-6.32
1055.069	-8.92
1055.491	-0.02
1055.913	-6.82
1056.335	-3.02
1056.757	-8.52
1057.179	-7.42
1057.601	-8.12
1058.023	-1.72
1058.445	-1.12
1058.867	-1.82
1059.289	-1.22
1059.711	-6.12
1060.133	-4.62
1060.555	-5.22
1060.976	-0.12
1061.398	-9.82
1061.82	0.88
1062.241	-5.92
1062.663	-7.32
1063.085	-0.92
1063.506	-0.72
1063.928	-5.62
1064.35	0.38
1064.771	-12.02
1065.193	-0.62
1065.614	-6.32
1066.035	-0.72
1066.457	-1.92
1066.878	1.08
1067.3	-2.02
1067.721	-2.02
1068.142	-1.52
1068.564	0.08
1068.985	-4.72
1069.406	-10.12
1069.827	-2.92
1070.248	-1.72
1070.67	-5.82
1071.091	-6.82
1071.512	-7.72
1071.933	-8.72
1072.354	-9.82
1072.775	-1.52
1073.196	-2.42
1073.617	-2.22
1074.038	0.18
1074.459	-0.52
1074.88	-2.32
1075.3	-2.12
1075.721	-5.72
1076.142	2.98
1076.563	-1.42
1076.983	-5.22
1077.404	-1.82
1077.825	-5.32
1078.246	-4.92
1078.666	-10.02
1079.087	-1.92
1079.507	-2.42
1079.928	0.78
1080.348	-0.22
1080.769	0.58
1081.189	-0.42
1081.61	-6.12
1082.03	-5.32
1082.451	-4.22
1082.871	-1.82
1083.291	-6.32
1083.711	-4.92
1084.132	-7.92
1084.552	-2.02
1084.972	3.78
1085.392	-4.62
1085.813	-7.22
1086.233	-4.92
1086.653	-2.82
1087.073	-2.72
1087.493	-1.52
1087.913	-4.62
1088.333	-1.22
1088.753	-5.02
1089.173	1.48
1089.593	-0.12
1090.013	1.08
1090.433	1.58
1090.852	-1.42
1091.272	-0.32
1091.692	-1.82
1092.112	-2.82
1092.531	-7.82
1092.951	-8.22
1093.371	2.48
1093.79	0.28
1094.21	-2.62
1094.63	-0.82
1095.049	-3.12
1095.469	-2.12
1095.888	2.08
1096.308	2.38
1096.727	5.08
1097.146	-11.22
1097.566	-2.72
1097.985	-4.12
1098.405	-6.12
1098.824	-7.02
1099.243	-1.62
1099.662	-4.42
1100.082	-3.92
1100.501	4.08
1100.92	-5.52
1101.339	-0.22
1101.758	-4.32
