Data from 20171114-ORNL-Ar_H_NY_Subt18_08-08-33-400.txt Node
Date: Tue Nov 14 08:08:33 EST 2017
User: Ender
Spectrometer: HR+D1039
Trigger mode: 0
Integration Time (sec): 2.730000E-2
Scans to average: 10
Electric dark correction enabled: true
Nonlinearity correction enabled: false
Boxcar width: 0
XAxis mode: Wavelengths
Number of Pixels in Spectrum: 2048
>>>>>Begin Spectral Data<<<<<
187.836	-8.27
188.309	-8.27
188.782	-8.27
189.255	4.63
189.728	-1.27
190.201	4.33
190.674	3.43
191.147	6.73
191.619	-5.77
192.092	2.23
192.565	5.23
193.038	-3.27
193.511	-0.97
193.984	-1.77
194.456	1.13
194.929	-0.17
195.402	-5.77
195.874	-0.47
196.347	-3.57
196.82	-7.27
197.292	1.33
197.765	2.53
198.237	-4.77
198.71	2.13
199.182	4.73
199.655	-0.57
200.127	5.53
200.6	-3.67
201.072	0.13
201.544	2.63
202.017	3.33
202.489	4.13
202.961	-1.37
203.433	-3.87
203.906	-0.77
204.378	-6.77
204.85	-4.97
205.322	-9.57
205.794	1.83
206.266	-0.17
206.739	-9.57
207.211	0.93
207.683	-7.27
208.155	-9.47
208.627	-7.97
209.099	-6.67
209.57	-5.97
210.042	-3.77
210.514	-4.07
210.986	0.23
211.458	-1.17
211.93	-3.77
212.402	3.83
212.873	-9.07
213.345	-14.37
213.817	-7.87
214.288	-4.47
214.76	-10.17
215.232	-11.17
215.703	0.53
216.175	-4.67
216.646	-4.47
217.118	-10.97
217.589	-2.47
218.061	0.93
218.532	-6.87
219.004	0.23
219.475	-7.37
219.946	-1.97
220.418	-6.07
220.889	7.23
221.36	0.83
221.832	-1.07
222.303	-6.57
222.774	1.33
223.245	-4.17
223.717	-2.57
224.188	-3.47
224.659	-6.37
225.13	-2.97
225.601	4.83
226.072	2.93
226.543	-0.97
227.014	1.53
227.485	-1.17
227.956	-3.27
228.427	3.03
228.898	-3.27
229.369	6.23
229.839	-3.87
230.31	-4.47
230.781	10.53
231.252	-5.57
231.722	-2.47
232.193	-2.37
232.664	-3.87
233.135	4.13
233.605	-1.17
234.076	-5.07
234.546	1.03
235.017	8.93
235.487	-0.67
235.958	0.83
236.428	-6.87
236.899	4.83
237.369	9.93
237.84	-6.47
238.31	9.03
238.78	-1.67
239.251	-5.17
239.721	-0.97
240.191	-0.77
240.662	-3.97
241.132	-1.37
241.602	-0.57
242.072	7.73
242.542	4.83
243.013	-5.17
243.483	3.33
243.953	7.93
244.423	1.43
244.893	0.03
245.363	-1.17
245.833	6.83
246.303	4.33
246.773	3.43
247.243	0.83
247.712	5.23
248.182	4.23
248.652	4.23
249.122	-3.77
249.592	5.73
250.061	13.13
250.531	27.33
251.001	8.13
251.471	15.23
251.94	16.53
252.41	11.03
252.879	0.63
253.349	2.83
253.818	7.03
254.288	4.63
254.757	2.03
255.227	-1.87
255.696	0.73
256.166	6.83
256.635	5.53
257.105	6.63
257.574	4.93
258.043	10.83
258.513	13.53
258.982	10.23
259.451	7.23
259.92	7.93
260.389	10.53
260.859	15.93
261.328	9.13
261.797	13.33
262.266	5.63
262.735	8.03
263.204	0.73
263.673	-0.87
264.142	2.53
264.611	1.13
265.08	0.53
265.549	0.03
266.018	2.43
266.487	-9.57
266.955	-4.37
267.424	4.13
267.893	5.23
268.362	2.13
268.83	0.73
269.299	3.93
269.768	12.13
270.236	6.43
270.705	4.43
271.174	2.63
271.642	2.13
272.111	3.53
272.579	16.03
273.048	14.43
273.516	15.53
273.985	14.33
274.453	10.53
274.922	21.83
275.39	12.23
275.858	-0.97
276.327	7.23
276.795	13.23
277.263	7.53
277.731	23.33
278.2	43.63
278.668	36.03
279.136	36.33
279.604	15.73
280.072	10.63
280.54	14.53
281.008	10.33
281.477	14.23
281.945	13.53
282.413	10.33
282.881	15.23
283.348	5.53
283.816	9.83
284.284	9.43
284.752	13.73
285.22	11.53
285.688	15.63
286.156	17.23
286.623	35.73
287.091	36.53
287.559	23.93
288.026	14.03
288.494	11.73
288.962	0.63
289.429	12.73
289.897	13.73
290.364	12.23
290.832	17.13
291.3	8.43
291.767	13.33
292.234	12.73
292.702	10.13
293.169	12.13
293.637	23.63
294.104	15.93
294.571	12.03
295.039	12.93
295.506	5.73
295.973	12.03
296.44	16.33
296.908	17.03
297.375	18.53
297.842	10.03
298.309	15.03
298.776	14.93
299.243	21.43
299.71	10.83
300.177	22.13
300.644	8.73
301.111	17.73
301.578	19.53
302.045	16.73
302.512	18.73
302.979	20.83
303.446	19.53
303.913	16.53
304.379	18.33
304.846	24.33
305.313	27.23
305.78	17.93
306.246	27.33
306.713	26.03
307.18	22.43
307.646	26.43
308.113	23.23
308.579	20.43
309.046	21.13
309.512	24.83
309.979	15.63
310.445	23.23
310.912	25.63
311.378	32.83
311.845	26.53
312.311	28.43
312.777	29.93
313.244	26.93
313.71	36.43
314.176	27.13
314.642	26.43
315.109	27.13
315.575	34.33
316.041	36.43
316.507	27.53
316.973	38.13
317.439	31.03
317.905	33.63
318.371	29.73
318.837	35.53
319.303	31.23
319.769	36.73
320.235	35.43
320.701	29.53
321.167	32.83
321.633	34.63
322.099	35.73
322.564	44.33
323.03	42.73
323.496	37.03
323.962	31.03
324.427	34.63
324.893	36.13
325.359	39.33
325.824	35.43
326.29	34.23
326.755	38.83
327.221	37.23
327.686	36.43
328.152	46.73
328.617	37.53
329.083	42.63
329.548	52.43
330.014	42.53
330.479	40.53
330.944	39.93
331.41	40.43
331.875	45.63
332.34	37.23
332.805	41.63
333.271	41.73
333.736	37.93
334.201	45.93
334.666	49.83
335.131	52.13
335.596	57.03
336.061	43.73
336.526	43.03
336.991	49.13
337.456	51.63
337.921	47.53
338.386	36.73
338.851	41.23
339.316	45.53
339.781	45.43
340.246	48.53
340.711	41.93
341.175	47.63
341.64	44.43
342.105	52.53
342.569	48.53
343.034	54.33
343.499	56.23
343.963	52.93
344.428	59.73
344.893	58.13
345.357	58.23
345.822	58.73
346.286	61.33
346.751	64.83
347.215	61.33
347.679	69.83
348.144	91.83
348.608	74.03
349.073	64.93
349.537	69.53
350.001	71.23
350.465	82.83
350.93	74.33
351.394	74.33
351.858	67.13
352.322	84.23
352.786	78.63
353.25	96.13
353.715	103.93
354.179	93.03
354.643	114.13
355.107	113.53
355.571	104.53
356.035	96.43
356.498	114.43
356.962	108.83
357.426	120.43
357.89	110.73
358.354	90.63
358.818	80.73
359.281	73.83
359.745	78.73
360.209	73.83
360.673	72.73
361.136	81.33
361.6	88.93
362.064	84.23
362.527	87.23
362.991	92.13
363.454	74.13
363.918	79.63
364.381	77.33
364.845	80.83
365.308	86.23
365.772	84.73
366.235	83.43
366.698	82.03
367.162	83.63
367.625	90.03
368.088	88.83
368.552	82.63
369.015	93.93
369.478	94.63
369.941	98.93
370.404	91.03
370.867	108.33
371.331	108.93
371.794	117.43
372.257	113.13
372.72	112.53
373.183	101.73
373.646	96.63
374.109	101.43
374.572	114.33
375.035	103.93
375.497	105.63
375.96	109.13
376.423	105.93
376.886	114.23
377.349	112.03
377.811	102.53
378.274	109.73
378.737	105.93
379.199	115.03
379.662	113.63
380.125	119.03
380.587	116.43
381.05	112.83
381.512	126.93
381.975	131.93
382.437	121.73
382.9	122.83
383.362	127.73
383.825	136.23
384.287	145.13
384.75	136.13
385.212	131.53
385.674	137.53
386.136	139.43
386.599	124.53
387.061	127.33
387.523	125.43
387.985	134.53
388.447	139.53
388.91	145.03
389.372	156.03
389.834	152.93
390.296	141.83
390.758	150.53
391.22	170.43
391.682	199.83
392.144	277.93
392.606	222.03
393.068	161.53
393.529	166.73
393.991	149.43
394.453	142.93
394.915	148.73
395.377	179.83
395.838	200.13
396.3	158.33
396.762	145.33
397.224	137.93
397.685	131.23
398.147	135.33
398.608	131.33
399.07	135.43
399.531	131.73
399.993	149.83
400.454	152.83
400.916	150.13
401.377	141.33
401.839	156.13
402.3	153.83
402.762	172.33
403.223	180.03
403.684	171.73
404.145	161.03
404.607	162.73
405.068	167.13
405.529	176.83
405.99	190.83
406.451	172.33
406.913	173.73
407.374	169.23
407.835	166.13
408.296	165.73
408.757	179.33
409.218	184.23
409.679	185.83
410.14	175.03
410.601	182.43
411.062	182.83
411.522	187.83
411.983	188.93
412.444	181.73
412.905	177.83
413.366	190.13
413.826	197.03
414.287	221.73
414.748	274.83
415.208	250.33
415.669	227.03
416.13	209.83
416.59	205.03
417.051	222.83
417.511	224.03
417.972	243.13
418.432	252.43
418.893	295.73
419.353	257.43
419.814	207.03
420.274	195.63
420.734	191.83
421.195	206.33
421.655	203.93
422.115	202.03
422.576	199.63
423.036	204.13
423.496	214.03
423.956	223.43
424.416	234.03
424.876	274.03
425.336	268.43
425.797	266.13
426.257	261.13
426.717	249.53
427.177	236.73
427.637	230.23
428.097	250.03
428.556	251.33
429.016	277.53
429.476	270.93
429.936	277.43
430.396	286.53
430.856	289.93
431.315	316.23
431.775	362.13
432.235	391.63
432.694	356.13
433.154	379.33
433.614	402.13
434.073	344.03
434.533	291.23
434.993	276.63
435.452	286.93
435.912	306.73
436.371	287.93
436.83	286.73
437.29	267.23
437.749	253.33
438.209	251.33
438.668	281.63
439.127	294.53
439.587	270.43
440.046	256.43
440.505	267.13
440.964	289.33
441.424	326.13
441.883	315.13
442.342	266.53
442.801	232.43
443.26	233.93
443.719	225.33
444.178	227.53
444.637	217.43
445.096	225.73
445.555	231.63
446.014	233.23
446.473	241.03
446.932	241.03
447.391	231.13
447.849	240.23
448.308	223.13
448.767	226.53
449.226	243.63
449.685	248.63
450.143	262.13
450.602	245.23
451.061	235.63
451.519	242.53
451.978	244.23
452.436	239.83
452.895	246.63
453.353	261.33
453.812	248.33
454.27	241.93
454.729	249.83
455.187	248.13
455.646	248.93
456.104	255.03
456.562	263.93
457.021	281.43
457.479	269.13
457.937	284.43
458.395	274.33
458.854	255.03
459.312	262.33
459.77	289.43
460.228	272.13
460.686	251.83
461.144	258.63
461.602	249.83
462.06	254.93
462.518	259.03
462.976	262.33
463.434	273.83
463.892	273.03
464.35	284.93
464.808	296.43
465.266	274.53
465.724	273.63
466.181	284.33
466.639	279.93
467.097	292.93
467.555	312.33
468.012	312.53
468.47	325.03
468.928	336.73
469.385	354.53
469.843	358.53
470.3	358.03
470.758	364.93
471.215	387.63
471.673	417.33
472.13	413.93
472.588	431.63
473.045	383.93
473.503	396.23
473.96	407.33
474.417	417.63
474.875	442.93
475.332	480.93
475.789	475.63
476.246	483.93
476.704	495.83
477.161	517.63
477.618	533.63
478.075	565.63
478.532	625.03
478.989	713.73
479.446	820.33
479.903	790.03
480.36	803.83
480.817	860.93
481.274	968.23
481.731	1057.93
482.188	1145.93
482.645	1279.03
483.102	1373.43
483.558	1506.43
484.015	1559.63
484.472	1536.03
484.929	1487.13
485.385	1437.53
485.842	1406.73
486.299	1339.53
486.755	1295.43
487.212	1082.23
487.668	932.43
488.125	855.43
488.582	789.73
489.038	744.93
489.494	715.43
489.951	690.83
490.407	665.23
490.864	656.03
491.32	651.43
491.776	642.23
492.233	665.93
492.689	626.93
493.145	615.63
493.602	620.83
494.058	622.73
494.514	638.93
494.97	641.83
495.426	658.23
495.882	624.53
496.338	618.73
496.794	630.13
497.251	624.93
497.707	637.83
498.163	639.83
498.618	648.83
499.074	658.13
499.53	669.03
499.986	686.53
500.442	654.73
500.898	639.03
501.354	634.63
501.809	648.83
502.265	650.33
502.721	662.23
503.177	677.23
503.632	669.93
504.088	684.83
504.543	704.23
504.999	708.53
505.455	669.73
505.91	650.23
506.366	641.03
506.821	641.13
507.277	641.03
507.732	636.23
508.187	649.23
508.643	639.43
509.098	655.73
509.553	673.73
510.009	681.63
510.464	685.83
510.919	702.83
511.375	710.43
511.83	717.93
512.285	733.23
512.74	766.13
513.195	797.73
513.65	781.63
514.105	774.33
514.56	774.13
515.015	811.23
515.47	812.43
515.925	794.73
516.38	793.93
516.835	801.43
517.29	781.13
517.745	794.53
518.2	777.23
518.655	753.23
519.109	756.43
519.564	758.73
520.019	740.53
520.474	730.83
520.928	737.83
521.383	733.93
521.838	728.43
522.292	721.93
522.747	721.73
523.201	713.23
523.656	713.33
524.11	717.03
524.565	704.53
525.019	703.03
525.474	716.53
525.928	714.13
526.382	695.63
526.837	714.93
527.291	706.93
527.745	710.73
528.2	697.83
528.654	701.63
529.108	699.93
529.562	703.73
530.016	699.53
530.47	702.33
530.925	701.23
531.379	708.73
531.833	715.63
532.287	711.53
532.741	718.33
533.195	709.33
533.649	713.63
534.103	732.13
534.556	711.43
535.01	706.43
535.464	716.33
535.918	737.23
536.372	722.63
536.826	725.83
537.279	718.43
537.733	731.13
538.187	723.63
538.64	723.83
539.094	730.33
539.548	733.93
540.001	734.13
540.455	736.93
540.908	743.93
541.362	753.43
541.815	757.13
542.269	767.13
542.722	764.73
543.175	777.53
543.629	770.73
544.082	805.63
544.536	807.23
544.989	790.63
545.442	803.43
545.895	802.83
546.349	807.63
546.802	812.83
547.255	815.63
547.708	819.43
548.161	834.93
548.614	836.33
549.067	845.03
549.52	840.13
549.973	821.23
550.426	824.43
550.879	809.53
551.332	809.53
551.785	831.43
552.238	816.13
552.691	836.43
553.144	846.33
553.596	865.33
554.049	863.53
554.502	907.13
554.955	918.33
555.407	916.43
555.86	911.23
556.313	904.03
556.765	900.93
557.218	896.83
557.67	891.33
558.123	887.63
558.576	882.63
559.028	887.03
559.48	897.23
559.933	887.93
560.385	864.33
560.838	815.93
561.29	798.23
561.742	799.13
562.195	775.73
562.647	780.83
563.099	791.93
563.551	785.83
564.004	792.23
564.456	781.53
564.908	776.53
565.36	760.93
565.812	739.83
566.264	734.03
566.716	736.43
567.168	717.93
567.62	726.13
568.072	718.23
568.524	703.53
568.976	691.73
569.428	692.43
569.88	694.93
570.332	699.03
570.784	697.53
571.235	700.83
571.687	701.63
572.139	716.53
572.59	724.53
573.042	723.63
573.494	717.93
573.945	711.23
574.397	688.73
574.849	701.03
575.3	704.73
575.752	697.03
576.203	690.03
576.655	691.63
577.106	680.33
577.557	670.23
578.009	680.03
578.46	685.93
578.912	673.03
579.363	680.53
579.814	680.13
580.265	679.63
580.717	675.03
581.168	673.33
581.619	691.33
582.07	700.93
582.521	687.63
582.972	678.03
583.423	701.13
583.875	692.33
584.326	710.13
584.777	749.43
585.227	808.43
585.678	883.63
586.129	947.63
586.58	1004.13
587.031	1067.43
587.482	1188.03
587.933	1342.93
588.384	1180.33
588.834	937.33
589.285	814.83
589.736	801.73
590.186	799.43
590.637	788.13
591.088	756.03
591.538	757.03
591.989	751.93
592.439	747.33
592.89	726.13
593.34	710.93
593.791	714.93
594.241	716.23
594.692	724.93
595.142	710.63
595.593	699.83
596.043	716.43
596.493	724.63
596.943	725.83
597.394	738.43
597.844	729.43
598.294	751.33
598.744	761.73
599.195	800.53
599.645	839.73
600.095	872.53
600.545	930.43
600.995	982.93
601.445	1035.23
601.895	1112.83
602.345	1154.13
602.795	1130.93
603.245	1087.53
603.695	1029.43
604.145	985.13
604.594	925.33
605.044	870.63
605.494	813.93
605.944	770.73
606.393	760.13
606.843	749.43
607.293	752.43
607.743	751.13
608.192	751.33
608.642	776.83
609.091	784.13
609.541	778.03
609.99	780.93
610.44	772.43
610.889	735.53
611.339	710.23
611.788	698.83
612.238	722.73
612.687	728.73
613.136	725.33
613.586	745.73
614.035	740.73
614.484	753.93
614.933	755.13
615.383	754.63
615.832	739.83
616.281	731.13
616.73	697.13
617.179	670.33
617.628	663.33
618.077	646.93
618.526	639.93
618.975	635.63
619.424	636.53
619.873	624.13
620.322	626.33
620.771	616.13
621.22	620.93
621.669	606.33
622.118	587.93
622.567	591.03
623.015	581.63
623.464	578.83
623.913	573.33
624.361	563.83
624.81	570.73
625.259	564.03
625.707	566.53
626.156	562.93
626.604	570.63
627.053	573.03
627.501	569.53
627.95	585.03
628.398	590.83
628.847	583.63
629.295	581.23
629.744	586.73
630.192	573.53
630.64	580.63
631.089	572.83
631.537	582.93
631.985	581.03
632.433	588.73
632.881	583.83
633.33	632.73
633.778	616.13
634.226	573.03
634.674	579.53
635.122	586.93
635.57	587.63
636.018	610.13
636.466	585.33
636.914	569.53
637.362	573.63
637.81	579.93
638.258	595.93
638.705	595.13
639.153	624.83
639.601	640.23
640.049	661.83
640.497	678.43
640.944	698.83
641.392	658.43
641.84	628.13
642.287	604.03
642.735	580.33
643.182	584.33
643.63	585.23
644.078	588.63
644.525	600.53
644.973	609.13
645.42	620.33
645.867	630.33
646.315	647.93
646.762	676.83
647.21	708.73
647.657	725.03
648.104	766.43
648.551	777.13
648.999	852.03
649.446	923.83
649.893	1021.23
650.34	1162.03
650.787	1404.43
651.234	1750.73
651.682	2253.83
652.129	3085.23
652.576	4441.53
653.023	6501.73
653.47	8871.23
653.917	10977.03
654.363	12500.63
654.81	13776.43
655.257	13052.13
655.704	8599.03
656.151	5101.03
656.598	3345.43
657.044	2360.53
657.491	1851.03
657.938	1484.03
658.385	1240.93
658.831	1086.43
659.278	967.63
659.724	872.23
660.171	792.43
660.618	731.23
661.064	694.63
661.511	672.93
661.957	664.93
662.404	660.63
662.85	654.73
663.296	636.93
663.743	566.83
664.189	552.23
664.635	547.53
665.082	542.83
665.528	542.83
665.974	529.93
666.42	525.53
666.867	513.13
667.313	498.73
667.759	479.33
668.205	478.33
668.651	485.03
669.097	477.03
669.543	491.23
669.989	475.63
670.435	445.73
670.881	451.03
671.327	458.73
671.773	481.63
672.219	506.93
672.665	565.33
673.11	598.43
673.556	645.33
674.002	678.23
674.448	675.33
674.893	557.53
675.339	493.23
675.785	447.43
676.23	433.03
676.676	402.63
677.122	396.53
677.567	391.43
678.013	377.53
678.458	376.13
678.904	362.33
679.349	361.03
679.794	353.43
680.24	358.43
680.685	357.43
681.131	357.93
681.576	354.83
682.021	363.83
682.466	365.93
682.912	362.63
683.357	362.43
683.802	393.43
684.247	426.43
684.692	466.13
685.137	516.13
685.583	551.73
686.028	568.93
686.473	530.33
686.918	454.83
687.363	426.83
687.807	406.13
688.252	375.93
688.697	368.93
689.142	338.13
689.587	342.93
690.032	341.03
690.477	362.73
690.921	362.43
691.366	392.83
691.811	411.93
692.255	440.93
692.7	478.43
693.145	520.63
693.589	744.33
694.034	1188.33
694.478	1603.53
694.923	1767.13
695.367	2301.43
695.812	1225.53
696.256	506.43
696.701	373.93
697.145	351.23
697.59	342.33
698.034	329.93
698.478	341.63
698.922	336.43
699.367	337.63
699.811	352.53
700.255	365.63
700.699	389.63
701.143	447.13
701.588	485.83
702.032	529.83
702.476	523.13
702.92	501.13
703.364	510.93
703.808	672.93
704.252	1102.13
704.696	1511.93
705.14	1723.23
705.584	2170.83
706.027	1091.43
706.471	545.03
706.915	414.63
707.359	364.13
707.803	325.23
708.246	319.43
708.69	319.93
709.134	327.23
709.577	325.33
710.021	318.13
710.465	316.33
710.908	315.73
711.352	312.23
711.795	322.93
712.239	360.73
712.682	399.03
713.126	428.03
713.569	468.33
714.012	370.83
714.456	330.73
714.899	297.83
715.342	280.33
715.786	267.13
716.229	260.53
716.672	263.23
717.115	249.53
717.558	261.43
718.002	259.03
718.445	275.73
718.888	293.73
719.331	296.33
719.774	310.93
720.217	316.83
720.66	289.53
721.103	277.13
721.546	257.83
721.989	258.33
722.432	235.13
722.874	254.23
723.317	229.03
723.76	242.33
724.203	266.13
724.645	332.73
725.088	465.23
725.531	585.03
725.974	654.33
726.416	559.53
726.859	319.63
727.301	263.23
727.744	243.03
728.187	240.53
728.629	246.83
729.071	247.43
729.514	270.43
729.956	282.33
730.399	294.23
730.841	295.13
731.283	288.93
731.726	271.33
732.168	266.33
732.61	272.33
733.053	300.33
733.495	328.73
733.937	360.33
734.379	413.13
734.821	450.83
735.263	572.23
735.705	889.53
736.148	1687.83
736.59	2685.13
737.032	3098.13
737.474	2533.63
737.916	831.03
738.357	443.63
738.799	335.63
739.241	308.73
739.683	290.73
740.125	301.43
740.567	304.03
741.008	321.03
741.45	322.03
741.892	331.23
742.334	361.53
742.775	370.33
743.217	342.33
743.658	271.23
744.1	258.83
744.542	279.63
744.983	327.03
745.425	354.93
745.866	346.73
746.307	297.83
746.749	296.53
747.19	342.83
747.632	474.13
748.073	950.83
748.514	1987.83
748.956	2937.23
749.397	3699.53
749.838	3068.73
750.279	2997.03
750.72	1521.53
751.162	566.63
751.603	332.73
752.044	263.23
752.485	225.03
752.926	217.13
753.367	209.63
753.808	193.83
754.249	199.23
754.69	192.63
755.131	188.03
755.572	184.13
756.013	183.33
756.453	186.33
756.894	196.03
757.335	204.13
757.776	199.03
758.216	200.03
758.657	206.73
759.098	205.43
759.538	237.53
759.979	278.93
760.42	394.23
760.86	769.13
761.301	1978.53
761.741	4654.33
762.182	6492.63
762.622	4588.53
763.063	1349.73
763.503	556.63
763.943	350.43
764.384	331.03
764.824	362.23
765.264	393.03
765.705	277.13
766.145	207.83
766.585	193.03
767.025	187.13
767.465	187.83
767.906	230.63
768.346	283.13
768.786	306.43
769.226	256.53
769.666	334.63
770.106	677.23
770.546	1671.13
770.986	2718.93
771.426	2387.33
771.866	812.13
772.306	337.43
772.745	218.13
773.185	184.73
773.625	172.13
774.065	162.33
774.505	184.23
774.944	289.83
775.384	589.63
775.824	1002.13
776.263	964.93
776.703	428.43
777.142	207.63
777.582	152.23
778.021	135.93
778.461	137.13
778.9	136.33
779.34	136.03
779.779	120.93
780.219	115.23
780.658	109.43
781.097	110.53
781.537	115.43
781.976	111.43
782.415	110.83
782.855	106.13
783.294	106.13
783.733	110.63
784.172	107.93
784.611	102.93
785.05	118.13
785.489	113.23
785.928	128.33
786.367	127.43
786.806	125.83
787.245	139.63
787.684	140.13
788.123	157.33
788.562	142.13
789.001	134.73
789.44	127.13
789.879	124.03
790.317	127.63
790.756	133.23
791.195	130.43
791.634	148.73
792.072	215.03
792.511	396.33
792.95	1091.53
793.388	2179.23
793.827	1937.43
794.265	695.33
794.704	288.23
795.142	184.73
795.581	156.33
796.019	144.83
796.458	138.03
796.896	131.53
797.334	137.33
797.773	163.63
798.211	236.03
798.649	472.63
799.087	1085.63
799.526	1647.03
799.964	2105.03
800.402	2038.43
800.84	780.33
801.278	316.93
801.716	188.93
802.154	154.03
802.592	156.33
803.03	150.93
803.468	135.73
803.906	152.93
804.344	155.43
804.782	151.33
805.22	135.13
805.658	138.63
806.096	158.93
806.533	158.93
806.971	183.23
807.409	226.63
807.847	338.33
808.284	717.13
808.722	1983.83
809.16	3340.93
809.597	3291.53
810.035	5613.73
810.472	5793.53
810.91	2114.03
811.347	823.93
811.785	424.63
812.222	264.73
812.66	201.13
813.097	171.83
813.535	148.23
813.972	133.93
814.409	120.43
814.846	111.93
815.284	108.13
815.721	107.73
816.158	101.13
816.595	118.03
817.032	171.53
817.47	200.13
817.907	151.83
818.344	136.33
818.781	117.23
819.218	104.53
819.655	130.53
820.092	193.33
820.529	219.23
820.966	178.93
821.403	137.43
821.839	107.63
822.276	103.63
822.713	128.93
823.15	142.93
823.587	125.33
824.023	155.43
824.46	319.83
824.897	948.13
825.333	1366.33
825.77	596.13
826.206	237.23
826.643	139.03
827.08	105.23
827.516	84.53
827.953	80.73
828.389	81.23
828.825	72.73
829.262	70.43
829.698	61.33
830.135	66.63
830.571	63.53
831.007	68.53
831.443	73.13
831.88	65.33
832.316	67.13
832.752	67.13
833.188	69.53
833.624	63.13
834.06	73.53
834.497	66.73
834.933	74.03
835.369	75.03
835.805	71.23
836.241	78.23
836.677	80.03
837.112	98.53
837.548	108.73
837.984	137.93
838.42	208.73
838.856	535.53
839.292	1590.13
839.727	2318.03
840.163	1099.63
840.599	980.83
841.034	2109.93
841.47	2143.93
841.906	791.83
842.341	341.93
842.777	227.93
843.212	283.83
843.648	272.63
844.083	145.63
844.519	95.13
844.954	73.93
845.39	66.43
845.825	59.03
846.261	62.93
846.696	52.03
847.131	53.13
847.566	55.63
848.002	53.73
848.437	52.43
848.872	59.63
849.307	60.33
849.742	91.63
850.177	191.53
850.613	588.23
851.048	895.03
851.483	387.23
851.918	152.93
852.353	91.23
852.788	69.63
853.223	59.63
853.657	52.23
854.092	47.63
854.527	40.03
854.962	45.03
855.397	41.13
855.832	51.33
856.266	41.83
856.701	38.73
857.136	42.33
857.57	45.73
858.005	49.23
858.44	57.73
858.874	38.73
859.309	50.63
859.743	38.73
860.178	49.13
860.612	46.43
861.047	56.23
861.481	69.63
861.915	70.53
862.35	51.73
862.784	35.43
863.218	42.93
863.653	32.03
864.087	46.83
864.521	57.83
864.955	71.43
865.39	164.13
865.824	182.03
866.258	120.63
866.692	166.73
867.126	178.63
867.56	105.53
867.994	55.93
868.428	41.53
868.862	48.13
869.296	59.63
869.73	62.23
870.164	55.73
870.598	45.23
871.031	37.13
871.465	32.03
871.899	32.83
872.333	25.03
872.766	23.13
873.2	26.23
873.634	30.43
874.067	23.73
874.501	27.53
874.935	36.73
875.368	33.03
875.802	28.93
876.235	24.73
876.669	25.03
877.102	26.33
877.535	28.33
877.969	22.63
878.402	19.43
878.836	18.73
879.269	23.13
879.702	27.53
880.135	23.43
880.569	25.83
881.002	32.23
881.435	24.83
881.868	16.13
882.301	26.13
882.734	19.23
883.167	19.93
883.601	22.63
884.034	25.13
884.467	15.13
884.899	19.43
885.332	15.33
885.765	16.83
886.198	24.63
886.631	29.93
887.064	20.73
887.497	21.53
887.929	23.33
888.362	18.13
888.795	15.13
889.228	24.23
889.66	25.13
890.093	19.43
890.526	20.73
890.958	20.03
891.391	17.03
891.823	23.33
892.256	14.53
892.688	10.53
893.121	21.53
893.553	17.23
893.985	27.43
894.418	19.33
894.85	12.83
895.282	21.03
895.715	19.23
896.147	17.83
896.579	17.13
897.011	18.13
897.444	18.23
897.876	11.43
898.308	22.13
898.74	16.03
899.172	19.63
899.604	24.33
900.036	20.73
900.468	19.43
900.9	16.33
901.332	19.93
901.764	19.83
902.196	23.33
902.628	17.63
903.06	16.53
903.491	26.63
903.923	27.13
904.355	24.93
904.787	22.73
905.218	25.63
905.65	17.73
906.082	11.03
906.513	18.03
906.945	14.33
907.376	14.13
907.808	19.63
908.239	24.53
908.671	21.53
909.102	24.83
909.534	30.43
909.965	47.53
910.397	101.93
910.828	327.73
911.259	480.03
911.691	228.23
912.122	107.13
912.553	51.43
912.984	35.23
913.415	25.03
913.847	24.43
914.278	21.63
914.709	13.03
915.14	19.13
915.571	17.83
916.002	15.03
916.433	22.63
916.864	17.53
917.295	12.53
917.726	27.53
918.157	16.83
918.587	32.63
919.018	18.13
919.449	19.23
919.88	23.43
920.311	33.43
920.741	53.63
921.172	171.73
921.603	154.03
922.033	80.73
922.464	49.03
922.895	27.33
923.325	26.73
923.756	18.03
924.186	17.03
924.617	25.23
925.047	31.03
925.478	39.23
925.908	36.23
926.338	22.53
926.769	19.73
927.199	14.73
927.629	7.13
928.06	18.73
928.49	16.03
928.92	11.23
929.35	8.63
929.78	12.73
930.21	12.93
930.641	11.93
931.071	13.63
931.501	8.63
931.931	9.13
932.361	5.93
932.791	7.63
933.221	0.83
933.651	5.93
934.08	17.03
934.51	33.23
934.94	16.73
935.37	10.03
935.8	14.93
936.229	8.23
936.659	8.63
937.089	6.53
937.519	17.53
937.948	29.63
938.378	16.63
938.807	7.33
939.237	4.53
939.666	8.83
940.096	-2.17
940.525	2.63
940.955	1.63
941.384	5.23
941.814	-0.97
942.243	-1.37
942.672	-2.57
943.102	-3.87
943.531	0.33
943.96	5.43
944.39	5.93
944.819	1.53
945.248	3.03
945.677	5.43
946.106	7.93
946.535	3.73
946.964	3.93
947.393	6.13
947.822	0.03
948.251	-3.97
948.68	7.93
949.109	0.83
949.538	2.73
949.967	-1.77
950.396	1.13
950.825	-1.97
951.254	-2.37
951.682	-7.97
952.111	12.33
952.54	9.13
952.969	-4.77
953.397	-0.57
953.826	3.03
954.254	0.13
954.683	5.23
955.112	-3.47
955.54	0.53
955.969	2.63
956.397	-4.17
956.826	-1.07
957.254	3.93
957.682	0.33
958.111	6.53
958.539	2.33
958.967	8.33
959.396	3.83
959.824	-0.47
960.252	3.23
960.68	-4.17
961.109	2.83
961.537	-2.27
961.965	3.03
962.393	1.33
962.821	-4.57
963.249	2.43
963.677	5.13
964.105	5.03
964.533	47.03
964.961	43.43
965.389	18.53
965.817	6.23
966.245	8.63
966.672	2.23
967.1	-1.17
967.528	1.83
967.956	2.43
968.383	-0.67
968.811	-5.07
969.239	1.63
969.666	-5.87
970.094	0.43
970.522	-3.97
970.949	-2.77
971.377	-1.37
971.804	-2.77
972.232	-1.17
972.659	-0.87
973.087	3.03
973.514	-2.97
973.941	-3.77
974.369	4.33
974.796	3.23
975.223	3.53
975.651	-3.67
976.078	2.13
976.505	-3.87
976.932	3.43
977.359	14.63
977.786	15.13
978.214	2.33
978.641	1.13
979.068	1.03
979.495	-2.37
979.922	1.23
980.349	2.43
980.776	1.93
981.202	-7.87
981.629	3.73
982.056	4.43
982.483	-3.27
982.91	3.13
983.337	-6.87
983.763	2.33
984.19	-2.77
984.617	-6.57
985.043	-0.87
985.47	1.63
985.897	-0.57
986.323	-2.37
986.75	2.43
987.176	0.93
987.603	-3.37
988.029	3.13
988.456	-0.57
988.882	3.83
989.308	-7.97
989.735	-6.27
990.161	-1.77
990.587	-5.67
991.014	-3.27
991.44	3.53
991.866	-5.37
992.292	-2.27
992.719	-3.67
993.145	4.03
993.571	-11.27
993.997	-4.27
994.423	2.33
994.849	-2.87
995.275	-0.37
995.701	1.23
996.127	-0.77
996.553	7.43
996.979	-2.57
997.405	-0.37
997.83	-2.87
998.256	-4.77
998.682	-3.87
999.108	-5.37
999.534	1.53
999.959	-3.37
1000.385	-4.47
1000.811	-2.57
1001.236	-6.67
1001.662	-8.67
1002.087	-0.27
1002.513	2.43
1002.938	7.23
1003.364	-1.37
1003.789	0.03
1004.215	7.03
1004.64	-3.87
1005.066	0.43
1005.491	-0.67
1005.916	-3.97
1006.342	-1.67
1006.767	-6.87
1007.192	3.33
1007.617	-7.37
1008.042	-6.37
1008.468	-9.97
1008.893	0.33
1009.318	-4.67
1009.743	1.43
1010.168	6.63
1010.593	3.63
1011.018	-1.87
1011.443	0.23
1011.868	0.93
1012.293	-3.87
1012.718	-1.67
1013.143	-0.87
1013.567	7.33
1013.992	3.93
1014.417	-7.77
1014.842	3.13
1015.267	-0.67
1015.691	-0.47
1016.116	8.83
1016.541	1.73
1016.965	3.23
1017.39	-0.37
1017.814	-1.27
1018.239	-6.37
1018.663	-3.67
1019.088	-11.07
1019.512	-1.87
1019.937	1.83
1020.361	-1.67
1020.785	-8.67
1021.21	-8.27
1021.634	-3.47
1022.058	2.03
1022.483	3.43
1022.907	-3.27
1023.331	-7.67
1023.755	-2.47
1024.179	-2.77
1024.604	-4.87
1025.028	-7.27
1025.452	-4.27
1025.876	2.43
1026.3	4.73
1026.724	-6.17
1027.148	-3.47
1027.572	-9.37
1027.996	-3.77
1028.42	-1.07
1028.843	-6.57
1029.267	-5.87
1029.691	-2.97
1030.115	-4.17
1030.539	-8.27
1030.962	-5.97
1031.386	-7.27
1031.81	-1.57
1032.233	5.13
1032.657	-3.77
1033.08	-0.37
1033.504	-1.97
1033.927	-5.67
1034.351	1.13
1034.774	-6.77
1035.198	0.53
1035.621	2.03
1036.045	-8.57
1036.468	0.73
1036.891	-9.07
1037.315	-5.47
1037.738	-8.27
1038.161	5.33
1038.584	-1.07
1039.008	-7.27
1039.431	-5.27
1039.854	-3.57
1040.277	-6.87
1040.7	-10.57
1041.123	-0.47
1041.546	-10.17
1041.969	-2.27
1042.392	-4.37
1042.815	-1.77
1043.238	0.53
1043.661	3.03
1044.084	-7.37
1044.507	-5.27
1044.93	-8.37
1045.352	-7.67
1045.775	3.93
1046.198	-0.87
1046.621	2.73
1047.043	0.13
1047.466	6.13
1047.889	-2.47
1048.311	-4.57
1048.734	0.83
1049.156	-0.37
1049.579	-0.27
1050.001	-8.87
1050.424	-4.47
1050.846	-4.67
1051.269	-3.27
1051.691	-8.77
1052.113	-4.97
1052.536	-2.07
1052.958	-5.17
1053.38	-0.87
1053.802	-7.57
1054.225	0.43
1054.647	-6.27
1055.069	-3.77
1055.491	-2.37
1055.913	-9.97
1056.335	-4.37
1056.757	-7.87
1057.179	-3.07
1057.601	-0.47
1058.023	0.13
1058.445	-5.67
1058.867	0.33
1059.289	-8.37
1059.711	-6.17
1060.133	-0.37
1060.555	-3.37
1060.976	-7.87
1061.398	-8.57
1061.82	-6.17
1062.241	-7.67
1062.663	-5.07
1063.085	-3.97
1063.506	-3.77
1063.928	-1.87
1064.35	-3.57
1064.771	-12.57
1065.193	-0.67
1065.614	-7.87
1066.035	-2.07
1066.457	-4.47
1066.878	-2.57
1067.3	-6.47
1067.721	-2.37
1068.142	-1.37
1068.564	-0.57
1068.985	-1.37
1069.406	-2.87
1069.827	-3.67
1070.248	4.43
1070.67	-10.07
1071.091	-3.17
1071.512	-4.07
1071.933	-5.27
1072.354	-4.37
1072.775	-7.07
1073.196	-7.87
1073.617	-3.77
1074.038	-4.17
1074.459	-4.47
1074.88	-10.37
1075.3	2.83
1075.721	1.53
1076.142	4.23
1076.563	-5.07
1076.983	-10.97
1077.404	-4.57
1077.825	-14.57
1078.246	-3.07
1078.666	-10.07
1079.087	-4.17
1079.507	-11.27
1079.928	5.03
1080.348	-4.07
1080.769	-9.57
1081.189	2.73
1081.61	-5.17
1082.03	-2.87
1082.451	-7.37
1082.871	-0.97
1083.291	-7.97
1083.711	-7.07
1084.132	-5.57
1084.552	-3.97
1084.972	-0.07
1085.392	-13.57
1085.813	-10.47
1086.233	-5.17
1086.653	-7.47
1087.073	2.53
1087.493	-8.27
1087.913	-1.47
1088.333	-3.47
1088.753	-5.97
1089.173	4.83
1089.593	1.13
1090.013	6.53
1090.433	-0.47
1090.852	-3.37
1091.272	-1.67
1091.692	-1.47
1092.112	-4.07
1092.531	-7.57
1092.951	-11.57
1093.371	-3.17
1093.79	5.13
1094.21	-3.67
1094.63	-5.17
1095.049	-3.07
1095.469	-5.47
1095.888	-3.27
1096.308	0.13
1096.727	1.13
1097.146	-4.67
1097.566	-5.07
1097.985	-7.47
1098.405	-5.47
1098.824	-7.77
1099.243	-4.77
1099.662	-6.87
1100.082	-3.57
1100.501	-2.07
1100.92	-4.37
1101.339	-3.57
1101.758	-2.77
