Data from 20171114-ORNL-Ar_H_NY_Subt18_08-08-12-381.txt Node
Date: Tue Nov 14 08:08:12 EST 2017
User: Ender
Spectrometer: HR+D1039
Trigger mode: 0
Integration Time (sec): 2.730000E-2
Scans to average: 10
Electric dark correction enabled: true
Nonlinearity correction enabled: false
Boxcar width: 0
XAxis mode: Wavelengths
Number of Pixels in Spectrum: 2048
>>>>>Begin Spectral Data<<<<<
187.836	-6.03
188.309	-6.03
188.782	-6.03
189.255	-1.33
189.728	1.17
190.201	4.27
190.674	5.17
191.147	5.77
191.619	-4.53
192.092	-0.53
192.565	0.77
193.038	2.07
193.511	6.17
193.984	-2.83
194.456	-1.63
194.929	-3.23
195.402	-2.83
195.874	-2.43
196.347	-6.63
196.82	-6.03
197.292	5.37
197.765	-2.43
198.237	-5.73
198.71	0.77
199.182	-2.63
199.655	5.17
200.127	5.27
200.6	-8.23
201.072	3.47
201.544	-6.53
202.017	-6.03
202.489	-1.03
202.961	-5.73
203.433	0.57
203.906	-7.13
204.378	-6.23
204.85	-5.83
205.322	-13.03
205.794	-4.43
206.266	-3.23
206.739	-10.93
207.211	0.37
207.683	-5.73
208.155	-6.23
208.627	-4.93
209.099	-3.93
209.57	-7.33
210.042	-8.53
210.514	-2.23
210.986	-4.03
211.458	-10.23
211.93	-9.43
212.402	1.27
212.873	-11.33
213.345	-13.63
213.817	-13.63
214.288	-7.33
214.76	-10.13
215.232	-6.43
215.703	-1.63
216.175	-3.53
216.646	-2.43
217.118	-8.63
217.589	-7.33
218.061	-1.33
218.532	-2.83
219.004	-2.43
219.475	-2.73
219.946	-2.53
220.418	-1.03
220.889	-2.53
221.36	1.07
221.832	-0.13
222.303	-3.53
222.774	-0.43
223.245	-14.33
223.717	-12.23
224.188	-9.13
224.659	-11.33
225.13	-5.63
225.601	-4.43
226.072	0.17
226.543	0.87
227.014	-0.43
227.485	1.47
227.956	-3.83
228.427	1.87
228.898	0.57
229.369	1.37
229.839	-7.73
230.31	-12.23
230.781	2.87
231.252	1.57
231.722	-0.03
232.193	-5.33
232.664	-2.83
233.135	-1.33
233.605	-1.23
234.076	-6.73
234.546	4.47
235.017	2.27
235.487	0.67
235.958	-6.23
236.428	-2.63
236.899	2.77
237.369	3.17
237.84	-4.83
238.31	3.57
238.78	1.27
239.251	-2.73
239.721	-0.93
240.191	-5.63
240.662	-4.53
241.132	-3.13
241.602	-7.43
242.072	0.37
242.542	0.67
243.013	-1.53
243.483	2.27
243.953	-4.53
244.423	-0.93
244.893	-2.13
245.363	7.07
245.833	0.17
246.303	-0.43
246.773	12.27
247.243	-0.63
247.712	1.37
248.182	4.57
248.652	7.97
249.122	-2.63
249.592	5.67
250.061	14.97
250.531	28.47
251.001	16.67
251.471	21.87
251.94	15.77
252.41	4.77
252.879	0.57
253.349	15.17
253.818	6.67
254.288	7.17
254.757	5.87
255.227	-3.13
255.696	2.07
256.166	7.27
256.635	5.47
257.105	8.17
257.574	1.77
258.043	12.17
258.513	11.57
258.982	14.87
259.451	8.37
259.92	16.47
260.389	7.77
260.859	15.57
261.328	10.67
261.797	13.87
262.266	0.87
262.735	7.27
263.204	2.37
263.673	-0.43
264.142	10.17
264.611	0.37
265.08	-3.23
265.549	3.77
266.018	2.47
266.487	-2.83
266.955	-3.53
267.424	3.87
267.893	7.47
268.362	-1.03
268.83	6.77
269.299	8.77
269.768	14.67
270.236	3.67
270.705	-0.83
271.174	5.17
271.642	7.27
272.111	8.67
272.579	19.47
273.048	24.37
273.516	23.17
273.985	22.07
274.453	23.37
274.922	16.07
275.39	16.27
275.858	3.17
276.327	11.27
276.795	12.87
277.263	8.07
277.731	26.67
278.2	48.07
278.668	54.37
279.136	46.87
279.604	17.07
280.072	13.27
280.54	10.77
281.008	7.37
281.477	13.97
281.945	14.17
282.413	11.77
282.881	17.17
283.348	11.27
283.816	14.47
284.284	14.77
284.752	26.17
285.22	15.47
285.688	16.67
286.156	17.77
286.623	46.87
287.091	57.77
287.559	28.27
288.026	18.67
288.494	18.87
288.962	7.17
289.429	14.27
289.897	17.67
290.364	11.17
290.832	18.07
291.3	8.47
291.767	16.77
292.234	19.87
292.702	13.77
293.169	18.87
293.637	19.37
294.104	22.27
294.571	6.87
295.039	14.27
295.506	12.17
295.973	16.07
296.44	18.07
296.908	15.37
297.375	17.17
297.842	18.87
298.309	17.47
298.776	10.77
299.243	18.57
299.71	14.37
300.177	21.17
300.644	23.97
301.111	17.67
301.578	23.17
302.045	14.17
302.512	21.77
302.979	19.97
303.446	16.97
303.913	16.57
304.379	15.67
304.846	27.17
305.313	19.47
305.78	18.57
306.246	26.27
306.713	25.57
307.18	24.97
307.646	23.27
308.113	24.27
308.579	20.27
309.046	25.97
309.512	24.37
309.979	19.57
310.445	26.97
310.912	21.97
311.378	28.67
311.845	31.37
312.311	28.97
312.777	28.97
313.244	26.67
313.71	35.07
314.176	27.07
314.642	29.37
315.109	26.07
315.575	36.57
316.041	37.87
316.507	29.27
316.973	37.37
317.439	33.27
317.905	29.97
318.371	28.67
318.837	31.17
319.303	30.97
319.769	30.47
320.235	39.17
320.701	34.27
321.167	33.87
321.633	21.07
322.099	36.27
322.564	45.67
323.03	45.07
323.496	37.87
323.962	38.87
324.427	29.37
324.893	44.57
325.359	41.87
325.824	34.07
326.29	36.07
326.755	34.17
327.221	30.37
327.686	38.27
328.152	41.37
328.617	37.07
329.083	46.47
329.548	49.17
330.014	40.17
330.479	34.67
330.944	42.37
331.41	42.47
331.875	44.17
332.34	46.87
332.805	36.37
333.271	43.77
333.736	41.07
334.201	51.57
334.666	52.17
335.131	57.67
335.596	49.97
336.061	51.27
336.526	40.07
336.991	44.47
337.456	53.47
337.921	45.97
338.386	40.37
338.851	49.27
339.316	41.87
339.781	49.67
340.246	46.87
340.711	44.77
341.175	46.87
341.64	39.47
342.105	49.87
342.569	55.87
343.034	59.27
343.499	52.97
343.963	47.87
344.428	65.07
344.893	59.07
345.357	59.37
345.822	61.67
346.286	70.37
346.751	76.27
347.215	66.77
347.679	72.37
348.144	90.97
348.608	78.97
349.073	67.47
349.537	74.37
350.001	69.97
350.465	88.57
350.93	84.77
351.394	78.57
351.858	73.27
352.322	86.17
352.786	80.07
353.25	101.57
353.715	112.27
354.179	98.47
354.643	125.57
355.107	124.97
355.571	106.67
356.035	105.07
356.498	120.07
356.962	124.27
357.426	135.57
357.89	117.27
358.354	85.27
358.818	82.17
359.281	74.77
359.745	72.17
360.209	73.47
360.673	82.17
361.136	78.07
361.6	81.87
362.064	89.57
362.527	79.27
362.991	87.87
363.454	75.27
363.918	78.37
364.381	78.47
364.845	85.57
365.308	84.27
365.772	78.27
366.235	85.47
366.698	81.27
367.162	84.77
367.625	82.97
368.088	89.97
368.552	88.37
369.015	91.57
369.478	95.07
369.941	104.17
370.404	102.77
370.867	105.27
371.331	110.67
371.794	110.07
372.257	111.67
372.72	115.87
373.183	107.37
373.646	107.77
374.109	99.77
374.572	106.47
375.035	98.67
375.497	111.27
375.96	105.37
376.423	104.77
376.886	108.07
377.349	110.77
377.811	103.47
378.274	99.37
378.737	103.77
379.199	108.27
379.662	110.87
380.125	117.77
380.587	116.57
381.05	122.37
381.512	128.97
381.975	132.77
382.437	129.47
382.9	124.37
383.362	128.67
383.825	145.77
384.287	146.07
384.75	143.27
385.212	137.17
385.674	138.77
386.136	135.67
386.599	129.77
387.061	129.07
387.523	135.17
387.985	132.77
388.447	146.47
388.91	141.37
389.372	159.57
389.834	158.17
390.296	145.17
390.758	155.97
391.22	176.97
391.682	213.07
392.144	317.67
392.606	233.77
393.068	166.97
393.529	168.87
393.991	157.67
394.453	151.87
394.915	150.77
395.377	196.47
395.838	215.17
396.3	149.97
396.762	143.17
397.224	133.27
397.685	128.57
398.147	131.27
398.608	124.07
399.07	127.77
399.531	130.27
399.993	145.17
400.454	154.97
400.916	141.17
401.377	149.17
401.839	151.17
402.3	156.17
402.762	164.37
403.223	177.17
403.684	175.27
404.145	160.07
404.607	163.97
405.068	173.97
405.529	168.97
405.99	188.87
406.451	176.87
406.913	175.17
407.374	163.57
407.835	159.67
408.296	166.97
408.757	172.77
409.218	183.37
409.679	185.97
410.14	176.27
410.601	181.77
411.062	190.97
411.522	195.07
411.983	193.97
412.444	185.47
412.905	178.17
413.366	185.57
413.826	196.47
414.287	212.17
414.748	262.87
415.208	239.47
415.669	210.87
416.13	206.57
416.59	202.27
417.051	214.37
417.511	214.47
417.972	238.37
418.432	244.17
418.893	286.77
419.353	252.47
419.814	202.37
420.274	174.87
420.734	184.97
421.195	207.37
421.655	200.37
422.115	189.17
422.576	188.17
423.036	200.27
423.496	202.37
423.956	218.97
424.416	226.27
424.876	270.37
425.336	258.27
425.797	262.27
426.257	259.77
426.717	238.17
427.177	234.07
427.637	224.27
428.097	237.97
428.556	243.07
429.016	265.57
429.476	268.37
429.936	282.37
430.396	278.67
430.856	293.57
431.315	320.47
431.775	351.47
432.235	391.27
432.694	349.07
433.154	370.97
433.614	397.37
434.073	338.27
434.533	290.97
434.993	276.37
435.452	286.87
435.912	298.17
436.371	290.47
436.83	286.67
437.29	279.57
437.749	253.97
438.209	250.77
438.668	282.57
439.127	291.77
439.587	269.57
440.046	246.57
440.505	264.87
440.964	277.77
441.424	323.57
441.883	318.17
442.342	262.47
442.801	228.87
443.26	225.97
443.719	221.27
444.178	217.47
444.637	215.37
445.096	214.17
445.555	222.87
446.014	224.77
446.473	231.47
446.932	235.97
447.391	229.47
447.849	224.47
448.308	214.07
448.767	224.07
449.226	227.07
449.685	238.27
450.143	243.57
450.602	236.47
451.061	224.67
451.519	227.37
451.978	231.47
452.436	235.27
452.895	241.67
453.353	254.17
453.812	243.97
454.27	241.37
454.729	240.97
455.187	231.47
455.646	247.17
456.104	246.27
456.562	253.97
457.021	268.47
457.479	256.57
457.937	272.87
458.395	261.47
458.854	243.67
459.312	251.57
459.77	274.17
460.228	255.87
460.686	241.37
461.144	249.07
461.602	242.17
462.06	245.57
462.518	248.57
462.976	253.27
463.434	257.97
463.892	257.57
464.35	278.07
464.808	290.77
465.266	264.57
465.724	264.87
466.181	269.07
466.639	267.77
467.097	286.77
467.555	302.17
468.012	304.07
468.47	306.37
468.928	323.67
469.385	339.17
469.843	346.47
470.3	357.37
470.758	362.17
471.215	391.97
471.673	414.67
472.13	410.47
472.588	420.47
473.045	375.57
473.503	384.17
473.96	398.27
474.417	396.67
474.875	428.17
475.332	477.17
475.789	463.17
476.246	463.07
476.704	485.07
477.161	517.57
477.618	514.07
478.075	551.37
478.532	617.27
478.989	700.67
479.446	809.27
479.903	769.57
480.36	805.17
480.817	862.37
481.274	962.07
481.731	1065.47
482.188	1164.47
482.645	1302.57
483.102	1395.37
483.558	1544.07
484.015	1599.57
484.472	1560.57
484.929	1523.07
485.385	1453.57
485.842	1427.97
486.299	1359.87
486.755	1297.47
487.212	1086.87
487.668	919.17
488.125	855.07
488.582	778.47
489.038	730.07
489.494	703.57
489.951	675.37
490.407	657.87
490.864	642.77
491.32	627.27
491.776	637.07
492.233	631.47
492.689	609.77
493.145	598.07
493.602	587.77
494.058	605.77
494.514	605.27
494.97	638.37
495.426	642.47
495.882	614.77
496.338	599.97
496.794	613.17
497.251	607.47
497.707	624.37
498.163	632.87
498.618	633.07
499.074	633.97
499.53	667.17
499.986	664.37
500.442	649.37
500.898	630.87
501.354	626.37
501.809	634.87
502.265	641.27
502.721	660.47
503.177	666.67
503.632	670.27
504.088	667.27
504.543	714.77
504.999	702.87
505.455	641.67
505.91	617.57
506.366	625.77
506.821	610.77
507.277	614.07
507.732	610.67
508.187	617.77
508.643	624.97
509.098	625.27
509.553	654.27
510.009	659.57
510.464	658.07
510.919	677.27
511.375	692.57
511.83	697.97
512.285	724.07
512.74	743.27
513.195	778.47
513.65	757.07
514.105	750.17
514.56	761.37
515.015	783.37
515.47	792.57
515.925	767.27
516.38	779.97
516.835	781.57
517.29	773.07
517.745	771.57
518.2	749.07
518.655	744.17
519.109	736.87
519.564	734.97
520.019	722.47
520.474	710.17
520.928	715.67
521.383	703.97
521.838	708.07
522.292	704.57
522.747	697.17
523.201	697.67
523.656	695.17
524.11	688.87
524.565	687.87
525.019	685.77
525.474	706.77
525.928	693.67
526.382	684.37
526.837	688.17
527.291	690.77
527.745	694.17
528.2	691.07
528.654	677.27
529.108	673.47
529.562	691.37
530.016	685.27
530.47	684.17
530.925	683.57
531.379	690.97
531.833	700.67
532.287	690.07
532.741	692.87
533.195	686.77
533.649	698.07
534.103	708.17
534.556	698.87
535.01	696.47
535.464	687.37
535.918	707.87
536.372	701.47
536.826	704.37
537.279	696.47
537.733	704.87
538.187	711.57
538.64	702.87
539.094	712.67
539.548	723.67
540.001	718.17
540.455	716.77
540.908	721.27
541.362	737.07
541.815	738.77
542.269	747.77
542.722	751.67
543.175	751.97
543.629	764.87
544.082	776.47
544.536	781.47
544.989	772.07
545.442	779.77
545.895	776.67
546.349	779.87
546.802	780.57
547.255	783.57
547.708	795.27
548.161	799.07
548.614	811.57
549.067	817.97
549.52	806.67
549.973	795.97
550.426	796.17
550.879	787.17
551.332	789.77
551.785	805.37
552.238	797.17
552.691	808.47
553.144	819.07
553.596	823.77
554.049	856.57
554.502	873.97
554.955	899.97
555.407	894.17
555.86	886.77
556.313	873.97
556.765	863.87
557.218	865.07
557.67	869.47
558.123	858.17
558.576	862.07
559.028	868.37
559.48	859.57
559.933	855.97
560.385	825.37
560.838	799.37
561.29	772.67
561.742	764.57
562.195	759.37
562.647	749.97
563.099	765.67
563.551	773.17
564.004	779.07
564.456	769.47
564.908	757.87
565.36	741.57
565.812	726.37
566.264	715.87
566.716	715.47
567.168	711.07
567.62	728.57
568.072	703.67
568.524	692.87
568.976	680.77
569.428	666.47
569.88	666.57
570.332	671.77
570.784	672.67
571.235	682.47
571.687	677.67
572.139	692.27
572.59	709.07
573.042	704.87
573.494	694.07
573.945	695.87
574.397	671.57
574.849	685.27
575.3	687.67
575.752	669.07
576.203	657.87
576.655	680.47
577.106	675.47
577.557	670.97
578.009	667.07
578.46	661.17
578.912	653.57
579.363	654.77
579.814	656.27
580.265	663.07
580.717	661.87
581.168	659.37
581.619	675.77
582.07	671.97
582.521	671.87
582.972	666.77
583.423	683.27
583.875	683.07
584.326	700.37
584.777	740.77
585.227	835.87
585.678	922.37
586.129	1013.57
586.58	1094.87
587.031	1182.07
587.482	1354.37
587.933	1537.87
588.384	1329.17
588.834	985.07
589.285	797.77
589.736	781.17
590.186	768.27
590.637	761.17
591.088	737.27
591.538	730.27
591.989	727.27
592.439	725.97
592.89	720.67
593.34	708.77
593.791	713.07
594.241	699.07
594.692	712.27
595.142	700.77
595.593	697.37
596.043	705.57
596.493	713.27
596.943	720.47
597.394	721.07
597.844	712.07
598.294	719.77
598.744	747.37
599.195	767.57
599.645	820.67
600.095	859.07
600.545	907.77
600.995	955.07
601.445	1020.57
601.895	1078.57
602.345	1123.17
602.795	1107.87
603.245	1051.67
603.695	1003.67
604.145	948.57
604.594	905.97
605.044	855.17
605.494	791.27
605.944	744.97
606.393	738.27
606.843	719.57
607.293	726.27
607.743	729.17
608.192	745.87
608.642	752.37
609.091	770.97
609.541	767.37
609.99	766.27
610.44	766.97
610.889	724.67
611.339	707.77
611.788	684.97
612.238	697.27
612.687	722.07
613.136	717.87
613.586	736.57
614.035	735.07
614.484	753.27
614.933	759.17
615.383	757.27
615.832	751.57
616.281	721.67
616.73	681.47
617.179	671.97
617.628	651.67
618.077	633.97
618.526	614.07
618.975	614.17
619.424	610.37
619.873	602.57
620.322	616.47
620.771	604.27
621.22	601.87
621.669	590.67
622.118	585.67
622.567	576.67
623.015	568.27
623.464	569.27
623.913	562.47
624.361	551.57
624.81	547.47
625.259	548.57
625.707	548.67
626.156	553.77
626.604	564.57
627.053	558.57
627.501	560.57
627.95	564.07
628.398	573.27
628.847	566.67
629.295	567.67
629.744	568.27
630.192	553.57
630.64	570.67
631.089	575.47
631.537	587.47
631.985	591.57
632.433	596.07
632.881	607.37
633.33	662.17
633.778	638.17
634.226	567.07
634.674	568.27
635.122	593.37
635.57	600.97
636.018	634.47
636.466	581.37
636.914	562.87
637.362	566.87
637.81	571.57
638.258	567.67
638.705	582.77
639.153	605.57
639.601	620.87
640.049	636.67
640.497	663.07
640.944	703.67
641.392	639.87
641.84	610.77
642.287	584.97
642.735	574.07
643.182	570.87
643.63	570.77
644.078	573.27
644.525	597.07
644.973	604.67
645.42	597.47
645.867	632.07
646.315	646.87
646.762	664.67
647.21	688.67
647.657	717.97
648.104	754.37
648.551	770.37
648.999	844.67
649.446	920.37
649.893	1017.47
650.34	1171.37
650.787	1419.07
651.234	1764.47
651.682	2313.87
652.129	3163.67
652.576	4590.97
653.023	6782.57
653.47	9241.27
653.917	11451.87
654.363	13136.77
654.81	14415.97
655.257	13745.97
655.704	8982.97
656.151	5312.17
656.598	3437.77
657.044	2424.17
657.491	1856.57
657.938	1490.07
658.385	1246.67
658.831	1082.67
659.278	962.17
659.724	849.57
660.171	789.47
660.618	728.67
661.064	698.07
661.511	670.47
661.957	665.17
662.404	650.77
662.85	653.97
663.296	623.37
663.743	562.17
664.189	545.07
664.635	536.17
665.082	527.67
665.528	529.17
665.974	515.27
666.42	505.27
666.867	511.57
667.313	499.87
667.759	484.57
668.205	476.87
668.651	494.07
669.097	495.67
669.543	513.07
669.989	470.77
670.435	444.37
670.881	447.37
671.327	447.07
671.773	465.57
672.219	487.87
672.665	537.17
673.11	587.97
673.556	630.17
674.002	663.57
674.448	652.67
674.893	539.17
675.339	472.67
675.785	443.27
676.23	415.27
676.676	392.97
677.122	383.57
677.567	366.17
678.013	358.57
678.458	364.17
678.904	358.07
679.349	347.17
679.794	355.17
680.24	348.87
680.685	348.07
681.131	340.47
681.576	351.87
682.021	347.97
682.466	343.77
682.912	345.87
683.357	355.47
683.802	386.07
684.247	411.97
684.692	460.47
685.137	490.27
685.583	530.17
686.028	556.17
686.473	522.57
686.918	438.57
687.363	418.77
687.807	392.97
688.252	367.17
688.697	352.57
689.142	345.07
689.587	335.77
690.032	327.37
690.477	346.67
690.921	352.37
691.366	380.07
691.811	403.17
692.255	431.07
692.7	457.47
693.145	507.97
693.589	710.07
694.034	1160.37
694.478	1548.87
694.923	1718.57
695.367	2221.67
695.812	1180.77
696.256	500.47
696.701	364.07
697.145	348.77
697.59	324.87
698.034	313.77
698.478	328.97
698.922	329.57
699.367	327.27
699.811	335.07
700.255	352.07
700.699	383.27
701.143	427.27
701.588	479.87
702.032	514.87
702.476	511.47
702.92	490.27
703.364	490.07
703.808	656.97
704.252	1053.87
704.696	1455.87
705.14	1650.37
705.584	2098.37
706.027	1053.47
706.471	512.07
706.915	390.87
707.359	349.97
707.803	319.57
708.246	311.07
708.69	309.77
709.134	312.07
709.577	303.97
710.021	322.67
710.465	307.77
710.908	303.07
711.352	302.07
711.795	310.87
712.239	350.47
712.682	385.07
713.126	412.57
713.569	463.87
714.012	369.27
714.456	322.37
714.899	305.77
715.342	275.97
715.786	256.47
716.229	260.27
716.672	257.67
717.115	241.47
717.558	247.77
718.002	251.17
718.445	268.67
718.888	282.77
719.331	290.37
719.774	304.17
720.217	305.07
720.66	293.07
721.103	269.07
721.546	257.97
721.989	248.97
722.432	229.97
722.874	238.37
723.317	230.17
723.76	234.27
724.203	265.27
724.645	327.07
725.088	449.57
725.531	564.77
725.974	632.07
726.416	545.77
726.859	305.37
727.301	245.07
727.744	235.57
728.187	229.57
728.629	240.77
729.071	245.07
729.514	252.47
729.956	275.07
730.399	278.27
730.841	290.47
731.283	267.67
731.726	259.67
732.168	265.57
732.61	263.07
733.053	289.17
733.495	314.67
733.937	347.67
734.379	396.37
734.821	437.57
735.263	547.17
735.705	846.97
736.148	1615.87
736.59	2558.97
737.032	2980.17
737.474	2435.97
737.916	796.47
738.357	425.57
738.799	325.07
739.241	303.27
739.683	289.67
740.125	296.37
740.567	298.07
741.008	311.57
741.45	314.17
741.892	321.57
742.334	345.07
742.775	358.47
743.217	339.17
743.658	271.47
744.1	252.77
744.542	263.47
744.983	310.27
745.425	340.07
745.866	345.47
746.307	290.67
746.749	281.27
747.19	327.37
747.632	464.17
748.073	916.87
748.514	1904.37
748.956	2841.97
749.397	3566.87
749.838	2939.67
750.279	2909.47
750.72	1464.87
751.162	547.37
751.603	321.97
752.044	250.27
752.485	218.57
752.926	212.97
753.367	200.47
753.808	192.07
754.249	188.37
754.69	188.97
755.131	185.37
755.572	178.27
756.013	178.37
756.453	191.27
756.894	188.47
757.335	189.17
757.776	190.77
758.216	193.97
758.657	197.77
759.098	196.07
759.538	224.07
759.979	268.97
760.42	369.97
760.86	728.87
761.301	1876.97
761.741	4466.07
762.182	6285.77
762.622	4393.57
763.063	1293.57
763.503	538.47
763.943	339.07
764.384	359.57
764.824	415.77
765.264	442.37
765.705	310.17
766.145	217.27
766.585	186.27
767.025	182.07
767.465	195.67
767.906	249.37
768.346	326.77
768.786	356.37
769.226	270.77
769.666	334.77
770.106	642.97
770.546	1593.37
770.986	2590.67
771.426	2297.47
771.866	777.87
772.306	325.57
772.745	206.47
773.185	176.27
773.625	173.07
774.065	165.37
774.505	201.37
774.944	330.27
775.384	724.97
775.824	1260.87
776.263	1223.57
776.703	528.17
777.142	224.47
777.582	158.77
778.021	140.77
778.461	144.77
778.9	133.27
779.34	133.17
779.779	114.67
780.219	111.37
780.658	109.47
781.097	107.57
781.537	112.17
781.976	105.07
782.415	115.67
782.855	106.47
783.294	104.07
783.733	104.57
784.172	112.17
784.611	104.07
785.05	104.17
785.489	118.37
785.928	122.67
786.367	120.47
786.806	119.17
787.245	132.27
787.684	135.67
788.123	145.27
788.562	131.47
789.001	128.17
789.44	117.07
789.879	122.27
790.317	120.47
790.756	123.77
791.195	134.37
791.634	149.47
792.072	206.57
792.511	371.17
792.95	1031.97
793.388	2129.77
793.827	1879.57
794.265	663.77
794.704	281.37
795.142	183.67
795.581	151.37
796.019	131.87
796.458	122.87
796.896	124.17
797.334	135.17
797.773	152.47
798.211	223.47
798.649	447.57
799.087	1030.17
799.526	1594.17
799.964	2015.67
800.402	1948.57
800.84	758.27
801.278	299.97
801.716	191.67
802.154	153.97
802.592	142.97
803.03	138.97
803.468	134.47
803.906	149.57
804.344	143.37
804.782	141.77
805.22	137.97
805.658	124.77
806.096	148.57
806.533	159.97
806.971	176.27
807.409	212.77
807.847	321.17
808.284	679.97
808.722	1895.87
809.16	3238.87
809.597	3165.97
810.035	5377.17
810.472	5552.27
810.91	2042.47
811.347	784.47
811.785	399.57
812.222	257.87
812.66	193.37
813.097	158.07
813.535	145.47
813.972	126.77
814.409	116.07
814.846	109.67
815.284	114.87
815.721	102.77
816.158	107.67
816.595	117.67
817.032	180.87
817.47	191.97
817.907	167.17
818.344	157.87
818.781	126.57
819.218	104.67
819.655	119.77
820.092	176.57
820.529	210.47
820.966	174.17
821.403	137.27
821.839	105.77
822.276	102.37
822.713	118.07
823.15	134.57
823.587	115.97
824.023	138.37
824.46	304.77
824.897	903.67
825.333	1319.47
825.77	564.87
826.206	226.07
826.643	128.37
827.08	102.47
827.516	78.07
827.953	78.17
828.389	81.87
828.825	71.27
829.262	64.07
829.698	63.17
830.135	62.37
830.571	64.27
831.007	65.57
831.443	69.07
831.88	63.87
832.316	66.57
832.752	65.17
833.188	62.37
833.624	60.27
834.06	64.47
834.497	66.97
834.933	69.37
835.369	71.97
835.805	70.87
836.241	76.47
836.677	80.37
837.112	99.37
837.548	105.27
837.984	141.47
838.42	201.57
838.856	506.87
839.292	1532.57
839.727	2257.57
840.163	1056.27
840.599	938.57
841.034	2028.27
841.47	2052.97
841.906	759.87
842.341	337.67
842.777	234.57
843.212	333.57
843.648	311.27
844.083	158.07
844.519	99.37
844.954	82.07
845.39	57.37
845.825	55.57
846.261	54.57
846.696	56.87
847.131	52.17
847.566	63.07
848.002	49.27
848.437	49.97
848.872	65.77
849.307	64.67
849.742	79.27
850.177	183.17
850.613	569.87
851.048	858.47
851.483	365.57
851.918	154.27
852.353	92.07
852.788	63.47
853.223	55.87
853.657	57.07
854.092	51.07
854.527	45.67
854.962	40.47
855.397	48.67
855.832	54.37
856.266	43.47
856.701	47.07
857.136	35.87
857.57	45.77
858.005	48.87
858.44	55.97
858.874	41.87
859.309	54.67
859.743	45.17
860.178	43.67
860.612	39.87
861.047	52.77
861.481	69.97
861.915	68.67
862.35	48.77
862.784	32.87
863.218	40.17
863.653	33.57
864.087	46.17
864.521	52.17
864.955	71.77
865.39	155.37
865.824	170.57
866.258	116.27
866.692	157.57
867.126	169.87
867.56	103.87
867.994	51.27
868.428	41.17
868.862	50.47
869.296	50.77
869.73	52.77
870.164	48.77
870.598	44.97
871.031	35.57
871.465	31.77
871.899	34.77
872.333	26.17
872.766	31.17
873.2	25.87
873.634	29.77
874.067	26.07
874.501	29.37
874.935	35.57
875.368	35.37
875.802	25.27
876.235	17.37
876.669	20.47
877.102	21.77
877.535	25.77
877.969	23.67
878.402	26.67
878.836	18.97
879.269	33.27
879.702	23.07
880.135	21.87
880.569	16.27
881.002	27.47
881.435	21.07
881.868	15.47
882.301	22.47
882.734	20.47
883.167	24.87
883.601	21.07
884.034	20.17
884.467	10.37
884.899	18.37
885.332	17.37
885.765	17.57
886.198	17.77
886.631	17.07
887.064	16.87
887.497	23.77
887.929	25.27
888.362	13.57
888.795	13.37
889.228	13.77
889.66	24.67
890.093	21.07
890.526	19.67
890.958	15.07
891.391	16.77
891.823	26.67
892.256	13.87
892.688	14.17
893.121	18.67
893.553	17.57
893.985	26.57
894.418	22.87
894.85	13.27
895.282	14.57
895.715	13.57
896.147	17.97
896.579	20.07
897.011	11.07
897.444	13.17
897.876	10.57
898.308	18.97
898.74	20.47
899.172	9.87
899.604	23.87
900.036	19.97
900.468	14.37
900.9	11.17
901.332	22.57
901.764	14.37
902.196	20.27
902.628	16.07
903.06	19.27
903.491	28.47
903.923	17.17
904.355	26.77
904.787	27.87
905.218	22.27
905.65	18.77
906.082	12.47
906.513	13.37
906.945	15.87
907.376	9.57
907.808	19.97
908.239	19.37
908.671	23.07
909.102	21.07
909.534	22.77
909.965	54.77
910.397	90.87
910.828	312.17
911.259	460.07
911.691	213.57
912.122	104.07
912.553	49.57
912.984	33.17
913.415	25.97
913.847	22.47
914.278	19.57
914.709	11.27
915.14	19.07
915.571	16.57
916.002	12.67
916.433	17.17
916.864	18.97
917.295	15.57
917.726	20.47
918.157	14.07
918.587	26.67
919.018	27.97
919.449	24.07
919.88	24.67
920.311	24.77
920.741	44.47
921.172	156.27
921.603	145.87
922.033	74.57
922.464	48.47
922.895	25.87
923.325	21.67
923.756	18.77
924.186	17.17
924.617	22.57
925.047	40.27
925.478	54.27
925.908	48.37
926.338	21.37
926.769	23.07
927.199	17.17
927.629	9.37
928.06	12.27
928.49	14.27
928.92	14.57
929.35	10.17
929.78	14.17
930.21	5.67
930.641	4.87
931.071	10.67
931.501	6.07
931.931	9.27
932.361	6.87
932.791	-3.23
933.221	6.97
933.651	5.57
934.08	13.37
934.51	32.17
934.94	11.87
935.37	7.47
935.8	9.27
936.229	6.57
936.659	11.07
937.089	4.37
937.519	13.77
937.948	21.47
938.378	14.47
938.807	4.17
939.237	4.87
939.666	6.17
940.096	-1.13
940.525	6.27
940.955	1.27
941.384	-3.63
941.814	-5.83
942.243	3.27
942.672	6.87
943.102	-3.43
943.531	-3.33
943.96	5.97
944.39	9.07
944.819	-3.93
945.248	2.97
945.677	3.27
946.106	7.87
946.535	3.87
946.964	-0.33
947.393	3.67
947.822	2.87
948.251	-1.33
948.68	4.37
949.109	10.67
949.538	12.47
949.967	1.97
950.396	0.17
950.825	-2.13
951.254	-3.03
951.682	-6.03
952.111	4.87
952.54	4.87
952.969	-4.63
953.397	-3.43
953.826	-0.43
954.254	-5.93
954.683	7.37
955.112	-7.03
955.54	1.97
955.969	4.27
956.397	1.47
956.826	-2.53
957.254	3.47
957.682	-2.63
958.111	2.87
958.539	-2.03
958.967	6.77
959.396	1.17
959.824	4.17
960.252	-0.63
960.68	-8.23
961.109	-6.63
961.537	-5.33
961.965	-1.03
962.393	4.17
962.821	1.47
963.249	0.57
963.677	5.87
964.105	4.47
964.533	41.67
964.961	39.77
965.389	22.67
965.817	11.47
966.245	5.27
966.672	-4.53
967.1	-7.93
967.528	2.77
967.956	-3.63
968.383	0.17
968.811	1.07
969.239	-4.83
969.666	-6.43
970.094	-3.53
970.522	-0.13
970.949	1.27
971.377	-6.23
971.804	-4.73
972.232	-5.43
972.659	-0.73
973.087	-2.33
973.514	-8.43
973.941	-7.53
974.369	-1.73
974.796	7.27
975.223	-2.73
975.651	-1.03
976.078	0.77
976.505	1.67
976.932	1.67
977.359	11.27
977.786	13.47
978.214	3.27
978.641	-1.33
979.068	-8.23
979.495	-4.33
979.922	-0.33
980.349	-3.43
980.776	1.87
981.202	0.07
981.629	5.87
982.056	1.97
982.483	-1.33
982.91	1.07
983.337	-1.73
983.763	2.27
984.19	-3.13
984.617	1.17
985.043	-7.13
985.47	-1.93
985.897	-2.63
986.323	-6.53
986.75	0.37
987.176	2.57
987.603	-4.43
988.029	-4.63
988.456	-7.53
988.882	-0.83
989.308	-5.83
989.735	-4.23
990.161	1.87
990.587	-1.93
991.014	-3.03
991.44	0.47
991.866	-6.13
992.292	-6.13
992.719	-7.03
993.145	4.67
993.571	-13.93
993.997	-5.63
994.423	-2.73
994.849	-3.03
995.275	-0.33
995.701	1.07
996.127	-4.73
996.553	1.27
996.979	1.37
997.405	-3.13
997.83	-4.43
998.256	-5.83
998.682	-1.83
999.108	-13.43
999.534	0.37
999.959	-1.23
1000.385	-3.93
1000.811	0.47
1001.236	-9.93
1001.662	-9.33
1002.087	-12.83
1002.513	-0.53
1002.938	2.07
1003.364	-2.43
1003.789	0.27
1004.215	2.47
1004.64	-1.43
1005.066	3.57
1005.491	4.47
1005.916	-2.13
1006.342	-3.03
1006.767	-10.43
1007.192	0.47
1007.617	-1.93
1008.042	-6.13
1008.468	-4.33
1008.893	-5.03
1009.318	-6.13
1009.743	-5.23
1010.168	0.87
1010.593	0.07
1011.018	-7.43
1011.443	0.97
1011.868	-2.43
1012.293	-5.53
1012.718	-7.73
1013.143	-4.03
1013.567	-0.53
1013.992	-3.53
1014.417	-14.93
1014.842	1.17
1015.267	-11.53
1015.691	-10.63
1016.116	1.17
1016.541	-3.73
1016.965	0.17
1017.39	-2.43
1017.814	-3.33
1018.239	0.47
1018.663	-8.73
1019.088	-13.33
1019.512	-6.43
1019.937	-3.33
1020.361	-2.13
1020.785	-9.13
1021.21	-4.13
1021.634	-7.13
1022.058	-3.03
1022.483	2.37
1022.907	-6.83
1023.331	-5.63
1023.755	-3.63
1024.179	-3.13
1024.604	-5.53
1025.028	-8.43
1025.452	-3.43
1025.876	-0.93
1026.3	6.37
1026.724	-13.03
1027.148	-7.23
1027.572	-8.33
1027.996	-7.13
1028.42	-1.93
1028.843	-2.93
1029.267	-7.33
1029.691	1.37
1030.115	-7.73
1030.539	-9.93
1030.962	-10.73
1031.386	-7.23
1031.81	1.27
1032.233	1.17
1032.657	-1.23
1033.08	2.77
1033.504	-8.33
1033.927	-6.73
1034.351	-4.53
1034.774	-3.33
1035.198	-9.83
1035.621	-9.63
1036.045	-4.23
1036.468	0.37
1036.891	-4.83
1037.315	-11.53
1037.738	-15.53
1038.161	-1.83
1038.584	-6.33
1039.008	-5.43
1039.431	2.57
1039.854	1.97
1040.277	-8.33
1040.7	-6.73
1041.123	2.37
1041.546	-5.43
1041.969	-6.73
1042.392	-7.53
1042.815	1.67
1043.238	0.97
1043.661	-0.33
1044.084	-10.23
1044.507	-6.83
1044.93	-7.33
1045.352	-8.53
1045.775	1.37
1046.198	-0.03
1046.621	1.37
1047.043	-1.03
1047.466	0.67
1047.889	-1.73
1048.311	-0.43
1048.734	-9.03
1049.156	-7.53
1049.579	-10.63
1050.001	-1.63
1050.424	-2.63
1050.846	-8.23
1051.269	-2.03
1051.691	-7.13
1052.113	-3.73
1052.536	-1.63
1052.958	0.97
1053.38	-3.63
1053.802	-13.13
1054.225	-0.03
1054.647	-8.53
1055.069	-9.73
1055.491	1.97
1055.913	-8.13
1056.335	-1.03
1056.757	-2.63
1057.179	-9.23
1057.601	-4.13
1058.023	-6.23
1058.445	0.47
1058.867	-4.13
1059.289	-5.53
1059.711	-8.13
1060.133	-3.73
1060.555	-4.73
1060.976	-10.03
1061.398	-8.63
1061.82	-4.83
1062.241	-3.83
1062.663	-12.83
1063.085	-5.73
1063.506	-2.73
1063.928	-4.83
1064.35	-3.03
1064.771	-15.73
1065.193	-2.23
1065.614	-10.03
1066.035	-5.53
1066.457	-3.93
1066.878	-5.83
1067.3	-9.43
1067.721	-3.83
1068.142	-2.23
1068.564	-8.73
1068.985	-5.03
1069.406	-6.73
1069.827	-5.73
1070.248	1.37
1070.67	-6.53
1071.091	-8.63
1071.512	-4.43
1071.933	-7.53
1072.354	-5.13
1072.775	-6.83
1073.196	-5.93
1073.617	-4.53
1074.038	-11.73
1074.459	-7.63
1074.88	-8.93
1075.3	0.07
1075.721	-10.53
1076.142	-1.43
1076.563	-3.43
1076.983	-14.13
1077.404	-9.23
1077.825	-7.23
1078.246	-8.23
1078.666	-13.23
1079.087	-4.73
1079.507	-2.53
1079.928	-2.23
1080.348	-2.53
1080.769	-2.83
1081.189	-2.93
1081.61	-1.03
1082.03	-6.23
1082.451	-10.23
1082.871	-6.03
1083.291	-4.63
1083.711	-7.83
1084.132	-7.93
1084.552	-11.63
1084.972	-1.33
1085.392	-8.63
1085.813	-9.93
1086.233	-12.03
1086.653	-4.23
1087.073	-3.03
1087.493	-6.73
1087.913	-7.93
1088.333	-3.93
1088.753	-1.73
1089.173	-1.63
1089.593	-2.93
1090.013	-0.33
1090.433	-3.03
1090.852	-5.33
1091.272	-4.23
1091.692	-2.63
1092.112	-4.03
1092.531	-7.63
1092.951	-8.03
1093.371	3.67
1093.79	1.27
1094.21	-4.33
1094.63	-6.83
1095.049	-7.73
1095.469	-5.93
1095.888	-3.43
1096.308	4.77
1096.727	-1.43
1097.146	-9.13
1097.566	-2.83
1097.985	-9.63
1098.405	-1.43
1098.824	-1.73
1099.243	-11.43
1099.662	-8.03
1100.082	0.07
1100.501	-1.83
1100.92	-11.13
1101.339	-10.73
1101.758	-12.33
