Data from 20171114-ORNL-Ar_H_NY_Subt18_08-06-38-750.txt Node
Date: Tue Nov 14 08:06:38 EST 2017
User: Ender
Spectrometer: HR+D1039
Trigger mode: 0
Integration Time (sec): 2.730000E-2
Scans to average: 10
Electric dark correction enabled: true
Nonlinearity correction enabled: false
Boxcar width: 0
XAxis mode: Wavelengths
Number of Pixels in Spectrum: 2048
>>>>>Begin Spectral Data<<<<<
187.836	-3.27
188.309	-3.27
188.782	-3.27
189.255	2.83
189.728	-1.67
190.201	6.63
190.674	4.63
191.147	-1.27
191.619	-1.17
192.092	-2.17
192.565	-0.17
193.038	-3.77
193.511	1.53
193.984	5.13
194.456	-3.57
194.929	0.13
195.402	-2.07
195.874	-1.77
196.347	-0.87
196.82	-3.67
197.292	2.23
197.765	-2.97
198.237	-2.87
198.71	1.33
199.182	1.93
199.655	6.93
200.127	3.43
200.6	-2.77
201.072	3.33
201.544	-4.17
202.017	-4.87
202.489	-1.07
202.961	-4.67
203.433	-3.57
203.906	-6.37
204.378	-3.37
204.85	-3.67
205.322	-10.47
205.794	1.63
206.266	0.03
206.739	-6.77
207.211	2.63
207.683	-5.57
208.155	-6.37
208.627	-7.97
209.099	-8.87
209.57	-7.57
210.042	-1.77
210.514	-2.57
210.986	-2.87
211.458	-9.07
211.93	-5.87
212.402	6.13
212.873	-3.17
213.345	-15.97
213.817	-10.47
214.288	-7.87
214.76	-4.87
215.232	-2.37
215.703	-1.87
216.175	-0.27
216.646	-9.17
217.118	-8.77
217.589	-3.17
218.061	1.93
218.532	-7.87
219.004	-4.87
219.475	-1.77
219.946	-0.77
220.418	-8.07
220.889	-0.47
221.36	4.33
221.832	-2.37
222.303	-2.37
222.774	-4.77
223.245	-6.47
223.717	-2.87
224.188	-9.47
224.659	-11.17
225.13	-9.17
225.601	1.43
226.072	-2.67
226.543	4.13
227.014	-0.97
227.485	-0.17
227.956	-3.77
228.427	-3.27
228.898	1.13
229.369	2.53
229.839	-4.27
230.31	-8.27
230.781	-1.47
231.252	-0.97
231.722	-3.77
232.193	4.73
232.664	-8.57
233.135	0.03
233.605	-1.47
234.076	-1.87
234.546	2.63
235.017	6.23
235.487	1.03
235.958	-1.27
236.428	-4.47
236.899	-0.77
237.369	5.53
237.84	-5.17
238.31	2.13
238.78	-2.97
239.251	-9.37
239.721	-3.47
240.191	-0.27
240.662	-2.87
241.132	-0.97
241.602	-4.07
242.072	2.13
242.542	6.03
243.013	-7.57
243.483	-1.07
243.953	4.13
244.423	0.43
244.893	-1.97
245.363	1.93
245.833	0.83
246.303	-3.47
246.773	4.83
247.243	0.83
247.712	-0.67
248.182	-1.87
248.652	3.13
249.122	-6.37
249.592	4.63
250.061	4.33
250.531	5.63
251.001	0.83
251.471	4.83
251.94	8.93
252.41	6.33
252.879	-1.07
253.349	9.53
253.818	4.23
254.288	10.03
254.757	1.33
255.227	-2.17
255.696	8.03
256.166	0.33
256.635	7.43
257.105	7.63
257.574	0.53
258.043	0.73
258.513	1.83
258.982	1.43
259.451	-3.67
259.92	3.63
260.389	6.43
260.859	7.93
261.328	6.03
261.797	7.63
262.266	4.43
262.735	7.83
263.204	7.63
263.673	-2.47
264.142	8.23
264.611	-1.27
265.08	0.03
265.549	1.13
266.018	1.13
266.487	0.53
266.955	2.03
267.424	1.63
267.893	7.83
268.362	3.53
268.83	4.93
269.299	6.83
269.768	3.63
270.236	1.83
270.705	-1.87
271.174	7.13
271.642	7.43
272.111	9.03
272.579	11.73
273.048	6.33
273.516	12.53
273.985	9.83
274.453	16.33
274.922	19.33
275.39	12.23
275.858	3.83
276.327	14.63
276.795	14.13
277.263	9.73
277.731	16.03
278.2	13.53
278.668	12.13
279.136	13.83
279.604	2.43
280.072	9.43
280.54	15.13
281.008	10.93
281.477	8.83
281.945	10.13
282.413	13.53
282.881	18.83
283.348	8.93
283.816	18.83
284.284	14.23
284.752	16.23
285.22	14.13
285.688	13.73
286.156	12.43
286.623	25.63
287.091	18.33
287.559	17.23
288.026	13.53
288.494	11.23
288.962	3.73
289.429	8.23
289.897	19.43
290.364	13.03
290.832	15.83
291.3	13.43
291.767	20.03
292.234	13.03
292.702	8.53
293.169	22.63
293.637	18.03
294.104	20.23
294.571	14.13
295.039	13.03
295.506	15.63
295.973	17.03
296.44	18.83
296.908	19.63
297.375	18.83
297.842	24.43
298.309	16.33
298.776	15.63
299.243	16.73
299.71	13.83
300.177	25.53
300.644	22.03
301.111	22.83
301.578	22.93
302.045	18.73
302.512	24.03
302.979	27.73
303.446	28.43
303.913	19.03
304.379	22.53
304.846	32.13
305.313	32.73
305.78	27.13
306.246	30.13
306.713	33.43
307.18	23.93
307.646	28.33
308.113	31.33
308.579	33.53
309.046	24.03
309.512	26.83
309.979	17.83
310.445	28.33
310.912	35.83
311.378	34.13
311.845	34.53
312.311	31.43
312.777	37.73
313.244	32.53
313.71	38.43
314.176	29.13
314.642	29.03
315.109	34.83
315.575	36.73
316.041	41.53
316.507	35.13
316.973	29.83
317.439	38.23
317.905	37.43
318.371	35.63
318.837	34.73
319.303	33.53
319.769	38.93
320.235	39.43
320.701	39.23
321.167	39.23
321.633	36.73
322.099	39.93
322.564	38.73
323.03	39.03
323.496	40.83
323.962	43.13
324.427	37.23
324.893	45.33
325.359	46.13
325.824	38.83
326.29	47.53
326.755	45.73
327.221	44.53
327.686	43.13
328.152	49.83
328.617	45.13
329.083	55.13
329.548	56.63
330.014	49.43
330.479	47.93
330.944	44.13
331.41	45.13
331.875	46.93
332.34	45.03
332.805	46.63
333.271	49.03
333.736	44.83
334.201	54.73
334.666	49.43
335.131	52.53
335.596	55.33
336.061	54.23
336.526	40.13
336.991	55.23
337.456	58.23
337.921	50.23
338.386	47.23
338.851	48.13
339.316	47.33
339.781	48.93
340.246	54.03
340.711	54.43
341.175	53.83
341.64	45.43
342.105	59.33
342.569	58.63
343.034	58.53
343.499	60.73
343.963	62.83
344.428	67.43
344.893	69.43
345.357	69.33
345.822	70.13
346.286	68.53
346.751	75.43
347.215	71.13
347.679	79.03
348.144	103.03
348.608	88.43
349.073	82.93
349.537	79.73
350.001	82.73
350.465	93.33
350.93	89.13
351.394	84.13
351.858	82.13
352.322	91.93
352.786	89.13
353.25	97.93
353.715	122.43
354.179	106.23
354.643	125.93
355.107	128.33
355.571	110.23
356.035	104.23
356.498	123.93
356.962	118.33
357.426	133.83
357.89	120.03
358.354	93.73
358.818	87.13
359.281	94.73
359.745	86.33
360.209	83.53
360.673	79.53
361.136	84.23
361.6	87.73
362.064	90.73
362.527	96.73
362.991	96.33
363.454	84.83
363.918	80.03
364.381	91.03
364.845	92.03
365.308	95.03
365.772	92.33
366.235	94.03
366.698	93.03
367.162	92.43
367.625	85.23
368.088	88.43
368.552	98.93
369.015	93.43
369.478	97.33
369.941	101.73
370.404	93.93
370.867	102.63
371.331	108.73
371.794	115.13
372.257	108.13
372.72	113.63
373.183	109.33
373.646	97.63
374.109	109.53
374.572	112.63
375.035	111.23
375.497	116.13
375.96	113.13
376.423	116.13
376.886	122.63
377.349	117.53
377.811	110.93
378.274	115.83
378.737	109.93
379.199	127.33
379.662	116.53
380.125	129.23
380.587	119.33
381.05	115.33
381.512	127.63
381.975	129.53
382.437	131.23
382.9	127.13
383.362	137.03
383.825	140.33
384.287	136.73
384.75	127.43
385.212	131.33
385.674	144.73
386.136	142.43
386.599	131.63
387.061	133.83
387.523	130.63
387.985	138.53
388.447	146.13
388.91	144.33
389.372	139.13
389.834	137.23
390.296	133.73
390.758	143.93
391.22	147.23
391.682	157.23
392.144	171.33
392.606	155.13
393.068	152.53
393.529	165.53
393.991	151.53
394.453	140.93
394.915	149.13
395.377	145.93
395.838	150.43
396.3	147.43
396.762	152.03
397.224	146.63
397.685	135.23
398.147	149.23
398.608	146.63
399.07	138.83
399.531	147.93
399.993	157.13
400.454	165.33
400.916	156.83
401.377	158.23
401.839	164.53
402.3	172.53
402.762	187.03
403.223	188.03
403.684	182.23
404.145	177.03
404.607	173.63
405.068	176.73
405.529	185.93
405.99	198.83
406.451	188.23
406.913	181.53
407.374	178.73
407.835	174.73
408.296	176.33
408.757	185.73
409.218	201.73
409.679	198.73
410.14	187.83
410.601	190.53
411.062	195.93
411.522	197.33
411.983	197.43
412.444	188.13
412.905	199.53
413.366	199.83
413.826	220.83
414.287	235.03
414.748	287.93
415.208	269.93
415.669	243.73
416.13	225.33
416.59	231.03
417.051	237.23
417.511	250.33
417.972	262.73
418.432	271.93
418.893	320.33
419.353	270.83
419.814	222.43
420.274	208.73
420.734	200.53
421.195	216.73
421.655	213.03
422.115	209.53
422.576	217.63
423.036	222.33
423.496	226.53
423.956	245.13
424.416	253.53
424.876	298.33
425.336	293.33
425.797	289.53
426.257	278.33
426.717	264.53
427.177	249.93
427.637	243.83
428.097	253.43
428.556	261.73
429.016	287.03
429.476	285.63
429.936	295.83
430.396	300.23
430.856	304.93
431.315	337.33
431.775	369.03
432.235	406.03
432.694	371.73
433.154	388.23
433.614	424.23
434.073	359.33
434.533	307.53
434.993	292.23
435.452	309.43
435.912	314.13
436.371	315.03
436.83	303.73
437.29	289.83
437.749	274.83
438.209	267.63
438.668	306.63
439.127	319.33
439.587	289.53
440.046	274.73
440.505	295.23
440.964	306.03
441.424	356.73
441.883	350.13
442.342	294.93
442.801	251.33
443.26	251.43
443.719	248.93
444.178	245.93
444.637	230.43
445.096	245.53
445.555	245.43
446.014	259.03
446.473	258.03
446.932	257.83
447.391	251.13
447.849	260.43
448.308	246.83
448.767	252.93
449.226	258.33
449.685	268.03
450.143	274.23
450.602	263.13
451.061	255.73
451.519	260.93
451.978	254.33
452.436	259.13
452.895	268.63
453.353	277.93
453.812	274.03
454.27	268.93
454.729	266.23
455.187	270.33
455.646	278.63
456.104	276.93
456.562	290.63
457.021	304.83
457.479	283.23
457.937	299.13
458.395	297.93
458.854	276.63
459.312	279.83
459.77	299.33
460.228	287.43
460.686	276.03
461.144	273.03
461.602	273.03
462.06	277.93
462.518	285.03
462.976	291.53
463.434	292.03
463.892	293.93
464.35	309.43
464.808	318.83
465.266	298.43
465.724	296.33
466.181	303.13
466.639	302.73
467.097	325.03
467.555	345.53
468.012	351.23
468.47	355.23
468.928	368.03
469.385	386.93
469.843	384.93
470.3	378.43
470.758	402.33
471.215	440.33
471.673	455.53
472.13	453.03
472.588	464.13
473.045	405.63
473.503	424.13
473.96	439.53
474.417	451.73
474.875	475.53
475.332	522.43
475.789	515.83
476.246	523.93
476.704	543.13
477.161	557.03
477.618	587.83
478.075	623.03
478.532	673.93
478.989	756.53
479.446	874.33
479.903	830.63
480.36	853.23
480.817	913.83
481.274	1004.13
481.731	1098.43
482.188	1197.23
482.645	1322.13
483.102	1421.93
483.558	1539.83
484.015	1584.93
484.472	1572.33
484.929	1511.93
485.385	1476.13
485.842	1448.13
486.299	1401.53
486.755	1337.83
487.212	1144.73
487.668	973.93
488.125	900.73
488.582	831.43
489.038	797.63
489.494	766.23
489.951	745.63
490.407	728.03
490.864	710.83
491.32	701.03
491.776	701.63
492.233	704.63
492.689	664.93
493.145	670.53
493.602	666.43
494.058	675.93
494.514	672.63
494.97	699.33
495.426	721.63
495.882	693.43
496.338	681.63
496.794	687.73
497.251	680.73
497.707	703.23
498.163	700.33
498.618	704.83
499.074	714.03
499.53	734.03
499.986	735.33
500.442	709.63
500.898	696.13
501.354	680.03
501.809	681.73
502.265	689.83
502.721	701.43
503.177	702.33
503.632	704.83
504.088	711.83
504.543	734.13
504.999	760.83
505.455	727.83
505.91	706.13
506.366	707.03
506.821	698.53
507.277	699.53
507.732	698.63
508.187	701.13
508.643	696.83
509.098	705.43
509.553	731.33
510.009	731.43
510.464	739.73
510.919	765.23
511.375	768.03
511.83	787.83
512.285	799.53
512.74	835.63
513.195	866.23
513.65	851.03
514.105	845.23
514.56	850.23
515.015	873.93
515.47	887.23
515.925	851.43
516.38	877.23
516.835	878.73
517.29	866.03
517.745	856.53
518.2	848.63
518.655	833.13
519.109	823.83
519.564	831.73
520.019	807.53
520.474	819.03
520.928	805.03
521.383	795.03
521.838	783.33
522.292	793.43
522.747	786.93
523.201	781.73
523.656	770.73
524.11	762.13
524.565	763.73
525.019	759.53
525.474	773.23
525.928	773.03
526.382	770.03
526.837	766.83
527.291	779.13
527.745	770.03
528.2	770.63
528.654	761.23
529.108	761.73
529.562	764.23
530.016	765.23
530.47	768.03
530.925	775.43
531.379	769.03
531.833	779.83
532.287	771.73
532.741	774.93
533.195	786.63
533.649	789.93
534.103	789.73
534.556	775.13
535.01	780.83
535.464	792.73
535.918	793.73
536.372	791.73
536.826	791.13
537.279	774.53
537.733	787.43
538.187	781.43
538.64	787.03
539.094	794.93
539.548	798.93
540.001	793.63
540.455	808.43
540.908	815.13
541.362	809.93
541.815	826.93
542.269	828.93
542.722	851.63
543.175	849.33
543.629	850.43
544.082	871.63
544.536	874.03
544.989	866.73
545.442	875.13
545.895	886.83
546.349	880.73
546.802	873.63
547.255	878.93
547.708	891.93
548.161	895.43
548.614	917.73
549.067	915.13
549.52	911.13
549.973	891.13
550.426	897.93
550.879	890.43
551.332	891.53
551.785	897.43
552.238	895.13
552.691	914.83
553.144	920.43
553.596	935.43
554.049	960.93
554.502	982.73
554.955	1007.13
555.407	1001.83
555.86	1001.63
556.313	983.63
556.765	983.83
557.218	978.23
557.67	970.13
558.123	974.03
558.576	969.83
559.028	983.63
559.48	972.93
559.933	971.63
560.385	927.93
560.838	906.33
561.29	868.53
561.742	873.53
562.195	853.73
562.647	843.83
563.099	860.33
563.551	857.83
564.004	866.73
564.456	858.53
564.908	841.23
565.36	810.73
565.812	795.43
566.264	803.83
566.716	800.03
567.168	788.63
567.62	782.43
568.072	764.03
568.524	764.23
568.976	758.63
569.428	750.83
569.88	746.43
570.332	757.13
570.784	758.83
571.235	761.63
571.687	761.13
572.139	775.63
572.59	790.83
573.042	781.23
573.494	778.43
573.945	769.43
574.397	750.43
574.849	757.13
575.3	767.23
575.752	758.83
576.203	748.13
576.655	763.13
577.106	734.13
577.557	747.03
578.009	731.53
578.46	733.63
578.912	735.23
579.363	736.23
579.814	728.33
580.265	734.73
580.717	739.53
581.168	739.23
581.619	749.93
582.07	756.13
582.521	744.33
582.972	734.03
583.423	735.13
583.875	745.43
584.326	757.53
584.777	776.33
585.227	799.33
585.678	814.73
586.129	836.93
586.58	861.63
587.031	890.03
587.482	940.53
587.933	992.13
588.384	952.93
588.834	869.63
589.285	842.83
589.736	860.33
590.186	842.63
590.637	833.83
591.088	815.53
591.538	807.33
591.989	793.23
592.439	793.93
592.89	788.43
593.34	766.03
593.791	779.83
594.241	769.43
594.692	767.13
595.142	759.83
595.593	764.73
596.043	767.43
596.493	769.83
596.943	766.13
597.394	785.63
597.844	769.93
598.294	806.83
598.744	828.03
599.195	848.13
599.645	891.53
600.095	938.93
600.545	1000.63
600.995	1048.93
601.445	1122.03
601.895	1192.53
602.345	1233.53
602.795	1211.83
603.245	1171.93
603.695	1101.03
604.145	1056.73
604.594	999.73
605.044	952.23
605.494	887.13
605.944	829.93
606.393	813.83
606.843	789.33
607.293	786.43
607.743	801.03
608.192	802.23
608.642	830.43
609.091	823.93
609.541	836.03
609.99	834.63
610.44	831.13
610.889	778.73
611.339	756.13
611.788	740.13
612.238	749.53
612.687	764.43
613.136	754.33
613.586	781.13
614.035	760.43
614.484	778.83
614.933	775.93
615.383	768.43
615.832	768.73
616.281	768.43
616.73	729.03
617.179	712.63
617.628	701.33
618.077	688.93
618.526	682.53
618.975	674.43
619.424	659.63
619.873	668.93
620.322	671.13
620.771	654.23
621.22	661.03
621.669	647.13
622.118	637.73
622.567	627.83
623.015	620.03
623.464	616.93
623.913	607.83
624.361	593.23
624.81	597.33
625.259	602.23
625.707	612.83
626.156	608.13
626.604	609.43
627.053	619.43
627.501	612.13
627.95	617.93
628.398	635.83
628.847	629.33
629.295	615.33
629.744	629.03
630.192	624.53
630.64	616.13
631.089	603.43
631.537	596.53
631.985	580.03
632.433	586.73
632.881	578.63
633.33	583.73
633.778	579.43
634.226	566.63
634.674	595.83
635.122	583.93
635.57	605.23
636.018	613.23
636.466	606.73
636.914	601.23
637.362	616.53
637.81	623.13
638.258	622.83
638.705	633.33
639.153	661.83
639.601	668.43
640.049	695.13
640.497	734.83
640.944	746.93
641.392	701.23
641.84	662.83
642.287	631.63
642.735	615.03
643.182	610.73
643.63	611.83
644.078	612.03
644.525	631.73
644.973	628.73
645.42	641.23
645.867	664.73
646.315	674.83
646.762	706.43
647.21	737.63
647.657	762.13
648.104	798.43
648.551	811.23
648.999	881.73
649.446	948.63
649.893	1044.33
650.34	1193.53
650.787	1420.33
651.234	1732.03
651.682	2244.63
652.129	3030.93
652.576	4278.93
653.023	6261.83
653.47	8441.83
653.917	10509.03
654.363	12115.83
654.81	13352.73
655.257	12640.73
655.704	8407.53
656.151	5060.03
656.598	3344.63
657.044	2400.33
657.491	1871.73
657.938	1516.63
658.385	1267.93
658.831	1110.83
659.278	981.13
659.724	891.83
660.171	823.83
660.618	752.93
661.064	720.73
661.511	697.23
661.957	698.73
662.404	686.23
662.85	695.03
663.296	672.83
663.743	606.43
664.189	576.83
664.635	575.53
665.082	565.03
665.528	570.93
665.974	553.83
666.42	549.83
666.867	547.73
667.313	525.43
667.759	502.13
668.205	493.23
668.651	486.03
669.097	482.63
669.543	475.33
669.989	481.13
670.435	478.63
670.881	486.93
671.327	493.83
671.773	502.43
672.219	531.03
672.665	593.03
673.11	631.53
673.556	683.93
674.002	728.73
674.448	711.93
674.893	609.03
675.339	512.13
675.785	482.43
676.23	462.03
676.676	424.43
677.122	420.83
677.567	413.43
678.013	401.03
678.458	390.83
678.904	386.93
679.349	381.83
679.794	381.73
680.24	384.93
680.685	383.33
681.131	379.73
681.576	376.03
682.021	382.83
682.466	382.93
682.912	375.03
683.357	388.63
683.802	421.83
684.247	448.63
684.692	489.93
685.137	539.93
685.583	586.93
686.028	610.73
686.473	564.43
686.918	483.13
687.363	448.53
687.807	432.73
688.252	398.53
688.697	388.43
689.142	366.03
689.587	372.43
690.032	365.73
690.477	370.43
690.921	385.33
691.366	407.83
691.811	437.23
692.255	469.13
692.7	501.13
693.145	549.43
693.589	765.43
694.034	1231.23
694.478	1681.53
694.923	1905.23
695.367	2464.13
695.812	1306.23
696.256	535.53
696.701	401.73
697.145	374.73
697.59	362.13
698.034	341.03
698.478	354.53
698.922	338.33
699.367	347.53
699.811	365.23
700.255	384.63
700.699	415.53
701.143	456.43
701.588	511.93
702.032	555.63
702.476	555.73
702.92	530.03
703.364	535.03
703.808	693.93
704.252	1132.43
704.696	1585.93
705.14	1827.83
705.584	2307.33
706.027	1159.03
706.471	567.63
706.915	433.03
707.359	381.63
707.803	351.23
708.246	339.63
708.69	339.83
709.134	341.23
709.577	332.93
710.021	341.93
710.465	331.03
710.908	320.73
711.352	317.73
711.795	339.83
712.239	380.43
712.682	420.73
713.126	446.83
713.569	498.23
714.012	391.33
714.456	327.33
714.899	311.03
715.342	296.83
715.786	284.73
716.229	283.83
716.672	276.83
717.115	267.83
717.558	268.43
718.002	278.23
718.445	286.63
718.888	304.53
719.331	317.63
719.774	333.93
720.217	326.33
720.66	308.93
721.103	293.63
721.546	279.23
721.989	273.43
722.432	250.93
722.874	255.93
723.317	251.53
723.76	253.13
724.203	274.73
724.645	343.73
725.088	483.43
725.531	621.03
725.974	700.63
726.416	595.83
726.859	335.63
727.301	276.23
727.744	261.03
728.187	255.43
728.629	257.53
729.071	255.93
729.514	288.23
729.956	292.53
730.399	304.93
730.841	308.33
731.283	293.63
731.726	287.23
732.168	288.53
732.61	289.43
733.053	314.23
733.495	345.43
733.937	385.63
734.379	432.33
734.821	469.23
735.263	592.23
735.705	905.83
736.148	1707.93
736.59	2814.23
737.032	3325.03
737.474	2712.33
737.916	879.23
738.357	467.43
738.799	360.03
739.241	324.73
739.683	312.23
740.125	315.03
740.567	329.53
741.008	346.43
741.45	341.13
741.892	341.03
742.334	383.33
742.775	400.23
743.217	378.73
743.658	294.53
744.1	272.63
744.542	285.63
744.983	346.13
745.425	387.03
745.866	379.73
746.307	304.13
746.749	305.83
747.19	354.43
747.632	497.23
748.073	963.53
748.514	2016.53
748.956	3093.53
749.397	3908.33
749.838	3233.03
750.279	3218.53
750.72	1636.83
751.162	600.83
751.603	352.33
752.044	274.23
752.485	234.43
752.926	221.63
753.367	222.93
753.808	216.93
754.249	205.73
754.69	204.73
755.131	199.33
755.572	190.93
756.013	189.53
756.453	203.23
756.894	207.63
757.335	202.73
757.776	211.43
758.216	215.63
758.657	213.33
759.098	222.53
759.538	248.93
759.979	291.03
760.42	406.53
760.86	768.13
761.301	1978.43
761.741	4802.63
762.182	6971.23
762.622	4941.03
763.063	1429.23
763.503	589.03
763.943	353.33
764.384	305.73
764.824	293.73
765.264	291.03
765.705	241.73
766.145	202.93
766.585	186.73
767.025	187.13
767.465	188.23
767.906	204.03
768.346	229.13
768.786	241.53
769.226	240.43
769.666	334.33
770.106	683.23
770.546	1684.33
770.986	2862.73
771.426	2569.13
771.866	864.83
772.306	361.33
772.745	224.23
773.185	184.23
773.625	181.63
774.065	164.93
774.505	175.83
774.944	216.83
775.384	399.13
775.824	659.33
776.263	646.53
776.703	311.13
777.142	175.13
777.582	152.83
778.021	133.13
778.461	139.63
778.9	142.73
779.34	139.93
779.779	122.73
780.219	115.73
780.658	117.73
781.097	123.03
781.537	116.83
781.976	115.93
782.415	120.13
782.855	113.43
783.294	108.83
783.733	110.43
784.172	117.93
784.611	117.43
785.05	123.53
785.489	123.13
785.928	120.63
786.367	133.13
786.806	129.63
787.245	147.13
787.684	145.63
788.123	163.43
788.562	144.53
789.001	140.13
789.44	131.13
789.879	132.43
790.317	128.73
790.756	141.93
791.195	136.93
791.634	152.33
792.072	219.63
792.511	393.83
792.95	1075.03
793.388	2285.63
793.827	2074.33
794.265	731.43
794.704	301.73
795.142	196.33
795.581	162.83
796.019	149.93
796.458	146.03
796.896	132.63
797.334	139.53
797.773	170.63
798.211	231.53
798.649	472.23
799.087	1097.83
799.526	1741.33
799.964	2187.73
800.402	2176.73
800.84	816.13
801.278	334.13
801.716	205.03
802.154	166.83
802.592	154.83
803.03	153.33
803.468	149.23
803.906	158.43
804.344	158.03
804.782	146.13
805.22	144.13
805.658	149.13
806.096	157.43
806.533	171.83
806.971	183.33
807.409	243.93
807.847	349.93
808.284	718.03
808.722	2020.63
809.16	3567.83
809.597	3412.53
810.035	5865.33
810.472	6264.03
810.91	2279.63
811.347	872.33
811.785	445.23
812.222	288.23
812.66	215.03
813.097	191.33
813.535	153.43
813.972	141.73
814.409	126.93
814.846	117.93
815.284	115.23
815.721	108.53
816.158	110.13
816.595	120.13
817.032	165.43
817.47	190.93
817.907	147.23
818.344	109.03
818.781	108.13
819.218	105.13
819.655	139.03
820.092	209.13
820.529	230.73
820.966	187.13
821.403	140.83
821.839	101.13
822.276	107.53
822.713	131.33
823.15	150.13
823.587	125.73
824.023	156.43
824.46	333.63
824.897	974.63
825.333	1467.13
825.77	637.13
826.206	256.13
826.643	145.43
827.08	110.93
827.516	94.43
827.953	86.33
828.389	89.63
828.825	76.43
829.262	70.13
829.698	70.03
830.135	67.13
830.571	69.03
831.007	72.33
831.443	68.13
831.88	67.83
832.316	68.23
832.752	76.33
833.188	76.93
833.624	64.73
834.06	74.63
834.497	73.93
834.933	79.63
835.369	76.63
835.805	78.43
836.241	84.73
836.677	88.63
837.112	102.93
837.548	113.03
837.984	148.13
838.42	216.43
838.856	538.83
839.292	1641.03
839.727	2500.73
840.163	1170.93
840.599	1007.13
841.034	2200.33
841.47	2298.93
841.906	834.13
842.341	357.53
842.777	219.33
843.212	224.13
843.648	205.33
844.083	116.23
844.519	91.43
844.954	77.53
845.39	68.23
845.825	63.53
846.261	64.13
846.696	58.03
847.131	54.73
847.566	64.33
848.002	58.83
848.437	59.73
848.872	65.63
849.307	66.53
849.742	91.53
850.177	197.73
850.613	601.23
851.048	956.43
851.483	415.93
851.918	173.23
852.353	89.43
852.788	55.23
853.223	55.53
853.657	54.83
854.092	49.53
854.527	52.33
854.962	45.83
855.397	53.23
855.832	54.73
856.266	47.43
856.701	42.73
857.136	40.63
857.57	46.53
858.005	54.33
858.44	66.03
858.874	48.83
859.309	53.93
859.743	43.63
860.178	44.93
860.612	43.03
861.047	56.83
861.481	78.93
861.915	79.03
862.35	61.43
862.784	37.13
863.218	44.53
863.653	36.23
864.087	52.93
864.521	63.13
864.955	77.53
865.39	171.03
865.824	190.83
866.258	126.13
866.692	178.43
867.126	196.93
867.56	117.43
867.994	62.03
868.428	44.23
868.862	59.13
869.296	64.63
869.73	61.53
870.164	59.73
870.598	51.93
871.031	39.23
871.465	34.33
871.899	35.53
872.333	23.13
872.766	27.83
873.2	25.63
873.634	34.33
874.067	29.43
874.501	26.73
874.935	35.93
875.368	34.23
875.802	31.53
876.235	28.73
876.669	24.03
877.102	31.43
877.535	27.03
877.969	27.63
878.402	25.63
878.836	21.53
879.269	23.33
879.702	26.63
880.135	22.23
880.569	20.93
881.002	24.83
881.435	19.73
881.868	19.43
882.301	26.13
882.734	19.83
883.167	25.43
883.601	17.73
884.034	25.83
884.467	16.63
884.899	19.63
885.332	15.63
885.765	18.13
886.198	19.73
886.631	17.93
887.064	18.63
887.497	28.43
887.929	26.63
888.362	14.93
888.795	16.23
889.228	26.93
889.66	19.13
890.093	13.93
890.526	21.83
890.958	17.03
891.391	16.13
891.823	21.43
892.256	16.23
892.688	8.73
893.121	17.83
893.553	20.33
893.985	21.73
894.418	18.33
894.85	15.33
895.282	18.43
895.715	22.73
896.147	24.03
896.579	16.83
897.011	12.63
897.444	18.03
897.876	16.13
898.308	19.23
898.74	17.53
899.172	16.83
899.604	23.83
900.036	22.73
900.468	18.63
900.9	20.03
901.332	21.13
901.764	16.13
902.196	33.03
902.628	17.03
903.06	18.23
903.491	27.63
903.923	32.33
904.355	28.93
904.787	31.43
905.218	24.93
905.65	22.33
906.082	15.33
906.513	16.93
906.945	17.53
907.376	16.53
907.808	23.03
908.239	20.83
908.671	22.73
909.102	19.93
909.534	25.03
909.965	54.53
910.397	102.83
910.828	340.23
911.259	515.23
911.691	231.23
912.122	116.13
912.553	58.83
912.984	40.73
913.415	26.93
913.847	27.93
914.278	14.93
914.709	14.23
915.14	24.83
915.571	17.93
916.002	11.53
916.433	21.73
916.864	19.63
917.295	15.33
917.726	26.63
918.157	17.43
918.587	29.03
919.018	24.73
919.449	25.53
919.88	27.53
920.311	32.13
920.741	53.43
921.172	183.93
921.603	163.13
922.033	77.83
922.464	52.53
922.895	22.13
923.325	20.73
923.756	15.33
924.186	13.13
924.617	22.13
925.047	22.83
925.478	32.53
925.908	25.43
926.338	15.03
926.769	18.93
927.199	21.73
927.629	13.13
928.06	13.93
928.49	14.33
928.92	15.83
929.35	9.33
929.78	11.73
930.21	9.13
930.641	4.63
931.071	9.83
931.501	7.43
931.931	10.43
932.361	12.53
932.791	2.63
933.221	8.93
933.651	1.63
934.08	22.93
934.51	33.93
934.94	3.93
935.37	9.73
935.8	13.73
936.229	13.93
936.659	8.23
937.089	3.83
937.519	17.53
937.948	26.63
938.378	18.83
938.807	8.03
939.237	1.33
939.666	10.33
940.096	-6.47
940.525	-0.67
940.955	3.63
941.384	8.93
941.814	-4.67
942.243	-5.47
942.672	0.83
943.102	2.53
943.531	7.33
943.96	7.83
944.39	3.13
944.819	3.53
945.248	5.93
945.677	5.93
946.106	2.43
946.535	4.53
946.964	-2.37
947.393	4.13
947.822	-1.57
948.251	-3.57
948.68	5.43
949.109	1.33
949.538	5.73
949.967	2.73
950.396	3.13
950.825	-7.07
951.254	-1.47
951.682	-5.07
952.111	5.93
952.54	3.53
952.969	-5.17
953.397	-0.37
953.826	4.93
954.254	-0.27
954.683	1.73
955.112	1.83
955.54	2.53
955.969	-2.67
956.397	2.23
956.826	0.13
957.254	8.63
957.682	4.13
958.111	1.33
958.539	-0.07
958.967	-0.97
959.396	-1.47
959.824	2.13
960.252	-0.37
960.68	-7.97
961.109	0.03
961.537	-1.47
961.965	5.63
962.393	1.53
962.821	-3.07
963.249	3.43
963.677	4.63
964.105	5.93
964.533	47.33
964.961	44.23
965.389	26.23
965.817	11.73
966.245	-0.67
966.672	1.43
967.1	-0.67
967.528	2.73
967.956	-2.17
968.383	5.73
968.811	-1.47
969.239	1.33
969.666	-1.97
970.094	-4.47
970.522	3.33
970.949	-2.37
971.377	-7.27
971.804	-3.17
972.232	1.43
972.659	-1.27
973.087	3.13
973.514	-1.17
973.941	-0.97
974.369	2.63
974.796	-4.07
975.223	3.13
975.651	-2.37
976.078	1.13
976.505	-3.67
976.932	3.43
977.359	14.63
977.786	14.83
978.214	1.73
978.641	-4.67
979.068	-2.47
979.495	-3.57
979.922	2.33
980.349	2.23
980.776	6.23
981.202	-6.17
981.629	5.43
982.056	4.13
982.483	-5.97
982.91	3.63
983.337	-11.17
983.763	0.53
984.19	-6.67
984.617	0.03
985.043	-3.67
985.47	1.33
985.897	-12.77
986.323	-8.77
986.75	-0.47
987.176	-0.47
987.603	2.83
988.029	1.63
988.456	-2.37
988.882	4.63
989.308	-6.87
989.735	-6.37
990.161	1.63
990.587	0.73
991.014	-4.27
991.44	7.53
991.866	-1.57
992.292	0.03
992.719	-3.67
993.145	6.93
993.571	-4.17
993.997	-2.77
994.423	-8.87
994.849	-5.07
995.275	4.73
995.701	-2.47
996.127	-4.17
996.553	-0.97
996.979	-7.47
997.405	-5.17
997.83	-3.87
998.256	-0.97
998.682	-8.67
999.108	-2.97
999.534	2.83
999.959	2.83
1000.385	0.03
1000.811	4.93
1001.236	-8.87
1001.662	-6.67
1002.087	-6.67
1002.513	-1.57
1002.938	6.63
1003.364	-5.57
1003.789	-1.77
1004.215	8.03
1004.64	2.83
1005.066	5.43
1005.491	3.73
1005.916	0.13
1006.342	-10.37
1006.767	-9.57
1007.192	2.13
1007.617	-6.97
1008.042	-3.97
1008.468	-9.17
1008.893	-2.47
1009.318	-4.77
1009.743	-5.47
1010.168	2.13
1010.593	5.83
1011.018	-6.77
1011.443	-0.77
1011.868	1.83
1012.293	-2.87
1012.718	-7.67
1013.143	1.63
1013.567	2.53
1013.992	0.03
1014.417	-12.87
1014.842	2.73
1015.267	-3.27
1015.691	-0.87
1016.116	4.23
1016.541	-4.57
1016.965	-1.37
1017.39	6.33
1017.814	-0.07
1018.239	-2.87
1018.663	-9.37
1019.088	-15.87
1019.512	-6.07
1019.937	-5.87
1020.361	-7.17
1020.785	-11.87
1021.21	-5.47
1021.634	-2.57
1022.058	-2.77
1022.483	3.83
1022.907	2.13
1023.331	0.53
1023.755	-1.87
1024.179	-2.77
1024.604	-7.27
1025.028	-4.87
1025.452	-4.97
1025.876	-3.37
1026.3	2.23
1026.724	-5.97
1027.148	-6.97
1027.572	-10.07
1027.996	-7.17
1028.42	-2.07
1028.843	-8.07
1029.267	-7.07
1029.691	-2.17
1030.115	-9.17
1030.539	-4.37
1030.962	-7.27
1031.386	-9.27
1031.81	1.43
1032.233	4.53
1032.657	-3.67
1033.08	-4.67
1033.504	-2.07
1033.927	-5.87
1034.351	0.13
1034.774	-9.17
1035.198	-1.27
1035.621	-0.07
1036.045	-5.47
1036.468	-0.97
1036.891	-9.57
1037.315	-4.77
1037.738	-11.27
1038.161	-0.27
1038.584	-3.67
1039.008	-6.97
1039.431	-3.57
1039.854	-7.47
1040.277	-9.47
1040.7	-11.87
1041.123	0.53
1041.546	-8.87
1041.969	-7.87
1042.392	-7.57
1042.815	-0.07
1043.238	3.13
1043.661	3.03
1044.084	-5.57
1044.507	-4.27
1044.93	-8.47
1045.352	-4.27
1045.775	0.93
1046.198	-5.87
1046.621	-7.07
1047.043	1.33
1047.466	4.63
1047.889	0.73
1048.311	-8.37
1048.734	0.73
1049.156	1.83
1049.579	3.53
1050.001	-3.87
1050.424	2.53
1050.846	-6.37
1051.269	0.03
1051.691	-3.97
1052.113	-3.37
1052.536	-0.47
1052.958	-0.17
1053.38	-5.77
1053.802	-8.17
1054.225	2.93
1054.647	-8.07
1055.069	-2.17
1055.491	7.63
1055.913	-8.47
1056.335	2.43
1056.757	-5.07
1057.179	-6.67
1057.601	-4.87
1058.023	-7.07
1058.445	-5.47
1058.867	-5.27
1059.289	-5.37
1059.711	-5.57
1060.133	-0.97
1060.555	-3.07
1060.976	-7.67
1061.398	-11.47
1061.82	-7.67
1062.241	-4.57
1062.663	-6.97
1063.085	-4.07
1063.506	-1.07
1063.928	-0.37
1064.35	-7.27
1064.771	-13.17
1065.193	-6.57
1065.614	-0.87
1066.035	-0.87
1066.457	-1.37
1066.878	2.63
1067.3	-0.27
1067.721	-3.17
1068.142	-0.07
1068.564	-6.67
1068.985	-10.17
1069.406	-3.57
1069.827	-3.87
1070.248	-0.27
1070.67	-6.17
1071.091	-8.37
1071.512	-0.87
1071.933	-2.87
1072.354	-6.57
1072.775	-5.67
1073.196	-7.57
1073.617	-4.37
1074.038	-5.47
1074.459	-4.87
1074.88	-2.47
1075.3	-5.47
1075.721	-9.07
1076.142	2.33
1076.563	-7.07
1076.983	-8.97
1077.404	-6.27
1077.825	-12.47
1078.246	-6.77
1078.666	-11.67
1079.087	-5.97
1079.507	-7.57
1079.928	1.03
1080.348	-1.57
1080.769	-5.57
1081.189	-7.07
1081.61	-8.67
1082.03	-10.37
1082.451	-6.37
1082.871	-4.97
1083.291	-6.97
1083.711	-6.37
1084.132	-1.27
1084.552	-3.67
1084.972	-5.97
1085.392	-7.47
1085.813	-8.77
1086.233	-2.57
1086.653	-9.77
1087.073	-7.27
1087.493	-2.07
1087.913	-11.27
1088.333	-1.57
1088.753	-2.87
1089.173	1.13
1089.593	1.33
1090.013	6.23
1090.433	5.53
1090.852	-5.17
1091.272	1.13
1091.692	-4.27
1092.112	-2.77
1092.531	-8.07
1092.951	-11.77
1093.371	-3.07
1093.79	4.03
1094.21	-3.97
1094.63	-5.67
1095.049	-7.77
1095.469	-4.87
1095.888	-7.17
1096.308	-3.27
1096.727	4.43
1097.146	-1.77
1097.566	-2.57
1097.985	2.73
1098.405	-9.57
1098.824	-9.87
1099.243	-11.27
1099.662	-12.17
1100.082	-5.67
1100.501	-1.67
1100.92	-5.27
1101.339	-8.37
1101.758	-5.97
