Data from 20171114-ORNL-Ar_H_NY_Subt18_08-04-44-919.txt Node
Date: Tue Nov 14 08:04:44 EST 2017
User: Ender
Spectrometer: HR+D1039
Trigger mode: 0
Integration Time (sec): 2.730000E-2
Scans to average: 10
Electric dark correction enabled: true
Nonlinearity correction enabled: false
Boxcar width: 0
XAxis mode: Wavelengths
Number of Pixels in Spectrum: 2048
>>>>>Begin Spectral Data<<<<<
187.836	-5.22
188.309	-5.22
188.782	-5.22
189.255	3.58
189.728	2.58
190.201	5.88
190.674	2.78
191.147	2.48
191.619	-10.92
192.092	-0.12
192.565	6.38
193.038	-1.82
193.511	-2.52
193.984	2.78
194.456	-4.02
194.929	-0.92
195.402	-1.62
195.874	0.68
196.347	-1.32
196.82	-5.12
197.292	3.28
197.765	2.18
198.237	-6.82
198.71	-3.02
199.182	-4.62
199.655	4.08
200.127	1.38
200.6	-0.72
201.072	3.68
201.544	-5.82
202.017	-2.92
202.489	-1.22
202.961	1.38
203.433	-4.42
203.906	-6.02
204.378	-10.62
204.85	-0.22
205.322	-10.52
205.794	-0.42
206.266	-4.82
206.739	-14.82
207.211	2.88
207.683	-8.92
208.155	-4.52
208.627	-5.02
209.099	-1.02
209.57	-7.92
210.042	-3.12
210.514	-1.42
210.986	3.68
211.458	-6.22
211.93	-8.12
212.402	-1.52
212.873	-7.72
213.345	-15.52
213.817	-11.32
214.288	-8.62
214.76	-10.92
215.232	-2.12
215.703	-1.92
216.175	1.28
216.646	-0.42
217.118	-4.72
217.589	0.48
218.061	-6.42
218.532	-6.62
219.004	-0.82
219.475	-0.32
219.946	-1.32
220.418	-3.92
220.889	-1.92
221.36	2.28
221.832	-6.72
222.303	-8.22
222.774	0.38
223.245	-8.42
223.717	-6.62
224.188	0.18
224.659	-9.12
225.13	-3.92
225.601	-3.32
226.072	-3.72
226.543	-0.42
227.014	4.18
227.485	-4.62
227.956	-7.52
228.427	1.08
228.898	2.08
229.369	3.98
229.839	-2.22
230.31	-4.42
230.781	1.38
231.252	3.48
231.722	0.58
232.193	1.98
232.664	6.78
233.135	1.58
233.605	-0.72
234.076	-5.02
234.546	3.28
235.017	9.18
235.487	0.98
235.958	-4.12
236.428	-2.82
236.899	4.38
237.369	5.48
237.84	-3.82
238.31	10.68
238.78	2.58
239.251	3.28
239.721	0.78
240.191	-0.82
240.662	2.78
241.132	4.48
241.602	0.98
242.072	5.98
242.542	9.58
243.013	0.88
243.483	1.18
243.953	2.48
244.423	6.18
244.893	0.08
245.363	2.48
245.833	-0.52
246.303	3.28
246.773	7.58
247.243	3.38
247.712	2.98
248.182	3.58
248.652	7.08
249.122	-4.32
249.592	11.28
250.061	24.58
250.531	37.48
251.001	21.38
251.471	22.98
251.94	21.18
252.41	9.08
252.879	-0.52
253.349	15.18
253.818	12.88
254.288	15.78
254.757	6.18
255.227	0.88
255.696	5.88
256.166	6.88
256.635	13.78
257.105	11.28
257.574	8.78
258.043	12.48
258.513	11.38
258.982	14.58
259.451	8.88
259.92	15.28
260.389	15.38
260.859	16.78
261.328	13.08
261.797	20.68
262.266	12.78
262.735	19.08
263.204	10.38
263.673	-0.72
264.142	7.38
264.611	-1.72
265.08	4.48
265.549	-7.22
266.018	0.98
266.487	1.38
266.955	3.48
267.424	4.48
267.893	5.88
268.362	0.78
268.83	4.98
269.299	11.28
269.768	12.88
270.236	4.98
270.705	5.68
271.174	11.18
271.642	11.88
272.111	11.58
272.579	20.98
273.048	25.28
273.516	30.38
273.985	26.98
274.453	24.78
274.922	19.48
275.39	14.08
275.858	5.48
276.327	9.28
276.795	17.88
277.263	10.28
277.731	32.48
278.2	60.78
278.668	64.28
279.136	55.58
279.604	21.08
280.072	13.28
280.54	14.98
281.008	13.98
281.477	14.68
281.945	15.68
282.413	14.28
282.881	17.88
283.348	10.08
283.816	16.28
284.284	19.68
284.752	17.88
285.22	15.08
285.688	16.08
286.156	22.28
286.623	48.18
287.091	50.28
287.559	30.98
288.026	21.38
288.494	16.08
288.962	11.38
289.429	13.38
289.897	23.78
290.364	15.08
290.832	20.78
291.3	18.38
291.767	27.68
292.234	21.88
292.702	15.18
293.169	18.18
293.637	25.48
294.104	22.28
294.571	9.38
295.039	10.58
295.506	17.28
295.973	15.68
296.44	14.98
296.908	14.98
297.375	19.18
297.842	24.18
298.309	17.88
298.776	17.98
299.243	21.48
299.71	12.18
300.177	20.78
300.644	24.28
301.111	19.28
301.578	21.88
302.045	20.28
302.512	24.48
302.979	26.38
303.446	24.78
303.913	20.68
304.379	18.98
304.846	33.38
305.313	31.48
305.78	26.98
306.246	27.68
306.713	25.18
307.18	29.48
307.646	28.08
308.113	31.08
308.579	22.78
309.046	22.08
309.512	28.18
309.979	18.88
310.445	27.28
310.912	31.08
311.378	36.58
311.845	31.58
312.311	36.18
312.777	31.88
313.244	34.88
313.71	42.18
314.176	31.48
314.642	33.68
315.109	30.38
315.575	37.88
316.041	35.58
316.507	29.18
316.973	41.58
317.439	35.98
317.905	42.38
318.371	36.68
318.837	33.78
319.303	33.38
319.769	36.68
320.235	36.08
320.701	33.88
321.167	37.48
321.633	33.48
322.099	42.38
322.564	42.48
323.03	43.08
323.496	35.58
323.962	42.68
324.427	39.88
324.893	42.68
325.359	41.88
325.824	37.98
326.29	38.58
326.755	35.18
327.221	43.18
327.686	38.28
328.152	48.98
328.617	40.58
329.083	45.38
329.548	52.78
330.014	54.98
330.479	40.98
330.944	42.88
331.41	44.28
331.875	43.38
332.34	39.78
332.805	46.88
333.271	48.88
333.736	48.28
334.201	57.38
334.666	50.08
335.131	56.48
335.596	50.88
336.061	48.58
336.526	41.58
336.991	50.08
337.456	50.78
337.921	49.28
338.386	47.38
338.851	43.48
339.316	52.78
339.781	50.08
340.246	52.28
340.711	46.38
341.175	46.08
341.64	42.28
342.105	48.68
342.569	55.18
343.034	57.58
343.499	52.68
343.963	55.08
344.428	65.08
344.893	58.68
345.357	60.48
345.822	59.18
346.286	65.98
346.751	74.98
347.215	70.18
347.679	72.38
348.144	89.98
348.608	82.38
349.073	74.98
349.537	76.68
350.001	71.78
350.465	88.18
350.93	91.68
351.394	83.58
351.858	71.08
352.322	82.08
352.786	84.28
353.25	100.18
353.715	112.78
354.179	97.08
354.643	117.48
355.107	126.08
355.571	108.78
356.035	104.28
356.498	122.98
356.962	120.98
357.426	131.18
357.89	114.98
358.354	89.08
358.818	81.58
359.281	77.78
359.745	85.18
360.209	76.98
360.673	69.58
361.136	72.98
361.6	86.28
362.064	78.38
362.527	81.58
362.991	86.98
363.454	78.98
363.918	78.08
364.381	81.38
364.845	83.38
365.308	84.08
365.772	82.58
366.235	85.18
366.698	86.08
367.162	87.78
367.625	80.28
368.088	84.18
368.552	91.18
369.015	87.18
369.478	88.28
369.941	94.68
370.404	98.88
370.867	102.58
371.331	99.18
371.794	112.28
372.257	111.18
372.72	127.38
373.183	101.28
373.646	105.68
374.109	97.68
374.572	105.18
375.035	102.98
375.497	101.28
375.96	103.88
376.423	104.28
376.886	109.98
377.349	110.78
377.811	97.08
378.274	101.88
378.737	99.88
379.199	110.18
379.662	104.88
380.125	118.68
380.587	109.88
381.05	120.38
381.512	129.68
381.975	128.48
382.437	128.38
382.9	121.68
383.362	129.28
383.825	134.88
384.287	136.28
384.75	132.78
385.212	140.28
385.674	130.08
386.136	130.98
386.599	118.78
387.061	122.18
387.523	126.88
387.985	132.08
388.447	144.08
388.91	134.58
389.372	151.78
389.834	149.28
390.296	142.68
390.758	153.28
391.22	163.38
391.682	200.28
392.144	278.18
392.606	214.68
393.068	159.78
393.529	160.28
393.991	148.88
394.453	141.58
394.915	148.08
395.377	172.38
395.838	200.98
396.3	147.28
396.762	136.58
397.224	131.88
397.685	124.68
398.147	122.78
398.608	126.58
399.07	116.68
399.531	119.38
399.993	134.28
400.454	143.98
400.916	138.88
401.377	143.78
401.839	147.28
402.3	139.58
402.762	163.28
403.223	174.78
403.684	163.68
404.145	157.18
404.607	151.48
405.068	155.28
405.529	164.38
405.99	180.18
406.451	171.58
406.913	165.78
407.374	154.98
407.835	154.38
408.296	163.38
408.757	166.68
409.218	175.08
409.679	173.78
410.14	171.38
410.601	165.98
411.062	174.88
411.522	180.88
411.983	181.28
412.444	160.18
412.905	169.78
413.366	173.88
413.826	184.38
414.287	214.28
414.748	257.78
415.208	230.98
415.669	201.38
416.13	197.58
416.59	193.78
417.051	199.58
417.511	209.58
417.972	228.78
418.432	227.08
418.893	272.58
419.353	240.68
419.814	193.78
420.274	174.48
420.734	168.28
421.195	184.08
421.655	187.58
422.115	176.78
422.576	185.18
423.036	189.38
423.496	201.88
423.956	208.18
424.416	214.18
424.876	255.38
425.336	246.68
425.797	245.28
426.257	244.98
426.717	234.18
427.177	219.18
427.637	212.68
428.097	224.08
428.556	231.88
429.016	257.58
429.476	250.48
429.936	256.28
430.396	268.28
430.856	276.78
431.315	306.48
431.775	332.88
432.235	364.18
432.694	332.38
433.154	349.08
433.614	375.28
434.073	315.98
434.533	270.68
434.993	254.38
435.452	277.98
435.912	280.18
436.371	271.88
436.83	269.58
437.29	257.18
437.749	231.48
438.209	231.98
438.668	254.38
439.127	268.78
439.587	257.28
440.046	230.38
440.505	256.48
440.964	265.38
441.424	309.78
441.883	289.78
442.342	243.48
442.801	213.78
443.26	209.48
443.719	202.08
444.178	208.78
444.637	193.58
445.096	211.38
445.555	212.38
446.014	210.18
446.473	213.78
446.932	220.38
447.391	211.08
447.849	219.08
448.308	206.38
448.767	203.88
449.226	219.88
449.685	227.98
450.143	232.28
450.602	220.98
451.061	215.58
451.519	222.38
451.978	224.78
452.436	227.88
452.895	226.58
453.353	241.08
453.812	230.98
454.27	229.18
454.729	221.98
455.187	222.28
455.646	228.38
456.104	236.28
456.562	247.78
457.021	254.78
457.479	245.68
457.937	264.28
458.395	258.08
458.854	232.88
459.312	236.78
459.77	260.48
460.228	242.18
460.686	226.58
461.144	235.78
461.602	232.38
462.06	230.08
462.518	237.08
462.976	237.98
463.434	241.28
463.892	246.38
464.35	264.88
464.808	264.88
465.266	248.88
465.724	259.48
466.181	252.68
466.639	262.18
467.097	270.28
467.555	272.78
468.012	287.08
468.47	291.58
468.928	311.18
469.385	319.18
469.843	328.88
470.3	330.68
470.758	346.58
471.215	362.88
471.673	377.98
472.13	377.88
472.588	389.68
473.045	349.08
473.503	369.48
473.96	375.38
474.417	378.68
474.875	406.18
475.332	445.78
475.789	433.58
476.246	444.28
476.704	463.68
477.161	479.18
477.618	498.88
478.075	526.48
478.532	584.58
478.989	652.58
479.446	762.08
479.903	736.98
480.36	762.98
480.817	821.28
481.274	919.28
481.731	1025.88
482.188	1111.28
482.645	1245.78
483.102	1353.58
483.558	1485.68
484.015	1532.68
484.472	1514.88
484.929	1467.68
485.385	1406.38
485.842	1369.88
486.299	1307.08
486.755	1235.88
487.212	1038.48
487.668	873.68
488.125	807.48
488.582	749.68
489.038	713.18
489.494	680.88
489.951	657.18
490.407	638.18
490.864	613.68
491.32	614.18
491.776	616.98
492.233	603.98
492.689	583.58
493.145	571.08
493.602	567.28
494.058	582.58
494.514	587.38
494.97	607.18
495.426	618.38
495.882	594.98
496.338	580.88
496.794	593.78
497.251	604.28
497.707	597.98
498.163	599.08
498.618	606.88
499.074	617.48
499.53	645.48
499.986	649.18
500.442	621.58
500.898	599.78
501.354	589.38
501.809	611.18
502.265	618.88
502.721	631.88
503.177	635.98
503.632	628.48
504.088	647.18
504.543	672.98
504.999	665.48
505.455	624.48
505.91	609.28
506.366	606.28
506.821	589.38
507.277	595.88
507.732	589.28
508.187	590.68
508.643	597.08
509.098	599.78
509.553	619.48
510.009	620.88
510.464	634.68
510.919	655.98
511.375	658.98
511.83	675.98
512.285	687.98
512.74	720.28
513.195	741.28
513.65	737.88
514.105	726.38
514.56	735.58
515.015	750.18
515.47	770.78
515.925	749.38
516.38	745.38
516.835	749.18
517.29	744.28
517.745	738.38
518.2	734.28
518.655	716.68
519.109	701.98
519.564	699.78
520.019	694.88
520.474	685.58
520.928	680.18
521.383	686.08
521.838	683.08
522.292	685.48
522.747	676.68
523.201	667.08
523.656	655.28
524.11	655.38
524.565	660.08
525.019	657.68
525.474	666.78
525.928	664.98
526.382	656.88
526.837	653.78
527.291	673.48
527.745	664.28
528.2	657.18
528.654	647.38
529.108	656.78
529.562	654.38
530.016	656.38
530.47	645.88
530.925	649.08
531.379	657.98
531.833	671.98
532.287	658.98
532.741	669.08
533.195	660.08
533.649	674.38
534.103	679.88
534.556	670.88
535.01	680.68
535.464	673.58
535.918	676.48
536.372	677.68
536.826	668.48
537.279	658.38
537.733	673.48
538.187	671.18
538.64	673.58
539.094	680.68
539.548	683.38
540.001	679.28
540.455	677.78
540.908	687.58
541.362	691.38
541.815	694.18
542.269	715.88
542.722	705.18
543.175	725.98
543.629	727.88
544.082	735.18
544.536	736.58
544.989	739.18
545.442	752.68
545.895	742.68
546.349	728.78
546.802	739.98
547.255	748.58
547.708	743.78
548.161	750.08
548.614	761.18
549.067	762.08
549.52	753.18
549.973	758.48
550.426	756.28
550.879	740.38
551.332	743.18
551.785	752.18
552.238	750.98
552.691	758.98
553.144	771.78
553.596	787.88
554.049	814.38
554.502	839.48
554.955	847.58
555.407	845.88
555.86	846.08
556.313	838.18
556.765	820.18
557.218	812.28
557.67	826.58
558.123	823.18
558.576	805.58
559.028	819.38
559.48	816.98
559.933	824.38
560.385	782.48
560.838	758.38
561.29	740.78
561.742	729.78
562.195	706.08
562.647	703.08
563.099	720.28
563.551	723.98
564.004	723.98
564.456	718.98
564.908	709.68
565.36	690.38
565.812	687.88
566.264	669.48
566.716	671.18
567.168	657.18
567.62	659.58
568.072	654.08
568.524	639.98
568.976	632.58
569.428	622.78
569.88	622.38
570.332	630.08
570.784	620.98
571.235	633.38
571.687	654.48
572.139	640.48
572.59	655.88
573.042	654.78
573.494	650.78
573.945	652.78
574.397	638.58
574.849	636.18
575.3	641.08
575.752	628.08
576.203	630.58
576.655	627.18
577.106	616.38
577.557	614.28
578.009	611.88
578.46	610.98
578.912	601.38
579.363	601.18
579.814	608.28
580.265	601.68
580.717	619.48
581.168	610.18
581.619	615.68
582.07	628.98
582.521	617.38
582.972	617.68
583.423	627.68
583.875	615.78
584.326	638.88
584.777	687.98
585.227	754.38
585.678	836.78
586.129	930.98
586.58	990.58
587.031	1061.98
587.482	1214.18
587.933	1392.48
588.384	1189.68
588.834	891.58
589.285	739.98
589.736	711.78
590.186	702.08
590.637	698.18
591.088	679.48
591.538	668.58
591.989	666.48
592.439	667.28
592.89	656.28
593.34	644.68
593.791	648.08
594.241	638.38
594.692	637.68
595.142	636.98
595.593	641.28
596.043	637.78
596.493	652.68
596.943	647.18
597.394	659.58
597.844	642.28
598.294	652.68
598.744	682.88
599.195	695.38
599.645	739.38
600.095	772.28
600.545	825.08
600.995	869.68
601.445	927.78
601.895	984.28
602.345	1030.28
602.795	1013.68
603.245	970.18
603.695	920.78
604.145	875.28
604.594	822.08
605.044	776.48
605.494	721.48
605.944	675.78
606.393	665.58
606.843	664.48
607.293	674.78
607.743	667.38
608.192	666.58
608.642	688.68
609.091	688.98
609.541	695.78
609.99	690.08
610.44	680.68
610.889	649.38
611.339	624.48
611.788	623.98
612.238	630.58
612.687	643.28
613.136	639.38
613.586	654.98
614.035	661.08
614.484	685.08
614.933	686.98
615.383	674.38
615.832	657.68
616.281	646.58
616.73	622.48
617.179	593.08
617.628	585.98
618.077	570.08
618.526	556.68
618.975	549.88
619.424	559.38
619.873	549.08
620.322	557.78
620.771	542.08
621.22	536.78
621.669	536.08
622.118	533.18
622.567	519.38
623.015	512.28
623.464	509.08
623.913	507.28
624.361	490.48
624.81	491.58
625.259	488.98
625.707	498.08
626.156	490.08
626.604	502.68
627.053	504.08
627.501	507.58
627.95	514.38
628.398	519.98
628.847	500.58
629.295	508.08
629.744	506.38
630.192	501.68
630.64	499.38
631.089	500.28
631.537	514.18
631.985	520.48
632.433	527.08
632.881	535.88
633.33	582.28
633.778	565.18
634.226	493.58
634.674	500.78
635.122	505.28
635.57	530.68
636.018	544.18
636.466	510.88
636.914	494.98
637.362	510.38
637.81	505.48
638.258	511.78
638.705	511.88
639.153	527.88
639.601	544.98
640.049	561.78
640.497	598.68
640.944	607.08
641.392	571.48
641.84	537.68
642.287	516.68
642.735	502.28
643.182	498.08
643.63	503.98
644.078	509.28
644.525	519.78
644.973	522.08
645.42	520.38
645.867	551.08
646.315	561.88
646.762	591.48
647.21	608.68
647.657	637.98
648.104	655.48
648.551	677.08
648.999	740.28
649.446	798.68
649.893	877.08
650.34	1018.18
650.787	1212.18
651.234	1503.08
651.682	1960.98
652.129	2659.98
652.576	3863.08
653.023	5709.78
653.47	7877.88
653.917	9958.08
654.363	11611.38
654.81	13023.38
655.257	12377.48
655.704	8006.98
656.151	4726.98
656.598	3050.48
657.044	2158.58
657.491	1659.28
657.938	1327.38
658.385	1099.38
658.831	965.08
659.278	853.18
659.724	754.18
660.171	698.38
660.618	636.28
661.064	605.98
661.511	586.48
661.957	577.18
662.404	559.38
662.85	572.28
663.296	548.28
663.743	493.68
664.189	472.28
664.635	473.58
665.082	462.48
665.528	461.78
665.974	453.38
666.42	445.98
666.867	444.78
667.313	421.58
667.759	429.28
668.205	421.18
668.651	419.18
669.097	428.08
669.543	443.98
669.989	409.18
670.435	393.88
670.881	386.08
671.327	387.68
671.773	410.68
672.219	428.38
672.665	470.88
673.11	507.78
673.556	548.88
674.002	585.68
674.448	567.78
674.893	479.88
675.339	416.58
675.785	387.98
676.23	364.58
676.676	342.88
677.122	331.38
677.567	318.48
678.013	315.78
678.458	309.18
678.904	310.08
679.349	303.18
679.794	306.88
680.24	303.28
680.685	304.28
681.131	307.08
681.576	293.98
682.021	305.28
682.466	303.28
682.912	297.98
683.357	307.38
683.802	321.98
684.247	356.18
684.692	392.18
685.137	427.78
685.583	464.48
686.028	490.28
686.473	456.48
686.918	385.28
687.363	365.58
687.807	341.18
688.252	323.88
688.697	298.08
689.142	290.68
689.587	287.18
690.032	277.18
690.477	290.78
690.921	302.08
691.366	329.38
691.811	355.98
692.255	374.38
692.7	399.98
693.145	439.88
693.589	581.58
694.034	953.88
694.478	1309.58
694.923	1517.48
695.367	2007.88
695.812	1042.28
696.256	432.88
696.701	327.28
697.145	301.18
697.59	276.08
698.034	272.18
698.478	279.18
698.922	281.88
699.367	279.38
699.811	297.98
700.255	300.88
700.699	321.08
701.143	366.48
701.588	410.18
702.032	441.78
702.476	439.48
702.92	419.88
703.364	421.68
703.808	530.98
704.252	874.08
704.696	1238.28
705.14	1464.58
705.584	1876.38
706.027	918.58
706.471	447.98
706.915	338.68
707.359	302.88
707.803	268.58
708.246	262.48
708.69	263.18
709.134	271.68
709.577	266.98
710.021	268.78
710.465	263.38
710.908	252.98
711.352	256.08
711.795	261.48
712.239	301.68
712.682	326.88
713.126	360.48
713.569	403.78
714.012	324.28
714.456	284.18
714.899	257.08
715.342	233.08
715.786	224.38
716.229	226.48
716.672	216.08
717.115	210.18
717.558	223.28
718.002	213.58
718.445	221.08
718.888	244.08
719.331	253.58
719.774	270.28
720.217	260.58
720.66	247.18
721.103	221.78
721.546	220.18
721.989	214.98
722.432	196.78
722.874	203.68
723.317	201.88
723.76	196.08
724.203	213.28
724.645	271.48
725.088	366.38
725.531	484.98
725.974	561.58
726.416	473.08
726.859	261.48
727.301	211.78
727.744	209.78
728.187	199.38
728.629	205.68
729.071	203.88
729.514	222.78
729.956	232.38
730.399	240.38
730.841	239.68
731.283	230.08
731.726	228.88
732.168	223.68
732.61	228.48
733.053	248.08
733.495	263.78
733.937	298.48
734.379	332.88
734.821	370.18
735.263	465.58
735.705	692.68
736.148	1317.98
736.59	2208.88
737.032	2689.08
737.474	2190.58
737.916	696.68
738.357	370.18
738.799	274.98
739.241	251.58
739.683	243.88
740.125	248.38
740.567	252.88
741.008	273.28
741.45	265.48
741.892	273.38
742.334	298.38
742.775	309.78
743.217	293.28
743.658	228.48
744.1	215.78
744.542	230.08
744.983	263.58
745.425	301.48
745.866	308.78
746.307	248.18
746.749	246.88
747.19	277.38
747.632	386.38
748.073	719.18
748.514	1555.08
748.956	2442.58
749.397	3047.98
749.838	2550.08
750.279	2600.28
750.72	1293.48
751.162	468.28
751.603	275.58
752.044	215.18
752.485	186.88
752.926	176.28
753.367	171.28
753.808	169.78
754.249	162.28
754.69	157.28
755.131	161.38
755.572	154.78
756.013	147.98
756.453	153.48
756.894	156.08
757.335	163.08
757.776	171.18
758.216	165.08
758.657	167.38
759.098	167.68
759.538	192.68
759.979	217.48
760.42	304.78
760.86	583.28
761.301	1497.08
761.741	3711.98
762.182	5674.38
762.622	4007.68
763.063	1132.08
763.503	465.28
763.943	297.08
764.384	287.68
764.824	341.68
765.264	388.88
765.705	263.78
766.145	183.78
766.585	157.48
767.025	143.98
767.465	154.68
767.906	213.08
768.346	280.78
768.786	293.38
769.226	219.58
769.666	264.18
770.106	507.48
770.546	1293.48
770.986	2304.18
771.426	2107.18
771.866	680.48
772.306	273.88
772.745	174.98
773.185	145.48
773.625	146.08
774.065	137.78
774.505	168.78
774.944	258.58
775.384	576.38
775.824	1081.28
776.263	1076.18
776.703	453.68
777.142	189.28
777.582	134.38
778.021	118.48
778.461	117.08
778.9	122.18
779.34	111.48
779.779	101.68
780.219	88.18
780.658	92.08
781.097	99.58
781.537	99.28
781.976	90.08
782.415	83.48
782.855	91.98
783.294	83.08
783.733	91.98
784.172	96.08
784.611	83.68
785.05	91.68
785.489	93.08
785.928	94.48
786.367	104.28
786.806	98.58
787.245	111.48
787.684	111.38
788.123	125.78
788.562	112.28
789.001	107.78
789.44	102.78
789.879	102.88
790.317	100.08
790.756	113.28
791.195	106.28
791.634	126.48
792.072	168.48
792.511	302.48
792.95	824.58
793.388	1858.68
793.827	1723.28
794.265	583.88
794.704	247.28
795.142	155.68
795.581	132.58
796.019	116.78
796.458	107.28
796.896	100.78
797.334	112.78
797.773	133.08
798.211	182.78
798.649	369.58
799.087	860.38
799.526	1370.18
799.964	1719.88
800.402	1787.48
800.84	653.78
801.278	251.18
801.716	159.38
802.154	132.38
802.592	131.78
803.03	117.98
803.468	117.88
803.906	125.98
804.344	127.48
804.782	118.48
805.22	110.48
805.658	105.48
806.096	118.08
806.533	134.18
806.971	148.58
807.409	189.28
807.847	263.08
808.284	542.98
808.722	1562.38
809.16	2878.88
809.597	2645.98
810.035	4656.58
810.472	5171.28
810.91	1838.48
811.347	678.48
811.785	336.58
812.222	220.88
812.66	165.08
813.097	136.68
813.535	119.68
813.972	106.58
814.409	101.08
814.846	86.38
815.284	88.68
815.721	83.08
816.158	91.68
816.595	97.58
817.032	148.58
817.47	173.78
817.907	139.68
818.344	127.98
818.781	97.28
819.218	87.28
819.655	104.18
820.092	160.08
820.529	184.48
820.966	153.78
821.403	114.88
821.839	96.08
822.276	82.88
822.713	108.78
823.15	115.78
823.587	96.78
824.023	121.58
824.46	239.58
824.897	748.78
825.333	1184.48
825.77	503.38
826.206	198.28
826.643	113.98
827.08	86.38
827.516	62.88
827.953	63.48
828.389	62.58
828.825	57.88
829.262	61.98
829.698	52.08
830.135	50.28
830.571	50.58
831.007	49.98
831.443	53.88
831.88	55.08
832.316	52.08
832.752	53.48
833.188	59.28
833.624	56.28
834.06	54.28
834.497	55.08
834.933	57.98
835.369	59.48
835.805	58.28
836.241	64.28
836.677	64.18
837.112	71.38
837.548	89.68
837.984	114.98
838.42	169.28
838.856	404.58
839.292	1287.68
839.727	2030.68
840.163	936.48
840.599	771.68
841.034	1743.28
841.47	1888.58
841.906	677.68
842.341	286.88
842.777	189.28
843.212	272.98
843.648	276.48
844.083	128.98
844.519	84.58
844.954	67.28
845.39	43.48
845.825	44.28
846.261	50.78
846.696	53.18
847.131	40.58
847.566	49.88
848.002	44.48
848.437	44.18
848.872	52.28
849.307	45.68
849.742	70.58
850.177	152.48
850.613	467.08
851.048	766.18
851.483	330.68
851.918	133.98
852.353	73.48
852.788	50.48
853.223	46.88
853.657	48.18
854.092	41.98
854.527	38.18
854.962	30.88
855.397	37.58
855.832	43.18
856.266	35.28
856.701	36.88
857.136	27.68
857.57	31.48
858.005	40.48
858.44	53.68
858.874	37.48
859.309	50.78
859.743	32.88
860.178	38.88
860.612	32.38
861.047	41.58
861.481	59.08
861.915	61.48
862.35	44.78
862.784	27.68
863.218	33.58
863.653	25.88
864.087	33.48
864.521	47.58
864.955	55.18
865.39	130.68
865.824	153.08
866.258	93.68
866.692	141.88
867.126	148.58
867.56	90.58
867.994	46.38
868.428	28.08
868.862	33.68
869.296	43.78
869.73	47.68
870.164	42.48
870.598	44.88
871.031	31.98
871.465	20.08
871.899	22.68
872.333	18.08
872.766	19.58
873.2	14.88
873.634	25.38
874.067	20.38
874.501	19.08
874.935	26.18
875.368	25.38
875.802	22.88
876.235	21.58
876.669	21.28
877.102	17.98
877.535	21.18
877.969	17.48
878.402	23.68
878.836	14.58
879.269	18.68
879.702	20.48
880.135	17.48
880.569	21.18
881.002	20.88
881.435	17.38
881.868	5.88
882.301	16.68
882.734	15.48
883.167	22.18
883.601	14.48
884.034	19.18
884.467	13.38
884.899	15.58
885.332	10.58
885.765	4.58
886.198	9.18
886.631	10.08
887.064	12.98
887.497	10.98
887.929	19.88
888.362	14.98
888.795	9.58
889.228	8.08
889.66	18.38
890.093	9.48
890.526	14.48
890.958	16.88
891.391	10.68
891.823	14.78
892.256	8.58
892.688	10.98
893.121	13.18
893.553	9.98
893.985	20.48
894.418	19.98
894.85	4.18
895.282	14.78
895.715	15.78
896.147	13.58
896.579	13.58
897.011	11.88
897.444	11.38
897.876	11.78
898.308	11.28
898.74	15.08
899.172	14.58
899.604	15.28
900.036	13.28
900.468	12.68
900.9	12.18
901.332	16.88
901.764	14.58
902.196	13.38
902.628	14.68
903.06	15.28
903.491	21.18
903.923	17.18
904.355	16.68
904.787	21.38
905.218	20.88
905.65	13.88
906.082	10.58
906.513	4.48
906.945	10.48
907.376	5.78
907.808	15.18
908.239	14.28
908.671	18.38
909.102	13.08
909.534	21.38
909.965	37.18
910.397	74.18
910.828	262.08
911.259	416.28
911.691	185.18
912.122	86.58
912.553	42.48
912.984	31.28
913.415	18.38
913.847	17.58
914.278	15.78
914.709	13.88
915.14	14.18
915.571	11.48
916.002	9.38
916.433	13.88
916.864	11.38
917.295	10.38
917.726	18.88
918.157	15.38
918.587	26.78
919.018	16.08
919.449	14.68
919.88	14.38
920.311	22.68
920.741	42.78
921.172	148.48
921.603	129.48
922.033	55.28
922.464	35.28
922.895	16.28
923.325	18.58
923.756	12.78
924.186	12.48
924.617	20.88
925.047	34.68
925.478	44.88
925.908	38.68
926.338	24.98
926.769	18.98
927.199	17.08
927.629	-0.42
928.06	12.48
928.49	11.78
928.92	12.48
929.35	11.38
929.78	8.18
930.21	7.88
930.641	1.18
931.071	3.08
931.501	10.18
931.931	7.98
932.361	10.48
932.791	-2.62
933.221	7.58
933.651	1.28
934.08	12.18
934.51	30.18
934.94	6.28
935.37	9.18
935.8	9.68
936.229	5.28
936.659	9.58
937.089	2.78
937.519	14.68
937.948	18.08
938.378	11.48
938.807	13.88
939.237	1.78
939.666	6.78
940.096	-3.92
940.525	4.48
940.955	2.78
941.384	7.88
941.814	-1.52
942.243	-5.12
942.672	-3.92
943.102	-5.32
943.531	-2.52
943.96	7.58
944.39	6.88
944.819	-4.82
945.248	1.68
945.677	-1.22
946.106	3.48
946.535	2.98
946.964	2.38
947.393	-3.52
947.822	-5.72
948.251	-1.42
948.68	6.78
949.109	6.48
949.538	3.18
949.967	-2.62
950.396	-4.42
950.825	0.28
951.254	-2.22
951.682	-9.32
952.111	3.38
952.54	-0.12
952.969	-9.92
953.397	-8.02
953.826	1.98
954.254	-4.22
954.683	-5.62
955.112	-4.52
955.54	-3.52
955.969	3.18
956.397	-2.52
956.826	3.08
957.254	2.18
957.682	3.48
958.111	3.18
958.539	2.38
958.967	0.58
959.396	1.88
959.824	-1.52
960.252	2.08
960.68	-4.82
961.109	-6.62
961.537	-4.62
961.965	-7.72
962.393	2.38
962.821	-1.62
963.249	-3.52
963.677	5.08
964.105	5.58
964.533	36.48
964.961	32.78
965.389	24.48
965.817	9.48
966.245	-3.12
966.672	-2.22
967.1	-9.22
967.528	-1.42
967.956	-7.42
968.383	-0.02
968.811	-1.32
969.239	-4.12
969.666	-5.32
970.094	1.68
970.522	5.98
970.949	-3.22
971.377	-2.42
971.804	-0.32
972.232	-6.52
972.659	-8.42
973.087	-4.72
973.514	-1.92
973.941	-8.82
974.369	4.98
974.796	0.98
975.223	-0.52
975.651	-4.22
976.078	3.48
976.505	-0.82
976.932	-0.22
977.359	9.58
977.786	12.08
978.214	-1.42
978.641	-5.72
979.068	-5.92
979.495	-0.22
979.922	-2.72
980.349	2.78
980.776	2.88
981.202	-3.92
981.629	5.98
982.056	4.78
982.483	-0.32
982.91	-1.02
983.337	-5.82
983.763	6.18
984.19	-2.82
984.617	-8.02
985.043	-9.02
985.47	-4.82
985.897	-8.92
986.323	-10.42
986.75	4.58
987.176	-0.02
987.603	-1.02
988.029	-2.32
988.456	-1.02
988.882	-2.42
989.308	-9.42
989.735	-5.12
990.161	-3.82
990.587	-9.22
991.014	-7.22
991.44	2.88
991.866	0.48
992.292	-2.82
992.719	-2.12
993.145	-0.32
993.571	-10.42
993.997	-7.52
994.423	-0.22
994.849	-7.62
995.275	2.38
995.701	3.68
996.127	-6.02
996.553	1.18
996.979	-4.82
997.405	-2.22
997.83	-4.22
998.256	-4.62
998.682	-5.72
999.108	-7.02
999.534	-2.42
999.959	-3.32
1000.385	-6.02
1000.811	2.28
1001.236	-8.82
1001.662	-8.12
1002.087	-12.52
1002.513	-1.32
1002.938	1.18
1003.364	-1.22
1003.789	-4.12
1004.215	-4.02
1004.64	-7.52
1005.066	-1.62
1005.491	0.78
1005.916	-0.42
1006.342	-2.22
1006.767	-5.02
1007.192	5.08
1007.617	-6.72
1008.042	-8.82
1008.468	-9.52
1008.893	-6.02
1009.318	-0.62
1009.743	1.18
1010.168	-3.92
1010.593	-3.22
1011.018	-12.62
1011.443	-5.12
1011.868	0.28
1012.293	-3.02
1012.718	-5.12
1013.143	3.98
1013.567	0.28
1013.992	-3.72
1014.417	-13.72
1014.842	4.18
1015.267	-7.52
1015.691	-6.22
1016.116	-0.92
1016.541	-0.92
1016.965	2.98
1017.39	-4.32
1017.814	-2.62
1018.239	1.18
1018.663	-3.92
1019.088	-15.52
1019.512	0.58
1019.937	3.58
1020.361	-3.22
1020.785	-8.92
1021.21	0.28
1021.634	0.48
1022.058	1.38
1022.483	2.08
1022.907	-4.62
1023.331	-3.02
1023.755	-4.32
1024.179	-3.32
1024.604	-3.82
1025.028	-10.72
1025.452	-8.32
1025.876	-0.92
1026.3	-1.92
1026.724	-9.72
1027.148	-4.92
1027.572	-7.92
1027.996	-6.42
1028.42	4.88
1028.843	-0.52
1029.267	-2.62
1029.691	-4.82
1030.115	-8.82
1030.539	-6.42
1030.962	-4.92
1031.386	-8.52
1031.81	3.18
1032.233	-4.12
1032.657	3.18
1033.08	-0.52
1033.504	-1.52
1033.927	0.78
1034.351	-3.02
1034.774	-1.42
1035.198	-2.92
1035.621	-6.72
1036.045	-8.62
1036.468	-2.42
1036.891	-9.12
1037.315	-12.22
1037.738	-16.72
1038.161	-3.42
1038.584	-10.72
1039.008	-3.82
1039.431	-6.32
1039.854	-0.92
1040.277	-5.22
1040.7	-14.22
1041.123	0.68
1041.546	-6.82
1041.969	-3.12
1042.392	-8.32
1042.815	-3.62
1043.238	-0.02
1043.661	0.88
1044.084	-7.12
1044.507	-5.42
1044.93	-2.32
1045.352	-1.92
1045.775	-7.12
1046.198	-3.12
1046.621	-2.22
1047.043	0.18
1047.466	5.88
1047.889	-5.02
1048.311	2.48
1048.734	0.98
1049.156	-2.82
1049.579	-1.42
1050.001	-10.62
1050.424	-1.22
1050.846	-3.52
1051.269	-4.32
1051.691	-10.82
1052.113	-7.72
1052.536	-0.62
1052.958	0.58
1053.38	-1.62
1053.802	-15.42
1054.225	0.78
1054.647	-10.32
1055.069	-7.32
1055.491	1.28
1055.913	-12.82
1056.335	-6.22
1056.757	-3.42
1057.179	-8.72
1057.601	-5.32
1058.023	-7.82
1058.445	-5.62
1058.867	-2.22
1059.289	-0.02
1059.711	-8.62
1060.133	-5.82
1060.555	-8.32
1060.976	-6.92
1061.398	-5.32
1061.82	-2.02
1062.241	-5.22
1062.663	-8.72
1063.085	-5.12
1063.506	-0.42
1063.928	-0.72
1064.35	-0.02
1064.771	-19.82
1065.193	-6.22
1065.614	-7.62
1066.035	-3.92
1066.457	-5.22
1066.878	-2.22
1067.3	-8.62
1067.721	-7.62
1068.142	-8.32
1068.564	0.88
1068.985	-3.62
1069.406	-4.82
1069.827	-5.32
1070.248	2.08
1070.67	-1.92
1071.091	-5.22
1071.512	-3.72
1071.933	-4.22
1072.354	-8.02
1072.775	-6.12
1073.196	-11.42
1073.617	-2.02
1074.038	-13.22
1074.459	-1.62
1074.88	-7.22
1075.3	-1.82
1075.721	-10.02
1076.142	-1.72
1076.563	-0.92
1076.983	-8.82
1077.404	-6.42
1077.825	-12.02
1078.246	-7.82
1078.666	-10.32
1079.087	-6.82
1079.507	-4.92
1079.928	1.18
1080.348	-1.82
1080.769	-5.32
1081.189	-2.32
1081.61	-6.72
1082.03	-4.52
1082.451	-13.52
1082.871	-5.32
1083.291	-8.12
1083.711	-10.82
1084.132	-2.22
1084.552	-4.62
1084.972	-2.92
1085.392	-12.92
1085.813	-12.82
1086.233	-8.92
1086.653	-5.92
1087.073	-1.02
1087.493	-8.52
1087.913	-5.22
1088.333	-6.32
1088.753	-1.02
1089.173	-0.22
1089.593	-6.12
1090.013	1.08
1090.433	2.38
1090.852	-2.02
1091.272	-2.22
1091.692	-3.32
1092.112	0.58
1092.531	-4.52
1092.951	-11.62
1093.371	-0.82
1093.79	-2.92
1094.21	-1.02
1094.63	-3.82
1095.049	-6.82
1095.469	-2.82
1095.888	-1.82
1096.308	0.78
1096.727	4.08
1097.146	-4.62
1097.566	-2.42
1097.985	-11.02
1098.405	-0.62
1098.824	-6.02
1099.243	-7.22
1099.662	-7.82
1100.082	-5.92
1100.501	-1.72
1100.92	-5.62
1101.339	-6.62
1101.758	-4.72
