Data from 20171114-ORNL-Ar_H_NY_Subt18_08-07-40-443.txt Node
Date: Tue Nov 14 08:07:40 EST 2017
User: Ender
Spectrometer: HR+D1039
Trigger mode: 0
Integration Time (sec): 2.730000E-2
Scans to average: 10
Electric dark correction enabled: true
Nonlinearity correction enabled: false
Boxcar width: 0
XAxis mode: Wavelengths
Number of Pixels in Spectrum: 2048
>>>>>Begin Spectral Data<<<<<
187.836	-1.31
188.309	-1.31
188.782	-1.31
189.255	1.09
189.728	1.99
190.201	4.29
190.674	-0.81
191.147	2.39
191.619	-13.01
192.092	0.49
192.565	-1.71
193.038	4.49
193.511	0.59
193.984	0.99
194.456	-2.81
194.929	3.99
195.402	1.19
195.874	-1.81
196.347	-4.81
196.82	-5.31
197.292	5.99
197.765	0.59
198.237	-2.51
198.71	-0.61
199.182	-6.41
199.655	-0.61
200.127	1.69
200.6	-3.51
201.072	-4.21
201.544	-5.51
202.017	-2.21
202.489	1.59
202.961	-2.61
203.433	0.09
203.906	-9.31
204.378	-8.11
204.85	-6.11
205.322	-13.31
205.794	-5.11
206.266	-6.11
206.739	-8.61
207.211	1.99
207.683	-5.41
208.155	-10.01
208.627	-9.01
209.099	-4.91
209.57	-8.21
210.042	-7.61
210.514	-2.61
210.986	-2.71
211.458	-10.91
211.93	-6.51
212.402	-1.31
212.873	-7.01
213.345	-9.11
213.817	-9.41
214.288	-4.51
214.76	-9.41
215.232	-4.11
215.703	-5.11
216.175	0.49
216.646	-6.81
217.118	-10.41
217.589	-6.11
218.061	-0.21
218.532	-7.21
219.004	-2.61
219.475	-8.61
219.946	1.09
220.418	-10.41
220.889	-1.91
221.36	1.79
221.832	-6.11
222.303	-14.01
222.774	-4.81
223.245	-14.31
223.717	-5.71
224.188	-6.01
224.659	-10.71
225.13	-3.41
225.601	-1.81
226.072	1.19
226.543	-2.21
227.014	2.49
227.485	-1.91
227.956	-4.11
228.427	-3.71
228.898	-5.21
229.369	4.69
229.839	-8.51
230.31	-8.31
230.781	2.09
231.252	-3.41
231.722	-4.31
232.193	-2.31
232.664	-5.41
233.135	-2.11
233.605	-4.01
234.076	-3.91
234.546	2.79
235.017	5.79
235.487	-6.41
235.958	-0.71
236.428	-7.21
236.899	2.59
237.369	10.69
237.84	-7.41
238.31	4.79
238.78	2.49
239.251	1.39
239.721	-0.61
240.191	-3.21
240.662	-1.51
241.132	-0.11
241.602	-0.21
242.072	3.79
242.542	6.59
243.013	-1.31
243.483	0.29
243.953	-2.21
244.423	-0.61
244.893	-2.81
245.363	3.29
245.833	0.09
246.303	-1.11
246.773	5.99
247.243	-0.61
247.712	1.19
248.182	5.99
248.652	0.59
249.122	-1.61
249.592	6.29
250.061	20.79
250.531	25.29
251.001	8.19
251.471	15.39
251.94	19.49
252.41	2.69
252.879	0.09
253.349	13.19
253.818	10.09
254.288	6.89
254.757	1.69
255.227	-0.21
255.696	6.89
256.166	7.49
256.635	8.79
257.105	3.59
257.574	6.69
258.043	8.29
258.513	5.39
258.982	11.69
259.451	5.79
259.92	10.39
260.389	10.19
260.859	11.69
261.328	8.69
261.797	19.49
262.266	6.99
262.735	4.69
263.204	3.59
263.673	-6.61
264.142	8.79
264.611	-7.61
265.08	0.69
265.549	0.89
266.018	2.89
266.487	-4.91
266.955	-0.01
267.424	-7.71
267.893	3.79
268.362	4.39
268.83	-4.61
269.299	7.19
269.768	2.49
270.236	0.69
270.705	5.49
271.174	4.89
271.642	-0.81
272.111	8.49
272.579	11.99
273.048	15.49
273.516	17.89
273.985	22.59
274.453	14.09
274.922	14.59
275.39	7.19
275.858	1.79
276.327	8.29
276.795	16.29
277.263	5.09
277.731	31.19
278.2	50.09
278.668	58.49
279.136	40.09
279.604	17.69
280.072	13.79
280.54	-1.21
281.008	4.59
281.477	11.49
281.945	12.79
282.413	13.39
282.881	14.69
283.348	3.09
283.816	15.29
284.284	12.69
284.752	15.99
285.22	6.69
285.688	10.29
286.156	12.49
286.623	41.49
287.091	48.89
287.559	22.29
288.026	12.19
288.494	15.49
288.962	4.09
289.429	10.19
289.897	13.79
290.364	9.59
290.832	11.09
291.3	8.99
291.767	14.29
292.234	17.29
292.702	6.99
293.169	10.39
293.637	17.59
294.104	15.49
294.571	3.99
295.039	7.89
295.506	9.39
295.973	17.59
296.44	9.19
296.908	13.89
297.375	14.79
297.842	18.29
298.309	10.39
298.776	8.79
299.243	19.89
299.71	9.39
300.177	12.59
300.644	19.89
301.111	16.09
301.578	21.59
302.045	12.29
302.512	16.19
302.979	19.29
303.446	20.09
303.913	13.79
304.379	8.39
304.846	26.59
305.313	18.39
305.78	21.09
306.246	17.29
306.713	22.49
307.18	17.89
307.646	19.99
308.113	14.99
308.579	16.29
309.046	27.09
309.512	22.99
309.979	15.09
310.445	26.19
310.912	21.59
311.378	18.19
311.845	25.29
312.311	26.89
312.777	27.49
313.244	27.59
313.71	29.79
314.176	22.89
314.642	27.69
315.109	22.79
315.575	29.39
316.041	35.89
316.507	20.19
316.973	35.09
317.439	25.99
317.905	29.79
318.371	25.99
318.837	28.59
319.303	26.09
319.769	31.39
320.235	26.29
320.701	31.69
321.167	27.79
321.633	27.59
322.099	32.89
322.564	36.79
323.03	31.59
323.496	31.09
323.962	30.39
324.427	26.19
324.893	39.69
325.359	25.09
325.824	31.69
326.29	28.59
326.755	33.49
327.221	33.59
327.686	29.69
328.152	38.19
328.617	35.59
329.083	39.99
329.548	40.69
330.014	33.59
330.479	32.89
330.944	34.29
331.41	36.89
331.875	41.69
332.34	36.79
332.805	38.59
333.271	38.19
333.736	38.79
334.201	45.19
334.666	43.59
335.131	42.39
335.596	44.79
336.061	45.19
336.526	37.29
336.991	43.39
337.456	50.49
337.921	42.29
338.386	45.29
338.851	37.99
339.316	45.29
339.781	42.09
340.246	47.59
340.711	37.79
341.175	45.39
341.64	40.19
342.105	47.29
342.569	49.09
343.034	56.59
343.499	45.99
343.963	46.69
344.428	56.49
344.893	53.99
345.357	52.79
345.822	51.39
346.286	55.09
346.751	64.29
347.215	59.49
347.679	60.29
348.144	77.39
348.608	67.09
349.073	56.49
349.537	62.39
350.001	68.79
350.465	80.59
350.93	66.19
351.394	75.69
351.858	60.59
352.322	77.29
352.786	72.29
353.25	88.49
353.715	95.59
354.179	81.09
354.643	107.09
355.107	111.79
355.571	93.39
356.035	93.49
356.498	105.69
356.962	107.99
357.426	113.79
357.89	103.99
358.354	80.59
358.818	72.39
359.281	74.49
359.745	71.99
360.209	63.29
360.673	62.89
361.136	67.49
361.6	76.69
362.064	72.49
362.527	69.59
362.991	78.69
363.454	78.09
363.918	67.79
364.381	70.29
364.845	69.59
365.308	75.99
365.772	80.39
366.235	75.89
366.698	72.79
367.162	81.99
367.625	76.29
368.088	74.89
368.552	71.89
369.015	80.99
369.478	85.19
369.941	81.19
370.404	85.69
370.867	95.29
371.331	99.99
371.794	99.59
372.257	105.59
372.72	113.89
373.183	102.39
373.646	94.79
374.109	100.69
374.572	100.09
375.035	97.59
375.497	101.39
375.96	92.19
376.423	94.19
376.886	99.79
377.349	97.39
377.811	94.09
378.274	96.89
378.737	99.69
379.199	102.09
379.662	102.29
380.125	109.99
380.587	111.49
381.05	111.19
381.512	121.09
381.975	116.49
382.437	126.29
382.9	118.49
383.362	120.69
383.825	130.69
384.287	131.09
384.75	130.69
385.212	127.29
385.674	127.19
386.136	125.89
386.599	115.79
387.061	120.29
387.523	123.39
387.985	125.09
388.447	141.29
388.91	138.09
389.372	154.19
389.834	148.39
390.296	137.19
390.758	146.49
391.22	160.09
391.682	200.79
392.144	286.09
392.606	218.49
393.068	159.29
393.529	161.19
393.991	155.89
394.453	132.39
394.915	151.09
395.377	178.39
395.838	209.69
396.3	146.69
396.762	134.49
397.224	124.49
397.685	123.79
398.147	126.79
398.608	120.79
399.07	122.79
399.531	127.59
399.993	138.49
400.454	136.69
400.916	137.89
401.377	135.69
401.839	142.19
402.3	143.19
402.762	156.29
403.223	175.09
403.684	165.49
404.145	146.19
404.607	150.79
405.068	152.39
405.529	157.49
405.99	181.29
406.451	161.19
406.913	162.49
407.374	147.59
407.835	148.09
408.296	155.59
408.757	161.59
409.218	175.99
409.679	170.59
410.14	164.89
410.601	173.69
411.062	174.29
411.522	183.29
411.983	183.79
412.444	164.59
412.905	163.69
413.366	169.49
413.826	178.39
414.287	210.69
414.748	245.39
415.208	230.19
415.669	193.19
416.13	195.49
416.59	187.49
417.051	202.89
417.511	205.59
417.972	224.79
418.432	231.99
418.893	271.29
419.353	244.19
419.814	195.69
420.274	172.79
420.734	167.29
421.195	190.99
421.655	188.19
422.115	190.09
422.576	184.19
423.036	190.19
423.496	192.69
423.956	199.89
424.416	214.49
424.876	246.09
425.336	247.49
425.797	250.39
426.257	245.89
426.717	227.09
427.177	219.79
427.637	212.79
428.097	225.29
428.556	236.19
429.016	257.29
429.476	259.39
429.936	259.59
430.396	264.99
430.856	278.99
431.315	309.59
431.775	336.29
432.235	364.39
432.694	340.59
433.154	349.59
433.614	369.09
434.073	334.19
434.533	272.09
434.993	258.19
435.452	276.29
435.912	285.79
436.371	279.99
436.83	278.49
437.29	266.09
437.749	242.39
438.209	237.59
438.668	256.89
439.127	271.19
439.587	250.49
440.046	235.09
440.505	241.99
440.964	255.99
441.424	305.19
441.883	296.69
442.342	249.19
442.801	210.39
443.26	200.29
443.719	208.79
444.178	207.89
444.637	201.59
445.096	211.99
445.555	218.89
446.014	212.29
446.473	221.99
446.932	225.99
447.391	216.69
447.849	218.09
448.308	208.69
448.767	216.99
449.226	223.19
449.685	217.19
450.143	237.39
450.602	231.49
451.061	220.59
451.519	218.79
451.978	222.49
452.436	226.89
452.895	227.89
453.353	243.09
453.812	234.89
454.27	235.19
454.729	227.29
455.187	229.29
455.646	237.29
456.104	239.99
456.562	254.29
457.021	255.19
457.479	249.59
457.937	260.49
458.395	249.99
458.854	231.39
459.312	246.29
459.77	269.49
460.228	244.29
460.686	229.19
461.144	234.79
461.602	233.69
462.06	233.49
462.518	244.49
462.976	246.99
463.434	253.99
463.892	255.09
464.35	265.59
464.808	273.69
465.266	251.49
465.724	259.09
466.181	260.49
466.639	256.49
467.097	275.19
467.555	291.89
468.012	290.59
468.47	293.09
468.928	312.79
469.385	330.79
469.843	333.89
470.3	333.29
470.758	355.39
471.215	378.69
471.673	389.99
472.13	388.49
472.588	405.29
473.045	356.09
473.503	365.09
473.96	378.99
474.417	383.09
474.875	418.09
475.332	461.59
475.789	451.39
476.246	456.19
476.704	472.09
477.161	493.89
477.618	502.19
478.075	545.99
478.532	595.49
478.989	672.79
479.446	793.29
479.903	746.89
480.36	781.89
480.817	846.49
481.274	939.69
481.731	1034.59
482.188	1127.39
482.645	1260.49
483.102	1362.49
483.558	1501.99
484.015	1535.49
484.472	1520.79
484.929	1475.99
485.385	1432.99
485.842	1385.29
486.299	1321.79
486.755	1260.99
487.212	1057.49
487.668	902.89
488.125	838.69
488.582	759.49
489.038	723.39
489.494	677.79
489.951	662.19
490.407	656.69
490.864	631.39
491.32	622.79
491.776	628.99
492.233	631.99
492.689	591.99
493.145	582.49
493.602	583.59
494.058	598.29
494.514	598.39
494.97	614.39
495.426	631.59
495.882	604.39
496.338	599.59
496.794	606.29
497.251	593.29
497.707	621.79
498.163	616.29
498.618	627.69
499.074	620.99
499.53	650.79
499.986	662.49
500.442	633.69
500.898	616.49
501.354	617.69
501.809	621.59
502.265	629.69
502.721	640.89
503.177	654.19
503.632	647.79
504.088	661.39
504.543	700.59
504.999	690.99
505.455	636.89
505.91	615.29
506.366	623.59
506.821	605.39
507.277	602.89
507.732	604.79
508.187	606.39
508.643	622.99
509.098	614.39
509.553	636.99
510.009	643.99
510.464	639.99
510.919	675.09
511.375	680.39
511.83	695.39
512.285	694.99
512.74	739.69
513.195	757.89
513.65	747.59
514.105	749.89
514.56	751.59
515.015	764.09
515.47	785.19
515.925	772.29
516.38	772.19
516.835	765.19
517.29	760.69
517.745	758.59
518.2	750.89
518.655	727.99
519.109	718.59
519.564	717.79
520.019	716.99
520.474	715.49
520.928	706.49
521.383	709.39
521.838	685.59
522.292	706.29
522.747	696.59
523.201	692.69
523.656	681.69
524.11	669.29
524.565	682.79
525.019	679.19
525.474	688.59
525.928	677.79
526.382	679.99
526.837	676.09
527.291	687.69
527.745	676.29
528.2	678.59
528.654	682.29
529.108	675.99
529.562	683.79
530.016	674.49
530.47	671.99
530.925	680.79
531.379	677.09
531.833	678.99
532.287	696.39
532.741	691.39
533.195	687.49
533.649	695.09
534.103	696.49
534.556	685.99
535.01	701.69
535.464	687.29
535.918	701.59
536.372	712.39
536.826	703.69
537.279	694.39
537.733	704.49
538.187	692.99
538.64	695.49
539.094	720.19
539.548	714.39
540.001	711.89
540.455	710.89
540.908	721.19
541.362	724.89
541.815	729.09
542.269	742.19
542.722	756.29
543.175	762.19
543.629	762.29
544.082	774.09
544.536	771.49
544.989	771.89
545.442	781.49
545.895	769.79
546.349	785.49
546.802	779.09
547.255	787.59
547.708	789.39
548.161	801.29
548.614	809.29
549.067	810.29
549.52	801.99
549.973	807.69
550.426	785.59
550.879	780.69
551.332	789.09
551.785	805.79
552.238	793.09
552.691	794.99
553.144	820.99
553.596	829.39
554.049	845.99
554.502	877.49
554.955	902.09
555.407	903.19
555.86	885.99
556.313	872.59
556.765	865.09
557.218	871.59
557.67	858.09
558.123	848.49
558.576	861.29
559.028	856.29
559.48	877.49
559.933	853.09
560.385	820.79
560.838	794.59
561.29	771.99
561.742	766.59
562.195	764.99
562.647	756.59
563.099	758.49
563.551	763.29
564.004	778.29
564.456	750.69
564.908	753.29
565.36	746.99
565.812	722.59
566.264	727.39
566.716	719.19
567.168	703.39
567.62	712.89
568.072	700.29
568.524	687.89
568.976	675.69
569.428	672.99
569.88	662.59
570.332	673.79
570.784	666.99
571.235	668.69
571.687	677.89
572.139	696.39
572.59	709.89
573.042	704.59
573.494	701.89
573.945	702.79
574.397	671.29
574.849	681.79
575.3	679.49
575.752	678.59
576.203	667.79
576.655	674.39
577.106	661.29
577.557	661.39
578.009	659.09
578.46	658.29
578.912	662.59
579.363	662.19
579.814	661.69
580.265	662.99
580.717	658.19
581.168	650.59
581.619	671.39
582.07	675.59
582.521	669.09
582.972	668.59
583.423	678.99
583.875	672.19
584.326	698.79
584.777	740.09
585.227	824.39
585.678	904.59
586.129	992.29
586.58	1060.19
587.031	1157.09
587.482	1309.19
587.933	1484.69
588.384	1282.59
588.834	969.09
589.285	802.19
589.736	770.09
590.186	765.19
590.637	754.99
591.088	739.19
591.538	735.49
591.989	722.19
592.439	719.49
592.89	720.69
593.34	710.89
593.791	712.99
594.241	704.39
594.692	706.89
595.142	697.89
595.593	694.89
596.043	707.69
596.493	707.59
596.943	713.19
597.394	712.49
597.844	707.69
598.294	723.99
598.744	752.19
599.195	771.29
599.645	810.29
600.095	848.59
600.545	912.59
600.995	962.89
601.445	1011.49
601.895	1079.69
602.345	1130.69
602.795	1092.69
603.245	1051.89
603.695	1002.39
604.145	943.19
604.594	900.89
605.044	863.79
605.494	784.19
605.944	742.89
606.393	736.59
606.843	715.59
607.293	730.99
607.743	721.89
608.192	746.79
608.642	753.19
609.091	764.29
609.541	760.99
609.99	750.59
610.44	752.69
610.889	709.29
611.339	695.49
611.788	683.99
612.238	696.59
612.687	711.69
613.136	719.89
613.586	734.79
614.035	740.49
614.484	741.59
614.933	740.49
615.383	740.89
615.832	730.59
616.281	717.59
616.73	685.19
617.179	656.19
617.628	643.39
618.077	628.09
618.526	619.59
618.975	615.49
619.424	601.29
619.873	603.29
620.322	624.99
620.771	598.69
621.22	605.09
621.669	596.39
622.118	587.99
622.567	568.89
623.015	566.69
623.464	559.09
623.913	563.19
624.361	547.59
624.81	550.49
625.259	556.19
625.707	557.09
626.156	554.09
626.604	563.99
627.053	556.29
627.501	543.59
627.95	564.29
628.398	577.39
628.847	564.49
629.295	580.69
629.744	576.99
630.192	560.49
630.64	561.49
631.089	562.99
631.537	572.29
631.985	586.59
632.433	598.09
632.881	598.49
633.33	662.79
633.778	640.29
634.226	567.09
634.674	567.89
635.122	566.89
635.57	593.59
636.018	624.39
636.466	573.99
636.914	553.89
637.362	557.09
637.81	567.29
638.258	577.99
638.705	576.29
639.153	600.49
639.601	613.99
640.049	633.39
640.497	670.79
640.944	687.79
641.392	630.49
641.84	613.89
642.287	581.19
642.735	563.89
643.182	560.59
643.63	567.89
644.078	571.19
644.525	585.39
644.973	594.89
645.42	604.89
645.867	618.19
646.315	640.19
646.762	653.69
647.21	689.19
647.657	718.49
648.104	752.69
648.551	775.49
648.999	837.19
649.446	912.89
649.893	1006.99
650.34	1162.59
650.787	1390.39
651.234	1731.69
651.682	2265.39
652.129	3120.69
652.576	4497.19
653.023	6631.69
653.47	9071.89
653.917	11267.99
654.363	12951.49
654.81	14266.19
655.257	13609.59
655.704	8870.89
656.151	5261.79
656.598	3400.39
657.044	2406.29
657.491	1846.89
657.938	1479.89
658.385	1232.19
658.831	1073.59
659.278	954.69
659.724	841.89
660.171	786.09
660.618	713.19
661.064	695.49
661.511	672.79
661.957	660.19
662.404	638.49
662.85	648.59
663.296	617.39
663.743	561.59
664.189	539.19
664.635	533.39
665.082	519.99
665.528	515.69
665.974	509.79
666.42	502.59
666.867	506.49
667.313	485.09
667.759	480.69
668.205	476.99
668.651	483.29
669.097	479.69
669.543	500.29
669.989	462.49
670.435	445.29
670.881	444.69
671.327	450.59
671.773	471.59
672.219	491.59
672.665	534.29
673.11	579.19
673.556	619.59
674.002	664.59
674.448	652.59
674.893	544.49
675.339	469.19
675.785	435.29
676.23	418.49
676.676	388.29
677.122	379.79
677.567	369.49
678.013	369.39
678.458	355.49
678.904	356.69
679.349	350.89
679.794	350.19
680.24	352.59
680.685	347.69
681.131	345.29
681.576	350.89
682.021	348.09
682.466	341.59
682.912	341.79
683.357	354.59
683.802	374.09
684.247	409.39
684.692	448.09
685.137	489.29
685.583	531.49
686.028	555.29
686.473	510.29
686.918	439.99
687.363	415.39
687.807	390.49
688.252	362.29
688.697	355.99
689.142	337.19
689.587	334.79
690.032	323.69
690.477	345.39
690.921	343.29
691.366	377.29
691.811	399.29
692.255	421.29
692.7	461.29
693.145	502.19
693.589	705.39
694.034	1139.39
694.478	1535.99
694.923	1718.99
695.367	2229.69
695.812	1173.49
696.256	492.09
696.701	376.49
697.145	341.89
697.59	323.29
698.034	327.59
698.478	321.09
698.922	320.99
699.367	320.29
699.811	336.59
700.255	350.39
700.699	379.59
701.143	421.79
701.588	468.29
702.032	517.29
702.476	513.19
702.92	485.49
703.364	483.09
703.808	631.59
704.252	1043.49
704.696	1442.89
705.14	1645.29
705.584	2101.89
706.027	1041.39
706.471	517.29
706.915	397.79
707.359	348.09
707.803	310.59
708.246	301.99
708.69	312.69
709.134	318.59
709.577	309.69
710.021	320.59
710.465	305.69
710.908	304.89
711.352	291.49
711.795	310.19
712.239	348.49
712.682	381.19
713.126	415.79
713.569	461.29
714.012	371.29
714.456	324.29
714.899	303.79
715.342	273.79
715.786	271.29
716.229	261.69
716.672	250.89
717.115	248.59
717.558	242.99
718.002	251.99
718.445	267.29
718.888	291.09
719.331	294.79
719.774	304.09
720.217	301.69
720.66	274.29
721.103	262.19
721.546	256.89
721.989	248.79
722.432	232.09
722.874	234.79
723.317	224.99
723.76	234.49
724.203	261.29
724.645	322.39
725.088	447.19
725.531	559.79
725.974	634.99
726.416	540.79
726.859	311.39
727.301	244.59
727.744	238.59
728.187	232.89
728.629	236.69
729.071	239.49
729.514	259.39
729.956	267.59
730.399	276.39
730.841	284.09
731.283	274.09
731.726	256.89
732.168	260.69
732.61	263.89
733.053	286.49
733.495	310.59
733.937	349.69
734.379	391.79
734.821	430.19
735.263	542.29
735.705	846.59
736.148	1596.99
736.59	2585.89
737.032	2999.59
737.474	2431.59
737.916	803.49
738.357	417.19
738.799	318.89
739.241	293.79
739.683	280.19
740.125	292.49
740.567	299.59
741.008	314.99
741.45	312.39
741.892	314.69
742.334	343.59
742.775	354.09
743.217	336.79
743.658	268.09
744.1	258.19
744.542	264.19
744.983	309.59
745.425	340.69
745.866	343.29
746.307	283.69
746.749	277.29
747.19	321.39
747.632	466.89
748.073	891.49
748.514	1884.09
748.956	2841.49
749.397	3544.89
749.838	2948.89
750.279	2897.49
750.72	1479.59
751.162	538.39
751.603	318.69
752.044	241.59
752.485	216.39
752.926	202.69
753.367	203.59
753.808	194.09
754.249	183.09
754.69	182.79
755.131	177.19
755.572	179.59
756.013	185.69
756.453	184.39
756.894	192.49
757.335	182.49
757.776	195.19
758.216	189.69
758.657	191.89
759.098	203.19
759.538	226.79
759.979	263.59
760.42	365.29
760.86	712.59
761.301	1872.59
761.741	4466.09
762.182	6302.39
762.622	4449.19
763.063	1299.19
763.503	532.89
763.943	342.89
764.384	335.89
764.824	401.09
765.264	424.29
765.705	303.69
766.145	209.99
766.585	186.89
767.025	185.29
767.465	184.29
767.906	236.69
768.346	310.59
768.786	333.79
769.226	259.49
769.666	324.09
770.106	628.49
770.546	1579.39
770.986	2612.69
771.426	2326.09
771.866	789.59
772.306	333.19
772.745	210.39
773.185	173.29
773.625	168.99
774.065	166.39
774.505	201.09
774.944	310.19
775.384	694.99
775.824	1207.79
776.263	1177.39
776.703	507.59
777.142	217.79
777.582	154.49
778.021	133.09
778.461	140.09
778.9	135.59
779.34	127.69
779.779	116.09
780.219	109.59
780.658	106.69
781.097	111.89
781.537	112.19
781.976	111.59
782.415	100.69
782.855	103.09
783.294	100.39
783.733	103.69
784.172	110.59
784.611	100.39
785.05	111.19
785.489	110.19
785.928	114.49
786.367	116.39
786.806	112.49
787.245	129.99
787.684	137.09
788.123	149.79
788.562	128.09
789.001	126.09
789.44	118.39
789.879	114.09
790.317	114.39
790.756	125.99
791.195	126.89
791.634	147.99
792.072	209.09
792.511	369.59
792.95	1027.49
793.388	2132.29
793.827	1903.49
794.265	669.69
794.704	282.99
795.142	182.89
795.581	151.39
796.019	141.89
796.458	129.99
796.896	117.59
797.334	136.19
797.773	160.29
798.211	226.09
798.649	447.79
799.087	1037.59
799.526	1585.39
799.964	2004.09
800.402	1984.89
800.84	751.19
801.278	298.89
801.716	182.19
802.154	150.69
802.592	142.59
803.03	141.09
803.468	125.59
803.906	146.29
804.344	152.99
804.782	143.59
805.22	137.79
805.658	127.29
806.096	149.49
806.533	159.69
806.971	168.69
807.409	216.29
807.847	324.79
808.284	676.89
808.722	1893.89
809.16	3250.39
809.597	3144.19
810.035	5403.19
810.472	5659.59
810.91	2046.29
811.347	785.99
811.785	398.39
812.222	257.19
812.66	196.59
813.097	158.49
813.535	140.59
813.972	128.09
814.409	117.09
814.846	106.99
815.284	109.89
815.721	103.19
816.158	106.59
816.595	115.09
817.032	175.19
817.47	194.49
817.907	159.59
818.344	152.09
818.781	116.59
819.218	101.59
819.655	124.09
820.092	186.99
820.529	212.99
820.966	180.49
821.403	135.29
821.839	107.19
822.276	104.29
822.713	119.49
823.15	133.49
823.587	115.69
824.023	150.19
824.46	308.89
824.897	902.89
825.333	1331.79
825.77	576.29
826.206	224.99
826.643	135.49
827.08	97.69
827.516	78.39
827.953	76.59
828.389	80.09
828.825	64.59
829.262	68.69
829.698	67.49
830.135	57.59
830.571	62.49
831.007	61.79
831.443	61.59
831.88	58.19
832.316	59.49
832.752	62.79
833.188	59.39
833.624	62.89
834.06	62.59
834.497	65.09
834.933	70.79
835.369	74.89
835.805	66.49
836.241	76.49
836.677	75.19
837.112	90.09
837.548	97.89
837.984	133.79
838.42	202.19
838.856	510.29
839.292	1527.29
839.727	2256.59
840.163	1062.49
840.599	939.09
841.034	2035.99
841.47	2087.69
841.906	770.19
842.341	326.29
842.777	233.09
843.212	322.49
843.648	308.09
844.083	149.09
844.519	97.79
844.954	81.69
845.39	58.89
845.825	58.69
846.261	55.49
846.696	45.19
847.131	49.99
847.566	50.79
848.002	51.69
848.437	54.39
848.872	62.79
849.307	59.29
849.742	81.69
850.177	188.19
850.613	562.49
851.048	860.09
851.483	374.29
851.918	151.79
852.353	85.39
852.788	59.09
853.223	52.19
853.657	51.99
854.092	51.59
854.527	37.69
854.962	45.59
855.397	45.19
855.832	50.89
856.266	41.19
856.701	37.89
857.136	39.19
857.57	40.89
858.005	46.69
858.44	56.59
858.874	43.39
859.309	44.69
859.743	38.09
860.178	41.39
860.612	39.89
861.047	51.29
861.481	67.89
861.915	61.89
862.35	47.59
862.784	33.89
863.218	44.39
863.653	31.79
864.087	42.99
864.521	59.69
864.955	72.19
865.39	157.59
865.824	177.39
866.258	113.59
866.692	160.39
867.126	169.29
867.56	96.99
867.994	48.19
868.428	39.39
868.862	39.39
869.296	49.39
869.73	51.69
870.164	55.09
870.598	45.49
871.031	35.89
871.465	33.19
871.899	30.69
872.333	20.99
872.766	24.99
873.2	17.99
873.634	30.29
874.067	26.69
874.501	22.49
874.935	32.99
875.368	32.29
875.802	20.09
876.235	23.19
876.669	22.09
877.102	22.29
877.535	22.59
877.969	19.39
878.402	20.19
878.836	21.49
879.269	27.89
879.702	26.49
880.135	24.99
880.569	20.29
881.002	24.09
881.435	22.29
881.868	16.29
882.301	19.99
882.734	8.39
883.167	17.69
883.601	17.69
884.034	19.89
884.467	13.59
884.899	21.59
885.332	14.99
885.765	12.99
886.198	15.69
886.631	18.09
887.064	20.09
887.497	25.59
887.929	20.09
888.362	14.39
888.795	10.29
889.228	18.69
889.66	24.69
890.093	19.19
890.526	20.59
890.958	18.19
891.391	13.69
891.823	20.09
892.256	11.89
892.688	10.09
893.121	12.99
893.553	8.59
893.985	25.49
894.418	21.69
894.85	13.59
895.282	6.09
895.715	16.69
896.147	11.39
896.579	20.19
897.011	9.19
897.444	14.89
897.876	15.89
898.308	17.19
898.74	10.59
899.172	13.59
899.604	24.79
900.036	22.29
900.468	12.69
900.9	16.69
901.332	12.99
901.764	17.69
902.196	15.39
902.628	17.09
903.06	6.89
903.491	29.59
903.923	19.59
904.355	21.79
904.787	20.59
905.218	18.09
905.65	16.49
906.082	8.59
906.513	14.89
906.945	16.29
907.376	13.69
907.808	16.59
908.239	22.39
908.671	22.19
909.102	16.09
909.534	21.59
909.965	46.79
910.397	94.79
910.828	316.09
911.259	467.89
911.691	214.59
912.122	111.39
912.553	57.49
912.984	36.39
913.415	24.69
913.847	21.89
914.278	17.39
914.709	20.49
915.14	18.59
915.571	16.89
916.002	13.29
916.433	18.29
916.864	20.29
917.295	14.09
917.726	19.29
918.157	17.79
918.587	24.49
919.018	15.39
919.449	18.79
919.88	16.99
920.311	30.09
920.741	50.39
921.172	165.59
921.603	150.99
922.033	72.39
922.464	46.09
922.895	20.89
923.325	23.39
923.756	16.89
924.186	17.49
924.617	24.99
925.047	38.79
925.478	48.39
925.908	42.49
926.338	25.99
926.769	17.19
927.199	22.99
927.629	15.29
928.06	15.79
928.49	11.89
928.92	14.69
929.35	11.99
929.78	11.29
930.21	13.39
930.641	3.39
931.071	10.89
931.501	-2.81
931.931	5.89
932.361	13.39
932.791	3.89
933.221	2.89
933.651	8.19
934.08	14.69
934.51	30.29
934.94	6.89
935.37	7.09
935.8	10.49
936.229	3.09
936.659	12.39
937.089	4.39
937.519	9.99
937.948	20.49
938.378	10.19
938.807	5.59
939.237	5.79
939.666	1.29
940.096	-12.51
940.525	7.99
940.955	2.29
941.384	4.69
941.814	-5.21
942.243	-7.01
942.672	2.49
943.102	2.69
943.531	-6.41
943.96	1.39
944.39	1.69
944.819	-0.51
945.248	2.69
945.677	-1.31
946.106	13.79
946.535	3.79
946.964	0.89
947.393	-1.61
947.822	-4.71
948.251	-8.81
948.68	-1.41
949.109	1.39
949.538	4.69
949.967	-4.31
950.396	1.69
950.825	-6.51
951.254	3.29
951.682	-8.01
952.111	-2.71
952.54	4.29
952.969	-6.01
953.397	-8.91
953.826	-2.31
954.254	-9.21
954.683	-0.71
955.112	-1.51
955.54	1.59
955.969	-2.61
956.397	-7.21
956.826	-9.51
957.254	3.39
957.682	0.09
958.111	0.29
958.539	-5.11
958.967	-4.11
959.396	-3.01
959.824	-1.91
960.252	1.79
960.68	-3.41
961.109	-7.71
961.537	-6.11
961.965	-4.61
962.393	4.59
962.821	-2.81
963.249	-5.71
963.677	2.49
964.105	2.59
964.533	43.79
964.961	40.79
965.389	24.89
965.817	10.29
966.245	-2.01
966.672	-1.31
967.1	-4.61
967.528	-5.71
967.956	0.39
968.383	-3.71
968.811	-4.31
969.239	-7.41
969.666	-3.71
970.094	-0.61
970.522	-4.11
970.949	-1.71
971.377	-9.31
971.804	-5.81
972.232	-6.71
972.659	-2.21
973.087	-2.51
973.514	-5.01
973.941	-5.61
974.369	0.99
974.796	3.19
975.223	-4.21
975.651	-1.51
976.078	-2.71
976.505	-1.21
976.932	-2.11
977.359	15.29
977.786	12.39
978.214	-1.21
978.641	-1.11
979.068	-3.21
979.495	-5.81
979.922	0.59
980.349	-7.91
980.776	4.39
981.202	-3.11
981.629	-1.01
982.056	-2.01
982.483	-4.41
982.91	1.19
983.337	-10.11
983.763	3.39
984.19	-6.41
984.617	-4.71
985.043	-8.11
985.47	1.49
985.897	-4.21
986.323	-11.21
986.75	1.49
987.176	-3.91
987.603	-3.11
988.029	-4.31
988.456	-8.71
988.882	2.09
989.308	-5.81
989.735	-5.31
990.161	0.59
990.587	-5.51
991.014	-0.31
991.44	-2.61
991.866	-1.01
992.292	-5.41
992.719	-3.71
993.145	-0.01
993.571	-5.51
993.997	-5.41
994.423	4.29
994.849	-7.91
995.275	-0.51
995.701	-3.71
996.127	-9.21
996.553	-4.41
996.979	-4.01
997.405	-9.21
997.83	-7.01
998.256	-11.01
998.682	-7.61
999.108	-12.71
999.534	0.29
999.959	-1.01
1000.385	-4.01
1000.811	0.69
1001.236	-11.91
1001.662	-10.21
1002.087	-16.31
1002.513	2.49
1002.938	-7.21
1003.364	-4.11
1003.789	-1.61
1004.215	1.89
1004.64	-7.91
1005.066	-3.01
1005.491	-6.01
1005.916	-0.11
1006.342	-2.91
1006.767	-6.81
1007.192	6.09
1007.617	-5.01
1008.042	-8.01
1008.468	-6.31
1008.893	-6.61
1009.318	-2.91
1009.743	-5.71
1010.168	-0.41
1010.593	-2.71
1011.018	-13.01
1011.443	-4.01
1011.868	0.99
1012.293	-2.11
1012.718	-6.71
1013.143	-0.51
1013.567	1.19
1013.992	-4.31
1014.417	-7.71
1014.842	0.59
1015.267	-1.81
1015.691	-11.01
1016.116	-0.21
1016.541	-3.31
1016.965	2.49
1017.39	6.69
1017.814	-1.11
1018.239	-3.41
1018.663	-6.91
1019.088	-11.51
1019.512	-3.81
1019.937	-6.01
1020.361	-8.61
1020.785	-7.51
1021.21	-5.71
1021.634	-0.11
1022.058	-4.91
1022.483	1.59
1022.907	-0.31
1023.331	-6.51
1023.755	-4.01
1024.179	-4.31
1024.604	-5.51
1025.028	-6.71
1025.452	-6.11
1025.876	-0.91
1026.3	-5.41
1026.724	-14.61
1027.148	-1.61
1027.572	-13.41
1027.996	-6.11
1028.42	-4.31
1028.843	-9.61
1029.267	-10.61
1029.691	-11.01
1030.115	-6.51
1030.539	-5.71
1030.962	-10.01
1031.386	-14.11
1031.81	-7.71
1032.233	-2.61
1032.657	-9.31
1033.08	-4.71
1033.504	-6.61
1033.927	-4.31
1034.351	-0.31
1034.774	-12.11
1035.198	-7.61
1035.621	-7.81
1036.045	-5.61
1036.468	-4.11
1036.891	-10.81
1037.315	-10.71
1037.738	-6.41
1038.161	-9.91
1038.584	-7.81
1039.008	-11.51
1039.431	-5.01
1039.854	-4.91
1040.277	-7.81
1040.7	-9.51
1041.123	-7.11
1041.546	-13.11
1041.969	-5.31
1042.392	-13.21
1042.815	-4.61
1043.238	-0.81
1043.661	-3.81
1044.084	-8.01
1044.507	-7.01
1044.93	-6.51
1045.352	-12.51
1045.775	-6.01
1046.198	-3.21
1046.621	-9.81
1047.043	-5.31
1047.466	4.79
1047.889	-6.11
1048.311	-7.71
1048.734	-4.01
1049.156	-8.31
1049.579	-1.31
1050.001	-5.11
1050.424	0.69
1050.846	-5.41
1051.269	-7.51
1051.691	-7.31
1052.113	-7.21
1052.536	-7.11
1052.958	-4.51
1053.38	-4.91
1053.802	-7.11
1054.225	-0.11
1054.647	-5.01
1055.069	-11.01
1055.491	-0.61
1055.913	-10.91
1056.335	-1.01
1056.757	-1.31
1057.179	-3.71
1057.601	-8.01
1058.023	-8.61
1058.445	-8.31
1058.867	-7.41
1059.289	-7.11
1059.711	-8.01
1060.133	-3.01
1060.555	-5.71
1060.976	-9.21
1061.398	-8.81
1061.82	-9.91
1062.241	-5.71
1062.663	-5.91
1063.085	-12.61
1063.506	1.99
1063.928	-2.61
1064.35	1.89
1064.771	-11.11
1065.193	-1.91
1065.614	-7.61
1066.035	-0.51
1066.457	-3.71
1066.878	2.09
1067.3	-9.51
1067.721	-5.61
1068.142	-4.81
1068.564	-0.71
1068.985	-4.91
1069.406	-5.51
1069.827	-3.51
1070.248	-3.71
1070.67	-4.01
1071.091	-11.31
1071.512	-9.51
1071.933	-5.91
1072.354	-11.21
1072.775	-3.81
1073.196	-15.61
1073.617	-1.71
1074.038	-5.01
1074.459	-2.81
1074.88	-6.01
1075.3	-2.01
1075.721	-11.31
1076.142	3.89
1076.563	-2.91
1076.983	-10.71
1077.404	-10.01
1077.825	-12.91
1078.246	-7.01
1078.666	-16.31
1079.087	-8.91
1079.507	-10.21
1079.928	-2.41
1080.348	-3.41
1080.769	-11.31
1081.189	-4.91
1081.61	-3.31
1082.03	-7.51
1082.451	-8.41
1082.871	-5.01
1083.291	-11.11
1083.711	-8.21
1084.132	-7.41
1084.552	-11.31
1084.972	-4.91
1085.392	-7.11
1085.813	-9.61
1086.233	-10.71
1086.653	-9.51
1087.073	-1.21
1087.493	-9.91
1087.913	-9.01
1088.333	-5.51
1088.753	-7.81
1089.173	-1.51
1089.593	-3.51
1090.013	-0.41
1090.433	1.89
1090.852	-2.51
1091.272	-5.11
1091.692	-2.41
1092.112	-6.81
1092.531	-13.81
1092.951	-14.81
1093.371	-5.21
1093.79	1.39
1094.21	-4.11
1094.63	-7.41
1095.049	-7.21
1095.469	-5.61
1095.888	-4.41
1096.308	-0.01
1096.727	2.79
1097.146	-8.01
1097.566	-1.91
1097.985	-9.21
1098.405	-4.31
1098.824	-9.81
1099.243	-9.91
1099.662	-8.21
1100.082	-9.31
1100.501	-4.61
1100.92	-5.01
1101.339	-3.51
1101.758	-7.61
