Data from 20171114-ORNL-Ar_H_NY_Subt18_08-07-31-162.txt Node
Date: Tue Nov 14 08:07:31 EST 2017
User: Ender
Spectrometer: HR+D1039
Trigger mode: 0
Integration Time (sec): 2.730000E-2
Scans to average: 10
Electric dark correction enabled: true
Nonlinearity correction enabled: false
Boxcar width: 0
XAxis mode: Wavelengths
Number of Pixels in Spectrum: 2048
>>>>>Begin Spectral Data<<<<<
187.836	-4.61
188.309	-4.61
188.782	-4.61
189.255	0.19
189.728	-4.51
190.201	6.09
190.674	2.39
191.147	4.69
191.619	-8.51
192.092	0.59
192.565	-0.41
193.038	3.99
193.511	2.19
193.984	0.39
194.456	-3.31
194.929	2.09
195.402	-1.41
195.874	0.19
196.347	-5.21
196.82	-8.71
197.292	1.49
197.765	0.59
198.237	-6.81
198.71	-0.21
199.182	-1.21
199.655	0.59
200.127	3.59
200.6	1.19
201.072	-4.71
201.544	-4.81
202.017	-5.11
202.489	1.49
202.961	0.29
203.433	0.99
203.906	-0.31
204.378	-8.51
204.85	-8.61
205.322	-5.41
205.794	-3.81
206.266	-5.71
206.739	-8.41
207.211	0.59
207.683	-9.21
208.155	-8.51
208.627	-7.31
209.099	-4.91
209.57	-10.41
210.042	-9.11
210.514	-6.31
210.986	-5.51
211.458	-13.01
211.93	-4.31
212.402	2.79
212.873	0.59
213.345	-11.01
213.817	-10.01
214.288	2.29
214.76	-14.11
215.232	2.49
215.703	-2.91
216.175	-8.81
216.646	-3.71
217.118	-7.81
217.589	-1.01
218.061	-2.51
218.532	-8.21
219.004	-3.91
219.475	-4.61
219.946	-10.11
220.418	-3.51
220.889	1.19
221.36	2.39
221.832	0.19
222.303	-7.91
222.774	4.89
223.245	-10.21
223.717	-12.81
224.188	-4.51
224.659	-10.71
225.13	-7.71
225.601	-3.51
226.072	-0.71
226.543	-3.41
227.014	-2.01
227.485	-9.01
227.956	-11.51
228.427	-4.01
228.898	-5.61
229.369	-2.71
229.839	-2.21
230.31	-9.91
230.781	0.99
231.252	-8.01
231.722	-7.31
232.193	-3.31
232.664	-5.81
233.135	4.19
233.605	-1.41
234.076	-7.91
234.546	-3.61
235.017	2.19
235.487	-0.61
235.958	-2.61
236.428	-8.31
236.899	3.69
237.369	1.79
237.84	-1.81
238.31	1.69
238.78	1.39
239.251	-3.91
239.721	-4.01
240.191	-0.61
240.662	-2.31
241.132	-6.91
241.602	-6.11
242.072	-5.11
242.542	3.49
243.013	2.69
243.483	6.39
243.953	5.69
244.423	-1.21
244.893	-7.51
245.363	-4.01
245.833	2.39
246.303	-5.21
246.773	3.09
247.243	1.69
247.712	1.29
248.182	6.39
248.652	5.09
249.122	-1.91
249.592	2.49
250.061	12.19
250.531	23.19
251.001	9.79
251.471	11.69
251.94	14.79
252.41	3.49
252.879	-2.11
253.349	12.19
253.818	5.09
254.288	-0.91
254.757	7.39
255.227	-3.31
255.696	0.39
256.166	1.09
256.635	3.69
257.105	3.89
257.574	5.49
258.043	5.29
258.513	6.99
258.982	15.89
259.451	1.09
259.92	10.19
260.389	2.39
260.859	10.49
261.328	6.49
261.797	12.39
262.266	6.29
262.735	7.29
263.204	9.19
263.673	0.09
264.142	4.39
264.611	-6.91
265.08	-0.31
265.549	-0.81
266.018	1.99
266.487	-1.51
266.955	-3.51
267.424	-3.91
267.893	4.99
268.362	-1.81
268.83	2.19
269.299	-1.61
269.768	-3.01
270.236	1.69
270.705	-2.81
271.174	-4.61
271.642	0.69
272.111	11.59
272.579	11.49
273.048	13.29
273.516	18.99
273.985	21.89
274.453	11.49
274.922	14.99
275.39	12.29
275.858	1.59
276.327	3.09
276.795	11.89
277.263	0.79
277.731	21.89
278.2	39.79
278.668	39.99
279.136	38.29
279.604	8.59
280.072	7.79
280.54	4.69
281.008	2.79
281.477	7.99
281.945	5.29
282.413	16.49
282.881	11.99
283.348	2.39
283.816	10.09
284.284	7.69
284.752	10.49
285.22	10.79
285.688	16.89
286.156	8.59
286.623	36.29
287.091	36.79
287.559	14.79
288.026	12.99
288.494	11.09
288.962	-3.51
289.429	8.49
289.897	16.29
290.364	10.39
290.832	10.29
291.3	10.39
291.767	12.79
292.234	15.69
292.702	3.19
293.169	8.69
293.637	20.29
294.104	13.69
294.571	-0.41
295.039	6.49
295.506	6.69
295.973	3.79
296.44	7.09
296.908	7.79
297.375	5.59
297.842	14.39
298.309	5.79
298.776	1.29
299.243	15.19
299.71	1.49
300.177	20.19
300.644	13.29
301.111	12.69
301.578	12.29
302.045	10.99
302.512	14.49
302.979	15.59
303.446	16.29
303.913	11.19
304.379	16.09
304.846	18.69
305.313	19.09
305.78	13.39
306.246	17.89
306.713	15.49
307.18	20.39
307.646	20.59
308.113	15.19
308.579	20.19
309.046	18.39
309.512	22.59
309.979	11.69
310.445	18.19
310.912	23.59
311.378	22.99
311.845	19.69
312.311	18.09
312.777	21.49
313.244	18.59
313.71	28.39
314.176	20.79
314.642	21.49
315.109	17.09
315.575	23.59
316.041	28.39
316.507	20.59
316.973	30.79
317.439	23.69
317.905	24.19
318.371	24.89
318.837	28.39
319.303	24.99
319.769	16.19
320.235	21.49
320.701	26.79
321.167	26.99
321.633	27.09
322.099	29.59
322.564	32.89
323.03	31.09
323.496	32.29
323.962	25.89
324.427	30.99
324.893	31.49
325.359	27.99
325.824	27.99
326.29	26.89
326.755	30.59
327.221	32.49
327.686	25.59
328.152	33.09
328.617	34.09
329.083	31.49
329.548	36.89
330.014	36.29
330.479	33.19
330.944	31.19
331.41	32.19
331.875	32.29
332.34	30.69
332.805	37.29
333.271	35.99
333.736	34.69
334.201	43.99
334.666	35.99
335.131	35.29
335.596	41.29
336.061	37.09
336.526	29.09
336.991	37.49
337.456	43.09
337.921	35.99
338.386	32.19
338.851	35.09
339.316	35.29
339.781	35.09
340.246	40.79
340.711	34.59
341.175	35.29
341.64	28.79
342.105	39.49
342.569	46.29
343.034	39.89
343.499	35.89
343.963	34.99
344.428	51.39
344.893	47.09
345.357	40.19
345.822	40.69
346.286	56.79
346.751	52.09
347.215	45.09
347.679	53.79
348.144	70.29
348.608	66.79
349.073	56.19
349.537	56.09
350.001	60.39
350.465	67.19
350.93	53.69
351.394	61.59
351.858	59.79
352.322	72.29
352.786	60.69
353.25	75.59
353.715	85.79
354.179	77.69
354.643	98.99
355.107	93.89
355.571	88.49
356.035	82.39
356.498	89.99
356.962	96.09
357.426	106.19
357.89	95.59
358.354	76.19
358.818	68.99
359.281	66.29
359.745	64.89
360.209	64.59
360.673	61.79
361.136	63.89
361.6	66.59
362.064	62.59
362.527	67.69
362.991	72.39
363.454	67.09
363.918	55.59
364.381	66.39
364.845	71.79
365.308	66.39
365.772	65.39
366.235	69.09
366.698	65.29
367.162	72.19
367.625	68.39
368.088	75.69
368.552	67.99
369.015	77.39
369.478	83.29
369.941	81.69
370.404	74.69
370.867	82.99
371.331	85.49
371.794	93.59
372.257	97.29
372.72	98.69
373.183	91.89
373.646	83.99
374.109	84.19
374.572	89.69
375.035	91.69
375.497	93.19
375.96	88.99
376.423	89.39
376.886	93.69
377.349	93.59
377.811	85.99
378.274	90.89
378.737	85.89
379.199	91.59
379.662	86.99
380.125	97.19
380.587	98.69
381.05	103.89
381.512	113.59
381.975	112.59
382.437	106.59
382.9	102.29
383.362	112.29
383.825	119.79
384.287	132.39
384.75	118.59
385.212	118.89
385.674	125.29
386.136	111.59
386.599	103.99
387.061	107.39
387.523	117.79
387.985	114.89
388.447	119.59
388.91	124.09
389.372	133.19
389.834	131.49
390.296	121.09
390.758	136.99
391.22	146.89
391.682	181.09
392.144	266.19
392.606	206.09
393.068	146.39
393.529	151.69
393.991	135.39
394.453	128.59
394.915	144.49
395.377	170.79
395.838	188.59
396.3	137.39
396.762	123.39
397.224	118.59
397.685	121.59
398.147	113.59
398.608	115.49
399.07	111.79
399.531	122.19
399.993	126.59
400.454	133.49
400.916	127.39
401.377	121.99
401.839	132.49
402.3	134.89
402.762	147.09
403.223	154.49
403.684	150.79
404.145	146.39
404.607	141.09
405.068	150.19
405.529	139.29
405.99	159.79
406.451	154.69
406.913	155.49
407.374	143.89
407.835	150.29
408.296	150.39
408.757	151.29
409.218	164.79
409.679	156.49
410.14	154.29
410.601	150.69
411.062	159.29
411.522	164.29
411.983	168.79
412.444	155.69
412.905	157.29
413.366	161.39
413.826	176.19
414.287	193.49
414.748	229.39
415.208	224.29
415.669	192.99
416.13	184.09
416.59	185.19
417.051	191.39
417.511	190.49
417.972	212.69
418.432	221.49
418.893	259.19
419.353	223.19
419.814	179.89
420.274	165.99
420.734	161.69
421.195	182.99
421.655	183.29
422.115	168.89
422.576	167.29
423.036	178.69
423.496	185.99
423.956	194.69
424.416	204.69
424.876	241.59
425.336	244.69
425.797	238.59
426.257	236.39
426.717	217.39
427.177	213.69
427.637	198.89
428.097	212.09
428.556	225.79
429.016	243.29
429.476	238.99
429.936	248.79
430.396	255.89
430.856	272.19
431.315	288.59
431.775	316.39
432.235	348.09
432.694	318.69
433.154	321.49
433.614	351.79
434.073	305.19
434.533	258.89
434.993	243.49
435.452	257.59
435.912	276.79
436.371	260.49
436.83	249.39
437.29	246.59
437.749	229.99
438.209	231.09
438.668	247.19
439.127	261.69
439.587	235.29
440.046	217.79
440.505	235.09
440.964	247.59
441.424	293.39
441.883	288.79
442.342	234.99
442.801	208.39
443.26	207.39
443.719	195.59
444.178	201.99
444.637	190.49
445.096	206.39
445.555	204.59
446.014	195.79
446.473	205.59
446.932	214.79
447.391	205.29
447.849	206.89
448.308	199.69
448.767	203.49
449.226	214.49
449.685	217.79
450.143	228.39
450.602	220.29
451.061	207.39
451.519	217.89
451.978	212.49
452.436	211.99
452.895	223.49
453.353	231.09
453.812	223.39
454.27	219.79
454.729	222.89
455.187	215.59
455.646	218.99
456.104	232.19
456.562	236.39
457.021	244.29
457.479	241.69
457.937	252.79
458.395	233.29
458.854	231.89
459.312	235.59
459.77	246.49
460.228	232.19
460.686	217.89
461.144	225.79
461.602	229.39
462.06	225.19
462.518	234.09
462.976	237.89
463.434	231.89
463.892	241.49
464.35	251.79
464.808	257.89
465.266	243.69
465.724	247.39
466.181	246.19
466.639	247.29
467.097	274.59
467.555	273.99
468.012	279.39
468.47	279.89
468.928	299.39
469.385	315.89
469.843	322.39
470.3	320.99
470.758	330.29
471.215	355.79
471.673	372.29
472.13	377.29
472.588	384.79
473.045	347.79
473.503	349.79
473.96	362.09
474.417	375.29
474.875	392.39
475.332	438.79
475.789	424.19
476.246	427.99
476.704	450.79
477.161	474.99
477.618	491.69
478.075	526.29
478.532	573.49
478.989	646.69
479.446	750.89
479.903	717.49
480.36	752.49
480.817	800.89
481.274	893.09
481.731	994.39
482.188	1077.69
482.645	1212.39
483.102	1304.09
483.558	1439.29
484.015	1483.59
484.472	1449.19
484.929	1417.99
485.385	1363.89
485.842	1340.99
486.299	1275.39
486.755	1205.89
487.212	1018.09
487.668	873.99
488.125	790.59
488.582	727.79
489.038	700.49
489.494	663.59
489.951	638.09
490.407	624.59
490.864	601.49
491.32	601.49
491.776	592.19
492.233	594.19
492.689	569.89
493.145	557.09
493.602	553.49
494.058	563.19
494.514	573.69
494.97	591.59
495.426	608.29
495.882	580.89
496.338	569.99
496.794	582.79
497.251	571.39
497.707	589.99
498.163	591.69
498.618	597.79
499.074	599.79
499.53	631.19
499.986	636.19
500.442	603.19
500.898	584.89
501.354	586.99
501.809	590.49
502.265	600.69
502.721	622.29
503.177	628.69
503.632	621.59
504.088	641.59
504.543	672.29
504.999	661.79
505.455	615.79
505.91	595.49
506.366	590.79
506.821	581.29
507.277	593.99
507.732	587.79
508.187	587.49
508.643	591.89
509.098	586.69
509.553	618.19
510.009	616.19
510.464	630.19
510.919	647.79
511.375	641.59
511.83	657.09
512.285	676.59
512.74	712.59
513.195	733.59
513.65	727.29
514.105	725.69
514.56	733.09
515.015	743.89
515.47	750.29
515.925	736.49
516.38	742.49
516.835	739.69
517.29	739.09
517.745	738.59
518.2	723.19
518.655	696.99
519.109	701.79
519.564	693.49
520.019	691.49
520.474	684.19
520.928	673.89
521.383	679.59
521.838	663.99
522.292	662.59
522.747	664.89
523.201	659.89
523.656	654.39
524.11	654.09
524.565	648.39
525.019	658.39
525.474	661.89
525.928	658.39
526.382	657.09
526.837	654.99
527.291	659.39
527.745	661.99
528.2	656.29
528.654	643.19
529.108	648.29
529.562	647.99
530.016	645.09
530.47	652.79
530.925	649.09
531.379	663.49
531.833	660.99
532.287	659.89
532.741	661.69
533.195	665.59
533.649	672.39
534.103	674.69
534.556	674.09
535.01	666.39
535.464	669.39
535.918	678.89
536.372	679.89
536.826	675.29
537.279	676.89
537.733	675.59
538.187	674.59
538.64	680.49
539.094	686.59
539.548	678.69
540.001	686.29
540.455	676.99
540.908	694.59
541.362	704.99
541.815	713.49
542.269	723.79
542.722	719.19
543.175	727.79
543.629	726.59
544.082	744.79
544.536	743.59
544.989	741.09
545.442	754.29
545.895	744.19
546.349	744.69
546.802	751.39
547.255	755.29
547.708	759.49
548.161	773.19
548.614	780.99
549.067	776.69
549.52	776.19
549.973	772.89
550.426	761.49
550.879	758.39
551.332	759.69
551.785	763.39
552.238	767.69
552.691	778.39
553.144	787.49
553.596	797.29
554.049	816.39
554.502	848.79
554.955	867.09
555.407	848.79
555.86	843.19
556.313	844.09
556.765	836.59
557.218	833.69
557.67	835.89
558.123	833.69
558.576	829.59
559.028	827.39
559.48	839.49
559.933	820.39
560.385	794.69
560.838	766.09
561.29	739.69
561.742	743.49
562.195	729.59
562.647	721.49
563.099	731.19
563.551	744.99
564.004	741.39
564.456	734.69
564.908	721.29
565.36	715.89
565.812	688.09
566.264	685.69
566.716	702.69
567.168	679.89
567.62	683.19
568.072	670.39
568.524	667.29
568.976	651.79
569.428	636.79
569.88	633.09
570.332	652.79
570.784	655.79
571.235	653.59
571.687	663.29
572.139	665.59
572.59	670.99
573.042	667.69
573.494	677.29
573.945	671.29
574.397	653.59
574.849	662.19
575.3	659.39
575.752	654.79
576.203	650.69
576.655	657.29
577.106	636.29
577.557	645.39
578.009	637.79
578.46	635.29
578.912	625.49
579.363	641.59
579.814	637.69
580.265	637.19
580.717	632.29
581.168	631.69
581.619	641.19
582.07	653.89
582.521	647.99
582.972	639.29
583.423	645.39
583.875	647.59
584.326	660.59
584.777	707.39
585.227	791.49
585.678	867.09
586.129	950.29
586.58	1027.39
587.031	1102.29
587.482	1240.59
587.933	1411.19
588.384	1233.69
588.834	922.99
589.285	763.59
589.736	756.99
590.186	735.69
590.637	723.19
591.088	712.89
591.538	709.19
591.989	694.09
592.439	700.09
592.89	695.89
593.34	669.89
593.791	670.19
594.241	670.09
594.692	680.39
595.142	665.59
595.593	665.69
596.043	681.79
596.493	679.39
596.943	682.99
597.394	687.29
597.844	682.69
598.294	701.19
598.744	721.89
599.195	741.49
599.645	778.99
600.095	805.39
600.545	885.59
600.995	923.29
601.445	988.09
601.895	1037.59
602.345	1083.39
602.795	1068.79
603.245	1019.19
603.695	973.09
604.145	916.19
604.594	876.59
605.044	814.29
605.494	765.19
605.944	718.99
606.393	703.99
606.843	694.69
607.293	696.99
607.743	706.09
608.192	709.99
608.642	719.29
609.091	730.69
609.541	739.49
609.99	733.59
610.44	733.19
610.889	688.59
611.339	672.29
611.788	656.29
612.238	670.19
612.687	688.89
613.136	695.79
613.586	706.69
614.035	715.59
614.484	726.99
614.933	730.79
615.383	721.79
615.832	708.89
616.281	684.39
616.73	659.19
617.179	636.09
617.628	621.99
618.077	608.59
618.526	591.69
618.975	587.59
619.424	584.19
619.873	586.09
620.322	593.89
620.771	584.99
621.22	585.99
621.669	566.29
622.118	560.39
622.567	554.99
623.015	537.99
623.464	547.89
623.913	530.69
624.361	529.39
624.81	533.49
625.259	532.29
625.707	524.99
626.156	534.09
626.604	546.89
627.053	539.89
627.501	541.59
627.95	542.99
628.398	552.79
628.847	550.89
629.295	539.29
629.744	543.79
630.192	539.39
630.64	545.49
631.089	545.69
631.537	562.59
631.985	559.39
632.433	577.79
632.881	575.59
633.33	631.29
633.778	609.49
634.226	545.39
634.674	549.59
635.122	548.19
635.57	567.99
636.018	598.49
636.466	557.89
636.914	541.79
637.362	549.89
637.81	548.99
638.258	552.99
638.705	557.79
639.153	580.59
639.601	585.09
640.049	622.19
640.497	649.99
640.944	662.19
641.392	619.29
641.84	592.99
642.287	561.89
642.735	542.99
643.182	549.19
643.63	547.59
644.078	552.29
644.525	559.99
644.973	562.89
645.42	579.69
645.867	598.59
646.315	613.29
646.762	631.39
647.21	662.89
647.657	692.09
648.104	724.69
648.551	741.49
648.999	806.89
649.446	878.59
649.893	985.39
650.34	1113.09
650.787	1344.49
651.234	1687.49
651.682	2196.89
652.129	3011.29
652.576	4326.29
653.023	6414.19
653.47	8740.39
653.917	10881.89
654.363	12488.29
654.81	13816.39
655.257	13144.59
655.704	8586.69
656.151	5062.49
656.598	3268.09
657.044	2324.69
657.491	1795.19
657.938	1429.19
658.385	1188.99
658.831	1033.09
659.278	920.79
659.724	825.69
660.171	753.19
660.618	697.79
661.064	658.29
661.511	645.49
661.957	625.69
662.404	620.59
662.85	629.49
663.296	601.39
663.743	544.19
664.189	524.69
664.635	513.99
665.082	500.69
665.528	503.99
665.974	500.09
666.42	497.19
666.867	482.89
667.313	468.19
667.759	465.99
668.205	455.69
668.651	468.59
669.097	464.19
669.543	482.59
669.989	453.99
670.435	435.89
670.881	424.39
671.327	426.79
671.773	450.19
672.219	475.99
672.665	527.39
673.11	560.19
673.556	598.29
674.002	643.09
674.448	624.19
674.893	527.19
675.339	454.49
675.785	426.29
676.23	410.39
676.676	377.29
677.122	370.19
677.567	362.69
678.013	343.79
678.458	345.79
678.904	343.49
679.349	341.79
679.794	345.29
680.24	331.29
680.685	333.89
681.131	326.69
681.576	332.09
682.021	345.99
682.466	336.59
682.912	332.09
683.357	332.59
683.802	365.89
684.247	399.59
684.692	447.49
685.137	474.19
685.583	516.99
686.028	535.99
686.473	487.49
686.918	424.49
687.363	389.69
687.807	379.69
688.252	351.59
688.697	335.09
689.142	320.69
689.587	316.89
690.032	313.89
690.477	328.29
690.921	333.89
691.366	363.59
691.811	382.39
692.255	410.09
692.7	446.49
693.145	482.99
693.589	679.19
694.034	1096.99
694.478	1483.59
694.923	1660.49
695.367	2150.59
695.812	1139.09
696.256	477.99
696.701	356.59
697.145	325.79
697.59	315.39
698.034	305.89
698.478	316.69
698.922	308.29
699.367	312.89
699.811	320.99
700.255	339.19
700.699	379.89
701.143	406.19
701.588	459.29
702.032	501.29
702.476	487.49
702.92	469.59
703.364	480.79
703.808	624.49
704.252	1009.39
704.696	1413.89
705.14	1591.99
705.584	2017.19
706.027	1012.89
706.471	499.19
706.915	378.49
707.359	334.79
707.803	312.79
708.246	297.39
708.69	296.39
709.134	303.79
709.577	296.99
710.021	301.39
710.465	296.19
710.908	284.19
711.352	287.19
711.795	305.49
712.239	339.89
712.682	364.99
713.126	402.79
713.569	445.69
714.012	349.79
714.456	310.89
714.899	286.89
715.342	261.79
715.786	246.59
716.229	236.29
716.672	248.29
717.115	236.49
717.558	235.79
718.002	244.99
718.445	258.39
718.888	278.69
719.331	286.49
719.774	297.59
720.217	285.49
720.66	274.09
721.103	258.39
721.546	245.69
721.989	234.79
722.432	225.49
722.874	229.39
723.317	221.29
723.76	225.79
724.203	252.29
724.645	317.79
725.088	434.79
725.531	544.59
725.974	618.19
726.416	525.29
726.859	295.09
727.301	238.49
727.744	229.39
728.187	222.09
728.629	231.49
729.071	230.49
729.514	243.09
729.956	267.49
730.399	276.89
730.841	280.29
731.283	256.89
731.726	256.09
732.168	251.59
732.61	261.79
733.053	273.79
733.495	305.19
733.937	336.09
734.379	384.79
734.821	421.59
735.263	524.09
735.705	811.39
736.148	1539.29
736.59	2485.89
737.032	2894.29
737.474	2366.29
737.916	775.29
738.357	410.69
738.799	310.99
739.241	283.19
739.683	272.79
740.125	282.19
740.567	284.29
741.008	303.89
741.45	305.49
741.892	306.09
742.334	330.29
742.775	342.39
743.217	322.49
743.658	264.29
744.1	245.09
744.542	248.39
744.983	295.79
745.425	334.79
745.866	330.09
746.307	277.19
746.749	279.49
747.19	310.49
747.632	444.09
748.073	867.19
748.514	1823.29
748.956	2745.09
749.397	3428.39
749.838	2849.69
750.279	2820.09
750.72	1430.59
751.162	524.59
751.603	304.69
752.044	236.99
752.485	204.39
752.926	197.99
753.367	190.09
753.808	183.19
754.249	184.59
754.69	178.19
755.131	179.39
755.572	175.29
756.013	173.99
756.453	177.99
756.894	184.09
757.335	184.09
757.776	189.29
758.216	187.09
758.657	190.29
759.098	190.39
759.538	217.69
759.979	254.19
760.42	368.39
760.86	690.99
761.301	1803.99
761.741	4309.49
762.182	6131.79
762.622	4287.39
763.063	1265.19
763.503	519.39
763.943	335.49
764.384	326.09
764.824	381.79
765.264	411.09
765.705	289.19
766.145	195.99
766.585	175.69
767.025	178.19
767.465	179.09
767.906	237.39
768.346	293.49
768.786	319.69
769.226	245.19
769.666	311.49
770.106	611.89
770.546	1526.99
770.986	2531.39
771.426	2253.69
771.866	763.39
772.306	317.69
772.745	199.59
773.185	164.89
773.625	166.69
774.065	158.49
774.505	189.59
774.944	304.59
775.384	660.29
775.824	1179.89
776.263	1137.09
776.703	489.09
777.142	213.79
777.582	152.69
778.021	130.39
778.461	138.19
778.9	131.49
779.34	126.29
779.779	105.59
780.219	101.39
780.658	108.39
781.097	105.09
781.537	113.79
781.976	108.89
782.415	104.19
782.855	102.09
783.294	96.69
783.733	98.79
784.172	103.79
784.611	102.29
785.05	106.29
785.489	105.79
785.928	109.29
786.367	113.99
786.806	115.79
787.245	125.19
787.684	128.39
788.123	137.59
788.562	128.59
789.001	123.49
789.44	113.89
789.879	110.59
790.317	107.99
790.756	121.99
791.195	129.19
791.634	140.29
792.072	201.49
792.511	347.09
792.95	990.49
793.388	2061.09
793.827	1837.09
794.265	649.99
794.704	272.79
795.142	172.29
795.581	149.59
796.019	126.29
796.458	123.19
796.896	118.99
797.334	119.19
797.773	144.49
798.211	207.49
798.649	435.19
799.087	987.59
799.526	1538.49
799.964	1937.79
800.402	1900.69
800.84	720.09
801.278	293.49
801.716	173.49
802.154	148.19
802.592	136.09
803.03	133.19
803.468	128.39
803.906	130.99
804.344	145.09
804.782	134.49
805.22	126.59
805.658	127.09
806.096	138.59
806.533	147.99
806.971	165.79
807.409	206.49
807.847	300.89
808.284	647.19
808.722	1809.79
809.16	3161.89
809.597	3043.89
810.035	5233.69
810.472	5465.99
810.91	1986.59
811.347	764.69
811.785	385.89
812.222	246.99
812.66	187.59
813.097	161.99
813.535	133.99
813.972	124.89
814.409	119.19
814.846	104.59
815.284	101.09
815.721	95.89
816.158	104.29
816.595	111.19
817.032	177.39
817.47	185.59
817.907	148.89
818.344	140.89
818.781	116.19
819.218	98.79
819.655	119.79
820.092	175.29
820.529	200.49
820.966	171.19
821.403	126.59
821.839	102.79
822.276	99.39
822.713	114.49
823.15	122.89
823.587	109.99
824.023	140.29
824.46	290.39
824.897	878.99
825.333	1298.69
825.77	552.79
826.206	219.19
826.643	132.99
827.08	95.69
827.516	75.19
827.953	70.29
828.389	73.19
828.825	69.59
829.262	61.79
829.698	61.09
830.135	60.59
830.571	61.19
831.007	58.89
831.443	64.89
831.88	61.59
832.316	60.19
832.752	56.19
833.188	64.69
833.624	60.89
834.06	68.69
834.497	66.39
834.933	66.59
835.369	72.49
835.805	62.89
836.241	68.29
836.677	72.69
837.112	85.49
837.548	99.59
837.984	129.69
838.42	191.19
838.856	486.79
839.292	1459.39
839.727	2196.69
840.163	1021.49
840.599	908.39
841.034	1967.89
841.47	2026.49
841.906	746.69
842.341	322.99
842.777	217.29
843.212	310.09
843.648	296.59
844.083	144.49
844.519	91.99
844.954	78.79
845.39	54.59
845.825	57.19
846.261	56.79
846.696	46.39
847.131	46.69
847.566	54.09
848.002	52.99
848.437	53.49
848.872	53.19
849.307	62.49
849.742	84.89
850.177	177.79
850.613	538.99
851.048	837.29
851.483	354.29
851.918	144.49
852.353	82.99
852.788	57.99
853.223	51.59
853.657	48.49
854.092	48.99
854.527	40.29
854.962	40.09
855.397	39.59
855.832	50.39
856.266	36.79
856.701	40.59
857.136	35.69
857.57	43.09
858.005	43.19
858.44	50.29
858.874	42.29
859.309	54.09
859.743	36.29
860.178	46.89
860.612	36.89
861.047	50.29
861.481	61.89
861.915	60.49
862.35	44.19
862.784	24.09
863.218	34.39
863.653	30.49
864.087	43.09
864.521	51.09
864.955	67.69
865.39	152.19
865.824	168.29
866.258	111.49
866.692	154.89
867.126	161.99
867.56	95.69
867.994	50.69
868.428	38.99
868.862	38.69
869.296	52.89
869.73	58.19
870.164	51.59
870.598	42.09
871.031	32.19
871.465	30.39
871.899	36.29
872.333	26.19
872.766	23.69
873.2	22.59
873.634	23.29
874.067	23.59
874.501	22.99
874.935	31.29
875.368	30.19
875.802	23.59
876.235	32.09
876.669	26.39
877.102	21.29
877.535	26.09
877.969	20.89
878.402	21.29
878.836	13.19
879.269	16.99
879.702	21.49
880.135	19.99
880.569	24.79
881.002	25.49
881.435	18.99
881.868	15.89
882.301	22.69
882.734	15.09
883.167	21.19
883.601	16.29
884.034	25.39
884.467	12.19
884.899	14.09
885.332	14.69
885.765	15.79
886.198	17.49
886.631	15.79
887.064	16.69
887.497	17.19
887.929	21.79
888.362	12.69
888.795	9.09
889.228	13.29
889.66	21.29
890.093	17.89
890.526	17.49
890.958	17.39
891.391	17.09
891.823	16.69
892.256	11.19
892.688	11.69
893.121	11.29
893.553	15.09
893.985	21.29
894.418	13.39
894.85	7.99
895.282	11.29
895.715	17.79
896.147	21.89
896.579	10.79
897.011	13.29
897.444	8.49
897.876	17.09
898.308	13.99
898.74	16.89
899.172	12.99
899.604	22.69
900.036	17.59
900.468	15.19
900.9	14.79
901.332	17.39
901.764	4.79
902.196	19.99
902.628	15.59
903.06	14.79
903.491	28.29
903.923	26.19
904.355	15.19
904.787	15.69
905.218	21.29
905.65	14.49
906.082	14.09
906.513	15.59
906.945	15.19
907.376	9.09
907.808	17.19
908.239	17.49
908.671	25.09
909.102	24.99
909.534	22.19
909.965	46.89
910.397	92.19
910.828	302.69
911.259	451.89
911.691	204.19
912.122	103.79
912.553	48.79
912.984	35.39
913.415	28.39
913.847	24.29
914.278	17.49
914.709	14.89
915.14	16.89
915.571	16.89
916.002	12.39
916.433	18.79
916.864	14.19
917.295	9.99
917.726	17.39
918.157	12.99
918.587	28.69
919.018	20.59
919.449	19.49
919.88	27.09
920.311	28.89
920.741	46.69
921.172	162.29
921.603	142.89
922.033	64.59
922.464	40.59
922.895	18.69
923.325	19.39
923.756	11.99
924.186	15.19
924.617	21.39
925.047	35.89
925.478	45.19
925.908	39.29
926.338	24.29
926.769	18.59
927.199	23.59
927.629	8.99
928.06	18.09
928.49	11.19
928.92	19.79
929.35	10.99
929.78	8.69
930.21	5.19
930.641	11.49
931.071	9.09
931.501	3.89
931.931	7.99
932.361	10.69
932.791	1.89
933.221	0.89
933.651	2.49
934.08	18.19
934.51	27.89
934.94	5.69
935.37	6.89
935.8	6.29
936.229	2.29
936.659	9.39
937.089	-0.51
937.519	11.79
937.948	22.89
938.378	15.79
938.807	9.09
939.237	0.79
939.666	7.49
940.096	-4.01
940.525	-0.01
940.955	-2.41
941.384	-0.21
941.814	-2.81
942.243	-0.21
942.672	-1.71
943.102	-2.11
943.531	-5.11
943.96	2.29
944.39	1.19
944.819	-2.61
945.248	6.09
945.677	6.59
946.106	1.79
946.535	1.19
946.964	0.59
947.393	5.49
947.822	2.49
948.251	-0.71
948.68	1.89
949.109	4.09
949.538	5.69
949.967	-2.31
950.396	3.29
950.825	-1.51
951.254	1.49
951.682	-7.01
952.111	-1.51
952.54	6.19
952.969	-1.71
953.397	-8.21
953.826	-7.91
954.254	-11.91
954.683	-0.21
955.112	-6.81
955.54	0.99
955.969	2.19
956.397	3.39
956.826	-1.91
957.254	-0.81
957.682	5.99
958.111	1.59
958.539	-9.01
958.967	0.39
959.396	1.39
959.824	6.89
960.252	2.59
960.68	-5.71
961.109	-0.31
961.537	-4.41
961.965	-1.31
962.393	1.19
962.821	-5.71
963.249	1.69
963.677	2.99
964.105	3.69
964.533	42.39
964.961	39.79
965.389	17.89
965.817	2.09
966.245	-3.31
966.672	-3.81
967.1	-4.41
967.528	2.99
967.956	-0.11
968.383	0.49
968.811	-3.21
969.239	-2.01
969.666	-8.11
970.094	2.79
970.522	-3.91
970.949	0.39
971.377	-2.81
971.804	-3.71
972.232	2.19
972.659	-3.41
973.087	-7.91
973.514	0.49
973.941	-8.11
974.369	7.69
974.796	-2.81
975.223	-0.11
975.651	-4.81
976.078	2.39
976.505	-0.31
976.932	1.89
977.359	13.89
977.786	11.59
978.214	5.59
978.641	-8.01
979.068	-3.21
979.495	-3.61
979.922	3.79
980.349	1.09
980.776	2.19
981.202	-0.11
981.629	4.59
982.056	2.09
982.483	-2.51
982.91	6.19
983.337	-8.91
983.763	8.59
984.19	-8.81
984.617	-0.51
985.043	-1.31
985.47	2.19
985.897	-9.31
986.323	-5.41
986.75	3.29
987.176	-2.81
987.603	4.09
988.029	-0.01
988.456	-7.11
988.882	3.69
989.308	-6.21
989.735	-4.31
990.161	1.29
990.587	-1.11
991.014	-0.61
991.44	-0.01
991.866	-1.21
992.292	-5.21
992.719	-2.61
993.145	-1.61
993.571	-11.11
993.997	-8.51
994.423	-4.11
994.849	-4.71
995.275	-3.61
995.701	-5.41
996.127	-7.51
996.553	-0.21
996.979	-1.71
997.405	-4.71
997.83	-2.11
998.256	-2.71
998.682	-7.61
999.108	-9.61
999.534	-0.31
999.959	-0.51
1000.385	1.69
1000.811	2.29
1001.236	-6.81
1001.662	-12.81
1002.087	-15.51
1002.513	4.99
1002.938	-0.31
1003.364	-5.01
1003.789	1.29
1004.215	0.39
1004.64	-1.61
1005.066	4.49
1005.491	-2.41
1005.916	-2.11
1006.342	-2.71
1006.767	-7.71
1007.192	5.39
1007.617	-6.81
1008.042	-6.11
1008.468	3.39
1008.893	1.29
1009.318	-5.81
1009.743	-5.41
1010.168	0.49
1010.593	-1.81
1011.018	-8.21
1011.443	-3.61
1011.868	-0.41
1012.293	-6.21
1012.718	-7.71
1013.143	-0.91
1013.567	1.79
1013.992	0.39
1014.417	-10.51
1014.842	-0.21
1015.267	-2.31
1015.691	-1.31
1016.116	6.09
1016.541	-7.01
1016.965	0.69
1017.39	3.29
1017.814	-1.91
1018.239	3.49
1018.663	-11.21
1019.088	-9.31
1019.512	-4.91
1019.937	0.79
1020.361	-9.81
1020.785	-11.31
1021.21	-5.91
1021.634	-4.21
1022.058	-2.81
1022.483	5.59
1022.907	-1.21
1023.331	-10.71
1023.755	-4.91
1024.179	-2.21
1024.604	-7.31
1025.028	-6.41
1025.452	-4.41
1025.876	-2.41
1026.3	-2.41
1026.724	-7.61
1027.148	-3.71
1027.572	-7.01
1027.996	-1.71
1028.42	2.69
1028.843	-3.91
1029.267	-0.31
1029.691	-4.31
1030.115	-9.81
1030.539	-7.31
1030.962	-5.91
1031.386	-14.01
1031.81	-0.91
1032.233	-6.01
1032.657	-2.81
1033.08	2.49
1033.504	-0.41
1033.927	-3.31
1034.351	-4.71
1034.774	-8.01
1035.198	-1.81
1035.621	-5.91
1036.045	-8.21
1036.468	-1.21
1036.891	-10.81
1037.315	-9.81
1037.738	-3.01
1038.161	-1.11
1038.584	-8.41
1039.008	-5.31
1039.431	-2.11
1039.854	-4.21
1040.277	-6.21
1040.7	-9.21
1041.123	-3.71
1041.546	-11.41
1041.969	-4.31
1042.392	-10.61
1042.815	0.99
1043.238	2.59
1043.661	-5.11
1044.084	-9.61
1044.507	-5.51
1044.93	-5.71
1045.352	-2.21
1045.775	-4.41
1046.198	-5.51
1046.621	-4.91
1047.043	-1.21
1047.466	9.89
1047.889	-4.91
1048.311	-5.01
1048.734	-4.71
1049.156	-0.21
1049.579	-4.51
1050.001	-6.51
1050.424	-3.51
1050.846	-4.91
1051.269	-8.11
1051.691	-11.01
1052.113	-6.11
1052.536	-0.71
1052.958	-0.21
1053.38	-3.41
1053.802	-8.01
1054.225	4.39
1054.647	-6.41
1055.069	-4.01
1055.491	2.49
1055.913	-11.31
1056.335	-2.71
1056.757	-5.41
1057.179	-8.61
1057.601	-1.41
1058.023	-2.21
1058.445	-2.81
1058.867	-8.41
1059.289	-5.41
1059.711	-10.91
1060.133	-6.81
1060.555	-5.31
1060.976	-9.01
1061.398	-5.81
1061.82	-8.01
1062.241	-9.91
1062.663	-6.81
1063.085	-1.51
1063.506	-6.01
1063.928	-7.51
1064.35	-7.81
1064.771	-10.11
1065.193	-4.81
1065.614	-5.31
1066.035	-2.61
1066.457	0.39
1066.878	-1.01
1067.3	-2.01
1067.721	-2.81
1068.142	-2.31
1068.564	-4.91
1068.985	-4.11
1069.406	-8.41
1069.827	-3.71
1070.248	-0.61
1070.67	-8.31
1071.091	-6.71
1071.512	-5.61
1071.933	-8.71
1072.354	-16.31
1072.775	-6.41
1073.196	-11.01
1073.617	-8.61
1074.038	-5.51
1074.459	-5.01
1074.88	-13.01
1075.3	3.59
1075.721	-6.21
1076.142	-1.01
1076.563	-0.31
1076.983	-13.01
1077.404	-7.81
1077.825	-12.81
1078.246	-2.01
1078.666	-11.31
1079.087	-9.31
1079.507	-8.51
1079.928	-4.11
1080.348	-4.01
1080.769	-3.41
1081.189	4.89
1081.61	-0.01
1082.03	-3.91
1082.451	-6.81
1082.871	-6.61
1083.291	-11.31
1083.711	-13.21
1084.132	-2.51
1084.552	-0.71
1084.972	-4.91
1085.392	-11.01
1085.813	-12.01
1086.233	-10.71
1086.653	-4.91
1087.073	-4.31
1087.493	-12.31
1087.913	-8.71
1088.333	-6.71
1088.753	-7.01
1089.173	-0.51
1089.593	-4.81
1090.013	-1.91
1090.433	-1.61
1090.852	-4.11
1091.272	-3.41
1091.692	-7.71
1092.112	-5.21
1092.531	-8.91
1092.951	-12.31
1093.371	-3.81
1093.79	-1.91
1094.21	-11.01
1094.63	-8.61
1095.049	1.29
1095.469	-7.01
1095.888	-6.51
1096.308	-2.71
1096.727	0.49
1097.146	-3.91
1097.566	-4.61
1097.985	-6.01
1098.405	-4.11
1098.824	-4.41
1099.243	-14.41
1099.662	-4.21
1100.082	-1.21
1100.501	-1.41
1100.92	-9.81
1101.339	-10.21
1101.758	-9.51
