Data from 20171114-ORNL-Ar_H_NY_Subt18_08-07-47-540.txt Node
Date: Tue Nov 14 08:07:47 EST 2017
User: Ender
Spectrometer: HR+D1039
Trigger mode: 0
Integration Time (sec): 2.730000E-2
Scans to average: 10
Electric dark correction enabled: true
Nonlinearity correction enabled: false
Boxcar width: 0
XAxis mode: Wavelengths
Number of Pixels in Spectrum: 2048
>>>>>Begin Spectral Data<<<<<
187.836	-5.49
188.309	-5.49
188.782	-5.49
189.255	3.21
189.728	1.81
190.201	6.31
190.674	1.81
191.147	-0.19
191.619	-6.69
192.092	-0.09
192.565	7.41
193.038	-0.79
193.511	-4.19
193.984	0.61
194.456	0.41
194.929	-1.19
195.402	-0.49
195.874	-2.49
196.347	-4.49
196.82	-10.99
197.292	4.51
197.765	-3.79
198.237	-6.89
198.71	3.31
199.182	-3.19
199.655	-3.59
200.127	-3.79
200.6	0.41
201.072	-1.39
201.544	-3.59
202.017	-5.89
202.489	-0.79
202.961	-1.59
203.433	-3.59
203.906	-13.89
204.378	-6.59
204.85	-4.29
205.322	-4.39
205.794	-2.39
206.266	-6.09
206.739	-5.99
207.211	-2.79
207.683	-6.69
208.155	-8.09
208.627	-4.09
209.099	-6.69
209.57	-16.19
210.042	-4.99
210.514	-8.99
210.986	-8.49
211.458	-12.09
211.93	-6.89
212.402	4.41
212.873	-5.99
213.345	-13.19
213.817	-13.99
214.288	-5.59
214.76	-8.59
215.232	-0.29
215.703	-4.89
216.175	-5.79
216.646	-0.39
217.118	-6.59
217.589	-5.49
218.061	-2.89
218.532	-4.09
219.004	-5.79
219.475	-1.69
219.946	-1.69
220.418	-4.09
220.889	4.51
221.36	1.21
221.832	-5.49
222.303	-9.79
222.774	2.01
223.245	-6.19
223.717	-8.79
224.188	-6.09
224.659	-11.29
225.13	-7.59
225.601	4.51
226.072	-3.89
226.543	-1.19
227.014	-0.99
227.485	-7.89
227.956	-4.59
228.427	-4.09
228.898	-0.29
229.369	4.71
229.839	-3.69
230.31	-9.59
230.781	0.11
231.252	1.11
231.722	-3.79
232.193	-1.79
232.664	2.71
233.135	-1.89
233.605	-1.89
234.076	-3.09
234.546	6.91
235.017	10.41
235.487	1.91
235.958	-4.39
236.428	-7.99
236.899	1.31
237.369	-0.79
237.84	-5.39
238.31	4.91
238.78	0.61
239.251	-2.89
239.721	-3.49
240.191	0.11
240.662	-1.89
241.132	-3.09
241.602	-4.99
242.072	-0.59
242.542	2.61
243.013	0.71
243.483	2.41
243.953	-0.29
244.423	-6.39
244.893	-1.59
245.363	4.21
245.833	-0.19
246.303	-5.19
246.773	9.11
247.243	2.11
247.712	0.21
248.182	4.61
248.652	4.01
249.122	1.01
249.592	9.21
250.061	17.81
250.531	29.41
251.001	12.51
251.471	17.61
251.94	15.21
252.41	3.61
252.879	-0.99
253.349	11.11
253.818	1.31
254.288	2.91
254.757	9.61
255.227	-1.99
255.696	2.71
256.166	2.61
256.635	6.61
257.105	7.71
257.574	6.51
258.043	9.51
258.513	10.11
258.982	18.01
259.451	9.31
259.92	12.01
260.389	8.01
260.859	17.11
261.328	7.01
261.797	16.31
262.266	7.81
262.735	8.31
263.204	0.91
263.673	5.41
264.142	6.51
264.611	-5.29
265.08	-0.79
265.549	0.31
266.018	3.61
266.487	-5.99
266.955	0.11
267.424	2.21
267.893	5.71
268.362	7.21
268.83	1.31
269.299	7.31
269.768	8.61
270.236	2.61
270.705	2.81
271.174	1.71
271.642	9.71
272.111	5.11
272.579	15.11
273.048	23.21
273.516	23.71
273.985	29.11
274.453	19.91
274.922	16.01
275.39	7.01
275.858	5.71
276.327	12.11
276.795	17.31
277.263	3.91
277.731	30.01
278.2	46.31
278.668	48.91
279.136	45.11
279.604	16.81
280.072	12.01
280.54	10.21
281.008	5.71
281.477	18.11
281.945	7.61
282.413	10.41
282.881	16.11
283.348	8.01
283.816	15.11
284.284	15.41
284.752	20.71
285.22	16.01
285.688	7.51
286.156	13.11
286.623	37.01
287.091	48.91
287.559	27.11
288.026	16.01
288.494	12.71
288.962	4.21
289.429	5.41
289.897	14.11
290.364	7.71
290.832	14.51
291.3	6.61
291.767	17.91
292.234	16.21
292.702	11.81
293.169	11.41
293.637	18.41
294.104	21.61
294.571	4.41
295.039	15.31
295.506	14.01
295.973	12.71
296.44	15.01
296.908	12.71
297.375	14.11
297.842	18.31
298.309	13.11
298.776	15.11
299.243	20.41
299.71	8.21
300.177	21.31
300.644	20.41
301.111	13.01
301.578	15.51
302.045	20.01
302.512	19.81
302.979	19.71
303.446	17.41
303.913	11.31
304.379	17.71
304.846	24.61
305.313	19.11
305.78	20.01
306.246	21.61
306.713	20.91
307.18	22.11
307.646	24.91
308.113	28.11
308.579	17.91
309.046	23.11
309.512	22.61
309.979	17.01
310.445	25.01
310.912	27.01
311.378	27.41
311.845	19.51
312.311	30.61
312.777	29.81
313.244	26.81
313.71	37.81
314.176	34.41
314.642	28.81
315.109	26.51
315.575	33.41
316.041	33.41
316.507	26.81
316.973	31.91
317.439	33.21
317.905	28.61
318.371	30.01
318.837	29.41
319.303	24.71
319.769	34.81
320.235	24.51
320.701	32.61
321.167	39.01
321.633	26.81
322.099	35.11
322.564	43.51
323.03	45.21
323.496	39.41
323.962	38.61
324.427	33.51
324.893	36.41
325.359	33.61
325.824	26.81
326.29	30.61
326.755	33.31
327.221	34.31
327.686	37.21
328.152	44.01
328.617	40.31
329.083	46.51
329.548	50.21
330.014	44.11
330.479	36.51
330.944	40.81
331.41	43.01
331.875	41.21
332.34	34.01
332.805	40.01
333.271	44.71
333.736	40.61
334.201	46.61
334.666	52.41
335.131	43.61
335.596	46.41
336.061	47.81
336.526	40.61
336.991	40.21
337.456	53.61
337.921	52.31
338.386	35.11
338.851	43.71
339.316	46.91
339.781	42.21
340.246	51.91
340.711	38.51
341.175	45.31
341.64	41.31
342.105	50.91
342.569	54.31
343.034	57.41
343.499	49.11
343.963	40.81
344.428	59.91
344.893	59.71
345.357	59.11
345.822	60.61
346.286	62.31
346.751	71.51
347.215	68.71
347.679	65.31
348.144	92.31
348.608	79.71
349.073	63.81
349.537	65.11
350.001	72.61
350.465	86.91
350.93	74.51
351.394	79.61
351.858	64.61
352.322	80.11
352.786	81.61
353.25	97.01
353.715	102.91
354.179	90.41
354.643	116.11
355.107	117.51
355.571	106.01
356.035	98.21
356.498	110.41
356.962	118.31
357.426	117.11
357.89	116.51
358.354	85.01
358.818	79.21
359.281	83.01
359.745	74.51
360.209	70.31
360.673	69.71
361.136	84.31
361.6	73.21
362.064	79.41
362.527	75.61
362.991	86.21
363.454	77.01
363.918	76.21
364.381	68.21
364.845	76.41
365.308	75.61
365.772	79.81
366.235	82.81
366.698	79.81
367.162	81.11
367.625	78.11
368.088	81.21
368.552	79.91
369.015	82.51
369.478	89.31
369.941	102.01
370.404	93.21
370.867	94.41
371.331	101.11
371.794	108.51
372.257	105.11
372.72	110.11
373.183	106.91
373.646	99.11
374.109	92.71
374.572	100.71
375.035	103.01
375.497	105.21
375.96	98.91
376.423	99.21
376.886	104.11
377.349	105.01
377.811	98.71
378.274	110.11
378.737	101.41
379.199	106.41
379.662	108.91
380.125	108.41
380.587	114.91
381.05	124.91
381.512	119.31
381.975	135.11
382.437	130.01
382.9	129.81
383.362	126.31
383.825	137.41
384.287	147.11
384.75	136.31
385.212	129.91
385.674	139.81
386.136	135.51
386.599	119.61
387.061	122.81
387.523	121.31
387.985	137.91
388.447	144.21
388.91	140.21
389.372	157.51
389.834	149.91
390.296	141.41
390.758	154.71
391.22	174.71
391.682	202.71
392.144	293.11
392.606	224.61
393.068	163.21
393.529	161.11
393.991	151.21
394.453	147.01
394.915	153.91
395.377	189.21
395.838	205.41
396.3	151.11
396.762	134.41
397.224	132.61
397.685	124.91
398.147	128.21
398.608	129.21
399.07	125.21
399.531	132.41
399.993	137.51
400.454	144.31
400.916	140.31
401.377	143.51
401.839	145.91
402.3	144.91
402.762	158.71
403.223	179.91
403.684	168.71
404.145	159.61
404.607	158.21
405.068	160.81
405.529	165.61
405.99	183.01
406.451	172.51
406.913	170.51
407.374	162.11
407.835	155.41
408.296	157.51
408.757	169.31
409.218	177.11
409.679	179.51
410.14	173.31
410.601	167.81
411.062	178.91
411.522	185.71
411.983	186.61
412.444	170.81
412.905	179.31
413.366	179.61
413.826	194.21
414.287	209.91
414.748	260.11
415.208	239.11
415.669	208.91
416.13	198.11
416.59	193.91
417.051	209.91
417.511	211.31
417.972	233.01
418.432	243.91
418.893	287.71
419.353	249.21
419.814	199.71
420.274	179.91
420.734	171.21
421.195	194.71
421.655	197.01
422.115	197.61
422.576	188.91
423.036	198.21
423.496	205.11
423.956	216.31
424.416	222.61
424.876	262.81
425.336	256.71
425.797	255.81
426.257	247.51
426.717	233.41
427.177	228.41
427.637	223.21
428.097	234.51
428.556	246.41
429.016	257.21
429.476	259.61
429.936	273.11
430.396	272.51
430.856	289.81
431.315	313.31
431.775	351.41
432.235	370.21
432.694	347.21
433.154	358.01
433.614	392.61
434.073	334.91
434.533	271.71
434.993	265.01
435.452	283.41
435.912	291.31
436.371	285.01
436.83	278.81
437.29	264.51
437.749	249.11
438.209	246.41
438.668	265.11
439.127	279.01
439.587	253.01
440.046	234.51
440.505	254.81
440.964	277.01
441.424	320.91
441.883	308.21
442.342	258.51
442.801	217.11
443.26	226.21
443.719	221.61
444.178	225.71
444.637	205.11
445.096	214.61
445.555	220.01
446.014	223.71
446.473	227.81
446.932	232.21
447.391	222.21
447.849	226.41
448.308	218.61
448.767	215.91
449.226	236.21
449.685	228.21
450.143	244.01
450.602	233.51
451.061	224.71
451.519	232.81
451.978	228.21
452.436	225.61
452.895	233.31
453.353	251.61
453.812	232.41
454.27	233.21
454.729	229.11
455.187	235.81
455.646	245.31
456.104	242.01
456.562	253.41
457.021	262.81
457.479	250.31
457.937	272.51
458.395	261.21
458.854	242.41
459.312	248.31
459.77	267.51
460.228	249.51
460.686	232.81
461.144	248.81
461.602	246.41
462.06	238.91
462.518	244.51
462.976	246.61
463.434	252.41
463.892	262.21
464.35	267.21
464.808	281.91
465.266	261.81
465.724	265.91
466.181	272.51
466.639	274.81
467.097	281.21
467.555	293.91
468.012	297.21
468.47	308.61
468.928	317.81
469.385	341.31
469.843	340.81
470.3	338.71
470.758	359.31
471.215	374.51
471.673	400.61
472.13	400.81
472.588	412.21
473.045	375.41
473.503	371.01
473.96	381.61
474.417	399.71
474.875	425.31
475.332	471.41
475.789	453.91
476.246	461.31
476.704	479.11
477.161	496.11
477.618	514.81
478.075	555.31
478.532	605.61
478.989	683.21
479.446	789.41
479.903	756.71
480.36	799.11
480.817	852.31
481.274	950.21
481.731	1065.91
482.188	1159.01
482.645	1292.81
483.102	1395.31
483.558	1534.81
484.015	1575.21
484.472	1553.81
484.929	1511.91
485.385	1455.71
485.842	1415.81
486.299	1353.41
486.755	1282.11
487.212	1075.41
487.668	914.21
488.125	845.81
488.582	763.31
489.038	729.71
489.494	707.01
489.951	684.51
490.407	653.91
490.864	637.61
491.32	638.81
491.776	634.41
492.233	643.51
492.689	605.81
493.145	596.61
493.602	596.01
494.058	598.81
494.514	607.51
494.97	629.31
495.426	635.71
495.882	611.51
496.338	595.31
496.794	620.31
497.251	609.01
497.707	626.41
498.163	635.71
498.618	613.81
499.074	628.51
499.53	661.21
499.986	667.51
500.442	641.51
500.898	613.81
501.354	616.61
501.809	628.41
502.265	633.91
502.721	656.81
503.177	663.51
503.632	657.21
504.088	665.61
504.543	705.11
504.999	701.91
505.455	662.11
505.91	627.81
506.366	627.81
506.821	619.11
507.277	625.51
507.732	620.91
508.187	622.21
508.643	630.01
509.098	625.31
509.553	653.41
510.009	658.91
510.464	660.41
510.919	686.71
511.375	686.11
511.83	702.51
512.285	714.21
512.74	746.71
513.195	767.01
513.65	749.51
514.105	755.61
514.56	765.11
515.015	779.31
515.47	799.51
515.925	778.01
516.38	771.51
516.835	779.11
517.29	772.91
517.745	767.61
518.2	754.71
518.655	746.41
519.109	731.11
519.564	732.71
520.019	732.71
520.474	709.81
520.928	717.91
521.383	709.11
521.838	700.01
522.292	699.41
522.747	699.91
523.201	687.71
523.656	696.01
524.11	682.51
524.565	690.61
525.019	675.91
525.474	697.61
525.928	692.81
526.382	681.61
526.837	686.01
527.291	692.31
527.745	692.21
528.2	687.81
528.654	679.41
529.108	680.61
529.562	692.51
530.016	687.01
530.47	687.11
530.925	684.61
531.379	683.91
531.833	701.21
532.287	691.41
532.741	693.51
533.195	699.61
533.649	698.01
534.103	703.31
534.556	693.21
535.01	692.91
535.464	694.11
535.918	710.01
536.372	717.21
536.826	717.01
537.279	693.81
537.733	692.11
538.187	703.41
538.64	707.01
539.094	722.11
539.548	713.11
540.001	712.61
540.455	717.91
540.908	725.01
541.362	727.11
541.815	748.01
542.269	755.71
542.722	759.31
543.175	755.61
543.629	770.01
544.082	777.11
544.536	781.81
544.989	773.21
545.442	782.51
545.895	781.31
546.349	785.91
546.802	783.91
547.255	793.81
547.708	788.01
548.161	812.91
548.614	818.21
549.067	818.51
549.52	810.91
549.973	794.71
550.426	807.41
550.879	787.71
551.332	792.11
551.785	795.11
552.238	799.31
552.691	813.41
553.144	823.31
553.596	837.91
554.049	851.71
554.502	882.21
554.955	905.51
555.407	909.41
555.86	879.71
556.313	874.61
556.765	869.41
557.218	872.41
557.67	879.11
558.123	868.11
558.576	862.61
559.028	855.01
559.48	874.11
559.933	857.01
560.385	839.51
560.838	798.11
561.29	778.31
561.742	778.11
562.195	758.81
562.647	764.71
563.099	769.91
563.551	770.71
564.004	773.61
564.456	759.91
564.908	755.51
565.36	739.61
565.812	731.21
566.264	720.41
566.716	723.71
567.168	704.71
567.62	715.71
568.072	706.91
568.524	693.51
568.976	679.91
569.428	665.11
569.88	672.21
570.332	681.21
570.784	680.51
571.235	684.41
571.687	681.91
572.139	689.01
572.59	701.51
573.042	694.21
573.494	705.71
573.945	695.11
574.397	675.11
574.849	674.61
575.3	688.01
575.752	684.81
576.203	673.61
576.655	682.11
577.106	667.11
577.557	656.51
578.009	654.81
578.46	657.01
578.912	651.11
579.363	666.31
579.814	664.11
580.265	650.51
580.717	667.01
581.168	677.31
581.619	669.81
582.07	673.91
582.521	680.71
582.972	665.61
583.423	680.51
583.875	674.01
584.326	696.81
584.777	745.91
585.227	831.81
585.678	928.41
586.129	1024.71
586.58	1085.71
587.031	1172.71
587.482	1323.91
587.933	1532.51
588.384	1327.91
588.834	988.41
589.285	803.11
589.736	779.01
590.186	779.21
590.637	760.91
591.088	745.61
591.538	737.61
591.989	731.41
592.439	735.01
592.89	728.31
593.34	713.01
593.791	704.21
594.241	698.41
594.692	707.41
595.142	711.21
595.593	691.81
596.043	704.31
596.493	704.21
596.943	721.31
597.394	717.41
597.844	711.51
598.294	715.31
598.744	745.31
599.195	769.31
599.645	810.21
600.095	854.51
600.545	915.11
600.995	971.51
601.445	1026.81
601.895	1078.21
602.345	1136.91
602.795	1110.71
603.245	1059.51
603.695	996.41
604.145	949.71
604.594	908.61
605.044	857.21
605.494	793.41
605.944	748.01
606.393	742.41
606.843	728.71
607.293	724.51
607.743	736.11
608.192	738.01
608.642	757.91
609.091	756.61
609.541	764.11
609.99	745.91
610.44	760.41
610.889	729.31
611.339	707.81
611.788	687.21
612.238	692.71
612.687	721.11
613.136	718.61
613.586	731.81
614.035	741.91
614.484	752.81
614.933	755.91
615.383	751.41
615.832	735.41
616.281	728.71
616.73	687.11
617.179	662.11
617.628	650.51
618.077	639.31
618.526	616.91
618.975	622.31
619.424	612.11
619.873	610.91
620.322	613.71
620.771	603.11
621.22	601.81
621.669	595.11
622.118	583.41
622.567	588.41
623.015	571.91
623.464	565.51
623.913	560.11
624.361	556.21
624.81	553.11
625.259	550.21
625.707	553.31
626.156	550.81
626.604	566.91
627.053	561.51
627.501	564.71
627.95	571.71
628.398	578.71
628.847	571.61
629.295	570.31
629.744	579.71
630.192	569.41
630.64	565.61
631.089	563.41
631.537	570.71
631.985	595.11
632.433	595.71
632.881	604.21
633.33	659.51
633.778	646.51
634.226	571.51
634.674	578.31
635.122	577.61
635.57	604.81
636.018	639.31
636.466	588.11
636.914	562.41
637.362	573.41
637.81	582.01
638.258	569.41
638.705	588.71
639.153	616.11
639.601	620.61
640.049	635.91
640.497	671.11
640.944	694.21
641.392	648.41
641.84	611.11
642.287	586.81
642.735	569.31
643.182	573.71
643.63	575.11
644.078	574.41
644.525	599.21
644.973	595.81
645.42	599.41
645.867	620.41
646.315	641.21
646.762	660.81
647.21	685.51
647.657	715.71
648.104	752.11
648.551	779.41
648.999	839.21
649.446	918.51
649.893	1015.41
650.34	1177.71
650.787	1412.41
651.234	1740.21
651.682	2288.91
652.129	3171.11
652.576	4547.91
653.023	6727.51
653.47	9191.71
653.917	11409.51
654.363	13107.71
654.81	14405.51
655.257	13698.61
655.704	8983.61
656.151	5295.21
656.598	3429.31
657.044	2418.11
657.491	1871.51
657.938	1486.41
658.385	1259.91
658.831	1082.41
659.278	967.31
659.724	849.11
660.171	792.81
660.618	726.81
661.064	695.11
661.511	667.81
661.957	646.01
662.404	644.21
662.85	650.01
663.296	634.31
663.743	552.01
664.189	540.81
664.635	532.51
665.082	519.21
665.528	517.91
665.974	527.31
666.42	515.21
666.867	503.61
667.313	493.11
667.759	488.41
668.205	482.21
668.651	491.11
669.097	484.61
669.543	497.71
669.989	473.61
670.435	445.31
670.881	449.51
671.327	450.11
671.773	463.01
672.219	491.71
672.665	544.21
673.11	585.61
673.556	619.91
674.002	664.21
674.448	651.51
674.893	541.51
675.339	471.61
675.785	438.31
676.23	422.01
676.676	393.81
677.122	381.01
677.567	375.81
678.013	374.71
678.458	372.71
678.904	363.81
679.349	347.81
679.794	350.71
680.24	352.81
680.685	351.21
681.131	346.21
681.576	345.51
682.021	345.21
682.466	343.81
682.912	349.01
683.357	358.01
683.802	382.01
684.247	406.91
684.692	456.01
685.137	494.51
685.583	532.91
686.028	555.31
686.473	509.81
686.918	444.51
687.363	416.71
687.807	387.11
688.252	364.81
688.697	350.31
689.142	327.91
689.587	329.61
690.032	327.71
690.477	347.51
690.921	347.61
691.366	379.71
691.811	404.11
692.255	436.11
692.7	468.01
693.145	501.91
693.589	708.31
694.034	1141.41
694.478	1551.71
694.923	1721.01
695.367	2231.21
695.812	1185.91
696.256	491.51
696.701	374.61
697.145	348.01
697.59	319.81
698.034	322.11
698.478	327.71
698.922	330.31
699.367	328.61
699.811	338.41
700.255	361.91
700.699	394.61
701.143	421.71
701.588	483.51
702.032	516.01
702.476	509.91
702.92	497.01
703.364	496.71
703.808	646.71
704.252	1056.81
704.696	1457.61
705.14	1662.21
705.584	2108.11
706.027	1053.01
706.471	521.21
706.915	396.51
707.359	346.81
707.803	315.71
708.246	310.51
708.69	311.61
709.134	301.61
709.577	301.01
710.021	313.91
710.465	308.81
710.908	293.51
711.352	298.61
711.795	313.91
712.239	344.31
712.682	384.91
713.126	416.81
713.569	467.41
714.012	372.11
714.456	326.71
714.899	297.11
715.342	274.81
715.786	255.51
716.229	255.31
716.672	257.31
717.115	249.51
717.558	246.81
718.002	248.31
718.445	262.51
718.888	292.11
719.331	295.01
719.774	306.01
720.217	304.91
720.66	279.61
721.103	269.51
721.546	249.71
721.989	249.21
722.432	230.71
722.874	240.71
723.317	232.01
723.76	236.91
724.203	261.61
724.645	324.71
725.088	454.61
725.531	562.11
725.974	642.21
726.416	551.21
726.859	296.31
727.301	243.51
727.744	239.01
728.187	236.11
728.629	235.71
729.071	242.31
729.514	259.51
729.956	274.71
730.399	284.01
730.841	284.31
731.283	264.91
731.726	259.01
732.168	267.31
732.61	271.21
733.053	291.81
733.495	312.41
733.937	352.71
734.379	401.21
734.821	436.41
735.263	549.01
735.705	853.71
736.148	1601.91
736.59	2587.81
737.032	3003.81
737.474	2455.21
737.916	790.41
738.357	427.21
738.799	330.61
739.241	298.51
739.683	291.11
740.125	288.51
740.567	295.71
741.008	313.41
741.45	317.71
741.892	319.51
742.334	351.01
742.775	352.01
743.217	344.51
743.658	270.41
744.1	249.61
744.542	258.31
744.983	321.71
745.425	335.41
745.866	344.61
746.307	286.21
746.749	282.71
747.19	322.21
747.632	451.81
748.073	904.01
748.514	1878.31
748.956	2841.61
749.397	3546.71
749.838	2951.61
750.279	2905.21
750.72	1474.71
751.162	547.01
751.603	321.61
752.044	249.21
752.485	217.41
752.926	205.81
753.367	202.01
753.808	200.31
754.249	192.11
754.69	180.01
755.131	182.91
755.572	186.41
756.013	173.91
756.453	185.91
756.894	188.21
757.335	195.51
757.776	193.61
758.216	192.51
758.657	193.61
759.098	197.91
759.538	227.41
759.979	270.61
760.42	379.41
760.86	722.41
761.301	1894.01
761.741	4460.71
762.182	6326.91
762.622	4454.51
763.063	1293.11
763.503	535.91
763.943	348.31
764.384	342.91
764.824	413.31
765.264	450.71
765.705	309.01
766.145	219.41
766.585	187.21
767.025	185.11
767.465	190.01
767.906	246.21
768.346	330.91
768.786	346.31
769.226	272.31
769.666	321.01
770.106	637.41
770.546	1575.11
770.986	2605.61
771.426	2326.71
771.866	786.61
772.306	334.01
772.745	210.21
773.185	178.91
773.625	173.31
774.065	167.01
774.505	197.91
774.944	321.51
775.384	711.81
775.824	1245.31
776.263	1195.51
776.703	509.01
777.142	225.21
777.582	160.41
778.021	140.11
778.461	137.11
778.9	142.61
779.34	135.41
779.779	115.11
780.219	112.71
780.658	114.91
781.097	114.61
781.537	112.61
781.976	106.21
782.415	106.11
782.855	105.51
783.294	102.21
783.733	107.61
784.172	110.91
784.611	103.91
785.05	107.11
785.489	108.01
785.928	119.51
786.367	119.21
786.806	117.81
787.245	128.21
787.684	137.51
788.123	140.41
788.562	131.31
789.001	127.21
789.44	124.61
789.879	116.91
790.317	113.51
790.756	133.11
791.195	131.51
791.634	148.11
792.072	202.31
792.511	367.61
792.95	1042.31
793.388	2144.31
793.827	1904.81
794.265	674.81
794.704	279.01
795.142	183.31
795.581	153.31
796.019	138.01
796.458	122.31
796.896	121.61
797.334	129.61
797.773	154.81
798.211	222.11
798.649	443.71
799.087	1031.41
799.526	1601.81
799.964	2013.51
800.402	1963.41
800.84	757.11
801.278	303.91
801.716	183.51
802.154	148.71
802.592	151.81
803.03	143.91
803.468	130.01
803.906	145.41
804.344	154.11
804.782	143.21
805.22	140.61
805.658	135.01
806.096	148.91
806.533	147.21
806.971	174.71
807.409	216.71
807.847	317.81
808.284	681.71
808.722	1888.81
809.16	3263.91
809.597	3147.21
810.035	5421.91
810.472	5633.51
810.91	2046.51
811.347	780.41
811.785	402.11
812.222	254.11
812.66	188.71
813.097	159.01
813.535	138.91
813.972	126.01
814.409	121.51
814.846	110.51
815.284	110.21
815.721	98.21
816.158	101.11
816.595	120.21
817.032	177.41
817.47	193.01
817.907	166.81
818.344	152.21
818.781	112.81
819.218	99.11
819.655	123.31
820.092	184.41
820.529	210.31
820.966	178.41
821.403	135.01
821.839	111.01
822.276	104.71
822.713	123.31
823.15	123.41
823.587	116.81
824.023	150.31
824.46	304.21
824.897	899.31
825.333	1333.81
825.77	565.91
826.206	225.01
826.643	135.41
827.08	91.01
827.516	79.41
827.953	74.31
828.389	77.91
828.825	76.61
829.262	70.21
829.698	61.81
830.135	65.51
830.571	57.61
831.007	65.91
831.443	68.71
831.88	64.51
832.316	62.91
832.752	66.11
833.188	64.91
833.624	62.81
834.06	63.61
834.497	67.41
834.933	74.21
835.369	68.21
835.805	73.21
836.241	75.21
836.677	80.21
837.112	83.91
837.548	102.41
837.984	138.11
838.42	206.71
838.856	504.21
839.292	1521.41
839.727	2252.11
840.163	1047.81
840.599	936.81
841.034	2034.21
841.47	2075.71
841.906	761.01
842.341	337.91
842.777	232.81
843.212	326.71
843.648	307.61
844.083	164.11
844.519	95.21
844.954	75.91
845.39	61.11
845.825	55.31
846.261	52.81
846.696	50.21
847.131	48.51
847.566	60.91
848.002	53.81
848.437	54.81
848.872	61.51
849.307	61.11
849.742	89.91
850.177	181.81
850.613	556.51
851.048	862.81
851.483	372.31
851.918	151.31
852.353	78.41
852.788	55.91
853.223	53.41
853.657	53.51
854.092	42.81
854.527	41.41
854.962	35.81
855.397	42.31
855.832	48.01
856.266	41.11
856.701	40.01
857.136	36.81
857.57	35.81
858.005	54.61
858.44	58.81
858.874	44.21
859.309	51.31
859.743	39.91
860.178	45.21
860.612	41.51
861.047	53.31
861.481	65.91
861.915	73.21
862.35	49.41
862.784	34.41
863.218	34.31
863.653	38.71
864.087	44.61
864.521	58.81
864.955	73.61
865.39	156.71
865.824	167.91
866.258	114.21
866.692	162.31
867.126	163.01
867.56	103.91
867.994	52.71
868.428	34.21
868.862	46.11
869.296	49.91
869.73	56.71
870.164	51.81
870.598	45.41
871.031	39.11
871.465	31.51
871.899	30.51
872.333	23.71
872.766	24.81
873.2	19.31
873.634	26.71
874.067	23.41
874.501	29.51
874.935	37.71
875.368	27.41
875.802	30.71
876.235	25.81
876.669	14.21
877.102	20.81
877.535	29.01
877.969	23.91
878.402	26.61
878.836	16.71
879.269	28.41
879.702	22.51
880.135	23.61
880.569	23.71
881.002	28.01
881.435	21.41
881.868	20.11
882.301	24.11
882.734	18.61
883.167	27.91
883.601	16.91
884.034	22.41
884.467	16.61
884.899	22.01
885.332	14.61
885.765	14.31
886.198	12.11
886.631	17.41
887.064	19.61
887.497	19.71
887.929	22.61
888.362	10.71
888.795	16.41
889.228	15.31
889.66	15.51
890.093	10.71
890.526	13.81
890.958	14.81
891.391	15.71
891.823	22.31
892.256	15.51
892.688	14.11
893.121	15.71
893.553	14.91
893.985	19.31
894.418	18.11
894.85	14.81
895.282	16.81
895.715	20.31
896.147	21.61
896.579	20.61
897.011	17.31
897.444	20.11
897.876	13.11
898.308	12.71
898.74	10.71
899.172	11.41
899.604	22.51
900.036	15.21
900.468	13.31
900.9	8.71
901.332	16.21
901.764	10.81
902.196	12.71
902.628	19.11
903.06	16.41
903.491	26.51
903.923	24.51
904.355	27.11
904.787	23.11
905.218	20.81
905.65	16.01
906.082	9.21
906.513	11.81
906.945	12.51
907.376	11.11
907.808	19.01
908.239	16.61
908.671	17.71
909.102	20.51
909.534	24.81
909.965	52.01
910.397	90.21
910.828	314.41
911.259	476.11
911.691	214.71
912.122	102.21
912.553	51.21
912.984	34.51
913.415	22.31
913.847	24.91
914.278	15.91
914.709	8.61
915.14	17.31
915.571	9.91
916.002	19.71
916.433	21.41
916.864	19.01
917.295	16.71
917.726	18.41
918.157	15.01
918.587	29.91
919.018	19.81
919.449	22.11
919.88	22.11
920.311	31.31
920.741	47.11
921.172	169.81
921.603	149.61
922.033	69.31
922.464	44.21
922.895	24.31
923.325	22.51
923.756	16.11
924.186	15.51
924.617	22.41
925.047	42.01
925.478	53.21
925.908	42.91
926.338	24.51
926.769	17.31
927.199	21.61
927.629	10.61
928.06	17.11
928.49	12.51
928.92	11.81
929.35	10.51
929.78	6.61
930.21	4.61
930.641	6.91
931.071	7.11
931.501	6.11
931.931	4.81
932.361	8.11
932.791	0.51
933.221	9.11
933.651	6.51
934.08	19.11
934.51	26.01
934.94	7.81
935.37	7.61
935.8	10.11
936.229	8.21
936.659	5.71
937.089	3.41
937.519	16.81
937.948	22.31
938.378	18.31
938.807	4.11
939.237	10.11
939.666	5.91
940.096	-3.59
940.525	5.21
940.955	4.81
941.384	-1.29
941.814	-4.49
942.243	-7.99
942.672	4.11
943.102	-5.29
943.531	-9.19
943.96	6.71
944.39	-4.99
944.819	5.51
945.248	3.31
945.677	-2.69
946.106	7.01
946.535	7.81
946.964	3.61
947.393	2.91
947.822	0.01
948.251	-4.79
948.68	0.11
949.109	3.61
949.538	9.41
949.967	-6.19
950.396	1.81
950.825	0.21
951.254	2.71
951.682	-3.79
952.111	6.51
952.54	6.31
952.969	0.01
953.397	-5.39
953.826	1.31
954.254	-8.09
954.683	1.51
955.112	-5.89
955.54	4.11
955.969	-1.69
956.397	0.41
956.826	-4.29
957.254	1.61
957.682	0.21
958.111	1.11
958.539	-3.99
958.967	-1.29
959.396	1.31
959.824	0.51
960.252	8.11
960.68	-7.79
961.109	-3.09
961.537	-6.59
961.965	2.11
962.393	-0.89
962.821	-1.99
963.249	0.31
963.677	9.01
964.105	7.11
964.533	46.31
964.961	40.01
965.389	19.81
965.817	5.51
966.245	5.81
966.672	-0.89
967.1	-2.99
967.528	1.81
967.956	-5.09
968.383	-4.79
968.811	-0.79
969.239	-0.79
969.666	-5.29
970.094	-3.19
970.522	-1.29
970.949	-3.39
971.377	-4.89
971.804	1.91
972.232	-3.99
972.659	-3.59
973.087	-5.79
973.514	-2.29
973.941	-7.29
974.369	-2.19
974.796	-5.39
975.223	-0.29
975.651	-3.19
976.078	-0.49
976.505	-1.69
976.932	1.91
977.359	13.01
977.786	10.61
978.214	-1.39
978.641	-6.09
979.068	-0.89
979.495	-3.19
979.922	-1.79
980.349	-6.69
980.776	7.61
981.202	-1.19
981.629	5.91
982.056	2.51
982.483	-6.69
982.91	1.41
983.337	-11.79
983.763	-1.09
984.19	-11.79
984.617	-4.99
985.043	-6.49
985.47	3.81
985.897	-5.79
986.323	-4.79
986.75	0.91
987.176	-1.69
987.603	-2.89
988.029	-2.19
988.456	-5.19
988.882	-1.69
989.308	-6.19
989.735	-3.69
990.161	-1.69
990.587	-7.39
991.014	-3.09
991.44	0.21
991.866	-0.09
992.292	-9.99
992.719	-9.09
993.145	5.71
993.571	-14.39
993.997	-7.39
994.423	-6.49
994.849	-8.89
995.275	1.31
995.701	-0.99
996.127	-7.39
996.553	5.91
996.979	-2.89
997.405	-1.89
997.83	-6.09
998.256	-5.39
998.682	-7.99
999.108	-6.89
999.534	-4.59
999.959	2.11
1000.385	-3.69
1000.811	2.81
1001.236	-11.09
1001.662	0.31
1002.087	-10.19
1002.513	-2.59
1002.938	4.31
1003.364	-3.89
1003.789	0.61
1004.215	1.11
1004.64	-2.09
1005.066	0.21
1005.491	4.21
1005.916	-4.49
1006.342	-7.99
1006.767	-8.49
1007.192	4.51
1007.617	-1.59
1008.042	-4.39
1008.468	-5.49
1008.893	-5.69
1009.318	-4.69
1009.743	-2.69
1010.168	2.91
1010.593	-2.49
1011.018	-7.39
1011.443	-2.79
1011.868	-3.49
1012.293	-5.39
1012.718	-8.49
1013.143	-2.19
1013.567	0.11
1013.992	-0.79
1014.417	-11.29
1014.842	0.11
1015.267	0.41
1015.691	-1.29
1016.116	1.71
1016.541	-7.09
1016.965	4.91
1017.39	1.91
1017.814	-2.79
1018.239	-2.99
1018.663	-5.39
1019.088	-18.79
1019.512	-5.39
1019.937	-1.09
1020.361	-2.29
1020.785	-9.29
1021.21	-7.29
1021.634	-2.99
1022.058	-1.69
1022.483	0.61
1022.907	-6.59
1023.331	-7.99
1023.755	-3.89
1024.179	-5.19
1024.604	-11.79
1025.028	-7.29
1025.452	-2.29
1025.876	-9.59
1026.3	-7.39
1026.724	-14.59
1027.148	-4.19
1027.572	-12.19
1027.996	-7.99
1028.42	-1.49
1028.843	-5.19
1029.267	-7.69
1029.691	-3.79
1030.115	-5.19
1030.539	-10.19
1030.962	-11.69
1031.386	-14.49
1031.81	-5.69
1032.233	-3.29
1032.657	-8.09
1033.08	0.71
1033.504	-9.39
1033.927	-2.89
1034.351	6.51
1034.774	-4.59
1035.198	-6.79
1035.621	-8.49
1036.045	-7.49
1036.468	-3.29
1036.891	-6.39
1037.315	-13.19
1037.738	-6.89
1038.161	-0.99
1038.584	-8.49
1039.008	-8.19
1039.431	-5.89
1039.854	-3.79
1040.277	-8.39
1040.7	-12.19
1041.123	0.21
1041.546	-4.09
1041.969	-7.59
1042.392	-11.79
1042.815	-3.29
1043.238	0.11
1043.661	0.81
1044.084	-9.79
1044.507	-7.69
1044.93	-4.79
1045.352	-6.59
1045.775	-4.09
1046.198	-2.59
1046.621	-4.89
1047.043	1.51
1047.466	2.61
1047.889	-7.19
1048.311	-11.39
1048.734	-6.79
1049.156	-2.49
1049.579	-4.39
1050.001	-5.19
1050.424	1.31
1050.846	-8.19
1051.269	-2.99
1051.691	-9.49
1052.113	-10.19
1052.536	0.01
1052.958	0.11
1053.38	-4.09
1053.802	-13.79
1054.225	-7.39
1054.647	-10.49
1055.069	-9.09
1055.491	-2.29
1055.913	-9.99
1056.335	-3.49
1056.757	-3.39
1057.179	-8.29
1057.601	-4.99
1058.023	-4.09
1058.445	-6.49
1058.867	-2.49
1059.289	-6.59
1059.711	-5.79
1060.133	-4.09
1060.555	-6.69
1060.976	-7.49
1061.398	-10.39
1061.82	-16.49
1062.241	-9.59
1062.663	-9.29
1063.085	-3.59
1063.506	-4.79
1063.928	-6.89
1064.35	-3.59
1064.771	-13.89
1065.193	-8.09
1065.614	-9.39
1066.035	-4.19
1066.457	-6.69
1066.878	-2.39
1067.3	-7.99
1067.721	-0.19
1068.142	-8.99
1068.564	-9.69
1068.985	-0.79
1069.406	-9.29
1069.827	-8.49
1070.248	-4.69
1070.67	-8.19
1071.091	-6.69
1071.512	-5.39
1071.933	-8.89
1072.354	-13.89
1072.775	-8.49
1073.196	-4.09
1073.617	-11.39
1074.038	-12.59
1074.459	-4.89
1074.88	-9.09
1075.3	-0.19
1075.721	-5.29
1076.142	-1.29
1076.563	-0.69
1076.983	-10.09
1077.404	-7.49
1077.825	-9.99
1078.246	-4.49
1078.666	-14.99
1079.087	-4.99
1079.507	-4.99
1079.928	3.91
1080.348	1.21
1080.769	-6.59
1081.189	-1.49
1081.61	-2.59
1082.03	-10.09
1082.451	-9.79
1082.871	-4.09
1083.291	-8.19
1083.711	-14.09
1084.132	-10.39
1084.552	-3.69
1084.972	-1.99
1085.392	-7.69
1085.813	-15.29
1086.233	-5.99
1086.653	-8.79
1087.073	-5.09
1087.493	-8.49
1087.913	-12.79
1088.333	-10.49
1088.753	-4.29
1089.173	0.01
1089.593	-8.99
1090.013	1.91
1090.433	-2.19
1090.852	-4.19
1091.272	-2.39
1091.692	-1.09
1092.112	-3.89
1092.531	-8.79
1092.951	-10.89
1093.371	-1.39
1093.79	1.01
1094.21	-6.99
1094.63	-8.09
1095.049	-6.69
1095.469	-6.79
1095.888	-7.29
1096.308	-0.79
1096.727	3.21
1097.146	-7.49
1097.566	-4.09
1097.985	-7.79
1098.405	-3.49
1098.824	-7.39
1099.243	-6.29
1099.662	-10.39
1100.082	-5.39
1100.501	-0.99
1100.92	-10.39
1101.339	-6.19
1101.758	-0.39
