Data from 20171114-ORNL-Ar_H_NY_Subt18_08-06-55-948.txt Node
Date: Tue Nov 14 08:06:55 EST 2017
User: Ender
Spectrometer: HR+D1039
Trigger mode: 0
Integration Time (sec): 2.730000E-2
Scans to average: 10
Electric dark correction enabled: true
Nonlinearity correction enabled: false
Boxcar width: 0
XAxis mode: Wavelengths
Number of Pixels in Spectrum: 2048
>>>>>Begin Spectral Data<<<<<
187.836	-3.92
188.309	-3.92
188.782	-3.92
189.255	2.88
189.728	-3.62
190.201	6.78
190.674	6.38
191.147	5.88
191.619	-8.22
192.092	3.58
192.565	5.08
193.038	-1.22
193.511	1.48
193.984	1.68
194.456	-2.82
194.929	-5.02
195.402	-5.72
195.874	-3.22
196.347	-2.62
196.82	-2.72
197.292	6.98
197.765	-0.62
198.237	-8.32
198.71	-2.42
199.182	3.68
199.655	6.78
200.127	8.68
200.6	-1.12
201.072	-0.92
201.544	-1.52
202.017	2.98
202.489	8.58
202.961	5.38
203.433	-0.22
203.906	-5.32
204.378	-2.72
204.85	-7.02
205.322	-5.52
205.794	-4.12
206.266	-2.22
206.739	-7.92
207.211	3.08
207.683	-7.72
208.155	-8.92
208.627	-6.52
209.099	-2.32
209.57	-8.12
210.042	-3.02
210.514	-1.82
210.986	-4.42
211.458	-8.32
211.93	-0.52
212.402	7.68
212.873	-4.82
213.345	-3.52
213.817	-9.02
214.288	-5.62
214.76	-3.22
215.232	-5.52
215.703	0.28
216.175	1.38
216.646	-8.12
217.118	-3.82
217.589	-2.52
218.061	-0.32
218.532	-6.82
219.004	-0.12
219.475	-2.92
219.946	-1.82
220.418	-0.52
220.889	6.48
221.36	2.78
221.832	-6.82
222.303	-3.22
222.774	0.38
223.245	-7.22
223.717	-7.32
224.188	-3.42
224.659	-7.72
225.13	-7.82
225.601	-3.22
226.072	0.18
226.543	-2.22
227.014	-2.92
227.485	2.28
227.956	-4.02
228.427	-0.12
228.898	6.38
229.369	9.38
229.839	-0.32
230.31	-9.52
230.781	6.88
231.252	0.08
231.722	-3.72
232.193	-3.12
232.664	4.48
233.135	-7.32
233.605	-3.22
234.076	-11.92
234.546	-1.72
235.017	3.18
235.487	4.68
235.958	3.58
236.428	-4.32
236.899	-2.02
237.369	-1.32
237.84	-3.92
238.31	3.78
238.78	-3.72
239.251	-6.62
239.721	-2.22
240.191	-0.62
240.662	-1.82
241.132	2.58
241.602	-2.12
242.072	0.48
242.542	1.68
243.013	-1.02
243.483	0.38
243.953	4.18
244.423	-3.02
244.893	-10.82
245.363	5.48
245.833	7.38
246.303	-3.32
246.773	5.98
247.243	1.68
247.712	4.28
248.182	8.28
248.652	3.48
249.122	-6.92
249.592	-0.42
250.061	7.98
250.531	6.68
251.001	-3.32
251.471	3.38
251.94	6.68
252.41	0.38
252.879	-3.62
253.349	1.68
253.818	3.88
254.288	4.28
254.757	-0.92
255.227	-3.52
255.696	-3.12
256.166	-0.52
256.635	8.98
257.105	6.18
257.574	0.88
258.043	2.38
258.513	4.78
258.982	-2.32
259.451	-5.72
259.92	8.98
260.389	3.58
260.859	9.08
261.328	-0.22
261.797	6.48
262.266	2.68
262.735	3.68
263.204	2.48
263.673	1.28
264.142	6.18
264.611	-2.22
265.08	-0.92
265.549	-1.52
266.018	4.78
266.487	-3.22
266.955	-4.62
267.424	3.38
267.893	4.08
268.362	2.58
268.83	0.98
269.299	4.88
269.768	3.98
270.236	3.68
270.705	0.48
271.174	0.48
271.642	4.18
272.111	7.58
272.579	4.08
273.048	1.68
273.516	6.08
273.985	8.58
274.453	14.28
274.922	9.48
275.39	12.28
275.858	0.08
276.327	3.68
276.795	14.28
277.263	4.78
277.731	11.28
278.2	7.08
278.668	13.58
279.136	13.28
279.604	7.78
280.072	7.68
280.54	9.78
281.008	10.58
281.477	9.28
281.945	8.28
282.413	10.78
282.881	8.88
283.348	7.08
283.816	8.18
284.284	10.38
284.752	12.98
285.22	12.48
285.688	13.68
286.156	10.68
286.623	19.08
287.091	5.08
287.559	13.28
288.026	5.28
288.494	17.28
288.962	7.68
289.429	9.48
289.897	15.68
290.364	13.18
290.832	12.88
291.3	6.98
291.767	13.28
292.234	15.28
292.702	7.88
293.169	14.98
293.637	21.98
294.104	15.78
294.571	4.48
295.039	10.28
295.506	7.18
295.973	14.68
296.44	9.38
296.908	13.88
297.375	6.48
297.842	13.48
298.309	11.28
298.776	9.78
299.243	18.38
299.71	6.58
300.177	18.08
300.644	13.88
301.111	17.08
301.578	16.28
302.045	15.78
302.512	24.28
302.979	19.78
303.446	22.98
303.913	20.78
304.379	14.68
304.846	20.68
305.313	24.38
305.78	16.48
306.246	19.38
306.713	20.38
307.18	21.48
307.646	24.28
308.113	26.58
308.579	17.98
309.046	18.28
309.512	21.38
309.979	15.68
310.445	29.48
310.912	26.98
311.378	30.38
311.845	20.78
312.311	28.28
312.777	25.78
313.244	28.98
313.71	33.08
314.176	24.98
314.642	20.78
315.109	21.18
315.575	33.08
316.041	37.98
316.507	22.88
316.973	33.48
317.439	24.68
317.905	31.28
318.371	27.88
318.837	27.18
319.303	35.18
319.769	36.28
320.235	30.98
320.701	31.68
321.167	30.58
321.633	27.68
322.099	35.58
322.564	29.58
323.03	35.48
323.496	33.38
323.962	39.28
324.427	33.38
324.893	42.58
325.359	30.68
325.824	34.98
326.29	29.58
326.755	33.78
327.221	36.68
327.686	36.98
328.152	44.98
328.617	39.28
329.083	45.38
329.548	47.98
330.014	45.48
330.479	37.48
330.944	36.68
331.41	38.18
331.875	43.78
332.34	41.08
332.805	39.58
333.271	40.78
333.736	32.38
334.201	49.78
334.666	51.08
335.131	51.88
335.596	45.38
336.061	41.38
336.526	34.78
336.991	41.08
337.456	48.88
337.921	47.08
338.386	38.08
338.851	46.58
339.316	45.78
339.781	40.18
340.246	45.18
340.711	41.48
341.175	46.18
341.64	44.48
342.105	48.98
342.569	50.58
343.034	53.38
343.499	49.48
343.963	48.48
344.428	58.88
344.893	60.38
345.357	53.28
345.822	60.38
346.286	61.38
346.751	64.48
347.215	59.88
347.679	68.08
348.144	88.08
348.608	70.78
349.073	64.98
349.537	63.58
350.001	71.48
350.465	79.28
350.93	74.38
351.394	78.08
351.858	64.18
352.322	78.58
352.786	76.38
353.25	89.68
353.715	102.18
354.179	90.08
354.643	108.78
355.107	106.48
355.571	83.88
356.035	95.18
356.498	101.98
356.962	101.48
357.426	111.68
357.89	102.08
358.354	82.48
358.818	79.68
359.281	79.68
359.745	68.58
360.209	70.98
360.673	66.58
361.136	72.18
361.6	80.58
362.064	78.78
362.527	77.48
362.991	86.08
363.454	74.28
363.918	75.18
364.381	74.18
364.845	79.88
365.308	89.48
365.772	85.48
366.235	80.58
366.698	76.18
367.162	79.48
367.625	81.38
368.088	82.38
368.552	86.28
369.015	91.68
369.478	90.38
369.941	93.58
370.404	85.08
370.867	97.58
371.331	98.58
371.794	104.68
372.257	97.68
372.72	95.98
373.183	101.98
373.646	91.88
374.109	91.88
374.572	103.98
375.035	97.38
375.497	100.98
375.96	99.98
376.423	99.28
376.886	105.28
377.349	105.28
377.811	98.88
378.274	104.38
378.737	96.38
379.199	109.98
379.662	106.08
380.125	106.28
380.587	100.98
381.05	109.28
381.512	112.78
381.975	113.38
382.437	113.18
382.9	111.68
383.362	120.88
383.825	121.48
384.287	125.98
384.75	118.98
385.212	122.18
385.674	132.08
386.136	134.88
386.599	119.38
387.061	123.38
387.523	118.78
387.985	123.08
388.447	132.98
388.91	125.28
389.372	127.48
389.834	129.68
390.296	116.28
390.758	130.68
391.22	129.38
391.682	141.98
392.144	147.58
392.606	146.58
393.068	132.38
393.529	148.68
393.991	137.58
394.453	131.58
394.915	132.88
395.377	134.28
395.838	141.28
396.3	136.58
396.762	139.68
397.224	132.28
397.685	129.68
398.147	136.48
398.608	134.68
399.07	130.78
399.531	137.68
399.993	149.38
400.454	151.88
400.916	152.88
401.377	149.58
401.839	152.98
402.3	154.08
402.762	168.08
403.223	176.18
403.684	166.38
404.145	158.98
404.607	152.38
405.068	164.88
405.529	165.68
405.99	182.48
406.451	169.08
406.913	175.98
407.374	166.48
407.835	164.28
408.296	167.78
408.757	164.18
409.218	186.58
409.679	178.58
410.14	183.68
410.601	170.68
411.062	184.58
411.522	176.48
411.983	181.98
412.444	176.68
412.905	183.88
413.366	192.88
413.826	202.68
414.287	220.08
414.748	268.88
415.208	255.78
415.669	222.78
416.13	218.18
416.59	211.58
417.051	224.18
417.511	224.78
417.972	242.38
418.432	266.08
418.893	304.88
419.353	259.58
419.814	205.78
420.274	194.88
420.734	189.78
421.195	201.98
421.655	199.88
422.115	197.18
422.576	199.38
423.036	208.98
423.496	214.28
423.956	222.48
424.416	241.08
424.876	282.68
425.336	270.88
425.797	266.08
426.257	262.78
426.717	246.48
427.177	235.58
427.637	229.78
428.097	239.28
428.556	251.58
429.016	279.08
429.476	263.58
429.936	281.68
430.396	280.68
430.856	295.58
431.315	318.68
431.775	354.48
432.235	383.18
432.694	351.68
433.154	357.58
433.614	396.08
434.073	348.98
434.533	294.78
434.993	280.08
435.452	280.78
435.912	295.68
436.371	290.58
436.83	289.28
437.29	273.18
437.749	257.08
438.209	258.28
438.668	270.28
439.127	291.38
439.587	275.08
440.046	258.58
440.505	271.58
440.964	285.98
441.424	322.58
441.883	323.18
442.342	265.68
442.801	238.68
443.26	238.88
443.719	241.08
444.178	232.78
444.637	221.88
445.096	227.68
445.555	242.98
446.014	243.58
446.473	235.88
446.932	238.38
447.391	237.88
447.849	246.78
448.308	235.98
448.767	233.28
449.226	249.28
449.685	247.28
450.143	266.68
450.602	249.48
451.061	247.28
451.519	251.38
451.978	247.68
452.436	246.38
452.895	252.58
453.353	271.88
453.812	259.78
454.27	255.88
454.729	253.58
455.187	254.58
455.646	260.08
456.104	265.28
456.562	277.88
457.021	281.88
457.479	278.98
457.937	293.88
458.395	274.28
458.854	266.38
459.312	266.68
459.77	289.68
460.228	271.68
460.686	263.98
461.144	267.98
461.602	263.08
462.06	269.78
462.518	272.38
462.976	279.08
463.434	276.68
463.892	281.88
464.35	292.78
464.808	302.28
465.266	284.88
465.724	291.88
466.181	286.08
466.639	292.48
467.097	316.58
467.555	321.48
468.012	316.68
468.47	330.18
468.928	350.88
469.385	357.98
469.843	371.18
470.3	373.98
470.758	382.78
471.215	408.08
471.673	424.48
472.13	427.58
472.588	443.28
473.045	395.88
473.503	410.08
473.96	412.58
474.417	432.88
474.875	461.98
475.332	495.28
475.789	476.08
476.246	486.28
476.704	508.08
477.161	529.78
477.618	545.78
478.075	589.28
478.532	648.18
478.989	719.68
479.446	811.38
479.903	780.18
480.36	819.38
480.817	866.18
481.274	952.78
481.731	1045.38
482.188	1134.18
482.645	1256.38
483.102	1346.68
483.558	1466.08
484.015	1511.28
484.472	1479.78
484.929	1449.68
485.385	1414.88
485.842	1367.58
486.299	1332.18
486.755	1282.98
487.212	1079.08
487.668	934.98
488.125	866.18
488.582	794.18
489.038	776.78
489.494	746.18
489.951	713.78
490.407	693.98
490.864	680.78
491.32	683.18
491.776	677.08
492.233	679.88
492.689	647.38
493.145	645.68
493.602	641.38
494.058	643.28
494.514	648.88
494.97	673.28
495.426	678.38
495.882	658.18
496.338	643.68
496.794	662.18
497.251	648.58
497.707	668.08
498.163	669.18
498.618	674.88
499.074	675.28
499.53	704.68
499.986	707.88
500.442	677.08
500.898	658.88
501.354	646.68
501.809	653.68
502.265	664.08
502.721	671.68
503.177	678.68
503.632	683.98
504.088	681.78
504.543	703.28
504.999	730.68
505.455	692.58
505.91	679.98
506.366	674.28
506.821	670.98
507.277	676.38
507.732	679.28
508.187	673.98
508.643	681.28
509.098	688.78
509.553	699.88
510.009	706.58
510.464	722.18
510.919	739.88
511.375	736.98
511.83	746.48
512.285	766.28
512.74	801.68
513.195	825.08
513.65	820.88
514.105	810.98
514.56	829.28
515.015	846.68
515.47	852.88
515.925	832.68
516.38	829.68
516.835	850.88
517.29	835.48
517.745	827.38
518.2	814.98
518.655	790.18
519.109	789.38
519.564	785.08
520.019	782.88
520.474	769.08
520.928	769.68
521.383	771.18
521.838	756.48
522.292	755.18
522.747	757.58
523.201	748.98
523.656	748.38
524.11	734.88
524.565	733.38
525.019	723.58
525.474	736.18
525.928	732.78
526.382	735.08
526.837	747.38
527.291	750.18
527.745	739.18
528.2	743.88
528.654	740.88
529.108	728.88
529.562	735.88
530.016	736.78
530.47	728.98
530.925	735.08
531.379	736.48
531.833	745.18
532.287	742.08
532.741	739.28
533.195	749.68
533.649	756.98
534.103	763.48
534.556	751.88
535.01	749.28
535.464	742.68
535.918	753.08
536.372	761.08
536.826	762.58
537.279	750.08
537.733	759.78
538.187	763.48
538.64	758.88
539.094	766.98
539.548	769.98
540.001	770.68
540.455	774.48
540.908	773.08
541.362	785.18
541.815	797.28
542.269	804.48
542.722	811.88
543.175	819.18
543.629	816.18
544.082	834.28
544.536	841.68
544.989	843.38
545.442	848.28
545.895	841.68
546.349	848.28
546.802	837.38
547.255	850.58
547.708	857.98
548.161	877.08
548.614	881.88
549.067	886.08
549.52	874.98
549.973	856.78
550.426	861.08
550.879	846.78
551.332	862.48
551.785	862.28
552.238	870.58
552.691	880.58
553.144	879.88
553.596	912.88
554.049	921.78
554.502	952.18
554.955	967.98
555.407	961.98
555.86	954.48
556.313	944.68
556.765	939.38
557.218	928.48
557.67	940.38
558.123	923.58
558.576	926.78
559.028	923.48
559.48	942.18
559.933	927.18
560.385	902.58
560.838	867.38
561.29	843.38
561.742	837.38
562.195	816.08
562.647	813.08
563.099	823.68
563.551	818.48
564.004	835.78
564.456	812.28
564.908	792.88
565.36	787.88
565.812	771.18
566.264	770.58
566.716	764.68
567.168	752.08
567.62	753.78
568.072	746.38
568.524	741.38
568.976	735.58
569.428	710.58
569.88	721.68
570.332	724.78
570.784	733.08
571.235	722.38
571.687	738.88
572.139	745.88
572.59	758.08
573.042	757.58
573.494	759.68
573.945	749.48
574.397	723.18
574.849	732.78
575.3	729.58
575.752	726.28
576.203	715.78
576.655	724.98
577.106	710.78
577.557	706.48
578.009	703.98
578.46	699.98
578.912	705.18
579.363	712.88
579.814	704.08
580.265	703.68
580.717	709.08
581.168	713.38
581.619	716.58
582.07	716.58
582.521	715.38
582.972	711.18
583.423	723.78
583.875	709.88
584.326	724.38
584.777	741.18
585.227	749.48
585.678	767.48
586.129	779.78
586.58	809.28
587.031	827.68
587.482	847.98
587.933	882.98
588.384	859.68
588.834	820.48
589.285	811.88
589.736	807.48
590.186	808.78
590.637	810.78
591.088	792.68
591.538	781.88
591.989	773.88
592.439	765.78
592.89	756.38
593.34	752.08
593.791	748.18
594.241	741.58
594.692	741.38
595.142	742.38
595.593	739.98
596.043	735.78
596.493	750.08
596.943	740.18
597.394	766.38
597.844	757.88
598.294	773.08
598.744	792.18
599.195	815.18
599.645	870.38
600.095	912.18
600.545	959.08
600.995	1015.48
601.445	1074.78
601.895	1150.58
602.345	1193.88
602.795	1163.08
603.245	1126.28
603.695	1065.58
604.145	1016.68
604.594	964.88
605.044	920.28
605.494	850.48
605.944	798.28
606.393	778.38
606.843	763.98
607.293	770.48
607.743	759.28
608.192	770.68
608.642	795.88
609.091	800.18
609.541	796.08
609.99	805.38
610.44	797.58
610.889	755.28
611.339	736.58
611.788	709.88
612.238	715.98
612.687	739.98
613.136	729.48
613.586	748.98
614.035	735.18
614.484	740.98
614.933	744.88
615.383	734.88
615.832	737.18
616.281	730.58
616.73	708.88
617.179	682.18
617.628	670.98
618.077	659.78
618.526	647.58
618.975	646.48
619.424	644.08
619.873	647.28
620.322	647.48
620.771	631.98
621.22	636.68
621.669	627.08
622.118	618.08
622.567	609.08
623.015	600.28
623.464	595.08
623.913	590.78
624.361	583.68
624.81	581.78
625.259	576.28
625.707	586.68
626.156	586.98
626.604	586.78
627.053	583.88
627.501	597.98
627.95	599.68
628.398	613.68
628.847	591.48
629.295	590.18
629.744	602.88
630.192	596.88
630.64	595.08
631.089	566.98
631.537	561.08
631.985	557.88
632.433	564.38
632.881	552.78
633.33	559.68
633.778	544.98
634.226	544.08
634.674	564.08
635.122	566.18
635.57	576.58
636.018	584.88
636.466	582.38
636.914	583.08
637.362	593.68
637.81	606.28
638.258	606.48
638.705	607.08
639.153	635.48
639.601	646.58
640.049	667.08
640.497	704.98
640.944	724.88
641.392	669.08
641.84	639.08
642.287	604.78
642.735	582.18
643.182	590.48
643.63	580.38
644.078	584.98
644.525	596.78
644.973	611.08
645.42	625.48
645.867	636.38
646.315	658.08
646.762	684.38
647.21	715.98
647.657	729.58
648.104	755.08
648.551	778.58
648.999	847.58
649.446	928.68
649.893	998.58
650.34	1146.08
650.787	1358.58
651.234	1659.98
651.682	2151.58
652.129	2895.98
652.576	4115.48
653.023	5998.78
653.47	8116.38
653.917	10085.58
654.363	11668.18
654.81	12886.58
655.257	12151.38
655.704	8049.68
656.151	4870.98
656.598	3215.08
657.044	2295.88
657.491	1780.68
657.938	1441.98
658.385	1217.88
658.831	1050.38
659.278	947.78
659.724	852.78
660.171	796.78
660.618	725.28
661.064	692.28
661.511	682.08
661.957	662.28
662.404	651.18
662.85	659.98
663.296	642.28
663.743	573.98
664.189	545.98
664.635	544.48
665.082	532.88
665.528	539.68
665.974	539.78
666.42	528.98
666.867	521.78
667.313	501.28
667.759	479.08
668.205	474.18
668.651	471.08
669.097	469.38
669.543	456.58
669.989	456.98
670.435	467.38
670.881	464.28
671.327	464.88
671.773	487.38
672.219	516.28
672.665	569.68
673.11	613.78
673.556	661.78
674.002	691.48
674.448	687.38
674.893	580.28
675.339	498.48
675.785	459.88
676.23	448.58
676.676	411.48
677.122	403.78
677.567	389.28
678.013	380.98
678.458	376.48
678.904	378.18
679.349	365.68
679.794	374.48
680.24	369.38
680.685	365.08
681.131	362.88
681.576	374.98
682.021	369.78
682.466	374.48
682.912	366.38
683.357	371.08
683.802	400.88
684.247	433.18
684.692	485.18
685.137	520.98
685.583	568.88
686.028	599.88
686.473	551.58
686.918	470.38
687.363	442.08
687.807	414.28
688.252	380.38
688.697	376.08
689.142	348.88
689.587	349.28
690.032	344.88
690.477	357.48
690.921	366.58
691.366	399.68
691.811	427.58
692.255	452.18
692.7	475.58
693.145	527.88
693.589	737.78
694.034	1199.88
694.478	1624.18
694.923	1831.98
695.367	2393.28
695.812	1259.48
696.256	527.68
696.701	397.08
697.145	361.28
697.59	350.28
698.034	336.68
698.478	338.58
698.922	337.08
699.367	339.18
699.811	343.88
700.255	372.68
700.699	404.68
701.143	444.28
701.588	492.38
702.032	538.48
702.476	539.38
702.92	510.68
703.364	521.28
703.808	681.98
704.252	1098.68
704.696	1547.78
705.14	1771.18
705.584	2230.98
706.027	1122.38
706.471	548.88
706.915	415.48
707.359	367.78
707.803	337.28
708.246	325.98
708.69	326.38
709.134	331.18
709.577	328.18
710.021	332.88
710.465	308.48
710.908	318.08
711.352	314.88
711.795	329.88
712.239	376.08
712.682	405.68
713.126	437.38
713.569	468.48
714.012	375.08
714.456	321.08
714.899	305.08
715.342	291.88
715.786	280.08
716.229	274.08
716.672	265.68
717.115	255.38
717.558	262.48
718.002	255.88
718.445	283.38
718.888	303.18
719.331	306.58
719.774	324.28
720.217	315.78
720.66	298.78
721.103	279.28
721.546	267.78
721.989	264.98
722.432	245.68
722.874	245.28
723.317	241.78
723.76	250.48
724.203	266.98
724.645	331.08
725.088	468.38
725.531	600.88
725.974	674.18
726.416	573.08
726.859	322.68
727.301	258.98
727.744	247.78
728.187	245.68
728.629	250.08
729.071	258.58
729.514	278.98
729.956	285.18
730.399	297.68
730.841	298.28
731.283	286.58
731.726	283.68
732.168	277.88
732.61	285.58
733.053	302.68
733.495	331.98
733.937	370.48
734.379	420.68
734.821	462.88
735.263	573.28
735.705	889.88
736.148	1675.98
736.59	2751.88
737.032	3238.68
737.474	2623.08
737.916	854.58
738.357	455.48
738.799	351.28
739.241	319.88
739.683	302.08
740.125	303.38
740.567	312.78
741.008	329.68
741.45	335.18
741.892	332.68
742.334	358.78
742.775	383.78
743.217	364.98
743.658	287.78
744.1	274.28
744.542	288.18
744.983	329.98
745.425	372.88
745.866	366.08
746.307	289.18
746.749	295.48
747.19	345.88
747.632	480.48
748.073	933.18
748.514	1980.58
748.956	3020.58
749.397	3790.98
749.838	3153.68
750.279	3122.68
750.72	1581.68
751.162	574.28
751.603	340.88
752.044	271.28
752.485	227.48
752.926	219.68
753.367	216.38
753.808	206.58
754.249	199.28
754.69	199.48
755.131	192.58
755.572	193.78
756.013	189.28
756.453	192.48
756.894	200.58
757.335	199.68
757.776	209.08
758.216	200.58
758.657	205.68
759.098	209.88
759.538	234.38
759.979	285.08
760.42	389.98
760.86	750.78
761.301	1952.58
761.741	4698.88
762.182	6788.78
762.622	4820.68
763.063	1388.48
763.503	562.38
763.943	347.68
764.384	280.38
764.824	262.48
765.264	243.78
765.705	220.18
766.145	195.18
766.585	189.18
767.025	175.78
767.465	171.08
767.906	186.48
768.346	203.88
768.786	213.08
769.226	226.08
769.666	325.08
770.106	642.98
770.546	1650.28
770.986	2777.48
771.426	2504.18
771.866	841.58
772.306	344.38
772.745	216.18
773.185	178.28
773.625	176.48
774.065	160.98
774.505	172.08
774.944	211.18
775.384	375.98
775.824	617.08
776.263	591.68
776.703	297.48
777.142	163.98
777.582	136.78
778.021	128.18
778.461	133.08
778.9	134.98
779.34	136.38
779.779	122.08
780.219	120.18
780.658	110.38
781.097	114.98
781.537	120.58
781.976	113.68
782.415	110.28
782.855	106.48
783.294	108.78
783.733	108.08
784.172	113.78
784.611	105.08
785.05	117.18
785.489	117.98
785.928	126.18
786.367	126.18
786.806	127.78
787.245	131.48
787.684	144.18
788.123	151.18
788.562	139.78
789.001	130.18
789.44	131.58
789.879	122.18
790.317	130.88
790.756	133.68
791.195	135.98
791.634	156.48
792.072	217.28
792.511	384.18
792.95	1055.88
793.388	2246.08
793.827	2019.88
794.265	711.88
794.704	293.28
795.142	187.78
795.581	156.88
796.019	140.88
796.458	137.38
796.896	126.48
797.334	138.18
797.773	158.78
798.211	232.68
798.649	472.18
799.087	1080.38
799.526	1690.18
799.964	2111.08
800.402	2141.78
800.84	797.78
801.278	329.48
801.716	200.08
802.154	157.18
802.592	152.78
803.03	154.38
803.468	145.38
803.906	148.58
804.344	155.58
804.782	150.78
805.22	145.58
805.658	145.68
806.096	159.28
806.533	165.28
806.971	189.38
807.409	232.28
807.847	334.48
808.284	699.08
808.722	1980.88
809.16	3484.28
809.597	3326.28
810.035	5737.38
810.472	6111.38
810.91	2218.38
811.347	853.98
811.785	428.08
812.222	273.58
812.66	213.68
813.097	173.18
813.535	151.98
813.972	143.88
814.409	132.78
814.846	122.28
815.284	118.18
815.721	109.78
816.158	113.38
816.595	113.18
817.032	166.68
817.47	186.08
817.907	150.88
818.344	111.98
818.781	107.78
819.218	99.88
819.655	138.48
820.092	202.58
820.529	223.98
820.966	187.08
821.403	134.08
821.839	105.08
822.276	100.88
822.713	130.08
823.15	148.98
823.587	128.48
824.023	152.48
824.46	325.08
824.897	957.28
825.333	1421.28
825.77	611.28
826.206	238.28
826.643	144.28
827.08	108.08
827.516	85.88
827.953	83.28
828.389	89.18
828.825	74.18
829.262	73.58
829.698	65.98
830.135	70.98
830.571	67.68
831.007	70.68
831.443	68.48
831.88	64.48
832.316	66.08
832.752	63.78
833.188	70.18
833.624	66.38
834.06	70.58
834.497	74.28
834.933	68.28
835.369	72.38
835.805	72.48
836.241	87.68
836.677	90.08
837.112	98.58
837.548	108.08
837.984	143.28
838.42	217.28
838.856	527.58
839.292	1601.88
839.727	2432.08
840.163	1139.78
840.599	985.38
841.034	2134.28
841.47	2241.58
841.906	826.48
842.341	349.18
842.777	210.48
843.212	214.08
843.648	193.38
844.083	113.78
844.519	87.98
844.954	75.28
845.39	62.18
845.825	56.28
846.261	63.18
846.696	55.38
847.131	54.78
847.566	62.58
848.002	55.88
848.437	52.58
848.872	61.68
849.307	64.78
849.742	92.48
850.177	197.48
850.613	589.28
851.048	926.28
851.483	399.38
851.918	160.18
852.353	90.08
852.788	57.38
853.223	52.68
853.657	57.58
854.092	53.08
854.527	47.78
854.962	43.18
855.397	49.68
855.832	56.08
856.266	43.98
856.701	39.08
857.136	39.98
857.57	50.18
858.005	59.98
858.44	60.28
858.874	47.08
859.309	57.98
859.743	41.48
860.178	50.48
860.612	49.58
861.047	56.88
861.481	80.28
861.915	78.28
862.35	57.68
862.784	38.88
863.218	40.08
863.653	39.08
864.087	52.78
864.521	50.48
864.955	69.18
865.39	165.28
865.824	181.58
866.258	117.08
866.692	183.68
867.126	195.28
867.56	115.18
867.994	62.08
868.428	42.78
868.862	53.08
869.296	52.18
869.73	69.68
870.164	56.38
870.598	55.18
871.031	45.88
871.465	40.58
871.899	35.98
872.333	23.78
872.766	29.98
873.2	26.38
873.634	34.08
874.067	23.78
874.501	28.48
874.935	36.98
875.368	31.28
875.802	30.68
876.235	32.68
876.669	30.28
877.102	22.58
877.535	27.38
877.969	30.88
878.402	30.58
878.836	26.28
879.269	25.78
879.702	25.48
880.135	21.38
880.569	23.38
881.002	26.88
881.435	23.28
881.868	19.28
882.301	22.28
882.734	21.58
883.167	24.78
883.601	17.08
884.034	27.28
884.467	19.28
884.899	18.28
885.332	20.48
885.765	16.78
886.198	20.98
886.631	21.48
887.064	23.08
887.497	23.28
887.929	20.38
888.362	19.18
888.795	12.68
889.228	21.38
889.66	28.98
890.093	21.48
890.526	20.58
890.958	20.38
891.391	16.18
891.823	25.88
892.256	20.58
892.688	15.98
893.121	17.08
893.553	18.68
893.985	24.98
894.418	28.48
894.85	15.08
895.282	19.98
895.715	22.98
896.147	20.98
896.579	16.28
897.011	17.38
897.444	14.88
897.876	18.08
898.308	23.08
898.74	16.98
899.172	11.18
899.604	23.88
900.036	18.78
900.468	17.08
900.9	20.68
901.332	19.68
901.764	19.78
902.196	19.98
902.628	25.98
903.06	21.68
903.491	34.98
903.923	27.18
904.355	21.18
904.787	26.68
905.218	28.58
905.65	29.88
906.082	14.78
906.513	12.58
906.945	19.98
907.376	11.38
907.808	19.68
908.239	19.38
908.671	18.68
909.102	24.38
909.534	25.08
909.965	47.28
910.397	98.68
910.828	330.38
911.259	500.38
911.691	226.68
912.122	114.88
912.553	59.18
912.984	36.68
913.415	27.98
913.847	27.58
914.278	18.38
914.709	14.18
915.14	20.58
915.571	17.88
916.002	13.18
916.433	23.78
916.864	18.78
917.295	14.98
917.726	31.28
918.157	20.78
918.587	31.38
919.018	23.58
919.449	25.08
919.88	29.38
920.311	32.58
920.741	43.98
921.172	173.28
921.603	165.48
922.033	78.18
922.464	41.58
922.895	31.58
923.325	21.98
923.756	21.48
924.186	14.88
924.617	16.78
925.047	29.18
925.478	28.98
925.908	23.68
926.338	13.58
926.769	17.88
927.199	18.48
927.629	7.68
928.06	19.58
928.49	17.38
928.92	16.78
929.35	13.68
929.78	10.08
930.21	8.08
930.641	7.68
931.071	13.38
931.501	4.08
931.931	15.18
932.361	14.18
932.791	4.78
933.221	8.98
933.651	10.38
934.08	22.18
934.51	33.78
934.94	8.68
935.37	6.88
935.8	13.78
936.229	12.28
936.659	11.28
937.089	10.48
937.519	18.28
937.948	25.58
938.378	24.18
938.807	8.08
939.237	6.18
939.666	3.28
940.096	-4.12
940.525	1.28
940.955	9.08
941.384	3.98
941.814	-6.32
942.243	0.98
942.672	4.98
943.102	1.58
943.531	-0.22
943.96	4.68
944.39	6.48
944.819	7.98
945.248	4.78
945.677	5.58
946.106	7.08
946.535	-0.92
946.964	-2.62
947.393	6.58
947.822	7.48
948.251	-2.82
948.68	11.58
949.109	2.68
949.538	7.68
949.967	4.18
950.396	5.08
950.825	3.08
951.254	1.28
951.682	-9.02
952.111	2.78
952.54	8.58
952.969	0.48
953.397	-0.92
953.826	9.98
954.254	-1.32
954.683	-1.72
955.112	6.58
955.54	2.58
955.969	0.08
956.397	-1.92
956.826	-4.42
957.254	9.28
957.682	5.98
958.111	2.98
958.539	5.48
958.967	7.18
959.396	0.18
959.824	0.58
960.252	9.98
960.68	-0.82
961.109	0.28
961.537	-8.92
961.965	0.08
962.393	2.98
962.821	-7.22
963.249	1.78
963.677	3.58
964.105	6.08
964.533	51.18
964.961	46.78
965.389	24.88
965.817	12.08
966.245	-2.42
966.672	5.68
967.1	0.08
967.528	1.38
967.956	-1.52
968.383	-1.52
968.811	-1.12
969.239	2.48
969.666	-0.92
970.094	8.58
970.522	2.08
970.949	-2.22
971.377	-1.72
971.804	-5.92
972.232	1.58
972.659	-9.02
973.087	0.38
973.514	-2.72
973.941	-4.32
974.369	0.58
974.796	4.58
975.223	4.98
975.651	1.08
976.078	2.78
976.505	-3.22
976.932	8.58
977.359	17.38
977.786	23.88
978.214	3.68
978.641	-0.42
979.068	3.58
979.495	-7.32
979.922	0.98
980.349	-6.72
980.776	6.08
981.202	-2.32
981.629	5.48
982.056	1.08
982.483	0.28
982.91	3.38
983.337	-4.32
983.763	10.68
984.19	-2.22
984.617	-0.62
985.043	-0.32
985.47	1.88
985.897	0.38
986.323	-2.52
986.75	5.98
987.176	1.38
987.603	0.28
988.029	2.38
988.456	-3.12
988.882	1.08
989.308	-2.52
989.735	-3.62
990.161	0.38
990.587	-4.72
991.014	-1.02
991.44	7.18
991.866	1.08
992.292	-5.62
992.719	0.98
993.145	5.48
993.571	-11.02
993.997	0.28
994.423	-1.52
994.849	-0.92
995.275	3.78
995.701	5.88
996.127	1.38
996.553	2.98
996.979	-3.32
997.405	0.28
997.83	-10.62
998.256	-9.42
998.682	-3.12
999.108	-10.12
999.534	-0.92
999.959	-4.82
1000.385	1.88
1000.811	-0.92
1001.236	-8.32
1001.662	-6.32
1002.087	-13.82
1002.513	0.18
1002.938	1.88
1003.364	2.98
1003.789	-3.22
1004.215	2.98
1004.64	-1.02
1005.066	4.58
1005.491	1.98
1005.916	1.38
1006.342	-1.32
1006.767	-2.22
1007.192	7.78
1007.617	-2.32
1008.042	-5.42
1008.468	-4.82
1008.893	-2.02
1009.318	-2.12
1009.743	-0.22
1010.168	3.88
1010.593	1.08
1011.018	-7.02
1011.443	-3.92
1011.868	-0.22
1012.293	-0.82
1012.718	0.18
1013.143	3.78
1013.567	1.68
1013.992	-2.42
1014.417	-7.42
1014.842	8.48
1015.267	-1.32
1015.691	3.68
1016.116	1.78
1016.541	2.08
1016.965	3.38
1017.39	4.68
1017.814	1.38
1018.239	-3.42
1018.663	-7.12
1019.088	-3.92
1019.512	-1.82
1019.937	2.18
1020.361	-3.12
1020.785	-8.12
1021.21	-4.52
1021.634	-0.52
1022.058	2.38
1022.483	5.28
1022.907	-0.72
1023.331	-5.42
1023.755	3.38
1024.179	-3.02
1024.604	-2.92
1025.028	-7.52
1025.452	2.68
1025.876	1.58
1026.3	0.88
1026.724	-9.72
1027.148	-9.12
1027.572	-9.32
1027.996	-5.62
1028.42	-0.62
1028.843	-4.22
1029.267	-7.22
1029.691	-2.62
1030.115	-4.72
1030.539	-1.92
1030.962	-0.82
1031.386	-7.62
1031.81	-3.62
1032.233	2.48
1032.657	-3.22
1033.08	2.28
1033.504	-1.82
1033.927	-2.42
1034.351	-2.42
1034.774	-5.42
1035.198	-3.12
1035.621	-5.22
1036.045	-5.62
1036.468	0.38
1036.891	-8.12
1037.315	-5.22
1037.738	-3.82
1038.161	1.08
1038.584	-1.72
1039.008	-3.22
1039.431	-4.02
1039.854	-0.22
1040.277	-8.02
1040.7	-7.42
1041.123	1.18
1041.546	-5.52
1041.969	-3.52
1042.392	-7.02
1042.815	-1.12
1043.238	7.28
1043.661	4.78
1044.084	1.48
1044.507	-1.32
1044.93	-5.32
1045.352	-5.32
1045.775	-0.32
1046.198	1.48
1046.621	2.18
1047.043	-2.82
1047.466	7.78
1047.889	-3.62
1048.311	-5.22
1048.734	0.58
1049.156	2.08
1049.579	-2.32
1050.001	-8.02
1050.424	-3.62
1050.846	-0.62
1051.269	-0.82
1051.691	-3.22
1052.113	-5.12
1052.536	-2.42
1052.958	-2.72
1053.38	-2.02
1053.802	-2.62
1054.225	4.28
1054.647	-6.92
1055.069	-0.82
1055.491	2.98
1055.913	-0.82
1056.335	3.18
1056.757	2.48
1057.179	-8.22
1057.601	-5.32
1058.023	-5.22
1058.445	-0.42
1058.867	-1.72
1059.289	4.38
1059.711	-4.92
1060.133	-1.52
1060.555	-6.32
1060.976	-11.02
1061.398	-3.72
1061.82	-12.32
1062.241	-1.92
1062.663	-6.72
1063.085	-3.32
1063.506	3.08
1063.928	-6.72
1064.35	-0.42
1064.771	-11.22
1065.193	2.58
1065.614	-5.22
1066.035	3.08
1066.457	-1.82
1066.878	-0.42
1067.3	-0.92
1067.721	-3.12
1068.142	-2.22
1068.564	-6.22
1068.985	-1.02
1069.406	-4.02
1069.827	-4.62
1070.248	0.18
1070.67	-5.32
1071.091	-1.82
1071.512	-6.12
1071.933	-3.42
1072.354	-2.92
1072.775	-2.82
1073.196	-9.62
1073.617	-4.82
1074.038	-11.32
1074.459	-5.32
1074.88	-8.42
1075.3	5.08
1075.721	-4.72
1076.142	3.98
1076.563	0.98
1076.983	-7.72
1077.404	-9.22
1077.825	-7.92
1078.246	-6.92
1078.666	-8.22
1079.087	-3.92
1079.507	-6.02
1079.928	0.48
1080.348	2.18
1080.769	-4.22
1081.189	-1.52
1081.61	-2.62
1082.03	-6.62
1082.451	-7.92
1082.871	-1.32
1083.291	-8.22
1083.711	-4.22
1084.132	-3.12
1084.552	-8.62
1084.972	-3.42
1085.392	-6.72
1085.813	-2.62
1086.233	-8.22
1086.653	-5.12
1087.073	-4.52
1087.493	-4.92
1087.913	-1.32
1088.333	-7.72
1088.753	-0.12
1089.173	4.98
1089.593	4.38
1090.013	3.08
1090.433	5.08
1090.852	5.08
1091.272	-0.12
1091.692	-0.72
1092.112	-0.12
1092.531	-8.62
1092.951	-12.52
1093.371	-5.02
1093.79	7.28
1094.21	-2.22
1094.63	-5.32
1095.049	-3.12
1095.469	1.98
1095.888	-2.32
1096.308	2.78
1096.727	6.88
1097.146	-11.92
1097.566	-0.72
1097.985	-1.92
1098.405	-3.02
1098.824	-2.32
1099.243	-6.82
1099.662	-9.02
1100.082	-2.72
1100.501	-0.42
1100.92	-3.82
1101.339	-1.82
1101.758	-6.32
