Data from 20171114-ORNL-Ar_H_NY_Subt18_08-04-52-563.txt Node
Date: Tue Nov 14 08:04:52 EST 2017
User: Ender
Spectrometer: HR+D1039
Trigger mode: 0
Integration Time (sec): 2.730000E-2
Scans to average: 10
Electric dark correction enabled: true
Nonlinearity correction enabled: false
Boxcar width: 0
XAxis mode: Wavelengths
Number of Pixels in Spectrum: 2048
>>>>>Begin Spectral Data<<<<<
187.836	-2.68
188.309	-2.68
188.782	-2.68
189.255	-3.58
189.728	-5.18
190.201	5.92
190.674	6.42
191.147	2.92
191.619	-8.38
192.092	2.52
192.565	6.92
193.038	1.42
193.511	-0.38
193.984	1.02
194.456	-3.68
194.929	-2.38
195.402	-0.58
195.874	-0.28
196.347	2.92
196.82	-7.98
197.292	10.62
197.765	-2.38
198.237	-5.58
198.71	4.02
199.182	-5.88
199.655	-4.48
200.127	7.62
200.6	0.82
201.072	0.22
201.544	-5.38
202.017	-1.58
202.489	5.92
202.961	-0.98
203.433	2.72
203.906	-3.68
204.378	-5.48
204.85	-6.28
205.322	-8.98
205.794	-5.08
206.266	-0.38
206.739	-12.08
207.211	-0.68
207.683	-5.98
208.155	-6.88
208.627	-3.68
209.099	-4.88
209.57	-2.18
210.042	-4.08
210.514	-3.98
210.986	1.52
211.458	-7.48
211.93	1.62
212.402	5.42
212.873	-6.18
213.345	-6.28
213.817	-6.48
214.288	-0.08
214.76	-1.88
215.232	0.42
215.703	-1.58
216.175	-0.78
216.646	-1.78
217.118	-6.08
217.589	-4.28
218.061	-3.98
218.532	0.92
219.004	2.22
219.475	1.22
219.946	-2.98
220.418	-3.38
220.889	4.42
221.36	-6.08
221.832	-3.78
222.303	-8.88
222.774	0.92
223.245	-7.48
223.717	-3.98
224.188	0.02
224.659	-9.38
225.13	-9.28
225.601	-3.88
226.072	-0.38
226.543	-7.98
227.014	1.22
227.485	-4.28
227.956	-5.88
228.427	-1.48
228.898	-2.58
229.369	4.52
229.839	-7.08
230.31	-9.78
230.781	0.92
231.252	1.32
231.722	-5.88
232.193	-4.68
232.664	3.22
233.135	0.32
233.605	2.82
234.076	-4.38
234.546	2.62
235.017	4.72
235.487	0.72
235.958	-3.98
236.428	0.22
236.899	2.62
237.369	4.02
237.84	-0.48
238.31	7.32
238.78	4.12
239.251	2.82
239.721	1.72
240.191	2.22
240.662	2.52
241.132	-3.68
241.602	-7.48
242.072	-3.28
242.542	2.92
243.013	4.62
243.483	5.02
243.953	8.12
244.423	1.22
244.893	-7.08
245.363	3.42
245.833	-3.88
246.303	3.32
246.773	5.82
247.243	5.12
247.712	8.02
248.182	11.32
248.652	8.02
249.122	-2.48
249.592	14.32
250.061	22.72
250.531	37.52
251.001	17.02
251.471	27.12
251.94	22.32
252.41	9.62
252.879	3.92
253.349	13.22
253.818	12.62
254.288	6.52
254.757	5.22
255.227	1.42
255.696	6.42
256.166	10.52
256.635	10.52
257.105	9.42
257.574	8.52
258.043	9.52
258.513	11.32
258.982	26.92
259.451	11.82
259.92	15.22
260.389	18.42
260.859	22.32
261.328	12.62
261.797	22.62
262.266	14.02
262.735	15.92
263.204	4.22
263.673	2.32
264.142	11.12
264.611	-0.38
265.08	0.72
265.549	-0.18
266.018	12.42
266.487	0.82
266.955	-1.48
267.424	5.22
267.893	3.22
268.362	5.92
268.83	8.12
269.299	15.82
269.768	13.22
270.236	11.52
270.705	6.92
271.174	9.02
271.642	12.12
272.111	14.92
272.579	24.22
273.048	24.22
273.516	32.12
273.985	32.22
274.453	28.12
274.922	21.52
275.39	12.92
275.858	7.02
276.327	8.22
276.795	25.42
277.263	15.42
277.731	30.82
278.2	55.72
278.668	63.52
279.136	49.72
279.604	32.82
280.072	18.92
280.54	14.12
281.008	14.22
281.477	15.62
281.945	8.32
282.413	14.52
282.881	15.82
283.348	11.52
283.816	20.92
284.284	20.32
284.752	26.82
285.22	14.52
285.688	11.92
286.156	18.62
286.623	43.32
287.091	58.42
287.559	29.12
288.026	17.92
288.494	21.52
288.962	3.42
289.429	15.32
289.897	21.32
290.364	15.82
290.832	19.92
291.3	18.02
291.767	21.92
292.234	24.72
292.702	17.32
293.169	16.32
293.637	22.12
294.104	22.82
294.571	16.02
295.039	11.72
295.506	17.52
295.973	21.22
296.44	23.02
296.908	18.22
297.375	21.72
297.842	28.62
298.309	14.52
298.776	15.92
299.243	19.42
299.71	17.32
300.177	23.42
300.644	22.12
301.111	19.82
301.578	27.22
302.045	17.22
302.512	28.42
302.979	27.72
303.446	23.92
303.913	19.62
304.379	19.42
304.846	30.52
305.313	24.92
305.78	27.82
306.246	32.42
306.713	30.42
307.18	34.92
307.646	26.82
308.113	32.22
308.579	24.82
309.046	30.32
309.512	27.22
309.979	24.22
310.445	29.12
310.912	25.42
311.378	32.32
311.845	36.02
312.311	35.32
312.777	37.12
313.244	31.92
313.71	39.12
314.176	32.02
314.642	34.02
315.109	33.02
315.575	42.52
316.041	41.12
316.507	33.52
316.973	43.82
317.439	41.32
317.905	40.52
318.371	38.62
318.837	36.22
319.303	36.62
319.769	38.22
320.235	32.82
320.701	42.32
321.167	37.02
321.633	32.52
322.099	40.42
322.564	57.22
323.03	44.52
323.496	43.72
323.962	44.12
324.427	38.62
324.893	49.32
325.359	41.22
325.824	36.22
326.29	36.92
326.755	41.12
327.221	47.72
327.686	43.52
328.152	42.42
328.617	43.72
329.083	53.12
329.548	50.62
330.014	44.62
330.479	41.22
330.944	45.02
331.41	41.72
331.875	47.82
332.34	47.52
332.805	43.62
333.271	49.32
333.736	48.52
334.201	55.42
334.666	46.22
335.131	59.12
335.596	50.22
336.061	51.92
336.526	43.12
336.991	50.62
337.456	63.92
337.921	51.72
338.386	49.42
338.851	48.72
339.316	54.52
339.781	45.42
340.246	55.12
340.711	51.82
341.175	53.52
341.64	50.22
342.105	51.12
342.569	54.92
343.034	59.72
343.499	57.22
343.963	50.72
344.428	64.22
344.893	67.82
345.357	62.32
345.822	66.32
346.286	70.72
346.751	78.02
347.215	68.82
347.679	73.12
348.144	96.72
348.608	90.02
349.073	70.92
349.537	81.92
350.001	85.62
350.465	93.12
350.93	84.32
351.394	81.02
351.858	78.32
352.322	90.22
352.786	86.42
353.25	103.92
353.715	114.12
354.179	101.62
354.643	125.32
355.107	126.22
355.571	100.92
356.035	111.22
356.498	118.72
356.962	129.02
357.426	134.12
357.89	124.12
358.354	92.02
358.818	87.72
359.281	84.62
359.745	80.52
360.209	81.62
360.673	76.42
361.136	79.82
361.6	86.42
362.064	83.32
362.527	80.62
362.991	94.12
363.454	85.12
363.918	77.12
364.381	79.72
364.845	75.72
365.308	88.62
365.772	92.92
366.235	87.92
366.698	87.12
367.162	89.72
367.625	86.52
368.088	85.42
368.552	89.22
369.015	87.82
369.478	96.22
369.941	105.22
370.404	94.42
370.867	101.02
371.331	101.92
371.794	115.82
372.257	103.42
372.72	119.62
373.183	107.12
373.646	100.22
374.109	105.22
374.572	108.02
375.035	109.82
375.497	110.32
375.96	106.62
376.423	107.12
376.886	115.82
377.349	108.22
377.811	100.32
378.274	110.12
378.737	103.32
379.199	108.42
379.662	114.32
380.125	118.02
380.587	113.42
381.05	122.22
381.512	123.52
381.975	133.12
382.437	132.12
382.9	125.62
383.362	130.42
383.825	139.12
384.287	142.52
384.75	140.82
385.212	136.62
385.674	141.12
386.136	142.52
386.599	128.52
387.061	125.32
387.523	121.62
387.985	131.22
388.447	143.32
388.91	142.52
389.372	155.92
389.834	148.82
390.296	135.12
390.758	152.62
391.22	169.22
391.682	209.22
392.144	285.42
392.606	228.42
393.068	162.42
393.529	170.42
393.991	155.62
394.453	146.02
394.915	153.72
395.377	190.42
395.838	206.42
396.3	153.22
396.762	140.62
397.224	125.32
397.685	125.52
398.147	127.72
398.608	134.42
399.07	134.02
399.531	131.92
399.993	137.32
400.454	158.32
400.916	144.02
401.377	139.22
401.839	147.52
402.3	150.22
402.762	171.02
403.223	177.02
403.684	166.72
404.145	157.62
404.607	159.22
405.068	160.72
405.529	167.32
405.99	191.22
406.451	166.72
406.913	167.82
407.374	163.62
407.835	165.12
408.296	165.22
408.757	172.32
409.218	185.52
409.679	173.82
410.14	171.32
410.601	174.02
411.062	181.22
411.522	186.72
411.983	182.72
412.444	173.82
412.905	179.42
413.366	179.02
413.826	184.92
414.287	212.72
414.748	260.32
415.208	246.92
415.669	206.02
416.13	208.22
416.59	200.12
417.051	209.32
417.511	214.72
417.972	234.02
418.432	238.02
418.893	282.82
419.353	244.92
419.814	193.52
420.274	182.02
420.734	177.62
421.195	199.52
421.655	191.12
422.115	191.02
422.576	186.32
423.036	190.62
423.496	203.52
423.956	206.82
424.416	223.62
424.876	259.22
425.336	259.62
425.797	256.92
426.257	249.42
426.717	234.82
427.177	224.52
427.637	211.92
428.097	230.82
428.556	238.62
429.016	263.62
429.476	263.42
429.936	262.62
430.396	271.92
430.856	279.52
431.315	311.82
431.775	340.92
432.235	374.72
432.694	340.82
433.154	349.22
433.614	387.52
434.073	338.72
434.533	277.72
434.993	270.72
435.452	271.42
435.912	296.22
436.371	278.02
436.83	282.92
437.29	265.22
437.749	244.02
438.209	241.32
438.668	261.62
439.127	286.42
439.587	256.62
440.046	243.02
440.505	249.82
440.964	269.52
441.424	310.22
441.883	303.12
442.342	249.92
442.801	221.52
443.26	210.62
443.719	221.92
444.178	211.52
444.637	206.32
445.096	214.62
445.555	218.02
446.014	218.52
446.473	221.02
446.932	229.12
447.391	220.62
447.849	229.22
448.308	222.52
448.767	221.52
449.226	230.92
449.685	231.82
450.143	242.52
450.602	236.02
451.061	219.12
451.519	236.42
451.978	228.72
452.436	228.32
452.895	233.82
453.353	244.92
453.812	237.22
454.27	238.42
454.729	234.12
455.187	233.42
455.646	239.42
456.104	236.62
456.562	251.72
457.021	257.02
457.479	249.02
457.937	264.02
458.395	253.32
458.854	238.82
459.312	254.12
459.77	269.02
460.228	250.12
460.686	241.52
461.144	242.62
461.602	240.82
462.06	231.42
462.518	243.52
462.976	257.92
463.434	257.12
463.892	251.72
464.35	271.22
464.808	278.62
465.266	261.12
465.724	266.02
466.181	261.82
466.639	263.72
467.097	278.32
467.555	290.32
468.012	296.72
468.47	300.82
468.928	312.62
469.385	331.42
469.843	339.22
470.3	335.22
470.758	358.32
471.215	379.32
471.673	397.32
472.13	397.12
472.588	403.42
473.045	352.62
473.503	364.52
473.96	385.72
474.417	392.02
474.875	432.22
475.332	467.82
475.789	447.72
476.246	464.22
476.704	483.52
477.161	496.22
477.618	512.22
478.075	536.32
478.532	597.52
478.989	674.02
479.446	774.62
479.903	753.32
480.36	789.62
480.817	845.12
481.274	943.22
481.731	1031.02
482.188	1136.92
482.645	1271.82
483.102	1387.62
483.558	1490.82
484.015	1551.82
484.472	1531.82
484.929	1488.72
485.385	1437.12
485.842	1416.62
486.299	1344.92
486.755	1268.12
487.212	1068.32
487.668	906.22
488.125	841.52
488.582	767.92
489.038	728.12
489.494	686.72
489.951	670.82
490.407	655.42
490.864	630.42
491.32	620.12
491.776	620.62
492.233	630.92
492.689	598.02
493.145	597.32
493.602	584.72
494.058	604.32
494.514	609.42
494.97	621.32
495.426	637.72
495.882	608.62
496.338	601.02
496.794	614.62
497.251	593.22
497.707	626.12
498.163	627.52
498.618	627.72
499.074	636.32
499.53	661.92
499.986	660.12
500.442	635.62
500.898	612.72
501.354	609.92
501.809	611.82
502.265	629.12
502.721	645.72
503.177	646.22
503.632	642.02
504.088	661.22
504.543	684.72
504.999	688.52
505.455	646.82
505.91	611.22
506.366	610.02
506.821	614.62
507.277	607.02
507.732	602.22
508.187	604.92
508.643	616.82
509.098	616.72
509.553	637.22
510.009	640.12
510.464	662.12
510.919	669.12
511.375	675.12
511.83	693.32
512.285	708.02
512.74	738.22
513.195	768.02
513.65	750.12
514.105	754.22
514.56	751.82
515.015	769.12
515.47	790.62
515.925	779.82
516.38	771.32
516.835	779.62
517.29	754.02
517.745	762.22
518.2	743.02
518.655	728.02
519.109	726.12
519.564	720.22
520.019	714.22
520.474	695.42
520.928	703.02
521.383	696.92
521.838	696.72
522.292	699.12
522.747	689.82
523.201	686.22
523.656	670.92
524.11	672.52
524.565	668.92
525.019	669.42
525.474	677.02
525.928	678.32
526.382	670.32
526.837	673.32
527.291	677.72
527.745	675.62
528.2	668.22
528.654	669.82
529.108	670.52
529.562	664.52
530.016	665.62
530.47	666.02
530.925	671.02
531.379	676.12
531.833	679.52
532.287	676.52
532.741	679.62
533.195	675.82
533.649	689.02
534.103	697.92
534.556	681.42
535.01	694.62
535.464	690.52
535.918	700.22
536.372	699.52
536.826	695.22
537.279	683.22
537.733	689.02
538.187	694.02
538.64	698.32
539.094	702.42
539.548	701.42
540.001	700.02
540.455	701.62
540.908	705.72
541.362	712.02
541.815	721.42
542.269	723.82
542.722	731.42
543.175	740.82
543.629	747.52
544.082	755.32
544.536	751.42
544.989	758.62
545.442	767.92
545.895	756.02
546.349	749.82
546.802	760.52
547.255	760.12
547.708	758.32
548.161	776.52
548.614	781.92
549.067	792.32
549.52	789.12
549.973	774.72
550.426	772.72
550.879	760.62
551.332	752.32
551.785	772.72
552.238	768.02
552.691	778.62
553.144	800.52
553.596	798.82
554.049	827.42
554.502	852.72
554.955	882.72
555.407	873.42
555.86	861.62
556.313	852.82
556.765	847.92
557.218	844.42
557.67	853.32
558.123	839.42
558.576	831.32
559.028	837.52
559.48	848.42
559.933	827.12
560.385	817.52
560.838	761.52
561.29	750.22
561.742	743.92
562.195	727.72
562.647	723.92
563.099	734.32
563.551	728.12
564.004	746.12
564.456	733.62
564.908	719.42
565.36	720.22
565.812	690.92
566.264	687.42
566.716	684.32
567.168	677.82
567.62	683.62
568.072	670.72
568.524	657.62
568.976	654.02
569.428	649.62
569.88	644.22
570.332	657.42
570.784	635.62
571.235	647.52
571.687	664.82
572.139	662.12
572.59	676.42
573.042	677.52
573.494	678.62
573.945	665.32
574.397	649.72
574.849	650.62
575.3	654.82
575.752	645.72
576.203	643.32
576.655	652.72
577.106	627.82
577.557	623.52
578.009	632.52
578.46	631.32
578.912	620.82
579.363	629.82
579.814	626.72
580.265	624.62
580.717	635.72
581.168	633.02
581.619	641.52
582.07	650.42
582.521	632.82
582.972	636.32
583.423	638.22
583.875	634.22
584.326	653.22
584.777	706.32
585.227	774.32
585.678	851.82
586.129	925.42
586.58	1002.32
587.031	1077.52
587.482	1231.92
587.933	1404.12
588.384	1216.12
588.834	905.92
589.285	751.82
589.736	727.12
590.186	722.72
590.637	728.92
591.088	690.92
591.538	687.62
591.989	679.62
592.439	686.02
592.89	679.22
593.34	667.12
593.791	668.82
594.241	658.92
594.692	666.22
595.142	659.92
595.593	651.12
596.043	660.12
596.493	678.62
596.943	666.72
597.394	674.82
597.844	668.02
598.294	677.72
598.744	696.02
599.195	729.42
599.645	752.32
600.095	797.42
600.545	844.02
600.995	892.92
601.445	950.72
601.895	1017.52
602.345	1065.32
602.795	1034.52
603.245	984.62
603.695	937.92
604.145	886.32
604.594	845.62
605.044	793.82
605.494	727.32
605.944	701.32
606.393	683.22
606.843	683.02
607.293	674.32
607.743	670.52
608.192	683.32
608.642	691.92
609.091	709.92
609.541	725.12
609.99	719.92
610.44	703.72
610.889	671.72
611.339	644.92
611.788	632.62
612.238	645.52
612.687	668.52
613.136	656.12
613.586	679.42
614.035	683.12
614.484	699.92
614.933	692.72
615.383	680.82
615.832	680.62
616.281	667.12
616.73	637.22
617.179	614.12
617.628	602.52
618.077	580.92
618.526	569.72
618.975	567.52
619.424	560.92
619.873	575.42
620.322	565.02
620.771	555.72
621.22	547.02
621.669	541.32
622.118	539.72
622.567	532.82
623.015	517.82
623.464	519.82
623.913	520.92
624.361	505.32
624.81	510.02
625.259	508.52
625.707	507.72
626.156	504.32
626.604	525.02
627.053	517.72
627.501	513.32
627.95	517.52
628.398	533.62
628.847	524.02
629.295	513.02
629.744	523.82
630.192	523.32
630.64	521.02
631.089	519.22
631.537	526.92
631.985	519.82
632.433	542.52
632.881	547.52
633.33	588.62
633.778	577.82
634.226	511.82
634.674	522.12
635.122	521.32
635.57	540.32
636.018	562.62
636.466	527.62
636.914	521.22
637.362	528.72
637.81	529.12
638.258	525.12
638.705	525.12
639.153	546.92
639.601	556.82
640.049	583.32
640.497	600.32
640.944	633.92
641.392	586.02
641.84	550.92
642.287	530.92
642.735	523.72
643.182	526.22
643.63	520.52
644.078	520.12
644.525	524.92
644.973	539.42
645.42	547.92
645.867	565.82
646.315	572.82
646.762	598.42
647.21	628.02
647.657	645.52
648.104	687.82
648.551	704.92
648.999	759.02
649.446	816.02
649.893	899.52
650.34	1031.82
650.787	1240.52
651.234	1519.62
651.682	1986.42
652.129	2739.32
652.576	3916.92
653.023	5789.92
653.47	8012.52
653.917	10108.02
654.363	11771.82
654.81	13193.42
655.257	12512.22
655.704	8116.32
656.151	4796.62
656.598	3115.02
657.044	2190.72
657.491	1688.72
657.938	1360.72
658.385	1125.82
658.831	982.02
659.278	871.72
659.724	777.12
660.171	711.52
660.618	645.52
661.064	617.02
661.511	603.12
661.957	587.72
662.404	581.82
662.85	591.32
663.296	569.62
663.743	512.92
664.189	491.42
664.635	478.72
665.082	475.22
665.528	480.42
665.974	465.52
666.42	458.12
666.867	448.72
667.313	437.62
667.759	431.42
668.205	428.52
668.651	434.32
669.097	441.82
669.543	446.52
669.989	424.22
670.435	407.82
670.881	403.62
671.327	403.12
671.773	431.82
672.219	437.52
672.665	488.32
673.11	523.82
673.556	563.82
674.002	596.62
674.448	587.82
674.893	492.22
675.339	422.32
675.785	396.02
676.23	380.42
676.676	355.72
677.122	339.92
677.567	338.42
678.013	328.12
678.458	320.62
678.904	318.52
679.349	302.42
679.794	314.72
680.24	308.12
680.685	309.32
681.131	308.22
681.576	316.52
682.021	314.92
682.466	308.32
682.912	308.52
683.357	299.82
683.802	338.12
684.247	368.12
684.692	410.82
685.137	439.92
685.583	476.72
686.028	496.72
686.473	463.92
686.918	404.72
687.363	361.62
687.807	352.52
688.252	325.02
688.697	314.22
689.142	293.72
689.587	303.02
690.032	281.72
690.477	303.02
690.921	310.62
691.366	337.82
691.811	362.32
692.255	379.52
692.7	415.92
693.145	442.62
693.589	610.12
694.034	976.12
694.478	1360.92
694.923	1552.92
695.367	2051.22
695.812	1071.92
696.256	450.72
696.701	328.92
697.145	305.52
697.59	295.82
698.034	285.82
698.478	294.22
698.922	293.62
699.367	284.52
699.811	302.52
700.255	314.22
700.699	338.62
701.143	372.72
701.588	422.82
702.032	464.72
702.476	456.72
702.92	434.42
703.364	437.12
703.808	562.62
704.252	902.82
704.696	1269.22
705.14	1507.22
705.584	1930.32
706.027	950.52
706.471	463.42
706.915	351.42
707.359	310.32
707.803	278.62
708.246	276.52
708.69	277.82
709.134	274.92
709.577	273.22
710.021	285.72
710.465	278.72
710.908	274.02
711.352	257.32
711.795	276.52
712.239	303.02
712.682	341.92
713.126	360.72
713.569	416.62
714.012	327.82
714.456	284.62
714.899	260.72
715.342	240.92
715.786	227.22
716.229	231.42
716.672	228.72
717.115	220.42
717.558	223.42
718.002	219.82
718.445	233.52
718.888	257.92
719.331	258.82
719.774	275.42
720.217	262.42
720.66	253.82
721.103	233.62
721.546	222.82
721.989	220.22
722.432	196.22
722.874	206.42
723.317	196.02
723.76	208.62
724.203	226.12
724.645	270.92
725.088	384.42
725.531	499.22
725.974	574.42
726.416	483.02
726.859	272.12
727.301	220.42
727.744	207.92
728.187	207.62
728.629	218.82
729.071	210.32
729.514	231.02
729.956	241.82
730.399	252.62
730.841	254.82
731.283	241.92
731.726	231.82
732.168	219.02
732.61	231.82
733.053	253.02
733.495	278.52
733.937	302.82
734.379	352.42
734.821	381.72
735.263	470.72
735.705	717.52
736.148	1348.22
736.59	2260.92
737.032	2744.82
737.474	2252.72
737.916	716.72
738.357	371.82
738.799	284.82
739.241	259.32
739.683	244.12
740.125	245.12
740.567	258.92
741.008	276.82
741.45	279.12
741.892	279.22
742.334	304.22
742.775	313.52
743.217	304.12
743.658	238.12
744.1	219.52
744.542	229.32
744.983	280.42
745.425	303.92
745.866	314.32
746.307	249.72
746.749	250.02
747.19	283.02
747.632	388.52
748.073	737.62
748.514	1599.52
748.956	2509.22
749.397	3150.12
749.838	2604.82
750.279	2663.02
750.72	1336.42
751.162	479.42
751.603	284.22
752.044	220.52
752.485	193.82
752.926	183.42
753.367	179.32
753.808	167.42
754.249	168.92
754.69	165.12
755.131	168.92
755.572	158.12
756.013	153.22
756.453	165.42
756.894	161.82
757.335	165.02
757.776	169.22
758.216	166.92
758.657	166.42
759.098	175.82
759.538	196.12
759.979	229.02
760.42	323.82
760.86	595.22
761.301	1538.62
761.741	3833.02
762.182	5838.32
762.622	4101.92
763.063	1168.82
763.503	478.82
763.943	307.52
764.384	293.72
764.824	358.62
765.264	390.32
765.705	268.02
766.145	189.32
766.585	164.92
767.025	155.12
767.465	168.32
767.906	217.92
768.346	285.72
768.786	301.12
769.226	234.92
769.666	274.32
770.106	517.02
770.546	1336.02
770.986	2359.72
771.426	2146.32
771.866	697.62
772.306	287.52
772.745	182.72
773.185	157.82
773.625	151.72
774.065	140.02
774.505	166.62
774.944	258.62
775.384	567.32
775.824	1065.62
776.263	1055.02
776.703	442.02
777.142	197.92
777.582	138.52
778.021	127.92
778.461	128.22
778.9	120.52
779.34	117.82
779.779	98.42
780.219	101.92
780.658	98.62
781.097	101.92
781.537	93.12
781.976	94.42
782.415	96.02
782.855	90.62
783.294	89.12
783.733	92.82
784.172	88.82
784.611	87.52
785.05	99.32
785.489	93.52
785.928	108.02
786.367	104.62
786.806	101.62
787.245	109.42
787.684	118.42
788.123	134.32
788.562	123.32
789.001	110.32
789.44	107.22
789.879	101.62
790.317	100.92
790.756	111.62
791.195	114.72
791.634	126.42
792.072	179.62
792.511	304.82
792.95	852.52
793.388	1911.52
793.827	1753.12
794.265	599.22
794.704	244.62
795.142	163.02
795.581	132.82
796.019	114.52
796.458	110.32
796.896	107.42
797.334	113.62
797.773	131.52
798.211	187.22
798.649	371.12
799.087	884.82
799.526	1396.72
799.964	1765.52
800.402	1818.72
800.84	680.92
801.278	266.92
801.716	167.22
802.154	136.82
802.592	126.92
803.03	121.72
803.468	116.42
803.906	128.42
804.344	140.12
804.782	124.72
805.22	109.62
805.658	116.12
806.096	124.12
806.533	142.92
806.971	155.32
807.409	189.72
807.847	267.12
808.284	554.42
808.722	1605.42
809.16	2945.62
809.597	2706.42
810.035	4764.92
810.472	5335.32
810.91	1880.62
811.347	711.32
811.785	352.62
812.222	228.02
812.66	175.62
813.097	145.02
813.535	119.42
813.972	114.02
814.409	98.32
814.846	91.92
815.284	91.42
815.721	88.72
816.158	91.72
816.595	110.82
817.032	158.62
817.47	175.82
817.907	143.52
818.344	130.52
818.781	109.62
819.218	91.52
819.655	110.32
820.092	166.12
820.529	191.42
820.966	159.12
821.403	116.32
821.839	92.92
822.276	89.72
822.713	105.82
823.15	118.22
823.587	101.82
824.023	124.62
824.46	250.52
824.897	762.72
825.333	1225.92
825.77	520.72
826.206	204.72
826.643	122.92
827.08	84.02
827.516	73.52
827.953	74.62
828.389	69.22
828.825	64.22
829.262	60.22
829.698	56.82
830.135	61.42
830.571	47.22
831.007	59.32
831.443	54.22
831.88	53.02
832.316	52.72
832.752	61.42
833.188	54.22
833.624	60.22
834.06	62.02
834.497	58.32
834.933	63.62
835.369	61.92
835.805	61.12
836.241	62.42
836.677	69.42
837.112	83.82
837.548	92.72
837.984	111.72
838.42	165.52
838.856	416.02
839.292	1312.72
839.727	2086.02
840.163	955.32
840.599	805.52
841.034	1773.62
841.47	1929.72
841.906	702.42
842.341	291.52
842.777	195.22
843.212	269.12
843.648	280.82
844.083	133.22
844.519	83.92
844.954	68.52
845.39	48.02
845.825	51.32
846.261	53.22
846.696	44.92
847.131	40.52
847.566	51.32
848.002	46.72
848.437	49.82
848.872	54.12
849.307	62.72
849.742	71.12
850.177	154.82
850.613	486.42
851.048	787.32
851.483	346.82
851.918	137.82
852.353	73.52
852.788	48.02
853.223	54.12
853.657	50.92
854.092	46.72
854.527	41.42
854.962	32.92
855.397	42.12
855.832	45.82
856.266	39.12
856.701	36.72
857.136	33.62
857.57	34.82
858.005	44.22
858.44	51.82
858.874	40.12
859.309	42.32
859.743	33.82
860.178	43.62
860.612	38.02
861.047	46.12
861.481	55.62
861.915	65.32
862.35	46.52
862.784	34.42
863.218	35.42
863.653	30.62
864.087	36.62
864.521	47.12
864.955	63.32
865.39	135.32
865.824	155.62
866.258	99.32
866.692	141.52
867.126	158.82
867.56	91.32
867.994	52.42
868.428	28.62
868.862	38.12
869.296	52.82
869.73	51.82
870.164	46.42
870.598	42.52
871.031	35.32
871.465	26.12
871.899	27.52
872.333	21.12
872.766	24.62
873.2	22.02
873.634	31.32
874.067	28.92
874.501	24.42
874.935	33.32
875.368	29.82
875.802	15.82
876.235	22.52
876.669	18.22
877.102	17.72
877.535	20.22
877.969	25.62
878.402	24.62
878.836	17.22
879.269	22.32
879.702	19.52
880.135	16.62
880.569	20.32
881.002	22.82
881.435	17.82
881.868	12.72
882.301	19.82
882.734	21.72
883.167	23.72
883.601	12.32
884.034	20.72
884.467	11.62
884.899	14.02
885.332	19.32
885.765	11.02
886.198	11.92
886.631	10.22
887.064	17.02
887.497	16.12
887.929	20.52
888.362	17.42
888.795	14.32
889.228	16.72
889.66	20.42
890.093	16.52
890.526	16.62
890.958	14.42
891.391	22.22
891.823	19.92
892.256	17.52
892.688	11.62
893.121	11.92
893.553	10.62
893.985	27.02
894.418	14.82
894.85	7.82
895.282	9.72
895.715	16.32
896.147	17.42
896.579	12.92
897.011	14.72
897.444	17.22
897.876	17.32
898.308	9.92
898.74	12.02
899.172	9.72
899.604	27.92
900.036	17.62
900.468	12.62
900.9	12.22
901.332	16.02
901.764	7.42
902.196	10.92
902.628	15.72
903.06	17.72
903.491	25.92
903.923	16.72
904.355	17.02
904.787	16.72
905.218	22.92
905.65	19.72
906.082	10.82
906.513	13.52
906.945	9.92
907.376	5.92
907.808	24.52
908.239	20.92
908.671	19.92
909.102	19.02
909.534	25.92
909.965	41.42
910.397	90.92
910.828	281.62
911.259	437.12
911.691	193.22
912.122	94.92
912.553	47.52
912.984	31.32
913.415	22.82
913.847	19.92
914.278	11.72
914.709	10.72
915.14	18.62
915.571	12.12
916.002	11.72
916.433	22.92
916.864	17.72
917.295	16.22
917.726	13.82
918.157	14.82
918.587	28.12
919.018	22.42
919.449	18.62
919.88	27.92
920.311	22.52
920.741	35.12
921.172	152.42
921.603	133.12
922.033	61.22
922.464	44.62
922.895	26.52
923.325	19.72
923.756	5.72
924.186	15.52
924.617	23.12
925.047	39.72
925.478	41.92
925.908	41.22
926.338	17.12
926.769	13.62
927.199	14.32
927.629	6.92
928.06	13.82
928.49	13.42
928.92	10.82
929.35	9.92
929.78	13.22
930.21	9.42
930.641	9.22
931.071	7.12
931.501	1.12
931.931	7.82
932.361	6.92
932.791	3.42
933.221	5.72
933.651	1.82
934.08	11.22
934.51	29.62
934.94	15.72
935.37	7.32
935.8	8.62
936.229	8.12
936.659	11.62
937.089	4.92
937.519	14.12
937.948	19.72
938.378	16.22
938.807	1.42
939.237	5.52
939.666	12.42
940.096	0.42
940.525	5.22
940.955	2.82
941.384	3.42
941.814	-4.48
942.243	0.42
942.672	3.52
943.102	-2.18
943.531	-0.88
943.96	7.52
944.39	8.82
944.819	-0.08
945.248	6.62
945.677	2.52
946.106	13.32
946.535	0.52
946.964	4.12
947.393	3.92
947.822	5.22
948.251	-4.28
948.68	4.12
949.109	11.02
949.538	0.32
949.967	4.22
950.396	5.02
950.825	0.92
951.254	-3.08
951.682	-5.58
952.111	7.82
952.54	8.52
952.969	-3.28
953.397	-5.78
953.826	-0.48
954.254	-6.98
954.683	-1.98
955.112	-4.78
955.54	5.52
955.969	-0.58
956.397	0.42
956.826	-2.38
957.254	2.32
957.682	1.92
958.111	7.72
958.539	-0.08
958.967	2.92
959.396	-1.78
959.824	3.12
960.252	3.92
960.68	-3.08
961.109	-4.38
961.537	-6.48
961.965	-3.38
962.393	-0.38
962.821	-5.48
963.249	-3.98
963.677	-0.68
964.105	2.62
964.533	39.12
964.961	36.42
965.389	17.22
965.817	5.62
966.245	5.52
966.672	-3.38
967.1	-8.18
967.528	-0.68
967.956	-1.98
968.383	0.82
968.811	-1.48
969.239	0.52
969.666	-5.48
970.094	-4.08
970.522	3.12
970.949	-1.38
971.377	-3.48
971.804	0.42
972.232	-3.78
972.659	-9.28
973.087	-2.78
973.514	-7.08
973.941	-1.58
974.369	5.82
974.796	4.62
975.223	4.32
975.651	1.62
976.078	7.22
976.505	-0.38
976.932	9.22
977.359	12.92
977.786	14.22
978.214	0.32
978.641	0.42
979.068	-4.98
979.495	-7.48
979.922	2.52
980.349	-2.98
980.776	-0.08
981.202	-1.98
981.629	3.22
982.056	3.82
982.483	-2.78
982.91	1.12
983.337	-8.98
983.763	0.92
984.19	-0.28
984.617	4.42
985.043	-9.68
985.47	-2.98
985.897	-5.28
986.323	-5.98
986.75	8.02
987.176	0.22
987.603	3.72
988.029	-0.78
988.456	3.22
988.882	-5.88
989.308	-3.38
989.735	-2.08
990.161	9.72
990.587	-1.98
991.014	1.52
991.44	8.12
991.866	-2.78
992.292	-0.08
992.719	-1.58
993.145	2.82
993.571	-6.88
993.997	1.42
994.423	-2.78
994.849	-8.18
995.275	0.12
995.701	4.12
996.127	-3.98
996.553	-0.28
996.979	-5.58
997.405	0.52
997.83	-4.58
998.256	-5.78
998.682	-9.08
999.108	-7.08
999.534	-0.48
999.959	-2.88
1000.385	-0.68
1000.811	5.62
1001.236	-2.68
1001.662	-3.28
1002.087	-11.88
1002.513	-0.58
1002.938	2.32
1003.364	-6.78
1003.789	-2.08
1004.215	-2.98
1004.64	-5.58
1005.066	1.62
1005.491	-2.18
1005.916	-1.78
1006.342	-4.28
1006.767	-8.28
1007.192	3.72
1007.617	-3.58
1008.042	-5.88
1008.468	-4.48
1008.893	-4.88
1009.318	-4.98
1009.743	-5.98
1010.168	0.42
1010.593	6.42
1011.018	-6.18
1011.443	2.62
1011.868	2.02
1012.293	-4.38
1012.718	-9.18
1013.143	-1.58
1013.567	2.12
1013.992	6.12
1014.417	-13.38
1014.842	4.82
1015.267	-7.38
1015.691	-6.78
1016.116	4.72
1016.541	-2.98
1016.965	4.12
1017.39	4.42
1017.814	0.12
1018.239	2.12
1018.663	-4.08
1019.088	-12.38
1019.512	-1.68
1019.937	3.72
1020.361	0.02
1020.785	-10.38
1021.21	-6.28
1021.634	-5.58
1022.058	0.82
1022.483	6.72
1022.907	1.42
1023.331	-4.68
1023.755	-6.08
1024.179	-2.78
1024.604	-6.68
1025.028	-5.58
1025.452	-2.98
1025.876	6.62
1026.3	0.62
1026.724	-5.28
1027.148	-7.28
1027.572	-4.88
1027.996	-0.48
1028.42	-1.08
1028.843	-5.98
1029.267	-4.58
1029.691	-6.78
1030.115	-5.58
1030.539	-14.18
1030.962	-9.48
1031.386	-4.18
1031.81	2.72
1032.233	-1.08
1032.657	-0.88
1033.08	-0.58
1033.504	-2.78
1033.927	-6.28
1034.351	0.22
1034.774	-4.08
1035.198	-0.88
1035.621	-3.78
1036.045	-1.88
1036.468	2.02
1036.891	-4.98
1037.315	-6.88
1037.738	-12.58
1038.161	4.32
1038.584	-4.48
1039.008	-7.98
1039.431	-3.48
1039.854	-0.28
1040.277	-7.68
1040.7	-7.38
1041.123	-1.28
1041.546	-3.08
1041.969	-2.18
1042.392	-9.68
1042.815	-4.28
1043.238	-1.88
1043.661	-1.48
1044.084	-5.68
1044.507	-6.28
1044.93	-10.78
1045.352	-0.58
1045.775	-0.58
1046.198	-4.98
1046.621	-2.28
1047.043	6.02
1047.466	8.22
1047.889	-4.28
1048.311	-4.98
1048.734	-4.78
1049.156	-5.28
1049.579	0.42
1050.001	-1.88
1050.424	0.92
1050.846	1.32
1051.269	-7.38
1051.691	-10.88
1052.113	-5.78
1052.536	-0.68
1052.958	1.22
1053.38	-4.38
1053.802	-5.38
1054.225	4.52
1054.647	-8.08
1055.069	-4.78
1055.491	-2.58
1055.913	-8.28
1056.335	5.32
1056.757	-0.68
1057.179	-8.68
1057.601	-2.98
1058.023	-0.58
1058.445	-4.38
1058.867	-1.08
1059.289	-6.88
1059.711	-2.08
1060.133	2.22
1060.555	0.22
1060.976	-5.88
1061.398	-5.08
1061.82	-2.88
1062.241	-9.48
1062.663	-5.28
1063.085	-4.88
1063.506	3.52
1063.928	-1.48
1064.35	4.32
1064.771	-7.18
1065.193	0.22
1065.614	-10.98
1066.035	1.02
1066.457	1.82
1066.878	1.32
1067.3	-1.68
1067.721	-0.38
1068.142	-0.18
1068.564	-0.68
1068.985	-4.58
1069.406	-2.38
1069.827	0.72
1070.248	-1.48
1070.67	-5.78
1071.091	-7.68
1071.512	-3.88
1071.933	-3.38
1072.354	-4.88
1072.775	-6.38
1073.196	-6.18
1073.617	-2.98
1074.038	-9.48
1074.459	1.42
1074.88	-2.58
1075.3	-1.78
1075.721	-9.68
1076.142	-0.98
1076.563	1.82
1076.983	-10.78
1077.404	-6.58
1077.825	-8.38
1078.246	-6.68
1078.666	-5.58
1079.087	-3.78
1079.507	-4.98
1079.928	4.82
1080.348	0.12
1080.769	-10.38
1081.189	-0.48
1081.61	-0.48
1082.03	-4.28
1082.451	-5.88
1082.871	-6.58
1083.291	-10.88
1083.711	-12.58
1084.132	-0.58
1084.552	-6.38
1084.972	0.82
1085.392	-10.48
1085.813	-13.68
1086.233	-8.88
1086.653	0.32
1087.073	-4.68
1087.493	-3.38
1087.913	-5.88
1088.333	-10.18
1088.753	-4.38
1089.173	0.92
1089.593	-1.48
1090.013	-6.08
1090.433	-7.48
1090.852	4.52
1091.272	-5.38
1091.692	-1.38
1092.112	-5.58
1092.531	-7.48
1092.951	-12.68
1093.371	3.12
1093.79	-0.38
1094.21	-5.28
1094.63	-5.98
1095.049	-9.38
1095.469	-6.68
1095.888	1.32
1096.308	-2.28
1096.727	4.02
1097.146	-5.48
1097.566	1.12
1097.985	-13.18
1098.405	-6.48
1098.824	-6.18
1099.243	-1.08
1099.662	-4.28
1100.082	-0.28
1100.501	-5.18
1100.92	-6.58
1101.339	-2.58
1101.758	-9.28
