Data from 20171114-ORNL-Ar_H_NY_Subt18_08-08-35-311.txt Node
Date: Tue Nov 14 08:08:35 EST 2017
User: Ender
Spectrometer: HR+D1039
Trigger mode: 0
Integration Time (sec): 2.730000E-2
Scans to average: 10
Electric dark correction enabled: true
Nonlinearity correction enabled: false
Boxcar width: 0
XAxis mode: Wavelengths
Number of Pixels in Spectrum: 2048
>>>>>Begin Spectral Data<<<<<
187.836	-1.03
188.309	-1.03
188.782	-1.03
189.255	6.77
189.728	3.17
190.201	6.77
190.674	-3.83
191.147	5.47
191.619	-8.23
192.092	2.07
192.565	-0.33
193.038	0.17
193.511	1.87
193.984	-7.73
194.456	-2.93
194.929	0.07
195.402	-0.93
195.874	-1.43
196.347	0.37
196.82	-2.83
197.292	3.47
197.765	0.47
198.237	-2.43
198.71	4.57
199.182	4.37
199.655	-1.83
200.127	1.37
200.6	-5.73
201.072	-1.33
201.544	-5.43
202.017	-3.43
202.489	1.67
202.961	-5.53
203.433	-0.33
203.906	-2.33
204.378	-7.73
204.85	-0.23
205.322	-11.33
205.794	-4.83
206.266	-4.43
206.739	-6.23
207.211	5.37
207.683	-11.62
208.155	-6.63
208.627	-8.83
209.099	-5.63
209.57	-7.62
210.042	-3.23
210.514	-5.43
210.986	-4.53
211.458	-9.93
211.93	2.07
212.402	3.27
212.873	-11.23
213.345	-11.23
213.817	-10.43
214.288	-1.13
214.76	-17.03
215.232	-2.43
215.703	-8.53
216.175	-1.23
216.646	-5.73
217.118	-4.33
217.589	-6.93
218.061	-6.03
218.532	-9.33
219.004	0.27
219.475	-2.53
219.946	0.97
220.418	-7.73
220.889	0.97
221.36	1.47
221.832	-4.93
222.303	-7.43
222.774	-2.73
223.245	-5.03
223.717	-4.43
224.188	-1.83
224.659	-5.33
225.13	3.88
225.601	-1.53
226.072	0.47
226.543	-3.33
227.014	-3.23
227.485	2.47
227.956	-5.73
228.427	-6.93
228.898	0.27
229.369	9.27
229.839	1.17
230.31	-9.73
230.781	3.07
231.252	-0.33
231.722	-2.53
232.193	-7.23
232.664	-10.33
233.135	0.47
233.605	1.47
234.076	-3.83
234.546	3.17
235.017	2.37
235.487	6.17
235.958	-1.63
236.428	-3.63
236.899	0.67
237.369	-2.62
237.84	1.87
238.31	3.17
238.78	0.27
239.251	-5.73
239.721	-8.53
240.191	2.88
240.662	1.38
241.132	-4.93
241.602	-5.93
242.072	1.27
242.542	-0.03
243.013	-1.73
243.483	2.77
243.953	5.57
244.423	-3.53
244.893	-6.63
245.363	2.97
245.833	-2.53
246.303	-4.03
246.773	1.97
247.243	5.57
247.712	7.27
248.182	2.87
248.652	2.57
249.122	-6.23
249.592	5.57
250.061	19.07
250.531	24.88
251.001	13.27
251.471	16.57
251.94	9.37
252.41	3.67
252.879	4.57
253.349	15.17
253.818	7.57
254.288	5.67
254.757	2.38
255.227	-2.73
255.696	-1.43
256.166	5.88
256.635	-1.63
257.105	5.38
257.574	7.07
258.043	5.97
258.513	4.87
258.982	11.47
259.451	5.07
259.92	10.27
260.389	3.67
260.859	13.07
261.328	4.77
261.797	10.88
262.266	0.47
262.735	9.77
263.204	3.17
263.673	-3.73
264.142	8.88
264.611	-5.53
265.08	-2.03
265.549	-4.03
266.018	2.88
266.487	1.47
266.955	-4.53
267.424	-1.13
267.893	2.17
268.362	-3.53
268.83	3.17
269.299	12.27
269.768	3.17
270.236	1.57
270.705	2.77
271.174	2.47
271.642	4.87
272.111	8.97
272.579	13.27
273.048	11.57
273.516	19.47
273.985	20.87
274.453	18.67
274.922	20.47
275.39	8.27
275.858	3.87
276.327	12.17
276.795	18.37
277.263	14.67
277.731	24.67
278.2	39.87
278.668	37.37
279.136	33.57
279.604	15.37
280.072	11.17
280.54	12.97
281.008	8.17
281.477	13.87
281.945	9.77
282.413	5.87
282.881	10.37
283.348	2.17
283.816	11.77
284.284	11.67
284.752	17.27
285.22	7.97
285.688	10.07
286.156	7.17
286.623	37.07
287.091	40.17
287.559	21.17
288.026	9.77
288.494	7.27
288.962	2.67
289.429	12.37
289.897	9.47
290.364	14.37
290.832	14.47
291.3	10.67
291.767	10.88
292.234	16.87
292.702	9.67
293.169	14.47
293.637	13.07
294.104	17.07
294.571	8.97
295.039	9.27
295.506	12.57
295.973	14.27
296.44	12.97
296.908	10.27
297.375	13.17
297.842	16.97
298.309	16.17
298.776	10.17
299.243	16.27
299.71	5.97
300.177	17.57
300.644	23.77
301.111	21.77
301.578	22.47
302.045	14.07
302.512	18.37
302.979	16.37
303.446	13.47
303.913	20.97
304.379	16.67
304.846	24.38
305.313	18.47
305.78	18.87
306.246	18.37
306.713	20.17
307.18	24.07
307.646	22.57
308.113	32.07
308.579	21.67
309.046	15.27
309.512	23.97
309.979	14.67
310.445	24.17
310.912	26.67
311.378	33.37
311.845	26.27
312.311	27.77
312.777	22.77
313.244	26.88
313.71	33.77
314.176	27.27
314.642	27.37
315.109	23.47
315.575	26.87
316.041	28.87
316.507	30.37
316.973	36.07
317.439	29.27
317.905	32.07
318.371	34.47
318.837	32.38
319.303	27.97
319.769	31.57
320.235	32.97
320.701	28.17
321.167	28.87
321.633	32.27
322.099	36.77
322.564	37.17
323.03	37.77
323.496	33.37
323.962	34.07
324.427	32.27
324.893	34.97
325.359	31.67
325.824	34.87
326.29	35.77
326.755	33.57
327.221	37.87
327.686	36.77
328.152	43.27
328.617	38.67
329.083	37.97
329.548	46.67
330.014	36.57
330.479	32.87
330.944	36.87
331.41	35.67
331.875	35.97
332.34	40.47
332.805	38.77
333.271	39.77
333.736	34.27
334.201	45.07
334.666	45.77
335.131	51.47
335.596	43.87
336.061	43.07
336.526	40.07
336.991	45.38
337.456	47.57
337.921	40.17
338.386	38.57
338.851	44.37
339.316	44.47
339.781	43.87
340.246	46.57
340.711	44.47
341.175	41.07
341.64	37.47
342.105	44.67
342.569	51.37
343.034	52.77
343.499	48.97
343.963	51.17
344.428	56.88
344.893	58.47
345.357	50.87
345.822	57.87
346.286	57.87
346.751	66.38
347.215	60.87
347.679	68.67
348.144	80.17
348.608	68.07
349.073	58.27
349.537	72.17
350.001	74.87
350.465	83.67
350.93	69.57
351.394	75.47
351.858	67.97
352.322	84.97
352.786	75.88
353.25	89.07
353.715	97.27
354.179	99.07
354.643	109.67
355.107	117.77
355.571	98.17
356.035	94.17
356.498	112.97
356.962	109.47
357.426	119.57
357.89	103.17
358.354	78.97
358.818	81.47
359.281	76.77
359.745	71.38
360.209	73.77
360.673	65.67
361.136	73.38
361.6	81.27
362.064	81.97
362.527	81.27
362.991	87.87
363.454	74.17
363.918	68.77
364.381	76.87
364.845	78.87
365.308	86.87
365.772	87.37
366.235	82.87
366.698	82.67
367.162	78.07
367.625	86.07
368.088	89.57
368.552	82.57
369.015	85.87
369.478	94.57
369.941	93.17
370.404	89.37
370.867	100.17
371.331	100.37
371.794	111.27
372.257	98.07
372.72	110.37
373.183	101.97
373.646	100.97
374.109	100.97
374.572	101.17
375.035	103.87
375.497	104.87
375.96	102.57
376.423	99.27
376.886	106.17
377.349	105.97
377.811	96.57
378.274	95.57
378.737	100.57
379.199	109.97
379.662	103.37
380.125	115.27
380.587	112.97
381.05	119.57
381.512	124.67
381.975	126.47
382.437	125.97
382.9	118.47
383.362	127.17
383.825	135.27
384.287	139.67
384.75	133.17
385.212	137.27
385.674	138.77
386.136	138.67
386.599	121.07
387.061	122.77
387.523	121.87
387.985	133.47
388.447	144.27
388.91	143.07
389.372	150.47
389.834	145.27
390.296	138.37
390.758	145.37
391.22	164.67
391.682	196.67
392.144	270.37
392.606	209.97
393.068	153.97
393.529	161.47
393.991	149.87
394.453	144.87
394.915	149.27
395.377	177.87
395.838	197.17
396.3	147.07
396.762	145.47
397.224	135.87
397.685	132.07
398.147	127.88
398.608	125.57
399.07	132.37
399.531	132.27
399.993	140.07
400.454	150.77
400.916	144.57
401.377	141.17
401.839	148.17
402.3	150.57
402.762	164.37
403.223	180.17
403.684	173.07
404.145	160.57
404.607	155.67
405.068	164.87
405.529	170.17
405.99	182.17
406.451	174.67
406.913	167.47
407.374	164.57
407.835	162.07
408.296	172.88
408.757	175.07
409.218	186.47
409.679	175.57
410.14	170.57
410.601	172.57
411.062	182.27
411.522	201.87
411.983	193.57
412.444	178.47
412.905	175.88
413.366	189.57
413.826	188.77
414.287	215.98
414.748	258.87
415.208	244.37
415.669	211.67
416.13	205.97
416.59	207.27
417.051	215.67
417.511	219.87
417.972	234.88
418.432	241.57
418.893	295.57
419.353	255.38
419.814	202.57
420.274	184.97
420.734	189.87
421.195	193.57
421.655	190.27
422.115	195.87
422.576	192.97
423.036	197.57
423.496	206.88
423.956	216.67
424.416	232.97
424.876	270.57
425.336	261.07
425.797	265.97
426.257	250.38
426.717	238.38
427.177	239.17
427.637	225.88
428.097	235.37
428.556	245.27
429.016	270.17
429.476	263.07
429.936	278.27
430.396	279.67
430.856	288.17
431.315	311.87
431.775	343.37
432.235	375.17
432.694	352.27
433.154	360.07
433.614	394.97
434.073	335.97
434.533	287.57
434.993	276.98
435.452	285.37
435.912	289.87
436.371	287.38
436.83	283.77
437.29	271.57
437.749	254.57
438.209	251.47
438.668	273.27
439.127	289.27
439.587	266.27
440.046	250.48
440.505	261.08
440.964	275.77
441.424	314.47
441.883	302.88
442.342	263.97
442.801	227.07
443.26	228.27
443.719	225.17
444.178	224.37
444.637	210.58
445.096	226.77
445.555	222.67
446.014	223.97
446.473	230.87
446.932	238.27
447.391	234.87
447.849	233.88
448.308	217.98
448.767	220.88
449.226	242.27
449.685	239.37
450.143	250.47
450.602	241.27
451.061	223.47
451.519	238.47
451.978	234.97
452.436	240.07
452.895	238.08
453.353	249.88
453.812	241.97
454.27	235.27
454.729	241.58
455.187	249.77
455.646	247.07
456.104	244.87
456.562	259.57
457.021	268.67
457.479	260.87
457.937	273.47
458.395	256.67
458.854	254.67
459.312	251.57
459.77	277.07
460.228	258.97
460.686	243.97
461.144	259.47
461.602	243.97
462.06	245.77
462.518	256.27
462.976	257.77
463.434	263.67
463.892	258.67
464.35	272.07
464.808	294.07
465.266	273.07
465.724	272.67
466.181	276.27
466.639	271.47
467.097	296.37
467.555	298.67
468.012	304.37
468.47	312.37
468.928	331.27
469.385	341.77
469.843	354.17
470.3	356.17
470.758	364.67
471.215	385.17
471.673	412.97
472.13	408.67
472.588	412.98
473.045	373.27
473.503	384.58
473.96	396.67
474.417	405.27
474.875	435.67
475.332	476.07
475.789	468.67
476.246	470.97
476.704	485.47
477.161	514.57
477.618	520.77
478.075	563.08
478.532	616.07
478.989	687.98
479.446	797.97
479.903	759.17
480.36	800.47
480.817	858.47
481.274	949.57
481.731	1045.27
482.188	1149.17
482.645	1280.18
483.102	1372.57
483.558	1500.78
484.015	1559.68
484.472	1529.97
484.929	1475.38
485.385	1427.58
485.842	1386.57
486.299	1337.97
486.755	1274.08
487.212	1082.38
487.668	919.57
488.125	837.87
488.582	777.08
489.038	742.07
489.494	704.88
489.951	692.48
490.407	659.27
490.864	637.57
491.32	637.37
491.776	628.17
492.233	637.57
492.689	611.48
493.145	602.97
493.602	597.77
494.058	610.37
494.514	615.47
494.97	633.97
495.426	650.07
495.882	611.27
496.338	606.37
496.794	621.37
497.251	607.77
497.707	625.77
498.163	625.27
498.618	634.97
499.074	632.48
499.53	671.67
499.986	676.97
500.442	638.97
500.898	628.88
501.354	625.47
501.809	637.67
502.265	643.48
502.721	648.67
503.177	668.97
503.632	662.77
504.088	676.47
504.543	705.97
504.999	711.48
505.455	653.27
505.91	628.77
506.366	626.47
506.821	633.17
507.277	616.97
507.732	628.37
508.187	626.17
508.643	637.48
509.098	635.87
509.553	659.87
510.009	666.17
510.464	671.87
510.919	691.67
511.375	692.38
511.83	710.07
512.285	724.87
512.74	752.57
513.195	774.98
513.65	768.27
514.105	759.57
514.56	767.47
515.015	773.58
515.47	800.07
515.925	783.27
516.38	780.17
516.835	794.47
517.29	791.97
517.745	766.58
518.2	757.27
518.655	751.57
519.109	741.77
519.564	727.77
520.019	723.97
520.474	716.67
520.928	720.77
521.383	714.57
521.838	696.07
522.292	717.67
522.747	707.77
523.201	698.17
523.656	691.48
524.11	703.97
524.565	682.48
525.019	691.67
525.474	701.97
525.928	700.88
526.382	697.77
526.837	696.07
527.291	705.47
527.745	691.07
528.2	707.47
528.654	698.48
529.108	686.07
529.562	694.57
530.016	686.47
530.47	688.17
530.925	684.67
531.379	686.67
531.833	704.17
532.287	694.17
532.741	700.38
533.195	709.77
533.649	710.17
534.103	704.07
534.556	702.87
535.01	708.88
535.464	710.27
535.918	722.67
536.372	715.17
536.826	710.38
537.279	705.07
537.733	708.07
538.187	710.27
538.64	705.07
539.094	717.77
539.548	745.97
540.001	735.87
540.455	728.37
540.908	717.67
541.362	739.27
541.815	745.07
542.269	758.17
542.722	758.97
543.175	766.47
543.629	765.47
544.082	786.47
544.536	794.98
544.989	784.38
545.442	805.57
545.895	789.37
546.349	782.47
546.802	792.57
547.255	798.57
547.708	808.87
548.161	809.67
548.614	826.17
549.067	821.48
549.52	818.98
549.973	813.47
550.426	808.97
550.879	792.47
551.332	798.17
551.785	809.67
552.238	813.27
552.691	816.38
553.144	819.17
553.596	844.38
554.049	868.17
554.502	893.07
554.955	905.37
555.407	898.27
555.86	897.67
556.313	885.98
556.765	873.77
557.218	880.07
557.67	887.17
558.123	869.77
558.576	871.17
559.028	878.58
559.48	882.27
559.933	874.37
560.385	850.97
560.838	809.97
561.29	781.77
561.742	785.77
562.195	773.07
562.647	765.27
563.099	785.77
563.551	772.07
564.004	790.57
564.456	777.07
564.908	765.67
565.36	739.07
565.812	724.97
566.264	720.27
566.716	729.17
567.168	705.67
567.62	731.97
568.072	705.77
568.524	696.47
568.976	692.27
569.428	682.87
569.88	679.37
570.332	685.88
570.784	689.07
571.235	680.67
571.687	700.27
572.139	708.17
572.59	706.37
573.042	717.37
573.494	709.38
573.945	696.97
574.397	692.57
574.849	702.67
575.3	695.57
575.752	682.07
576.203	677.27
576.655	684.17
577.106	669.57
577.557	670.38
578.009	667.17
578.46	668.47
578.912	673.07
579.363	668.98
579.814	671.47
580.265	662.38
580.717	661.97
581.168	668.87
581.619	684.08
582.07	686.97
582.521	684.57
582.972	670.17
583.423	690.07
583.875	679.37
584.326	703.47
584.777	746.47
585.227	812.67
585.678	891.17
586.129	977.47
586.58	1029.08
587.031	1107.88
587.482	1222.07
587.933	1396.17
588.384	1225.88
588.834	949.57
589.285	796.17
589.736	785.17
590.186	776.67
590.637	765.17
591.088	747.77
591.538	752.98
591.989	742.07
592.439	729.77
592.89	728.07
593.34	720.17
593.791	712.17
594.241	698.57
594.692	710.57
595.142	707.07
595.593	705.77
596.043	708.77
596.493	719.98
596.943	726.47
597.394	739.37
597.844	723.87
598.294	735.88
598.744	754.97
599.195	788.37
599.645	830.87
600.095	865.57
600.545	930.57
600.995	981.57
601.445	1033.87
601.895	1091.27
602.345	1137.38
602.795	1122.88
603.245	1090.67
603.695	1012.57
604.145	963.57
604.594	922.47
605.044	856.97
605.494	805.77
605.944	751.47
606.393	747.88
606.843	730.37
607.293	732.08
607.743	744.48
608.192	756.37
608.642	759.77
609.091	772.58
609.541	769.87
609.99	771.97
610.44	764.58
610.889	727.88
611.339	704.77
611.788	693.08
612.238	705.97
612.687	722.47
613.136	712.17
613.586	742.97
614.035	734.47
614.484	754.77
614.933	750.67
615.383	746.57
615.832	742.08
616.281	730.47
616.73	692.27
617.179	671.07
617.628	650.17
618.077	635.67
618.526	628.27
618.975	633.97
619.424	620.37
619.873	619.67
620.322	631.87
620.771	605.77
621.22	613.07
621.669	591.58
622.118	592.38
622.567	582.88
623.015	575.27
623.464	572.77
623.913	558.97
624.361	558.27
624.81	559.87
625.259	554.58
625.707	566.67
626.156	565.67
626.604	575.47
627.053	575.47
627.501	573.67
627.95	570.67
628.398	588.87
628.847	572.67
629.295	570.57
629.744	579.38
630.192	572.27
630.64	560.67
631.089	565.37
631.537	580.87
631.985	575.37
632.433	598.48
632.881	597.67
633.33	647.27
633.778	634.47
634.226	570.67
634.674	566.47
635.122	584.17
635.57	600.17
636.018	623.57
636.466	590.67
636.914	574.27
637.362	576.97
637.81	581.67
638.258	591.58
638.705	589.57
639.153	618.67
639.601	623.57
640.049	652.97
640.497	673.47
640.944	688.97
641.392	653.57
641.84	613.27
642.287	594.57
642.735	577.88
643.182	580.88
643.63	587.07
644.078	585.67
644.525	594.07
644.973	595.07
645.42	612.27
645.867	633.07
646.315	636.17
646.762	669.08
647.21	699.97
647.657	723.37
648.104	759.87
648.551	777.27
648.999	846.17
649.446	921.48
649.893	1021.27
650.34	1168.67
650.787	1401.57
651.234	1742.97
651.682	2272.57
652.129	3131.88
652.576	4506.98
653.023	6610.07
653.47	9022.98
653.917	11143.77
654.363	12754.58
654.81	13970.18
655.257	13304.38
655.704	8750.38
656.151	5178.67
656.598	3378.77
657.044	2407.57
657.491	1849.88
657.938	1482.07
658.385	1238.27
658.831	1083.27
659.278	967.67
659.724	861.97
660.171	790.17
660.618	733.07
661.064	689.38
661.511	677.27
661.957	664.88
662.404	649.37
662.85	653.08
663.296	632.67
663.743	557.17
664.189	543.17
664.635	536.27
665.082	532.77
665.528	536.77
665.974	516.97
666.42	515.77
666.867	510.77
667.313	502.07
667.759	487.47
668.205	476.27
668.651	485.47
669.097	490.57
669.543	497.07
669.989	474.57
670.435	455.77
670.881	461.77
671.327	461.87
671.773	480.47
672.219	496.87
672.665	550.38
673.11	596.57
673.556	631.97
674.002	683.67
674.448	672.57
674.893	555.67
675.339	481.07
675.785	445.67
676.23	419.67
676.676	392.48
677.122	393.38
677.567	371.07
678.013	375.97
678.458	368.17
678.904	366.08
679.349	362.48
679.794	358.67
680.24	358.27
680.685	349.77
681.131	351.57
681.576	359.07
682.021	368.07
682.466	360.77
682.912	361.67
683.357	357.77
683.802	388.38
684.247	424.97
684.692	469.07
685.137	499.07
685.583	538.97
686.028	573.37
686.473	520.38
686.918	451.67
687.363	416.57
687.807	405.77
688.252	371.67
688.697	360.07
689.142	332.57
689.587	339.77
690.032	332.27
690.477	348.57
690.921	361.07
691.366	394.27
691.811	407.57
692.255	432.07
692.7	472.07
693.145	517.38
693.589	734.17
694.034	1171.67
694.478	1580.77
694.923	1746.38
695.367	2277.18
695.812	1197.88
696.256	502.37
696.701	375.27
697.145	355.17
697.59	341.87
698.034	321.07
698.478	338.88
698.922	332.47
699.367	330.48
699.811	338.47
700.255	366.38
700.699	392.48
701.143	436.08
701.588	486.88
702.032	525.17
702.476	515.27
702.92	500.97
703.364	504.97
703.808	668.07
704.252	1080.57
704.696	1494.17
705.14	1670.47
705.584	2132.78
706.027	1080.17
706.471	532.97
706.915	405.07
707.359	359.97
707.803	333.47
708.246	317.58
708.69	316.17
709.134	322.97
709.577	320.37
710.021	324.38
710.465	310.88
710.908	304.07
711.352	302.87
711.795	317.87
712.239	355.27
712.682	392.27
713.126	419.47
713.569	462.17
714.012	370.77
714.456	323.67
714.899	300.67
715.342	273.38
715.786	264.27
716.229	261.97
716.672	255.47
717.115	253.87
717.558	259.58
718.002	253.88
718.445	272.37
718.888	297.17
719.331	297.58
719.774	313.27
720.217	306.07
720.66	286.97
721.103	269.07
721.546	255.77
721.989	251.37
722.432	233.77
722.874	240.27
723.317	229.27
723.76	241.47
724.203	262.87
724.645	336.77
725.088	456.87
725.531	583.17
725.974	644.47
726.416	556.07
726.859	309.17
727.301	243.17
727.744	232.97
728.187	237.27
728.629	238.17
729.071	243.67
729.514	269.57
729.956	281.77
730.399	288.37
730.841	288.88
731.283	284.08
731.726	272.27
732.168	267.27
732.61	279.17
733.053	287.47
733.495	325.58
733.937	357.08
734.379	410.87
734.821	442.67
735.263	571.88
735.705	884.57
736.148	1664.28
736.59	2661.57
737.032	3053.77
737.474	2482.88
737.916	819.17
738.357	447.87
738.799	339.07
739.241	308.47
739.683	293.27
740.125	298.17
740.567	303.77
741.008	321.88
741.45	318.98
741.892	319.98
742.334	357.38
742.775	367.67
743.217	353.17
743.658	274.47
744.1	263.77
744.542	272.27
744.983	315.98
745.425	349.38
745.866	351.27
746.307	288.07
746.749	282.67
747.19	343.77
747.632	472.97
748.073	940.27
748.514	1953.87
748.956	2906.28
749.397	3666.47
749.838	3036.48
750.279	2973.97
750.72	1514.47
751.162	551.98
751.603	330.47
752.044	253.38
752.485	213.48
752.926	217.27
753.367	215.47
753.808	193.47
754.249	189.97
754.69	188.67
755.131	189.07
755.572	187.77
756.013	180.17
756.453	189.47
756.894	196.17
757.335	202.38
757.776	202.17
758.216	198.67
758.657	200.38
759.098	211.77
759.538	230.07
759.979	280.77
760.42	387.37
760.86	748.87
761.301	1960.38
761.741	4623.48
762.182	6404.27
762.622	4540.18
763.063	1344.17
763.503	551.47
763.943	352.27
764.384	329.57
764.824	380.88
765.264	409.77
765.705	288.47
766.145	203.77
766.585	190.27
767.025	182.57
767.465	184.27
767.906	234.17
768.346	304.57
768.786	309.57
769.226	264.07
769.666	336.27
770.106	661.17
770.546	1651.57
770.986	2674.27
771.426	2366.27
771.866	800.97
772.306	336.87
772.745	209.77
773.185	177.37
773.625	173.17
774.065	167.37
774.505	191.17
774.944	304.17
775.384	635.27
775.824	1095.97
776.263	1058.47
776.703	464.38
777.142	218.17
777.582	157.37
778.021	141.17
778.461	139.17
778.9	133.87
779.34	132.17
779.779	114.87
780.219	118.67
780.658	112.47
781.097	109.27
781.537	113.07
781.976	113.87
782.415	109.47
782.855	108.57
783.294	104.77
783.733	113.17
784.172	110.47
784.611	105.77
785.05	114.57
785.489	110.88
785.928	123.77
786.367	129.17
786.806	119.27
787.245	135.07
787.684	140.67
788.123	149.07
788.562	130.57
789.001	132.77
789.44	128.77
789.879	117.77
790.317	122.87
790.756	132.07
791.195	127.88
791.634	155.07
792.072	212.08
792.511	387.77
792.95	1071.47
793.388	2162.27
793.827	1909.57
794.265	685.67
794.704	292.77
795.142	183.07
795.581	152.17
796.019	135.17
796.458	134.67
796.896	127.77
797.334	131.37
797.773	161.37
798.211	235.37
798.649	472.77
799.087	1054.47
799.526	1628.38
799.964	2056.57
800.402	1996.68
800.84	763.57
801.278	310.48
801.716	190.97
802.154	158.27
802.592	150.97
803.03	151.07
803.468	136.97
803.906	141.37
804.344	150.67
804.782	146.87
805.22	134.57
805.658	133.07
806.096	145.38
806.533	162.77
806.971	179.47
807.409	226.97
807.847	338.67
808.284	718.07
808.722	1957.08
809.16	3335.27
809.597	3266.48
810.035	5590.77
810.472	5698.88
810.91	2106.88
811.347	815.38
811.785	408.88
812.222	261.27
812.66	199.38
813.097	166.97
813.535	145.47
813.972	133.57
814.409	113.07
814.846	109.88
815.284	110.77
815.721	104.67
816.158	106.57
816.595	124.77
817.032	176.47
817.47	196.17
817.907	154.57
818.344	137.47
818.781	121.17
819.218	96.97
819.655	119.77
820.092	189.57
820.529	215.77
820.966	173.57
821.403	136.97
821.839	110.47
822.276	101.57
822.713	124.07
823.15	129.97
823.587	118.97
824.023	155.67
824.46	324.47
824.897	932.77
825.333	1352.07
825.77	589.67
826.206	234.67
826.643	135.77
827.08	98.97
827.516	89.07
827.953	83.47
828.389	83.37
828.825	69.37
829.262	69.67
829.698	69.97
830.135	70.37
830.571	67.77
831.007	64.67
831.443	70.77
831.88	66.17
832.316	65.87
832.752	65.37
833.188	65.27
833.624	66.27
834.06	72.87
834.497	69.97
834.933	74.17
835.369	80.57
835.805	74.97
836.241	80.87
836.677	83.38
837.112	91.67
837.548	101.37
837.984	138.47
838.42	212.27
838.856	525.27
839.292	1569.78
839.727	2297.27
840.163	1082.47
840.599	973.67
841.034	2077.47
841.47	2112.17
841.906	777.17
842.341	336.47
842.777	230.88
843.212	297.38
843.648	281.87
844.083	140.27
844.519	93.17
844.954	75.88
845.39	58.17
845.825	63.67
846.261	56.67
846.696	56.67
847.131	52.57
847.566	62.57
848.002	56.07
848.437	51.67
848.872	61.97
849.307	62.97
849.742	90.67
850.177	196.97
850.613	581.47
851.048	889.77
851.483	379.07
851.918	162.37
852.353	85.67
852.788	61.17
853.223	61.87
853.657	52.87
854.092	49.17
854.527	41.37
854.962	43.17
855.397	44.57
855.832	51.37
856.266	43.17
856.701	40.57
857.136	36.37
857.57	43.47
858.005	54.07
858.44	57.37
858.874	44.88
859.309	64.27
859.743	43.37
860.178	47.87
860.612	46.37
861.047	57.37
861.481	66.97
861.915	69.38
862.35	48.77
862.784	37.47
863.218	39.17
863.653	39.07
864.087	43.97
864.521	58.07
864.955	69.97
865.39	155.67
865.824	172.38
866.258	115.77
866.692	169.37
867.126	175.27
867.56	110.77
867.994	52.97
868.428	49.27
868.862	44.88
869.296	58.07
869.73	60.07
870.164	51.77
870.598	50.27
871.031	40.57
871.465	30.57
871.899	31.38
872.333	23.67
872.766	25.97
873.2	23.47
873.634	26.87
874.067	20.77
874.501	23.27
874.935	36.07
875.368	26.67
875.802	28.97
876.235	23.57
876.669	25.07
877.102	27.77
877.535	29.38
877.969	21.87
878.402	26.97
878.836	22.87
879.269	28.67
879.702	22.77
880.135	23.37
880.569	22.37
881.002	25.38
881.435	19.97
881.868	18.07
882.301	23.67
882.734	18.17
883.167	24.47
883.601	18.37
884.034	22.57
884.467	16.57
884.899	19.97
885.332	17.77
885.765	15.97
886.198	18.37
886.631	24.77
887.064	21.67
887.497	16.77
887.929	28.37
888.362	13.57
888.795	14.47
889.228	17.57
889.66	23.87
890.093	21.67
890.526	17.37
890.958	18.97
891.391	14.27
891.823	22.67
892.256	18.67
892.688	15.47
893.121	10.27
893.553	16.27
893.985	22.17
894.418	19.67
894.85	15.37
895.282	19.37
895.715	19.77
896.147	14.17
896.579	23.77
897.011	17.38
897.444	18.77
897.876	5.17
898.308	12.97
898.74	18.07
899.172	12.97
899.604	30.38
900.036	20.97
900.468	16.77
900.9	12.57
901.332	15.97
901.764	15.67
902.196	13.38
902.628	22.77
903.06	15.57
903.491	30.37
903.923	27.27
904.355	23.27
904.787	24.07
905.218	23.97
905.65	24.27
906.082	14.97
906.513	10.37
906.945	17.97
907.376	8.37
907.808	21.77
908.239	23.07
908.671	17.17
909.102	23.57
909.534	24.97
909.965	46.87
910.397	94.67
910.828	330.17
911.259	473.77
911.691	219.97
912.122	107.67
912.553	55.77
912.984	34.97
913.415	21.47
913.847	27.47
914.278	17.07
914.709	18.97
915.14	22.47
915.571	22.87
916.002	12.07
916.433	11.77
916.864	14.47
917.295	15.27
917.726	18.97
918.157	13.47
918.587	27.97
919.018	22.57
919.449	20.97
919.88	22.47
920.311	27.87
920.741	50.67
921.172	165.47
921.603	154.27
922.033	73.57
922.464	51.57
922.895	24.57
923.325	22.07
923.756	19.37
924.186	16.57
924.617	25.47
925.047	40.67
925.478	43.97
925.908	38.87
926.338	19.27
926.769	16.97
927.199	16.27
927.629	10.37
928.06	14.17
928.49	16.88
928.92	8.77
929.35	14.17
929.78	12.17
930.21	8.77
930.641	2.37
931.071	13.17
931.501	3.27
931.931	11.17
932.361	7.37
932.791	0.27
933.221	8.27
933.651	1.38
934.08	20.97
934.51	26.27
934.94	16.37
935.37	7.27
935.8	7.57
936.229	7.37
936.659	8.27
937.089	3.67
937.519	15.27
937.948	24.97
938.378	17.17
938.807	8.87
939.237	2.67
939.666	6.27
940.096	2.77
940.525	1.97
940.955	7.88
941.384	-2.53
941.814	-1.63
942.243	1.67
942.672	5.57
943.102	2.47
943.531	-1.73
943.96	4.27
944.39	6.67
944.819	5.77
945.248	3.47
945.677	2.17
946.106	6.07
946.535	4.87
946.964	1.17
947.393	3.57
947.822	1.27
948.251	0.57
948.68	4.67
949.109	3.07
949.538	9.47
949.967	1.47
950.396	-0.53
950.825	-1.93
951.254	6.77
951.682	-1.53
952.111	6.17
952.54	4.37
952.969	2.07
953.397	-5.13
953.826	1.57
954.254	-8.03
954.683	0.97
955.112	-2.93
955.54	6.97
955.969	4.67
956.397	2.17
956.826	-4.73
957.254	3.67
957.682	0.07
958.111	10.67
958.539	-1.53
958.967	-1.13
959.396	-2.63
959.824	4.27
960.252	3.77
960.68	-11.53
961.109	2.57
961.537	-6.63
961.965	-2.93
962.393	4.97
962.821	-7.93
963.249	4.37
963.677	-1.43
964.105	4.87
964.533	40.67
964.961	43.17
965.389	22.77
965.817	7.87
966.245	5.37
966.672	0.47
967.1	-8.12
967.528	0.87
967.956	-5.33
968.383	0.57
968.811	-4.33
969.239	2.27
969.666	-6.13
970.094	-0.73
970.522	8.07
970.949	-0.53
971.377	1.38
971.804	-6.03
972.232	-3.43
972.659	-2.53
973.087	7.37
973.514	5.47
973.941	-9.83
974.369	5.57
974.796	-1.12
975.223	6.87
975.651	-1.33
976.078	4.27
976.505	0.97
976.932	7.87
977.359	15.87
977.786	12.97
978.214	4.57
978.641	-3.13
979.068	-4.73
979.495	-7.63
979.922	0.77
980.349	-4.63
980.776	3.27
981.202	-0.63
981.629	7.37
982.056	5.07
982.483	-0.73
982.91	-5.13
983.337	-7.13
983.763	2.67
984.19	0.17
984.617	0.47
985.043	-2.73
985.47	0.97
985.897	-6.23
986.323	-5.53
986.75	5.88
987.176	5.67
987.603	-3.63
988.029	-2.23
988.456	-1.53
988.882	1.27
989.308	-5.43
989.735	-1.33
990.161	2.47
990.587	-4.33
991.014	-1.63
991.44	5.57
991.866	-1.73
992.292	-3.03
992.719	-2.63
993.145	3.17
993.571	-12.83
993.997	-3.93
994.423	-2.93
994.849	-4.73
995.275	4.17
995.701	0.27
996.127	-1.93
996.553	-0.33
996.979	-7.13
997.405	-3.93
997.83	-4.33
998.256	-9.13
998.682	-4.03
999.108	-8.23
999.534	2.77
999.959	-2.03
1000.385	-5.13
1000.811	0.77
1001.236	-5.83
1001.662	-7.53
1002.087	-4.53
1002.513	2.57
1002.938	-2.62
1003.364	-1.23
1003.789	2.27
1004.215	5.87
1004.64	-5.33
1005.066	7.67
1005.491	2.47
1005.916	-3.73
1006.342	1.07
1006.767	-2.63
1007.192	9.07
1007.617	-5.93
1008.042	-3.63
1008.468	-5.23
1008.893	-6.43
1009.318	-2.23
1009.743	-1.73
1010.168	1.57
1010.593	3.37
1011.018	-5.83
1011.443	-5.43
1011.868	-3.83
1012.293	-7.23
1012.718	-4.62
1013.143	-2.23
1013.567	1.97
1013.992	-3.93
1014.417	-15.13
1014.842	3.37
1015.267	-4.03
1015.691	-4.53
1016.116	5.77
1016.541	0.17
1016.965	4.67
1017.39	5.17
1017.814	2.57
1018.239	-3.63
1018.663	-8.13
1019.088	-7.63
1019.512	-4.03
1019.937	-1.33
1020.361	-3.73
1020.785	-14.23
1021.21	-5.03
1021.634	-3.93
1022.058	-3.03
1022.483	-2.23
1022.907	-5.93
1023.331	-3.03
1023.755	-2.73
1024.179	3.97
1024.604	0.27
1025.028	-7.13
1025.452	-2.83
1025.876	0.57
1026.3	1.97
1026.724	-9.53
1027.148	-3.03
1027.572	-3.93
1027.996	-3.23
1028.42	0.87
1028.843	-2.33
1029.267	0.57
1029.691	-0.53
1030.115	-1.03
1030.539	-2.93
1030.962	-7.03
1031.386	-13.93
1031.81	-2.23
1032.233	-1.73
1032.657	-3.93
1033.08	-1.53
1033.504	-3.23
1033.927	-4.83
1034.351	-2.93
1034.774	-8.33
1035.198	-9.33
1035.621	-2.83
1036.045	-7.33
1036.468	1.17
1036.891	-12.03
1037.315	-11.53
1037.738	-8.23
1038.161	7.27
1038.584	-6.53
1039.008	-5.43
1039.431	-6.43
1039.854	-1.93
1040.277	-10.13
1040.7	-16.43
1041.123	-1.83
1041.546	-6.93
1041.969	-0.73
1042.392	-2.63
1042.815	-3.23
1043.238	5.97
1043.661	3.87
1044.084	-11.63
1044.507	-6.43
1044.93	-9.53
1045.352	-4.13
1045.775	-4.23
1046.198	-3.93
1046.621	-5.03
1047.043	4.47
1047.466	7.97
1047.889	1.07
1048.311	-6.53
1048.734	-1.43
1049.156	-0.43
1049.579	2.17
1050.001	-1.13
1050.424	-0.83
1050.846	-6.03
1051.269	-2.53
1051.691	-0.83
1052.113	-3.03
1052.536	-5.53
1052.958	-4.33
1053.38	-6.03
1053.802	-9.03
1054.225	-1.03
1054.647	-12.03
1055.069	-4.33
1055.491	1.47
1055.913	-5.73
1056.335	-0.73
1056.757	-2.83
1057.179	-6.43
1057.601	-9.93
1058.023	-5.53
1058.445	-0.73
1058.867	2.97
1059.289	0.87
1059.711	-4.12
1060.133	-2.43
1060.555	-9.33
1060.976	-11.33
1061.398	-6.33
1061.82	-6.73
1062.241	-3.43
1062.663	-7.73
1063.085	-9.43
1063.506	7.77
1063.928	-8.73
1064.35	1.47
1064.771	-4.33
1065.193	-3.53
1065.614	-9.93
1066.035	3.47
1066.457	-1.73
1066.878	2.17
1067.3	0.67
1067.721	-2.83
1068.142	0.47
1068.564	-6.93
1068.985	-1.83
1069.406	-5.13
1069.827	-3.73
1070.248	-6.03
1070.67	-3.53
1071.091	-2.43
1071.512	-4.03
1071.933	-9.93
1072.354	-10.23
1072.775	-2.63
1073.196	-8.13
1073.617	0.47
1074.038	-5.83
1074.459	-0.93
1074.88	-8.33
1075.3	2.97
1075.721	-2.83
1076.142	0.47
1076.563	-3.83
1076.983	-14.93
1077.404	-3.33
1077.825	-9.62
1078.246	-3.33
1078.666	-10.33
1079.087	-8.62
1079.507	-6.93
1079.928	-1.53
1080.348	-2.23
1080.769	-8.63
1081.189	-0.12
1081.61	0.57
1082.03	-12.33
1082.451	-9.93
1082.871	-4.33
1083.291	-8.43
1083.711	-11.53
1084.132	-4.43
1084.552	2.57
1084.972	0.37
1085.392	-6.23
1085.813	-8.33
1086.233	-12.63
1086.653	-3.63
1087.073	4.47
1087.493	-9.93
1087.913	-9.43
1088.333	-2.33
1088.753	-3.63
1089.173	-0.03
1089.593	-7.83
1090.013	-2.33
1090.433	-2.23
1090.852	-6.03
1091.272	0.97
1091.692	-2.33
1092.112	-1.53
1092.531	-11.53
1092.951	-18.63
1093.371	-8.03
1093.79	1.88
1094.21	-5.83
1094.63	-7.93
1095.049	-6.43
1095.469	-5.33
1095.888	-5.13
1096.308	5.17
1096.727	-0.23
1097.146	-5.93
1097.566	6.17
1097.985	-6.73
1098.405	0.27
1098.824	-7.03
1099.243	-2.63
1099.662	-3.63
1100.082	-9.53
1100.501	1.47
1100.92	-2.83
1101.339	-5.93
1101.758	-5.93
