Data from 20171114-ORNL-Ar_H_NY_Subt18_08-08-12-927.txt Node
Date: Tue Nov 14 08:08:12 EST 2017
User: Ender
Spectrometer: HR+D1039
Trigger mode: 0
Integration Time (sec): 2.730000E-2
Scans to average: 10
Electric dark correction enabled: true
Nonlinearity correction enabled: false
Boxcar width: 0
XAxis mode: Wavelengths
Number of Pixels in Spectrum: 2048
>>>>>Begin Spectral Data<<<<<
187.836	-7.73
188.309	-7.73
188.782	-7.73
189.255	1.37
189.728	-3.62
190.201	2.77
190.674	1.87
191.147	4.57
191.619	-7.03
192.092	2.88
192.565	2.67
193.038	-1.23
193.511	0.67
193.984	-0.43
194.456	-1.83
194.929	8.17
195.402	-3.73
195.874	0.57
196.347	-4.83
196.82	-6.53
197.292	12.57
197.765	-5.12
198.237	-5.83
198.71	-0.83
199.182	-5.83
199.655	-5.43
200.127	3.07
200.6	-2.03
201.072	-6.13
201.544	-2.23
202.017	-6.03
202.489	1.37
202.961	-0.83
203.433	-1.23
203.906	-6.43
204.378	-6.93
204.85	-1.13
205.322	-8.53
205.794	-2.33
206.266	-2.23
206.739	-9.53
207.211	0.47
207.683	-5.52
208.155	-0.13
208.627	-5.23
209.099	-1.83
209.57	-3.02
210.042	-4.13
210.514	-7.23
210.986	0.97
211.458	-10.23
211.93	-1.63
212.402	2.27
212.873	-11.23
213.345	-8.53
213.817	-14.23
214.288	-1.03
214.76	-9.03
215.232	-4.33
215.703	1.17
216.175	-5.33
216.646	-3.62
217.118	-10.33
217.589	-9.83
218.061	-7.23
218.532	-6.83
219.004	-7.33
219.475	-2.73
219.946	-5.33
220.418	-7.02
220.889	-0.33
221.36	-0.23
221.832	-5.43
222.303	-10.93
222.774	0.77
223.245	-8.73
223.717	-10.73
224.188	-3.12
224.659	-9.13
225.13	-7.23
225.601	-2.63
226.072	2.88
226.543	4.67
227.014	-1.93
227.485	1.37
227.956	-2.83
228.427	-1.03
228.898	3.27
229.369	4.07
229.839	-3.63
230.31	-9.03
230.781	6.57
231.252	-5.23
231.722	-3.93
232.193	-0.52
232.664	1.77
233.135	0.67
233.605	4.57
234.076	-8.53
234.546	-2.33
235.017	0.47
235.487	0.87
235.958	-6.53
236.428	-7.83
236.899	0.27
237.369	0.27
237.84	-2.53
238.31	1.57
238.78	0.88
239.251	-1.43
239.721	7.77
240.191	-1.52
240.662	-0.73
241.132	-2.33
241.602	-1.33
242.072	-4.53
242.542	2.07
243.013	-4.33
243.483	0.97
243.953	-1.62
244.423	-3.33
244.893	-8.03
245.363	2.17
245.833	-8.13
246.303	-7.53
246.773	3.37
247.243	3.17
247.712	-2.73
248.182	6.97
248.652	-0.53
249.122	-5.53
249.592	12.67
250.061	17.97
250.531	26.88
251.001	11.98
251.471	19.07
251.94	11.27
252.41	10.98
252.879	-4.33
253.349	13.97
253.818	8.67
254.288	3.27
254.757	3.57
255.227	0.57
255.696	-2.73
256.166	3.48
256.635	2.67
257.105	9.88
257.574	4.07
258.043	1.38
258.513	10.17
258.982	17.98
259.451	1.57
259.92	11.87
260.389	10.07
260.859	19.27
261.328	13.67
261.797	18.98
262.266	3.57
262.735	7.77
263.204	6.87
263.673	8.37
264.142	-0.83
264.611	-1.63
265.08	-1.53
265.549	-3.43
266.018	5.77
266.487	-3.23
266.955	-0.93
267.424	3.88
267.893	1.07
268.362	1.17
268.83	1.37
269.299	11.27
269.768	4.27
270.236	9.38
270.705	3.07
271.174	3.27
271.642	5.37
272.111	8.07
272.579	18.27
273.048	17.07
273.516	24.67
273.985	29.88
274.453	28.67
274.922	16.67
275.39	12.37
275.858	-0.33
276.327	12.77
276.795	18.67
277.263	8.27
277.731	28.57
278.2	54.97
278.668	50.07
279.136	43.37
279.604	14.47
280.072	15.38
280.54	10.57
281.008	8.97
281.477	15.17
281.945	11.57
282.413	16.57
282.881	17.77
283.348	8.77
283.816	12.67
284.284	16.37
284.752	18.57
285.22	1.77
285.688	10.77
286.156	18.77
286.623	40.07
287.091	45.38
287.559	20.27
288.026	14.38
288.494	15.07
288.962	4.77
289.429	7.77
289.897	15.77
290.364	7.37
290.832	16.38
291.3	15.17
291.767	17.67
292.234	15.67
292.702	12.88
293.169	14.67
293.637	22.47
294.104	15.87
294.571	9.87
295.039	8.77
295.506	15.37
295.973	14.97
296.44	17.47
296.908	19.27
297.375	18.97
297.842	17.67
298.309	15.97
298.776	13.88
299.243	13.77
299.71	13.67
300.177	23.47
300.644	21.88
301.111	18.98
301.578	20.67
302.045	14.88
302.512	23.67
302.979	28.38
303.446	20.07
303.913	21.07
304.379	19.17
304.846	24.27
305.313	20.97
305.78	18.17
306.246	27.27
306.713	23.17
307.18	26.07
307.646	26.97
308.113	28.77
308.579	20.57
309.046	26.38
309.512	26.67
309.979	20.17
310.445	27.37
310.912	22.17
311.378	34.87
311.845	24.88
312.311	23.57
312.777	27.87
313.244	28.27
313.71	39.87
314.176	26.07
314.642	28.47
315.109	30.07
315.575	35.47
316.041	34.17
316.507	30.27
316.973	37.77
317.439	28.67
317.905	33.67
318.371	30.77
318.837	30.27
319.303	28.47
319.769	32.07
320.235	33.87
320.701	32.37
321.167	35.37
321.633	38.88
322.099	36.47
322.564	41.47
323.03	36.67
323.496	38.67
323.962	38.17
324.427	28.37
324.893	42.67
325.359	38.17
325.824	32.47
326.29	34.27
326.755	34.97
327.221	39.47
327.686	38.67
328.152	39.38
328.617	40.07
329.083	42.77
329.548	48.37
330.014	43.07
330.479	38.67
330.944	40.97
331.41	38.07
331.875	43.77
332.34	35.38
332.805	42.77
333.271	44.17
333.736	39.47
334.201	49.27
334.666	47.57
335.131	51.77
335.596	49.47
336.061	46.57
336.526	38.77
336.991	42.17
337.456	55.27
337.921	40.67
338.386	36.27
338.851	40.77
339.316	43.17
339.781	46.38
340.246	49.57
340.711	46.97
341.175	54.37
341.64	42.67
342.105	54.47
342.569	55.97
343.034	55.27
343.499	49.17
343.963	47.57
344.428	66.38
344.893	62.27
345.357	56.57
345.822	54.87
346.286	65.37
346.751	69.38
347.215	61.27
347.679	74.17
348.144	94.27
348.608	79.67
349.073	64.77
349.537	70.67
350.001	75.47
350.465	86.38
350.93	75.47
351.394	81.67
351.858	68.17
352.322	80.77
352.786	83.27
353.25	95.87
353.715	114.67
354.179	100.37
354.643	118.17
355.107	126.57
355.571	103.97
356.035	103.17
356.498	118.77
356.962	124.07
357.426	125.17
357.89	117.47
358.354	90.37
358.818	82.97
359.281	75.27
359.745	69.98
360.209	69.27
360.673	71.27
361.136	73.07
361.6	84.97
362.064	79.57
362.527	83.27
362.991	81.47
363.454	82.17
363.918	69.47
364.381	81.17
364.845	80.97
365.308	82.27
365.772	82.67
366.235	81.07
366.698	83.67
367.162	83.57
367.625	80.67
368.088	79.87
368.552	89.57
369.015	88.67
369.478	90.57
369.941	99.57
370.404	95.17
370.867	105.57
371.331	103.57
371.794	114.37
372.257	108.07
372.72	114.17
373.183	107.67
373.646	106.47
374.109	102.07
374.572	109.77
375.035	104.07
375.497	98.17
375.96	101.38
376.423	98.07
376.886	116.48
377.349	110.37
377.811	101.38
378.274	103.38
378.737	109.67
379.199	115.67
379.662	106.87
380.125	113.27
380.587	119.97
381.05	123.57
381.512	128.27
381.975	139.87
382.437	127.67
382.9	127.37
383.362	133.87
383.825	138.88
384.287	147.97
384.75	140.37
385.212	136.37
385.674	138.67
386.136	133.57
386.599	127.47
387.061	127.48
387.523	129.37
387.985	133.67
388.447	143.07
388.91	144.77
389.372	157.88
389.834	150.07
390.296	143.87
390.758	156.57
391.22	165.87
391.682	209.77
392.144	303.47
392.606	229.37
393.068	159.77
393.529	162.87
393.991	148.07
394.453	149.37
394.915	162.67
395.377	192.77
395.838	215.07
396.3	152.67
396.762	137.27
397.224	127.57
397.685	129.07
398.147	125.67
398.608	128.07
399.07	131.67
399.531	137.77
399.993	143.07
400.454	152.77
400.916	146.27
401.377	141.67
401.839	150.67
402.3	149.27
402.762	172.47
403.223	181.97
403.684	168.47
404.145	159.77
404.607	158.97
405.068	163.47
405.529	168.57
405.99	184.38
406.451	169.67
406.913	168.47
407.374	161.17
407.835	155.97
408.296	168.57
408.757	173.97
409.218	190.57
409.679	173.57
410.14	172.88
410.601	181.37
411.062	184.67
411.522	188.97
411.983	189.17
412.444	175.97
412.905	178.77
413.366	183.57
413.826	190.87
414.287	217.47
414.748	259.47
415.208	244.27
415.669	208.67
416.13	202.97
416.59	207.07
417.051	212.07
417.511	212.47
417.972	238.07
418.432	247.08
418.893	290.08
419.353	248.48
419.814	195.17
420.274	178.57
420.734	178.77
421.195	205.37
421.655	195.77
422.115	194.47
422.576	186.37
423.036	187.97
423.496	204.37
423.956	215.37
424.416	226.27
424.876	260.57
425.336	260.07
425.797	265.48
426.257	248.17
426.717	236.48
427.177	230.67
427.637	224.87
428.097	234.47
428.556	238.17
429.016	272.67
429.476	268.98
429.936	272.87
430.396	283.67
430.856	294.87
431.315	308.87
431.775	352.97
432.235	383.27
432.694	349.27
433.154	368.17
433.614	392.37
434.073	334.57
434.533	283.98
434.993	275.77
435.452	279.07
435.912	296.77
436.371	294.27
436.83	290.98
437.29	270.87
437.749	250.47
438.209	248.88
438.668	269.57
439.127	285.47
439.587	269.18
440.046	245.67
440.505	260.37
440.964	276.07
441.424	330.67
441.883	312.87
442.342	254.87
442.801	231.97
443.26	219.67
443.719	219.08
444.178	217.27
444.637	208.27
445.096	211.87
445.555	216.38
446.014	221.17
446.473	226.47
446.932	234.98
447.391	223.57
447.849	222.87
448.308	211.88
448.767	219.48
449.226	235.48
449.685	227.97
450.143	243.47
450.602	241.47
451.061	233.57
451.519	230.27
451.978	232.47
452.436	231.58
452.895	237.37
453.353	255.77
453.812	240.98
454.27	245.07
454.729	234.57
455.187	236.67
455.646	244.17
456.104	242.38
456.562	258.07
457.021	268.07
457.479	263.57
457.937	269.57
458.395	259.27
458.854	243.77
459.312	255.97
459.77	270.88
460.228	251.97
460.686	234.88
461.144	237.57
461.602	242.07
462.06	240.27
462.518	254.87
462.976	255.87
463.434	252.27
463.892	260.08
464.35	268.27
464.808	280.17
465.266	256.08
465.724	273.77
466.181	267.47
466.639	270.77
467.097	291.97
467.555	292.88
468.012	299.67
468.47	298.38
468.928	326.17
469.385	336.27
469.843	343.67
470.3	353.77
470.758	358.67
471.215	381.07
471.673	401.47
472.13	406.57
472.588	417.77
473.045	375.98
473.503	374.87
473.96	400.77
474.417	409.88
474.875	427.67
475.332	468.77
475.789	460.48
476.246	460.87
476.704	479.07
477.161	502.17
477.618	524.47
478.075	561.37
478.532	607.97
478.989	694.97
479.446	810.68
479.903	770.07
480.36	797.67
480.817	863.87
481.274	965.47
481.731	1043.28
482.188	1145.88
482.645	1283.17
483.102	1387.28
483.558	1525.47
484.015	1581.88
484.472	1555.77
484.929	1498.47
485.385	1456.47
485.842	1416.17
486.299	1350.97
486.755	1283.77
487.212	1083.97
487.668	914.37
488.125	835.07
488.582	761.77
489.038	733.07
489.494	694.37
489.951	668.77
490.407	662.48
490.864	637.87
491.32	641.17
491.776	630.67
492.233	645.77
492.689	606.77
493.145	594.67
493.602	601.07
494.058	608.38
494.514	606.37
494.97	629.77
495.426	635.58
495.882	606.58
496.338	610.08
496.794	616.38
497.251	608.07
497.707	613.98
498.163	623.27
498.618	630.17
499.074	646.27
499.53	664.57
499.986	672.97
500.442	648.77
500.898	628.98
501.354	615.47
501.809	625.97
502.265	627.67
502.721	654.87
503.177	669.68
503.632	658.17
504.088	675.48
504.543	703.67
504.999	698.47
505.455	643.77
505.91	624.08
506.366	612.38
506.821	616.47
507.277	619.17
507.732	615.87
508.187	613.57
508.643	625.67
509.098	628.17
509.553	649.77
510.009	650.48
510.464	657.38
510.919	682.97
511.375	679.87
511.83	697.27
512.285	709.37
512.74	751.77
513.195	776.77
513.65	765.98
514.105	756.07
514.56	749.27
515.015	773.68
515.47	791.77
515.925	774.98
516.38	762.17
516.835	783.97
517.29	772.48
517.745	761.68
518.2	745.37
518.655	736.87
519.109	732.87
519.564	730.48
520.019	718.77
520.474	710.27
520.928	716.37
521.383	706.27
521.838	692.27
522.292	698.97
522.747	699.88
523.201	702.77
523.656	688.17
524.11	683.07
524.565	680.77
525.019	683.07
525.474	698.77
525.928	695.27
526.382	689.88
526.837	679.77
527.291	693.47
527.745	686.27
528.2	678.57
528.654	675.38
529.108	682.17
529.562	683.67
530.016	681.57
530.47	685.47
530.925	683.07
531.379	688.58
531.833	696.77
532.287	690.47
532.741	694.98
533.195	690.57
533.649	700.07
534.103	706.08
534.556	692.07
535.01	694.37
535.464	699.38
535.918	713.57
536.372	707.87
536.826	704.48
537.279	698.37
537.733	696.67
538.187	701.27
538.64	699.97
539.094	713.38
539.548	719.17
540.001	719.37
540.455	714.77
540.908	718.67
541.362	722.17
541.815	728.27
542.269	749.07
542.722	742.07
543.175	764.17
543.629	758.57
544.082	783.47
544.536	778.17
544.989	761.77
545.442	776.77
545.895	779.07
546.349	775.77
546.802	782.67
547.255	788.67
547.708	803.38
548.161	796.87
548.614	808.77
549.067	822.67
549.52	807.38
549.973	796.77
550.426	806.27
550.879	784.57
551.332	780.27
551.785	799.27
552.238	799.27
552.691	807.48
553.144	824.77
553.596	824.07
554.049	846.67
554.502	869.67
554.955	890.67
555.407	893.07
555.86	885.57
556.313	884.17
556.765	870.77
557.218	861.17
557.67	871.77
558.123	875.77
558.576	858.07
559.028	861.98
559.48	869.07
559.933	854.38
560.385	810.87
560.838	788.27
561.29	767.38
561.742	782.57
562.195	749.77
562.647	759.98
563.099	763.47
563.551	766.27
564.004	777.57
564.456	764.48
564.908	754.47
565.36	738.97
565.812	727.27
566.264	725.68
566.716	717.57
567.168	711.57
567.62	716.27
568.072	693.67
568.524	686.27
568.976	692.87
569.428	666.58
569.88	677.07
570.332	673.07
570.784	676.37
571.235	682.67
571.687	686.58
572.139	697.27
572.59	697.27
573.042	711.47
573.494	699.67
573.945	694.57
574.397	679.08
574.849	687.57
575.3	677.58
575.752	670.17
576.203	666.87
576.655	680.37
577.106	660.17
577.557	658.68
578.009	659.98
578.46	658.57
578.912	658.37
579.363	663.27
579.814	665.47
580.265	657.57
580.717	661.17
581.168	667.38
581.619	671.48
582.07	678.48
582.521	668.97
582.972	661.37
583.423	669.87
583.875	677.38
584.326	693.37
584.777	738.17
585.227	825.67
585.678	920.77
586.129	1006.47
586.58	1081.17
587.031	1173.27
587.482	1315.47
587.933	1515.67
588.384	1316.07
588.834	972.77
589.285	800.48
589.736	774.47
590.186	768.07
590.637	752.38
591.088	740.37
591.538	730.97
591.989	721.88
592.439	725.57
592.89	710.17
593.34	704.07
593.791	707.77
594.241	699.98
594.692	697.88
595.142	695.67
595.593	694.77
596.043	697.57
596.493	714.38
596.943	718.27
597.394	714.08
597.844	708.88
598.294	727.98
598.744	745.97
599.195	782.97
599.645	823.08
600.095	849.27
600.545	911.67
600.995	950.28
601.445	1023.67
601.895	1078.98
602.345	1135.97
602.795	1090.07
603.245	1052.38
603.695	986.17
604.145	947.48
604.594	898.07
605.044	850.47
605.494	793.17
605.944	746.67
606.393	735.48
606.843	726.27
607.293	726.37
607.743	717.08
608.192	737.37
608.642	756.58
609.091	758.07
609.541	758.67
609.99	765.87
610.44	773.68
610.889	716.48
611.339	696.57
611.788	683.37
612.238	698.37
612.687	719.37
613.136	715.58
613.586	732.48
614.035	725.18
614.484	750.67
614.933	749.07
615.383	749.38
615.832	743.37
616.281	724.87
616.73	687.47
617.179	667.98
617.628	641.27
618.077	632.47
618.526	631.57
618.975	619.57
619.424	603.17
619.873	605.57
620.322	617.97
620.771	609.47
621.22	604.27
621.669	590.07
622.118	585.87
622.567	573.98
623.015	561.27
623.464	558.27
623.913	557.17
624.361	553.17
624.81	551.38
625.259	545.68
625.707	550.18
626.156	555.17
626.604	566.27
627.053	560.17
627.501	554.17
627.95	560.27
628.398	580.77
628.847	572.07
629.295	567.67
629.744	577.17
630.192	557.67
630.64	562.97
631.089	574.27
631.537	585.58
631.985	595.88
632.433	608.38
632.881	606.07
633.33	671.27
633.778	651.07
634.226	561.98
634.674	571.57
635.122	574.98
635.57	601.87
636.018	631.77
636.466	581.27
636.914	553.08
637.362	565.48
637.81	569.98
638.258	572.87
638.705	575.07
639.153	612.27
639.601	617.77
640.049	634.57
640.497	675.48
640.944	679.98
641.392	635.67
641.84	613.77
642.287	574.47
642.735	570.17
643.182	573.87
643.63	568.17
644.078	569.68
644.525	592.27
644.973	594.07
645.42	603.57
645.867	623.88
646.315	638.07
646.762	664.37
647.21	692.77
647.657	715.47
648.104	756.67
648.551	780.17
648.999	835.27
649.446	917.27
649.893	1002.17
650.34	1155.78
650.787	1393.97
651.234	1728.38
651.682	2286.67
652.129	3132.77
652.576	4540.08
653.023	6669.18
653.47	9133.67
653.917	11296.38
654.363	12951.48
654.81	14224.98
655.257	13586.48
655.704	8866.38
656.151	5235.77
656.598	3389.17
657.044	2394.07
657.491	1859.38
657.938	1483.77
658.385	1246.58
658.831	1079.98
659.278	965.47
659.724	853.77
660.171	783.17
660.618	713.57
661.064	682.48
661.511	667.88
661.957	656.07
662.404	641.57
662.85	649.48
663.296	631.27
663.743	561.47
664.189	539.77
664.635	537.88
665.082	527.17
665.528	524.17
665.974	517.97
666.42	506.07
666.867	511.97
667.313	496.27
667.759	481.37
668.205	487.77
668.651	483.87
669.097	488.87
669.543	507.57
669.989	472.07
670.435	443.27
670.881	445.98
671.327	449.88
671.773	471.87
672.219	494.87
672.665	551.07
673.11	572.57
673.556	626.27
674.002	661.17
674.448	653.37
674.893	538.17
675.339	474.98
675.785	438.67
676.23	407.98
676.676	390.27
677.122	383.87
677.567	375.97
678.013	366.88
678.458	361.17
678.904	356.87
679.349	351.77
679.794	351.08
680.24	350.17
680.685	347.38
681.131	343.97
681.576	352.07
682.021	358.27
682.466	341.27
682.912	346.17
683.357	356.08
683.802	389.57
684.247	408.27
684.692	448.87
685.137	490.07
685.583	528.77
686.028	549.37
686.473	515.07
686.918	440.47
687.363	411.48
687.807	389.07
688.252	364.77
688.697	352.87
689.142	337.07
689.587	329.17
690.032	325.47
690.477	338.67
690.921	348.27
691.366	391.57
691.811	398.67
692.255	425.97
692.7	467.77
693.145	506.57
693.589	710.67
694.034	1136.97
694.478	1548.67
694.923	1705.67
695.367	2214.57
695.812	1172.38
696.256	498.07
696.701	365.87
697.145	340.67
697.59	332.37
698.034	323.37
698.478	330.07
698.922	319.07
699.367	327.58
699.811	336.67
700.255	357.18
700.699	390.08
701.143	438.27
701.588	480.07
702.032	513.88
702.476	509.87
702.92	494.48
703.364	495.37
703.808	646.57
704.252	1050.47
704.696	1453.47
705.14	1661.77
705.584	2089.47
706.027	1056.37
706.471	515.97
706.915	391.57
707.359	343.97
707.803	319.77
708.246	306.18
708.69	311.48
709.134	311.07
709.577	314.67
710.021	311.98
710.465	303.17
710.908	296.77
711.352	303.97
711.795	311.07
712.239	356.47
712.682	387.77
713.126	415.87
713.569	459.57
714.012	377.17
714.456	328.87
714.899	300.17
715.342	275.98
715.786	257.88
716.229	261.48
716.672	255.77
717.115	242.08
717.558	251.07
718.002	253.07
718.445	263.47
718.888	279.67
719.331	295.48
719.774	309.67
720.217	302.17
720.66	281.67
721.103	260.07
721.546	254.48
721.989	252.67
722.432	236.08
722.874	242.47
723.317	229.27
723.76	234.97
724.203	260.97
724.645	315.67
725.088	445.77
725.531	571.37
725.974	627.87
726.416	545.67
726.859	301.48
727.301	241.67
727.744	239.57
728.187	232.68
728.629	233.37
729.071	242.38
729.514	258.38
729.956	265.98
730.399	282.38
730.841	286.87
731.283	265.18
731.726	267.68
732.168	256.77
732.61	261.27
733.053	277.68
733.495	314.18
733.937	352.87
734.379	387.27
734.821	430.67
735.263	552.77
735.705	848.77
736.148	1609.88
736.59	2566.27
737.032	2971.68
737.474	2431.77
737.916	801.67
738.357	426.67
738.799	321.88
739.241	293.57
739.683	277.37
740.125	293.57
740.567	299.57
741.008	318.17
741.45	316.17
741.892	317.38
742.334	339.77
742.775	353.47
743.217	331.27
743.658	264.27
744.1	247.18
744.542	260.17
744.983	309.58
745.425	337.87
745.866	340.07
746.307	286.58
746.749	283.58
747.19	325.98
747.632	459.98
748.073	908.17
748.514	1892.87
748.956	2835.77
749.397	3555.77
749.838	2949.27
750.279	2896.47
750.72	1473.07
751.162	548.17
751.603	315.48
752.044	251.98
752.485	211.27
752.926	207.27
753.367	199.77
753.808	192.97
754.249	188.37
754.69	184.27
755.131	184.67
755.572	179.07
756.013	175.67
756.453	182.27
756.894	184.17
757.335	190.98
757.776	192.27
758.216	195.37
758.657	197.67
759.098	201.08
759.538	227.38
759.979	269.97
760.42	376.97
760.86	717.77
761.301	1890.37
761.741	4437.08
762.182	6218.27
762.622	4401.48
763.063	1290.88
763.503	540.57
763.943	357.27
764.384	348.27
764.824	413.07
765.264	439.07
765.705	308.07
766.145	216.97
766.585	187.57
767.025	180.67
767.465	182.47
767.906	252.88
768.346	322.48
768.786	347.48
769.226	267.27
769.666	320.97
770.106	632.07
770.546	1595.17
770.986	2612.38
771.426	2306.57
771.866	783.77
772.306	322.97
772.745	212.17
773.185	171.97
773.625	170.17
774.065	167.87
774.505	196.27
774.944	311.87
775.384	687.48
775.824	1211.37
776.263	1167.07
776.703	509.07
777.142	227.17
777.582	154.17
778.021	132.67
778.461	142.57
778.9	146.17
779.34	135.77
779.779	119.88
780.219	110.38
780.658	113.07
781.097	116.07
781.537	116.87
781.976	108.07
782.415	100.27
782.855	102.37
783.294	101.77
783.733	106.47
784.172	111.77
784.611	99.97
785.05	108.37
785.489	112.38
785.928	117.57
786.367	121.57
786.806	117.77
787.245	131.67
787.684	138.47
788.123	147.37
788.562	139.07
789.001	129.48
789.44	121.77
789.879	114.97
790.317	123.77
790.756	134.17
791.195	126.27
791.634	148.38
792.072	211.48
792.511	384.57
792.95	1029.78
793.388	2128.47
793.827	1882.07
794.265	668.27
794.704	287.97
795.142	181.38
795.581	149.77
796.019	128.97
796.458	125.57
796.896	122.88
797.334	131.67
797.773	155.57
798.211	218.07
798.649	451.87
799.087	1028.98
799.526	1596.78
799.964	2002.17
800.402	1961.47
800.84	746.37
801.278	302.17
801.716	188.67
802.154	147.67
802.592	143.48
803.03	145.38
803.468	133.48
803.906	147.17
804.344	149.67
804.782	140.38
805.22	132.17
805.658	135.47
806.096	143.77
806.533	150.07
806.971	175.47
807.409	222.07
807.847	315.27
808.284	685.27
808.722	1893.47
809.16	3235.38
809.597	3135.18
810.035	5362.88
810.472	5580.08
810.91	2030.28
811.347	788.98
811.785	404.87
812.222	251.07
812.66	192.48
813.097	163.87
813.535	139.77
813.972	129.57
814.409	120.77
814.846	108.98
815.284	112.07
815.721	105.37
816.158	104.98
816.595	122.27
817.032	180.17
817.47	202.67
817.907	162.47
818.344	154.57
818.781	120.38
819.218	100.47
819.655	126.38
820.092	183.47
820.529	206.17
820.966	175.38
821.403	132.77
821.839	110.77
822.276	98.17
822.713	118.47
823.15	129.17
823.587	120.37
824.023	153.57
824.46	306.18
824.897	918.97
825.333	1330.88
825.77	565.97
826.206	230.67
826.643	128.77
827.08	98.27
827.516	81.27
827.953	80.87
828.389	82.37
828.825	71.07
829.262	70.07
829.698	63.17
830.135	65.27
830.571	62.57
831.007	64.77
831.443	61.07
831.88	62.57
832.316	59.07
832.752	66.97
833.188	62.07
833.624	66.57
834.06	70.27
834.497	70.37
834.933	72.27
835.369	71.67
835.805	64.47
836.241	73.27
836.677	78.17
837.112	93.87
837.548	102.77
837.984	130.77
838.42	196.68
838.856	505.97
839.292	1522.77
839.727	2253.68
840.163	1060.57
840.599	935.48
841.034	2019.88
841.47	2046.07
841.906	763.68
842.341	328.57
842.777	231.77
843.212	318.48
843.648	303.07
844.083	148.97
844.519	92.48
844.954	76.27
845.39	65.88
845.825	56.17
846.261	54.57
846.696	54.87
847.131	53.27
847.566	59.47
848.002	56.38
848.437	57.47
848.872	55.07
849.307	62.27
849.742	86.67
850.177	186.57
850.613	566.37
851.048	850.98
851.483	367.67
851.918	156.07
852.353	88.77
852.788	61.27
853.223	57.77
853.657	56.37
854.092	49.17
854.527	43.87
854.962	37.57
855.397	45.77
855.832	48.87
856.266	46.07
856.701	33.48
857.136	42.07
857.57	42.77
858.005	50.27
858.44	60.17
858.874	41.07
859.309	51.48
859.743	40.37
860.178	51.37
860.612	43.77
861.047	52.07
861.481	63.47
861.915	67.17
862.35	47.07
862.784	36.67
863.218	36.57
863.653	31.07
864.087	43.67
864.521	57.67
864.955	72.67
865.39	160.77
865.824	169.48
866.258	113.57
866.692	156.88
867.126	170.07
867.56	101.47
867.994	53.37
868.428	35.47
868.862	53.98
869.296	55.67
869.73	55.77
870.164	48.27
870.598	47.77
871.031	36.87
871.465	29.07
871.899	28.07
872.333	23.98
872.766	21.77
873.2	26.27
873.634	29.88
874.067	27.57
874.501	27.67
874.935	35.07
875.368	32.57
875.802	26.67
876.235	22.77
876.669	26.47
877.102	26.38
877.535	28.17
877.969	21.17
878.402	22.87
878.836	20.07
879.269	23.27
879.702	23.37
880.135	21.37
880.569	22.97
881.002	27.48
881.435	22.87
881.868	17.87
882.301	22.77
882.734	17.27
883.167	22.47
883.601	23.07
884.034	19.27
884.467	17.57
884.899	18.17
885.332	13.67
885.765	15.48
886.198	15.47
886.631	17.47
887.064	17.57
887.497	16.37
887.929	27.77
888.362	15.67
888.795	13.07
889.228	19.67
889.66	20.87
890.093	22.07
890.526	17.07
890.958	17.77
891.391	19.88
891.823	18.27
892.256	19.27
892.688	7.27
893.121	15.27
893.553	19.47
893.985	16.07
894.418	15.57
894.85	11.97
895.282	15.47
895.715	19.17
896.147	14.88
896.579	21.37
897.011	15.48
897.444	15.27
897.876	14.07
898.308	21.07
898.74	17.57
899.172	12.57
899.604	21.27
900.036	19.87
900.468	15.27
900.9	12.17
901.332	18.07
901.764	18.87
902.196	17.27
902.628	17.67
903.06	16.37
903.491	26.27
903.923	21.27
904.355	17.48
904.787	20.37
905.218	22.88
905.65	17.47
906.082	17.27
906.513	13.37
906.945	20.07
907.376	10.37
907.808	18.77
908.239	23.57
908.671	19.97
909.102	22.38
909.534	25.38
909.965	47.67
910.397	99.47
910.828	312.88
911.259	465.07
911.691	215.38
912.122	108.67
912.553	47.97
912.984	35.98
913.415	26.98
913.847	25.27
914.278	18.37
914.709	10.67
915.14	16.88
915.571	18.37
916.002	11.37
916.433	21.07
916.864	13.37
917.295	11.17
917.726	23.37
918.157	17.17
918.587	31.17
919.018	20.48
919.449	28.17
919.88	26.67
920.311	35.17
920.741	50.57
921.172	168.88
921.603	144.27
922.033	72.97
922.464	44.57
922.895	23.57
923.325	21.38
923.756	17.37
924.186	14.67
924.617	29.67
925.047	45.27
925.478	54.47
925.908	41.17
926.338	29.97
926.769	20.27
927.199	21.27
927.629	11.47
928.06	16.57
928.49	12.77
928.92	11.77
929.35	14.27
929.78	14.67
930.21	5.77
930.641	10.87
931.071	5.57
931.501	6.47
931.931	13.67
932.361	9.17
932.791	3.97
933.221	8.67
933.651	0.48
934.08	16.67
934.51	28.67
934.94	13.57
935.37	8.67
935.8	9.77
936.229	9.47
936.659	7.57
937.089	6.47
937.519	13.27
937.948	24.97
938.378	14.67
938.807	2.97
939.237	3.38
939.666	8.77
940.096	-10.33
940.525	1.37
940.955	1.48
941.384	2.88
941.814	-7.93
942.243	-1.83
942.672	9.57
943.102	0.48
943.531	5.97
943.96	5.47
944.39	0.17
944.819	3.87
945.248	2.57
945.677	2.27
946.106	4.47
946.535	7.97
946.964	-2.43
947.393	-0.53
947.822	-0.02
948.251	-2.53
948.68	6.98
949.109	8.47
949.538	7.67
949.967	-1.93
950.396	1.87
950.825	1.77
951.254	2.57
951.682	-5.73
952.111	5.97
952.54	4.47
952.969	1.37
953.397	-10.83
953.826	-1.93
954.254	-4.23
954.683	-0.73
955.112	-6.93
955.54	-0.23
955.969	-2.03
956.397	3.27
956.826	-0.62
957.254	2.07
957.682	3.47
958.111	6.67
958.539	0.17
958.967	6.77
959.396	-1.03
959.824	2.88
960.252	1.47
960.68	-7.43
961.109	3.47
961.537	-4.73
961.965	1.97
962.393	1.97
962.821	-4.23
963.249	-2.43
963.677	-2.33
964.105	0.77
964.533	42.98
964.961	39.67
965.389	16.67
965.817	9.67
966.245	1.87
966.672	-1.52
967.1	-5.73
967.528	1.87
967.956	0.48
968.383	0.47
968.811	-2.83
969.239	3.07
969.666	-3.33
970.094	-0.23
970.522	-1.63
970.949	0.87
971.377	-5.23
971.804	-3.53
972.232	-1.03
972.659	0.97
973.087	-1.83
973.514	-2.53
973.941	-2.63
974.369	8.47
974.796	1.88
975.223	-3.43
975.651	-4.83
976.078	2.38
976.505	-3.53
976.932	0.27
977.359	12.47
977.786	11.07
978.214	0.67
978.641	-5.33
979.068	-6.53
979.495	-5.43
979.922	-6.43
980.349	-1.93
980.776	2.67
981.202	4.07
981.629	7.87
982.056	-1.63
982.483	-0.12
982.91	2.57
983.337	-7.53
983.763	0.27
984.19	-5.33
984.617	-3.73
985.043	-6.93
985.47	-1.83
985.897	-2.03
986.323	-8.43
986.75	1.38
987.176	-0.73
987.603	1.57
988.029	0.27
988.456	-2.83
988.882	2.98
989.308	-9.33
989.735	-3.83
990.161	2.47
990.587	-2.93
991.014	-0.03
991.44	8.97
991.866	0.57
992.292	-5.73
992.719	-3.13
993.145	0.07
993.571	-9.73
993.997	-5.23
994.423	0.57
994.849	-4.23
995.275	4.38
995.701	-0.23
996.127	-4.53
996.553	0.27
996.979	-1.23
997.405	-3.43
997.83	-6.03
998.256	-7.03
998.682	-7.62
999.108	-13.03
999.534	-1.03
999.959	2.07
1000.385	-2.53
1000.811	2.17
1001.236	-7.03
1001.662	-4.53
1002.087	-9.43
1002.513	2.57
1002.938	2.27
1003.364	1.67
1003.789	-0.33
1004.215	8.17
1004.64	2.97
1005.066	2.27
1005.491	-1.02
1005.916	-4.33
1006.342	-0.12
1006.767	-7.73
1007.192	1.38
1007.617	-5.13
1008.042	-7.93
1008.468	-3.33
1008.893	-3.62
1009.318	-7.53
1009.743	-5.83
1010.168	1.97
1010.593	-2.53
1011.018	-11.53
1011.443	4.87
1011.868	3.27
1012.293	-6.73
1012.718	-9.52
1013.143	-0.63
1013.567	3.37
1013.992	1.97
1014.417	-11.63
1014.842	-0.43
1015.267	-7.63
1015.691	-3.73
1016.116	0.67
1016.541	3.47
1016.965	5.07
1017.39	-0.73
1017.814	-2.52
1018.239	-0.33
1018.663	-9.43
1019.088	-13.23
1019.512	-4.13
1019.937	-2.13
1020.361	0.77
1020.785	-10.53
1021.21	-4.63
1021.634	-4.73
1022.058	-5.33
1022.483	-0.83
1022.907	-8.33
1023.331	-4.33
1023.755	-4.73
1024.179	-2.93
1024.604	-3.23
1025.028	-5.33
1025.452	-4.03
1025.876	-1.93
1026.3	-1.33
1026.724	-17.13
1027.148	-2.03
1027.572	-13.03
1027.996	-7.03
1028.42	-3.23
1028.843	-1.23
1029.267	-8.63
1029.691	-1.23
1030.115	-11.93
1030.539	-5.83
1030.962	-4.33
1031.386	-12.83
1031.81	1.38
1032.233	-1.73
1032.657	-0.43
1033.08	-3.03
1033.504	-5.63
1033.927	-7.62
1034.351	-1.12
1034.774	-4.83
1035.198	-0.83
1035.621	-3.02
1036.045	-10.23
1036.468	5.57
1036.891	-10.03
1037.315	-7.63
1037.738	-7.53
1038.161	0.77
1038.584	-8.33
1039.008	-4.23
1039.431	-7.83
1039.854	-2.53
1040.277	-7.73
1040.7	-13.33
1041.123	-0.63
1041.546	-5.43
1041.969	-5.23
1042.392	-8.23
1042.815	-0.23
1043.238	4.47
1043.661	2.07
1044.084	-3.93
1044.507	-2.33
1044.93	-5.43
1045.352	0.27
1045.775	-2.43
1046.198	-0.83
1046.621	-3.93
1047.043	3.77
1047.466	6.38
1047.889	2.57
1048.311	-5.93
1048.734	-3.93
1049.156	-2.33
1049.579	-2.33
1050.001	-0.73
1050.424	1.27
1050.846	-7.53
1051.269	-0.73
1051.691	-0.12
1052.113	-3.43
1052.536	1.47
1052.958	-3.03
1053.38	-3.33
1053.802	-7.23
1054.225	-3.23
1054.647	-4.33
1055.069	-8.53
1055.491	-3.23
1055.913	-13.23
1056.335	4.17
1056.757	-7.93
1057.179	-7.83
1057.601	-10.23
1058.023	1.17
1058.445	-2.93
1058.867	-6.03
1059.289	-1.73
1059.711	-1.62
1060.133	-2.13
1060.555	-2.53
1060.976	-7.63
1061.398	-8.73
1061.82	-7.63
1062.241	-8.23
1062.663	-8.83
1063.085	-2.13
1063.506	0.38
1063.928	-5.93
1064.35	-1.03
1064.771	-12.33
1065.193	-4.03
1065.614	-9.33
1066.035	-4.12
1066.457	-1.83
1066.878	2.97
1067.3	-9.53
1067.721	-1.03
1068.142	-1.83
1068.564	-1.73
1068.985	-4.53
1069.406	-6.62
1069.827	-6.63
1070.248	-1.33
1070.67	-4.23
1071.091	-1.12
1071.512	-2.13
1071.933	-8.73
1072.354	-5.43
1072.775	-5.93
1073.196	-3.62
1073.617	-5.43
1074.038	-11.23
1074.459	-5.43
1074.88	-8.83
1075.3	-0.63
1075.721	-9.83
1076.142	-6.02
1076.563	2.07
1076.983	-9.53
1077.404	-3.73
1077.825	-8.02
1078.246	-5.63
1078.666	-6.63
1079.087	-4.73
1079.507	-5.03
1079.928	2.67
1080.348	0.38
1080.769	-6.53
1081.189	-3.43
1081.61	-6.83
1082.03	-4.03
1082.451	-11.53
1082.871	-5.02
1083.291	-8.33
1083.711	-6.93
1084.132	-7.43
1084.552	-2.63
1084.972	-1.53
1085.392	-10.63
1085.813	-15.33
1086.233	-7.13
1086.653	-9.43
1087.073	-5.93
1087.493	-8.83
1087.913	-10.83
1088.333	-6.53
1088.753	-1.63
1089.173	3.77
1089.593	-3.02
1090.013	-5.73
1090.433	-0.43
1090.852	-6.53
1091.272	-2.53
1091.692	-8.63
1092.112	-8.03
1092.531	-8.63
1092.951	-14.53
1093.371	-1.83
1093.79	2.88
1094.21	-5.62
1094.63	-6.83
1095.049	-13.43
1095.469	-3.53
1095.888	-2.43
1096.308	2.27
1096.727	2.47
1097.146	-5.43
1097.566	1.97
1097.985	-6.93
1098.405	-1.33
1098.824	-3.93
1099.243	-9.12
1099.662	-8.83
1100.082	0.38
1100.501	-1.13
1100.92	-5.53
1101.339	0.57
1101.758	-4.12
