Data from 20171114-ORNL-Ar_H_NY_Subt18_08-07-13-964.txt Node
Date: Tue Nov 14 08:07:13 EST 2017
User: Ender
Spectrometer: HR+D1039
Trigger mode: 0
Integration Time (sec): 2.730000E-2
Scans to average: 10
Electric dark correction enabled: true
Nonlinearity correction enabled: false
Boxcar width: 0
XAxis mode: Wavelengths
Number of Pixels in Spectrum: 2048
>>>>>Begin Spectral Data<<<<<
187.836	-4.02
188.309	-4.02
188.782	-4.02
189.255	2.38
189.728	-0.72
190.201	1.78
190.674	-1.42
191.147	-1.02
191.619	-6.33
192.092	2.98
192.565	5.58
193.038	1.27
193.511	-1.02
193.984	-2.12
194.456	-1.62
194.929	3.58
195.402	1.27
195.874	-0.52
196.347	-4.42
196.82	-6.12
197.292	3.98
197.765	-2.22
198.237	-6.42
198.71	-3.92
199.182	0.08
199.655	2.08
200.127	-2.52
200.6	-0.32
201.072	2.58
201.544	-4.02
202.017	-4.12
202.489	3.18
202.961	-3.82
203.433	-5.12
203.906	-7.32
204.378	-6.42
204.85	-3.92
205.322	-6.12
205.794	0.38
206.266	-1.32
206.739	-7.52
207.211	3.28
207.683	-3.62
208.155	-7.62
208.627	-6.62
209.099	-6.42
209.57	-6.62
210.042	-4.42
210.514	1.48
210.986	-6.02
211.458	-11.52
211.93	1.08
212.402	2.38
212.873	-5.32
213.345	-14.22
213.817	-9.12
214.288	-6.62
214.76	-9.02
215.232	-5.22
215.703	-4.02
216.175	-3.62
216.646	-4.72
217.118	-3.42
217.589	-4.02
218.061	-2.12
218.532	-6.62
219.004	-1.52
219.475	-4.32
219.946	-1.82
220.418	-5.72
220.889	-1.32
221.36	1.28
221.832	-7.73
222.303	-8.22
222.774	-1.52
223.245	-8.22
223.717	-9.12
224.188	-5.32
224.659	-10.23
225.13	-8.92
225.601	0.88
226.072	-3.12
226.543	-1.73
227.014	-5.32
227.485	1.88
227.956	-7.52
228.427	-5.82
228.898	-2.72
229.369	0.68
229.839	-3.42
230.31	-8.73
230.781	3.48
231.252	-6.32
231.722	-5.73
232.193	-6.42
232.664	-3.62
233.135	-2.73
233.605	-0.82
234.076	-2.92
234.546	-7.62
235.017	3.78
235.487	-1.02
235.958	-2.72
236.428	-12.02
236.899	-10.02
237.369	-5.82
237.84	-6.22
238.31	-4.62
238.78	-2.12
239.251	1.78
239.721	-3.42
240.191	-5.92
240.662	-7.92
241.132	-0.12
241.602	-8.92
242.072	-3.12
242.542	5.18
243.013	-7.62
243.483	-3.32
243.953	0.28
244.423	0.58
244.893	-11.62
245.363	-3.83
245.833	-0.42
246.303	-1.92
246.773	1.38
247.243	-4.12
247.712	2.17
248.182	5.58
248.652	-3.32
249.122	-15.42
249.592	-3.32
250.061	1.08
250.531	7.78
251.001	-4.42
251.471	1.78
251.94	4.98
252.41	-4.32
252.879	-0.82
253.349	3.38
253.818	1.38
254.288	-4.32
254.757	-2.32
255.227	-7.82
255.696	1.08
256.166	8.58
256.635	3.78
257.105	5.48
257.574	-2.23
258.043	0.88
258.513	-5.62
258.982	-0.92
259.451	-8.42
259.92	2.28
260.389	1.28
260.859	7.38
261.328	5.38
261.797	-0.12
262.266	0.58
262.735	-1.72
263.204	-1.62
263.673	-5.62
264.142	5.08
264.611	-5.73
265.08	-3.42
265.549	0.98
266.018	-3.52
266.487	-6.62
266.955	-12.82
267.424	-8.42
267.893	-1.22
268.362	-3.62
268.83	4.68
269.299	5.68
269.768	2.08
270.236	3.68
270.705	-5.22
271.174	1.98
271.642	1.58
272.111	1.08
272.579	0.17
273.048	5.77
273.516	1.68
273.985	3.48
274.453	5.78
274.922	9.38
275.39	4.58
275.858	-1.02
276.327	4.68
276.795	10.98
277.263	4.38
277.731	6.08
278.2	11.48
278.668	7.58
279.136	14.88
279.604	-1.82
280.072	7.08
280.54	9.78
281.008	1.38
281.477	11.58
281.945	11.68
282.413	6.88
282.881	11.58
283.348	-1.42
283.816	12.98
284.284	7.58
284.752	13.08
285.22	8.28
285.688	2.48
286.156	4.98
286.623	12.68
287.091	1.78
287.559	13.18
288.026	5.58
288.494	9.58
288.962	2.08
289.429	4.17
289.897	11.38
290.364	6.08
290.832	16.88
291.3	7.38
291.767	9.78
292.234	8.08
292.702	9.48
293.169	9.98
293.637	12.48
294.104	4.78
294.571	1.77
295.039	7.58
295.506	6.18
295.973	11.58
296.44	2.28
296.908	10.38
297.375	7.38
297.842	11.88
298.309	8.08
298.776	3.78
299.243	15.27
299.71	8.27
300.177	19.28
300.644	13.58
301.111	12.08
301.578	13.88
302.045	9.88
302.512	20.78
302.979	11.58
303.446	14.98
303.913	12.28
304.379	12.28
304.846	17.28
305.313	19.08
305.78	15.17
306.246	18.58
306.713	22.77
307.18	19.98
307.646	22.17
308.113	22.68
308.579	17.77
309.046	18.48
309.512	16.28
309.979	9.48
310.445	21.08
310.912	20.27
311.378	28.88
311.845	24.68
312.311	21.18
312.777	23.77
313.244	18.68
313.71	27.88
314.176	23.98
314.642	21.88
315.109	20.68
315.575	23.88
316.041	27.88
316.507	16.08
316.973	27.98
317.439	18.88
317.905	30.18
318.371	28.28
318.837	31.58
319.303	24.08
319.769	18.48
320.235	20.38
320.701	27.77
321.167	24.08
321.633	22.18
322.099	32.88
322.564	34.88
323.03	36.38
323.496	31.28
323.962	35.88
324.427	26.58
324.893	34.27
325.359	26.98
325.824	31.38
326.29	31.98
326.755	26.48
327.221	37.48
327.686	33.58
328.152	40.48
328.617	38.68
329.083	34.88
329.548	41.58
330.014	38.88
330.479	27.77
330.944	33.48
331.41	33.88
331.875	33.48
332.34	38.78
332.805	37.08
333.271	35.08
333.736	26.68
334.201	44.98
334.666	39.48
335.131	41.27
335.596	42.67
336.061	40.68
336.526	31.17
336.991	37.28
337.456	44.98
337.921	42.88
338.386	30.18
338.851	41.77
339.316	39.88
339.781	41.18
340.246	43.68
340.711	38.58
341.175	43.78
341.64	42.58
342.105	43.38
342.569	50.67
343.034	53.08
343.499	52.48
343.963	50.38
344.428	53.38
344.893	50.67
345.357	46.68
345.822	49.48
346.286	53.68
346.751	61.88
347.215	56.98
347.679	59.78
348.144	77.38
348.608	71.38
349.073	64.58
349.537	64.68
350.001	69.58
350.465	77.18
350.93	67.58
351.394	66.68
351.858	58.48
352.322	76.98
352.786	73.68
353.25	81.48
353.715	88.98
354.179	81.27
354.643	98.38
355.107	96.08
355.571	85.18
356.035	83.28
356.498	90.98
356.962	96.17
357.426	100.58
357.89	94.18
358.354	78.68
358.818	73.98
359.281	62.48
359.745	64.38
360.209	67.88
360.673	66.58
361.136	68.08
361.6	74.98
362.064	72.98
362.527	72.17
362.991	80.98
363.454	74.68
363.918	68.28
364.381	67.08
364.845	77.98
365.308	76.68
365.772	78.58
366.235	80.38
366.698	72.88
367.162	76.58
367.625	73.18
368.088	90.77
368.552	76.08
369.015	78.28
369.478	85.68
369.941	88.88
370.404	78.48
370.867	92.58
371.331	99.27
371.794	94.67
372.257	91.08
372.72	91.38
373.183	97.48
373.646	83.18
374.109	83.78
374.572	87.67
375.035	93.77
375.497	90.98
375.96	99.68
376.423	94.08
376.886	102.28
377.349	98.38
377.811	91.98
378.274	104.28
378.737	88.27
379.199	101.98
379.662	99.88
380.125	104.08
380.587	98.78
381.05	96.78
381.512	107.08
381.975	109.88
382.437	115.88
382.9	109.68
383.362	114.98
383.825	120.78
384.287	118.18
384.75	109.18
385.212	117.17
385.674	121.58
386.136	121.48
386.599	111.27
387.061	106.28
387.523	112.08
387.985	115.58
388.447	121.27
388.91	122.28
389.372	122.48
389.834	121.67
390.296	116.18
390.758	119.88
391.22	127.58
391.682	136.77
392.144	137.88
392.606	137.38
393.068	133.78
393.529	142.17
393.991	134.18
394.453	127.08
394.915	128.17
395.377	130.48
395.838	130.88
396.3	127.38
396.762	136.98
397.224	133.88
397.685	121.48
398.147	129.28
398.608	122.88
399.07	127.68
399.531	128.68
399.993	145.78
400.454	152.48
400.916	148.38
401.377	145.98
401.839	150.17
402.3	144.77
402.762	161.98
403.223	173.68
403.684	164.98
404.145	159.88
404.607	157.58
405.068	162.58
405.529	160.08
405.99	176.88
406.451	176.17
406.913	168.27
407.374	161.38
407.835	160.78
408.296	166.78
408.757	167.58
409.218	182.98
409.679	177.18
410.14	170.88
410.601	179.48
411.062	178.48
411.522	177.58
411.983	169.27
412.444	171.38
412.905	174.28
413.366	186.98
413.826	186.78
414.287	216.88
414.748	263.18
415.208	244.67
415.669	220.58
416.13	205.78
416.59	205.17
417.051	219.88
417.511	226.17
417.972	241.18
418.432	250.98
418.893	294.48
419.353	258.58
419.814	209.98
420.274	183.77
420.734	185.88
421.195	196.98
421.655	196.18
422.115	193.77
422.576	201.78
423.036	197.98
423.496	209.88
423.956	215.48
424.416	232.17
424.876	264.88
425.336	259.88
425.797	267.48
426.257	257.88
426.717	242.48
427.177	235.18
427.637	224.98
428.097	237.28
428.556	241.98
429.016	274.57
429.476	261.98
429.936	270.38
430.396	282.77
430.856	285.88
431.315	309.97
431.775	341.67
432.235	370.88
432.694	342.38
433.154	354.77
433.614	375.47
434.073	334.98
434.533	281.67
434.993	266.58
435.452	278.77
435.912	281.47
436.371	283.78
436.83	270.78
437.29	266.67
437.749	252.27
438.209	246.27
438.668	271.77
439.127	285.48
439.587	268.28
440.046	257.18
440.505	270.28
440.964	275.38
441.424	318.28
441.883	307.58
442.342	266.68
442.801	231.77
443.26	240.27
443.719	228.98
444.178	228.88
444.637	215.38
445.096	230.78
445.555	239.48
446.014	234.08
446.473	234.38
446.932	235.48
447.391	230.57
447.849	237.17
448.308	222.77
448.767	228.67
449.226	245.58
449.685	245.18
450.143	255.18
450.602	247.08
451.061	237.18
451.519	242.68
451.978	237.07
452.436	246.98
452.895	249.28
453.353	260.67
453.812	247.18
454.27	248.18
454.729	254.68
455.187	244.57
455.646	249.08
456.104	258.18
456.562	271.67
457.021	276.27
457.479	265.68
457.937	281.67
458.395	268.58
458.854	262.08
459.312	264.58
459.77	282.18
460.228	270.08
460.686	260.18
461.144	263.48
461.602	258.48
462.06	260.78
462.518	263.58
462.976	268.38
463.434	266.38
463.892	272.68
464.35	289.67
464.808	298.27
465.266	284.08
465.724	291.58
466.181	288.88
466.639	284.98
467.097	309.77
467.555	307.27
468.012	318.38
468.47	326.18
468.928	341.38
469.385	355.58
469.843	361.88
470.3	364.88
470.758	375.48
471.215	400.18
471.673	423.98
472.13	418.38
472.588	429.18
473.045	397.48
473.503	392.88
473.96	419.38
474.417	425.38
474.875	455.38
475.332	495.48
475.789	476.48
476.246	472.47
476.704	502.28
477.161	523.48
477.618	548.18
478.075	570.28
478.532	632.48
478.989	704.58
479.446	799.78
479.903	770.58
480.36	807.98
480.817	853.88
481.274	933.68
481.731	1036.17
482.188	1110.78
482.645	1233.07
483.102	1326.47
483.558	1451.38
484.015	1480.88
484.472	1458.48
484.929	1419.17
485.385	1386.38
485.842	1351.98
486.299	1297.28
486.755	1255.88
487.212	1067.67
487.668	917.17
488.125	858.07
488.582	783.98
489.038	760.07
489.494	727.98
489.951	706.27
490.407	688.68
490.864	675.78
491.32	651.48
491.776	658.18
492.233	653.67
492.689	634.08
493.145	635.78
493.602	621.68
494.058	640.77
494.514	642.48
494.97	656.68
495.426	682.38
495.882	642.77
496.338	635.98
496.794	643.48
497.251	639.77
497.707	655.18
498.163	658.38
498.618	667.78
499.074	670.98
499.53	691.58
499.986	687.78
500.442	663.78
500.898	647.88
501.354	644.08
501.809	647.47
502.265	657.27
502.721	663.47
503.177	662.98
503.632	669.77
504.088	676.58
504.543	695.48
504.999	722.77
505.455	684.58
505.91	660.58
506.366	668.27
506.821	665.58
507.277	656.67
507.732	665.17
508.187	666.98
508.643	678.48
509.098	670.38
509.553	689.58
510.009	701.98
510.464	714.27
510.919	733.58
511.375	733.38
511.83	733.78
512.285	753.67
512.74	796.48
513.195	813.88
513.65	806.08
514.105	802.47
514.56	800.67
515.015	818.08
515.47	834.08
515.925	825.98
516.38	824.88
516.835	820.98
517.29	806.88
517.745	807.78
518.2	800.28
518.655	786.17
519.109	778.78
519.564	782.78
520.019	760.98
520.474	757.98
520.928	749.88
521.383	763.67
521.838	751.27
522.292	748.38
522.747	747.88
523.201	752.17
523.656	728.68
524.11	719.48
524.565	721.08
525.019	717.28
525.474	728.57
525.928	728.98
526.382	730.18
526.837	736.27
527.291	731.27
527.745	732.88
528.2	731.48
528.654	726.27
529.108	730.77
529.562	721.77
530.016	724.88
530.47	721.48
530.925	723.88
531.379	723.77
531.833	742.48
532.287	742.08
532.741	738.68
533.195	731.67
533.649	745.77
534.103	745.18
534.556	742.08
535.01	742.88
535.464	741.98
535.918	739.48
536.372	756.08
536.826	749.28
537.279	749.17
537.733	736.48
538.187	754.18
538.64	755.97
539.094	760.48
539.548	764.58
540.001	752.28
540.455	761.78
540.908	765.07
541.362	770.88
541.815	782.27
542.269	803.17
542.722	798.68
543.175	805.77
543.629	803.97
544.082	823.07
544.536	824.18
544.989	826.18
545.442	848.48
545.895	837.78
546.349	832.98
546.802	829.78
547.255	841.27
547.708	855.88
548.161	869.17
548.614	869.97
549.067	880.98
549.52	864.68
549.973	856.07
550.426	848.78
550.879	839.57
551.332	845.08
551.785	850.48
552.238	849.48
552.691	870.78
553.144	880.88
553.596	903.08
554.049	920.07
554.502	939.38
554.955	973.38
555.407	959.07
555.86	947.38
556.313	934.68
556.765	927.28
557.218	929.67
557.67	919.78
558.123	914.58
558.576	915.07
559.028	929.88
559.48	938.17
559.933	924.88
560.385	884.08
560.838	865.88
561.29	830.48
561.742	824.68
562.195	809.88
562.647	811.88
563.099	818.47
563.551	806.38
564.004	837.97
564.456	807.98
564.908	791.47
565.36	781.88
565.812	770.98
566.264	760.58
566.716	752.58
567.168	735.28
567.62	743.58
568.072	741.77
568.524	732.58
568.976	734.17
569.428	704.88
569.88	707.27
570.332	717.58
570.784	727.08
571.235	720.48
571.687	727.98
572.139	737.47
572.59	751.88
573.042	758.08
573.494	750.17
573.945	741.97
574.397	724.27
574.849	728.68
575.3	734.38
575.752	716.27
576.203	720.88
576.655	718.88
577.106	706.58
577.557	696.38
578.009	698.88
578.46	703.98
578.912	695.28
579.363	701.27
579.814	705.17
580.265	696.48
580.717	705.57
581.168	711.38
581.619	714.88
582.07	710.98
582.521	701.47
582.972	715.78
583.423	705.38
583.875	699.58
584.326	726.58
584.777	719.48
585.227	741.88
585.678	751.48
586.129	768.17
586.58	788.88
587.031	796.77
587.482	836.78
587.933	850.77
588.384	847.17
588.834	814.77
589.285	805.28
589.736	813.27
590.186	802.28
590.637	803.48
591.088	771.08
591.538	774.48
591.989	757.48
592.439	761.58
592.89	748.67
593.34	735.98
593.791	735.88
594.241	734.08
594.692	723.77
595.142	726.58
595.593	725.58
596.043	737.78
596.493	740.08
596.943	746.78
597.394	760.98
597.844	743.68
598.294	769.88
598.744	792.77
599.195	820.38
599.645	861.48
600.095	895.28
600.545	958.28
600.995	1013.58
601.445	1066.88
601.895	1136.38
602.345	1181.38
602.795	1160.78
603.245	1109.38
603.695	1061.58
604.145	1002.68
604.594	949.68
605.044	899.48
605.494	835.88
605.944	788.98
606.393	780.28
606.843	757.38
607.293	774.38
607.743	749.98
608.192	763.17
608.642	784.48
609.091	786.68
609.541	797.77
609.99	788.28
610.44	796.28
610.889	748.98
611.339	730.08
611.788	704.98
612.238	719.48
612.687	731.17
613.136	712.98
613.586	738.88
614.035	723.58
614.484	740.88
614.933	729.68
615.383	735.58
615.832	736.48
616.281	725.58
616.73	697.68
617.179	677.78
617.628	672.78
618.077	655.68
618.526	642.67
618.975	632.48
619.424	640.58
619.873	641.08
620.322	632.57
620.771	638.88
621.22	618.88
621.669	616.18
622.118	608.88
622.567	607.58
623.015	584.07
623.464	587.07
623.913	583.58
624.361	576.17
624.81	580.07
625.259	580.28
625.707	585.18
626.156	576.27
626.604	590.08
627.053	584.78
627.501	593.97
627.95	588.98
628.398	608.58
628.847	591.58
629.295	594.27
629.744	591.88
630.192	585.48
630.64	587.88
631.089	573.78
631.537	564.08
631.985	552.68
632.433	556.27
632.881	549.18
633.33	547.97
633.778	538.18
634.226	544.48
634.674	557.08
635.122	556.67
635.57	570.28
636.018	589.18
636.466	582.18
636.914	577.27
637.362	591.08
637.81	596.58
638.258	606.38
638.705	603.68
639.153	629.27
639.601	642.18
640.049	657.47
640.497	703.48
640.944	719.28
641.392	664.38
641.84	638.78
642.287	604.27
642.735	588.48
643.182	578.18
643.63	577.27
644.078	588.38
644.525	600.28
644.973	595.18
645.42	606.78
645.867	636.98
646.315	641.38
646.762	663.58
647.21	693.18
647.657	725.28
648.104	764.57
648.551	772.18
648.999	828.38
649.446	907.98
649.893	999.08
650.34	1128.48
650.787	1345.38
651.234	1648.88
651.682	2147.27
652.129	2883.48
652.576	4109.18
653.023	6001.98
653.47	8066.67
653.917	10044.88
654.363	11552.78
654.81	12750.88
655.257	12117.48
655.704	8011.18
656.151	4841.77
656.598	3165.18
657.044	2277.77
657.491	1784.57
657.938	1428.38
658.385	1206.68
658.831	1068.58
659.278	939.18
659.724	841.38
660.171	790.88
660.618	725.07
661.064	698.08
661.511	679.18
661.957	668.78
662.404	656.57
662.85	663.18
663.296	630.38
663.743	571.97
664.189	547.97
664.635	547.38
665.082	540.68
665.528	539.48
665.974	532.38
666.42	524.28
666.867	522.18
667.313	495.98
667.759	481.67
668.205	464.98
668.651	474.98
669.097	459.08
669.543	461.17
669.989	463.18
670.435	462.28
670.881	458.98
671.327	467.57
671.773	489.58
672.219	509.78
672.665	566.17
673.11	606.97
673.556	653.77
674.002	695.27
674.448	684.78
674.893	577.18
675.339	494.48
675.785	467.18
676.23	441.08
676.676	416.18
677.122	403.48
677.567	394.27
678.013	391.27
678.458	378.88
678.904	375.78
679.349	357.58
679.794	367.88
680.24	364.17
680.685	362.27
681.131	355.07
681.576	365.97
682.021	364.98
682.466	364.98
682.912	363.08
683.357	368.77
683.802	403.58
684.247	427.67
684.692	475.38
685.137	520.88
685.583	568.18
686.028	584.38
686.473	540.08
686.918	470.78
687.363	435.98
687.807	416.08
688.252	378.98
688.697	371.58
689.142	353.77
689.587	350.17
690.032	341.47
690.477	352.28
690.921	365.78
691.366	400.27
691.811	421.88
692.255	441.48
692.7	483.27
693.145	534.38
693.589	741.17
694.034	1206.47
694.478	1634.78
694.923	1824.57
695.367	2391.38
695.812	1263.08
696.256	528.38
696.701	395.67
697.145	361.08
697.59	347.88
698.034	333.78
698.478	340.48
698.922	338.48
699.367	335.38
699.811	350.27
700.255	365.48
700.699	401.58
701.143	433.08
701.588	491.28
702.032	537.48
702.476	537.68
702.92	511.78
703.364	526.88
703.808	682.67
704.252	1097.18
704.696	1539.68
705.14	1756.68
705.584	2250.98
706.027	1112.58
706.471	548.08
706.915	417.67
707.359	369.48
707.803	343.17
708.246	327.08
708.69	330.58
709.134	326.77
709.577	326.98
710.021	328.38
710.465	323.48
710.908	314.57
711.352	314.68
711.795	323.38
712.239	364.88
712.682	402.88
713.126	424.08
713.569	475.07
714.012	369.98
714.456	312.98
714.899	299.58
715.342	284.88
715.786	270.68
716.229	269.48
716.672	265.07
717.115	264.77
717.558	264.58
718.002	269.88
718.445	276.38
718.888	296.08
719.331	311.78
719.774	314.77
720.217	308.98
720.66	293.78
721.103	280.88
721.546	270.88
721.989	252.38
722.432	241.48
722.874	241.88
723.317	243.18
723.76	253.18
724.203	261.78
724.645	326.58
725.088	456.47
725.531	593.58
725.974	672.58
726.416	574.97
726.859	317.38
727.301	255.48
727.744	242.38
728.187	246.68
728.629	249.58
729.071	255.88
729.514	271.27
729.956	280.48
730.399	293.98
730.841	299.08
731.283	295.38
731.726	279.58
732.168	276.77
732.61	281.17
733.053	300.38
733.495	330.88
733.937	368.78
734.379	420.67
734.821	462.58
735.263	580.98
735.705	894.38
736.148	1689.17
736.59	2746.77
737.032	3231.07
737.474	2619.88
737.916	852.77
738.357	445.88
738.799	352.98
739.241	309.77
739.683	300.78
740.125	310.07
740.567	310.88
741.008	330.17
741.45	330.08
741.892	334.08
742.334	364.58
742.775	378.47
743.217	363.78
743.658	284.48
744.1	266.18
744.542	286.58
744.983	329.88
745.425	371.28
745.866	355.88
746.307	291.38
746.749	288.77
747.19	341.58
747.632	480.58
748.073	946.28
748.514	1986.58
748.956	3028.47
749.397	3806.28
749.838	3132.08
750.279	3109.67
750.72	1582.38
751.162	585.27
751.603	345.08
752.044	264.98
752.485	234.27
752.926	215.58
753.367	212.28
753.808	198.78
754.249	200.17
754.69	189.28
755.131	199.48
755.572	190.08
756.013	183.58
756.453	194.08
756.894	193.88
757.335	201.38
757.776	205.08
758.216	204.28
758.657	202.68
759.098	220.88
759.538	235.77
759.979	277.97
760.42	404.18
760.86	758.38
761.301	1952.28
761.741	4715.08
762.182	6793.58
762.622	4789.78
763.063	1399.27
763.503	573.38
763.943	345.88
764.384	278.67
764.824	251.88
765.264	234.18
765.705	214.17
766.145	187.18
766.585	179.68
767.025	177.38
767.465	167.48
767.906	182.88
768.346	189.78
768.786	200.28
769.226	220.88
769.666	316.47
770.106	657.78
770.546	1645.97
770.986	2786.58
771.426	2496.08
771.866	832.88
772.306	348.88
772.745	211.68
773.185	176.38
773.625	165.58
774.065	162.68
774.505	167.48
774.944	214.28
775.384	370.98
775.824	599.38
776.263	577.27
776.703	286.98
777.142	159.58
777.582	134.58
778.021	127.98
778.461	122.98
778.9	127.08
779.34	124.58
779.779	115.98
780.219	117.08
780.658	111.38
781.097	118.48
781.537	113.68
781.976	106.67
782.415	111.17
782.855	110.88
783.294	101.68
783.733	109.48
784.172	109.68
784.611	100.77
785.05	110.88
785.489	119.38
785.928	117.38
786.367	124.28
786.806	120.38
787.245	129.08
787.684	147.08
788.123	153.48
788.562	145.78
789.001	128.98
789.44	123.18
789.879	130.48
790.317	128.38
790.756	136.58
791.195	130.98
791.634	151.88
792.072	210.38
792.511	379.98
792.95	1072.78
793.388	2244.07
793.827	1998.28
794.265	707.18
794.704	296.68
795.142	188.18
795.581	158.38
796.019	140.88
796.458	132.08
796.896	124.28
797.334	135.68
797.773	158.98
798.211	230.27
798.649	469.08
799.087	1082.68
799.526	1697.47
799.964	2133.47
800.402	2110.68
800.84	792.88
801.278	322.68
801.716	199.67
802.154	160.08
802.592	151.78
803.03	153.18
803.468	143.08
803.906	144.18
804.344	156.48
804.782	148.68
805.22	142.98
805.658	138.98
806.096	156.18
806.533	164.78
806.971	184.88
807.409	231.28
807.847	335.17
808.284	714.98
808.722	1992.47
809.16	3497.48
809.597	3352.28
810.035	5755.18
810.472	6109.38
810.91	2224.48
811.347	850.98
811.785	431.78
812.222	276.88
812.66	205.88
813.097	174.48
813.535	145.38
813.972	138.48
814.409	124.58
814.846	108.38
815.284	110.68
815.721	101.48
816.158	108.38
816.595	118.58
817.032	158.88
817.47	178.88
817.907	144.38
818.344	107.58
818.781	103.78
819.218	104.68
819.655	128.58
820.092	200.98
820.529	227.67
820.966	178.68
821.403	131.77
821.839	99.08
822.276	104.98
822.713	134.38
823.15	146.08
823.587	123.08
824.023	159.38
824.46	325.28
824.897	957.77
825.333	1429.38
825.77	614.08
826.206	241.38
826.643	145.77
827.08	109.58
827.516	92.38
827.953	88.78
828.389	79.77
828.825	73.18
829.262	75.38
829.698	66.08
830.135	65.08
830.571	63.08
831.007	65.78
831.443	64.78
831.88	63.88
832.316	62.38
832.752	63.88
833.188	68.98
833.624	61.58
834.06	68.08
834.497	72.27
834.933	73.18
835.369	77.58
835.805	62.48
836.241	81.67
836.677	84.38
837.112	92.88
837.548	112.48
837.984	141.08
838.42	206.98
838.856	533.07
839.292	1595.67
839.727	2414.98
840.163	1142.08
840.599	996.48
841.034	2150.28
841.47	2228.08
841.906	814.58
842.341	336.98
842.777	204.98
843.212	208.88
843.648	193.17
844.083	112.77
844.519	86.18
844.954	69.38
845.39	55.78
845.825	55.38
846.261	56.28
846.696	54.98
847.131	49.58
847.566	60.88
848.002	52.78
848.437	60.78
848.872	61.58
849.307	61.28
849.742	93.48
850.177	195.38
850.613	592.88
851.048	927.88
851.483	406.38
851.918	156.38
852.353	97.38
852.788	60.88
853.223	51.48
853.657	54.98
854.092	47.38
854.527	42.48
854.962	38.48
855.397	45.18
855.832	51.58
856.266	47.78
856.701	39.18
857.136	38.38
857.57	41.38
858.005	52.98
858.44	62.28
858.874	46.68
859.309	53.88
859.743	40.48
860.178	56.67
860.612	46.58
861.047	53.08
861.481	70.58
861.915	69.78
862.35	48.88
862.784	35.58
863.218	35.58
863.653	33.68
864.087	50.58
864.521	48.68
864.955	73.68
865.39	161.27
865.824	189.18
866.258	120.48
866.692	174.18
867.126	187.38
867.56	112.98
867.994	57.38
868.428	45.98
868.862	53.08
869.296	58.68
869.73	65.48
870.164	67.18
870.598	49.48
871.031	44.27
871.465	29.18
871.899	32.58
872.333	19.88
872.766	27.48
873.2	20.98
873.634	29.68
874.067	25.48
874.501	26.58
874.935	37.67
875.368	30.58
875.802	30.78
876.235	29.38
876.669	28.38
877.102	19.98
877.535	29.58
877.969	22.68
878.402	21.77
878.836	18.08
879.269	24.38
879.702	24.98
880.135	16.67
880.569	25.77
881.002	23.68
881.435	20.68
881.868	14.58
882.301	28.68
882.734	17.27
883.167	25.18
883.601	27.08
884.034	23.77
884.467	14.78
884.899	14.08
885.332	19.38
885.765	21.78
886.198	20.48
886.631	19.27
887.064	16.18
887.497	20.18
887.929	24.68
888.362	17.88
888.795	12.18
889.228	18.18
889.66	22.27
890.093	16.17
890.526	12.08
890.958	23.28
891.391	17.48
891.823	20.48
892.256	15.38
892.688	7.58
893.121	16.18
893.553	12.58
893.985	24.08
894.418	22.77
894.85	9.88
895.282	17.38
895.715	18.38
896.147	15.48
896.579	12.98
897.011	15.78
897.444	20.48
897.876	15.78
898.308	18.88
898.74	18.28
899.172	16.38
899.604	25.58
900.036	21.67
900.468	14.18
900.9	14.08
901.332	14.98
901.764	13.48
902.196	17.38
902.628	14.58
903.06	16.38
903.491	26.48
903.923	23.88
904.355	22.58
904.787	19.77
905.218	27.48
905.65	18.88
906.082	16.27
906.513	16.77
906.945	11.38
907.376	12.88
907.808	19.18
908.239	13.78
908.671	15.48
909.102	23.88
909.534	29.08
909.965	56.48
910.397	96.08
910.828	321.48
911.259	495.28
911.691	232.98
912.122	110.78
912.553	51.08
912.984	33.48
913.415	29.48
913.847	27.48
914.278	23.28
914.709	13.48
915.14	20.98
915.571	21.58
916.002	10.08
916.433	16.78
916.864	20.08
917.295	14.68
917.726	17.88
918.157	15.58
918.587	31.58
919.018	21.78
919.449	21.88
919.88	26.67
920.311	34.48
920.741	43.27
921.172	178.78
921.603	163.38
922.033	77.27
922.464	49.78
922.895	22.98
923.325	21.08
923.756	14.77
924.186	9.98
924.617	20.18
925.047	19.48
925.478	28.58
925.908	26.38
926.338	16.68
926.769	10.38
927.199	18.58
927.629	4.88
928.06	15.98
928.49	14.48
928.92	14.88
929.35	13.58
929.78	12.48
930.21	11.67
930.641	2.28
931.071	10.58
931.501	2.88
931.931	16.88
932.361	6.78
932.791	9.48
933.221	1.78
933.651	5.08
934.08	17.58
934.51	31.28
934.94	13.28
935.37	7.08
935.8	15.38
936.229	4.08
936.659	8.58
937.089	7.38
937.519	24.08
937.948	21.77
938.378	18.58
938.807	11.17
939.237	-1.72
939.666	13.18
940.096	-2.92
940.525	3.18
940.955	6.08
941.384	-0.72
941.814	-7.23
942.243	2.08
942.672	7.58
943.102	-1.72
943.531	2.98
943.96	4.58
944.39	8.48
944.819	-0.02
945.248	3.88
945.677	-1.42
946.106	3.58
946.535	6.48
946.964	1.68
947.393	4.88
947.822	-1.32
948.251	0.17
948.68	3.48
949.109	7.08
949.538	11.48
949.967	2.28
950.396	-1.32
950.825	-1.12
951.254	-2.22
951.682	-9.02
952.111	7.28
952.54	3.38
952.969	0.78
953.397	-6.92
953.826	2.88
954.254	-7.32
954.683	-0.62
955.112	-8.02
955.54	0.58
955.969	2.08
956.397	-1.62
956.826	-3.72
957.254	-1.02
957.682	-1.02
958.111	5.38
958.539	0.48
958.967	5.68
959.396	-6.73
959.824	-0.02
960.252	-4.12
960.68	-5.73
961.109	-2.83
961.537	-3.12
961.965	2.48
962.393	2.38
962.821	-3.02
963.249	-2.42
963.677	4.08
964.105	-1.12
964.533	47.48
964.961	44.38
965.389	21.18
965.817	7.27
966.245	2.88
966.672	1.38
967.1	-11.32
967.528	0.27
967.956	-2.92
968.383	-0.73
968.811	3.08
969.239	-2.12
969.666	-3.32
970.094	3.28
970.522	1.68
970.949	2.58
971.377	-3.42
971.804	-3.72
972.232	-3.32
972.659	-7.02
973.087	2.58
973.514	-7.73
973.941	-6.82
974.369	10.58
974.796	-5.02
975.223	-1.62
975.651	-2.52
976.078	6.08
976.505	-1.82
976.932	6.28
977.359	16.38
977.786	12.38
978.214	3.38
978.641	-6.32
979.068	-2.62
979.495	-4.32
979.922	-0.73
980.349	1.38
980.776	5.58
981.202	-1.62
981.629	2.98
982.056	5.58
982.483	0.28
982.91	9.88
983.337	-2.52
983.763	-0.12
984.19	-1.82
984.617	-3.92
985.043	-9.32
985.47	3.28
985.897	-3.32
986.323	-3.92
986.75	2.18
987.176	0.48
987.603	-0.23
988.029	3.27
988.456	-8.32
988.882	-0.52
989.308	-7.52
989.735	-2.42
990.161	-2.32
990.587	-1.73
991.014	-0.32
991.44	6.58
991.866	-0.72
992.292	0.48
992.719	-0.82
993.145	0.78
993.571	-2.92
993.997	-5.32
994.423	1.08
994.849	-5.52
995.275	2.68
995.701	0.18
996.127	-4.23
996.553	-0.32
996.979	0.08
997.405	0.88
997.83	-8.42
998.256	-10.02
998.682	-6.82
999.108	-6.83
999.534	-5.73
999.959	-2.42
1000.385	-2.82
1000.811	-0.83
1001.236	-8.83
1001.662	-7.12
1002.087	-6.82
1002.513	-4.92
1002.938	8.08
1003.364	-5.32
1003.789	4.58
1004.215	6.28
1004.64	-2.52
1005.066	5.58
1005.491	3.68
1005.916	-2.92
1006.342	-7.02
1006.767	-8.22
1007.192	6.58
1007.617	-4.32
1008.042	-3.62
1008.468	-4.32
1008.893	-3.92
1009.318	-0.02
1009.743	-4.92
1010.168	6.77
1010.593	8.58
1011.018	-2.52
1011.443	-0.92
1011.868	-1.62
1012.293	-2.22
1012.718	-4.72
1013.143	-0.92
1013.567	6.98
1013.992	-3.02
1014.417	-13.32
1014.842	-4.02
1015.267	-3.42
1015.691	-3.92
1016.116	5.68
1016.541	-3.72
1016.965	-0.92
1017.39	7.08
1017.814	0.18
1018.239	-1.23
1018.663	-10.02
1019.088	-8.23
1019.512	-2.12
1019.937	-1.22
1020.361	-4.42
1020.785	-5.12
1021.21	2.58
1021.634	-0.22
1022.058	-2.23
1022.483	3.88
1022.907	-3.82
1023.331	-6.42
1023.755	-0.92
1024.179	-3.32
1024.604	-9.62
1025.028	-8.83
1025.452	-3.12
1025.876	-0.62
1026.3	2.58
1026.724	-6.62
1027.148	-5.02
1027.572	-4.12
1027.996	-10.42
1028.42	-5.12
1028.843	-7.02
1029.267	-4.82
1029.691	-2.23
1030.115	-4.22
1030.539	-1.12
1030.962	-2.23
1031.386	-14.52
1031.81	-1.62
1032.233	-1.42
1032.657	1.28
1033.08	-4.72
1033.504	-2.52
1033.927	-7.22
1034.351	-3.52
1034.774	-9.32
1035.198	-3.72
1035.621	-6.52
1036.045	-6.32
1036.468	2.27
1036.891	-9.32
1037.315	-10.23
1037.738	-9.52
1038.161	-4.33
1038.584	-8.52
1039.008	-1.72
1039.431	-9.12
1039.854	-3.83
1040.277	-6.32
1040.7	-11.12
1041.123	4.68
1041.546	-7.02
1041.969	-3.12
1042.392	-7.73
1042.815	-0.33
1043.238	0.08
1043.661	-0.52
1044.084	-8.92
1044.507	-3.42
1044.93	-0.02
1045.352	-4.02
1045.775	2.48
1046.198	4.68
1046.621	2.18
1047.043	-4.12
1047.466	3.88
1047.889	0.98
1048.311	-5.12
1048.734	-1.32
1049.156	-4.22
1049.579	-3.73
1050.001	-15.42
1050.424	-0.92
1050.846	1.58
1051.269	-2.62
1051.691	-6.72
1052.113	-8.82
1052.536	0.48
1052.958	-0.92
1053.38	-4.92
1053.802	-12.82
1054.225	5.27
1054.647	-10.62
1055.069	-5.73
1055.491	2.58
1055.913	-7.42
1056.335	-0.52
1056.757	-0.42
1057.179	-4.42
1057.601	-4.62
1058.023	-5.52
1058.445	-9.52
1058.867	-6.62
1059.289	-4.33
1059.711	-3.62
1060.133	-3.12
1060.555	-5.02
1060.976	-2.92
1061.398	-4.02
1061.82	-2.82
1062.241	-5.52
1062.663	-7.82
1063.085	-8.62
1063.506	-0.02
1063.928	-7.83
1064.35	-0.02
1064.771	-9.23
1065.193	-7.52
1065.614	-7.22
1066.035	-2.42
1066.457	1.58
1066.878	1.28
1067.3	1.38
1067.721	-0.52
1068.142	-2.02
1068.564	-10.02
1068.985	-5.52
1069.406	-1.72
1069.827	-6.92
1070.248	-0.72
1070.67	-2.82
1071.091	-3.42
1071.512	-4.92
1071.933	-1.12
1072.354	-8.42
1072.775	-6.42
1073.196	-7.62
1073.617	-7.02
1074.038	-7.62
1074.459	-5.62
1074.88	-7.12
1075.3	-4.62
1075.721	-10.83
1076.142	-0.02
1076.563	-3.23
1076.983	-15.02
1077.404	-11.12
1077.825	-8.32
1078.246	-9.02
1078.666	-11.42
1079.087	-0.82
1079.507	-5.83
1079.928	3.48
1080.348	-2.32
1080.769	-0.73
1081.189	0.18
1081.61	-2.52
1082.03	-8.42
1082.451	-5.92
1082.871	-4.42
1083.291	-4.62
1083.711	-15.32
1084.132	-6.12
1084.552	-5.12
1084.972	-1.22
1085.392	-1.73
1085.813	-6.22
1086.233	-4.52
1086.653	-7.22
1087.073	-5.62
1087.493	-4.92
1087.913	-6.02
1088.333	-3.52
1088.753	-5.82
1089.173	0.98
1089.593	-8.52
1090.013	-1.23
1090.433	-2.82
1090.852	-1.12
1091.272	-2.82
1091.692	-7.52
1092.112	-2.32
1092.531	-5.23
1092.951	-12.72
1093.371	-6.42
1093.79	3.08
1094.21	0.28
1094.63	-7.02
1095.049	-5.82
1095.469	-7.02
1095.888	-3.82
1096.308	0.58
1096.727	5.08
1097.146	-6.82
1097.566	3.98
1097.985	-0.22
1098.405	-1.42
1098.824	-4.02
1099.243	-3.82
1099.662	-3.82
1100.082	-3.42
1100.501	-1.52
1100.92	-8.92
1101.339	-3.52
1101.758	-6.72
