Data from 20171114-ORNL-Ar_H_NY_Subt18_08-08-01-462.txt Node
Date: Tue Nov 14 08:08:01 EST 2017
User: Ender
Spectrometer: HR+D1039
Trigger mode: 0
Integration Time (sec): 2.730000E-2
Scans to average: 10
Electric dark correction enabled: true
Nonlinearity correction enabled: false
Boxcar width: 0
XAxis mode: Wavelengths
Number of Pixels in Spectrum: 2048
>>>>>Begin Spectral Data<<<<<
187.836	-4.14
188.309	-4.14
188.782	-4.14
189.255	1.76
189.728	0.06
190.201	5.26
190.674	-2.74
191.147	4.46
191.619	-7.84
192.092	-1.74
192.565	1.96
193.038	2.06
193.511	4.46
193.984	-3.54
194.456	-1.34
194.929	3.86
195.402	-0.64
195.874	-1.94
196.347	-2.94
196.82	-7.64
197.292	3.56
197.765	-0.34
198.237	-9.14
198.71	-0.94
199.182	-5.14
199.655	-2.34
200.127	0.96
200.6	-2.44
201.072	-3.04
201.544	-8.54
202.017	-8.94
202.489	3.66
202.961	-3.24
203.433	-5.04
203.906	-10.04
204.378	-3.94
204.85	-7.14
205.322	-8.34
205.794	-8.14
206.266	-10.64
206.739	-7.74
207.211	-1.24
207.683	-10.14
208.155	-8.94
208.627	-13.74
209.099	-1.44
209.57	-11.94
210.042	-5.84
210.514	-2.44
210.986	2.06
211.458	-3.34
211.93	-8.24
212.402	-3.34
212.873	-3.84
213.345	-12.64
213.817	-10.04
214.288	-6.84
214.76	-15.14
215.232	-3.44
215.703	-4.14
216.175	-8.44
216.646	-6.54
217.118	-8.24
217.589	-7.44
218.061	-6.04
218.532	-5.64
219.004	-1.64
219.475	-5.24
219.946	-2.94
220.418	-8.64
220.889	5.36
221.36	-3.84
221.832	-4.84
222.303	-3.94
222.774	1.56
223.245	-7.04
223.717	-6.14
224.188	-7.54
224.659	-7.84
225.13	-4.14
225.601	-2.34
226.072	-3.24
226.543	-0.94
227.014	0.36
227.485	-4.44
227.956	-5.54
228.427	4.46
228.898	3.46
229.369	5.36
229.839	-1.74
230.31	-9.24
230.781	0.26
231.252	-1.24
231.722	-7.04
232.193	-8.14
232.664	-7.24
233.135	1.16
233.605	-5.24
234.076	-5.54
234.546	4.46
235.017	-3.04
235.487	4.76
235.958	0.46
236.428	2.86
236.899	0.16
237.369	2.96
237.84	-4.74
238.31	4.56
238.78	2.16
239.251	1.06
239.721	-1.34
240.191	-2.04
240.662	-5.44
241.132	-6.94
241.602	0.86
242.072	-6.74
242.542	0.66
243.013	-1.74
243.483	3.86
243.953	-1.84
244.423	-2.74
244.893	-3.64
245.363	2.96
245.833	1.46
246.303	-7.04
246.773	3.66
247.243	-1.64
247.712	-0.14
248.182	3.76
248.652	10.76
249.122	0.36
249.592	5.56
250.061	21.26
250.531	34.16
251.001	15.96
251.471	19.26
251.94	12.66
252.41	6.76
252.879	-3.54
253.349	15.46
253.818	8.66
254.288	4.66
254.757	1.66
255.227	1.86
255.696	3.06
256.166	5.26
256.635	5.76
257.105	0.86
257.574	3.56
258.043	10.56
258.513	7.26
258.982	16.96
259.451	7.96
259.92	11.26
260.389	11.46
260.859	12.76
261.328	11.06
261.797	14.46
262.266	10.06
262.735	2.16
263.204	3.56
263.673	2.46
264.142	6.16
264.611	-5.44
265.08	-3.84
265.549	0.76
266.018	2.86
266.487	-1.24
266.955	-2.94
267.424	-5.44
267.893	0.16
268.362	-0.14
268.83	4.16
269.299	12.36
269.768	5.46
270.236	3.96
270.705	-0.04
271.174	0.66
271.642	6.76
272.111	6.66
272.579	14.46
273.048	22.56
273.516	29.66
273.985	29.86
274.453	31.36
274.922	24.46
275.39	12.66
275.858	5.16
276.327	10.66
276.795	18.96
277.263	11.86
277.731	20.96
278.2	50.06
278.668	54.86
279.136	47.26
279.604	16.96
280.072	9.76
280.54	11.46
281.008	11.26
281.477	11.46
281.945	6.46
282.413	10.26
282.881	10.36
283.348	1.06
283.816	12.86
284.284	17.46
284.752	18.86
285.22	10.26
285.688	13.76
286.156	17.26
286.623	43.16
287.091	56.56
287.559	24.16
288.026	19.06
288.494	13.36
288.962	3.76
289.429	6.96
289.897	16.46
290.364	8.16
290.832	14.06
291.3	12.26
291.767	17.76
292.234	18.06
292.702	8.06
293.169	18.46
293.637	19.46
294.104	20.06
294.571	5.56
295.039	13.16
295.506	15.96
295.973	19.76
296.44	17.56
296.908	18.56
297.375	20.86
297.842	17.06
298.309	7.76
298.776	13.06
299.243	19.16
299.71	10.16
300.177	23.26
300.644	20.16
301.111	20.06
301.578	17.46
302.045	14.96
302.512	23.36
302.979	23.66
303.446	22.26
303.913	18.36
304.379	16.96
304.846	21.36
305.313	24.56
305.78	19.96
306.246	23.76
306.713	19.76
307.18	25.16
307.646	27.26
308.113	26.96
308.579	21.06
309.046	27.86
309.512	21.76
309.979	18.96
310.445	24.06
310.912	31.46
311.378	24.86
311.845	28.16
312.311	27.36
312.777	29.76
313.244	27.66
313.71	26.36
314.176	32.16
314.642	28.76
315.109	33.36
315.575	31.36
316.041	38.16
316.507	34.66
316.973	39.06
317.439	33.66
317.905	30.96
318.371	35.86
318.837	32.06
319.303	34.16
319.769	33.06
320.235	38.76
320.701	34.76
321.167	34.36
321.633	33.36
322.099	36.66
322.564	46.26
323.03	40.56
323.496	35.46
323.962	43.66
324.427	34.36
324.893	38.06
325.359	34.56
325.824	34.46
326.29	34.96
326.755	37.26
327.221	38.36
327.686	38.26
328.152	45.96
328.617	39.66
329.083	43.06
329.548	52.76
330.014	42.26
330.479	43.26
330.944	42.36
331.41	35.76
331.875	45.76
332.34	38.46
332.805	43.76
333.271	49.76
333.736	45.56
334.201	49.06
334.666	47.36
335.131	49.16
335.596	49.96
336.061	49.36
336.526	43.46
336.991	46.66
337.456	52.96
337.921	50.66
338.386	34.86
338.851	40.66
339.316	49.26
339.781	41.16
340.246	48.96
340.711	50.16
341.175	47.56
341.64	40.16
342.105	47.36
342.569	54.56
343.034	53.46
343.499	48.06
343.963	48.16
344.428	61.26
344.893	57.16
345.357	59.86
345.822	53.06
346.286	65.86
346.751	66.36
347.215	62.56
347.679	72.76
348.144	92.36
348.608	79.26
349.073	67.76
349.537	70.46
350.001	71.26
350.465	82.86
350.93	76.56
351.394	76.96
351.858	68.66
352.322	90.36
352.786	76.46
353.25	98.16
353.715	115.56
354.179	93.66
354.643	115.86
355.107	117.16
355.571	112.26
356.035	102.36
356.498	116.66
356.962	122.76
357.426	126.96
357.89	108.26
358.354	89.26
358.818	82.16
359.281	79.56
359.745	81.76
360.209	69.86
360.673	69.76
361.136	76.56
361.6	84.86
362.064	79.06
362.527	76.06
362.991	88.46
363.454	73.96
363.918	80.16
364.381	80.46
364.845	86.86
365.308	80.46
365.772	79.36
366.235	84.76
366.698	85.36
367.162	82.56
367.625	87.06
368.088	88.06
368.552	87.36
369.015	82.96
369.478	91.46
369.941	95.46
370.404	93.06
370.867	100.76
371.331	105.86
371.794	114.46
372.257	110.76
372.72	114.66
373.183	111.06
373.646	95.86
374.109	100.26
374.572	104.56
375.035	104.66
375.497	111.76
375.96	103.06
376.423	98.36
376.886	107.56
377.349	105.76
377.811	93.06
378.274	104.66
378.737	109.76
379.199	111.06
379.662	112.36
380.125	116.76
380.587	111.66
381.05	116.96
381.512	124.56
381.975	136.26
382.437	127.76
382.9	130.56
383.362	136.26
383.825	140.86
384.287	150.06
384.75	145.06
385.212	136.26
385.674	135.36
386.136	137.96
386.599	127.46
387.061	131.36
387.523	122.76
387.985	134.16
388.447	149.56
388.91	149.16
389.372	162.46
389.834	147.06
390.296	143.66
390.758	157.56
391.22	175.46
391.682	218.36
392.144	309.26
392.606	234.96
393.068	163.86
393.529	163.66
393.991	157.16
394.453	144.86
394.915	154.46
395.377	195.76
395.838	220.26
396.3	156.86
396.762	146.46
397.224	129.76
397.685	133.46
398.147	133.86
398.608	129.96
399.07	125.56
399.531	129.96
399.993	135.66
400.454	148.56
400.916	140.86
401.377	148.16
401.839	154.16
402.3	150.96
402.762	168.06
403.223	184.76
403.684	168.36
404.145	160.66
404.607	159.76
405.068	162.16
405.529	166.26
405.99	188.06
406.451	176.96
406.913	169.26
407.374	160.76
407.835	161.36
408.296	167.56
408.757	165.76
409.218	192.06
409.679	184.66
410.14	173.86
410.601	181.56
411.062	186.96
411.522	186.36
411.983	190.36
412.444	175.36
412.905	190.36
413.366	185.56
413.826	188.96
414.287	217.56
414.748	259.66
415.208	244.86
415.669	213.46
416.13	202.36
416.59	199.36
417.051	211.26
417.511	210.96
417.972	234.56
418.432	246.66
418.893	282.86
419.353	247.66
419.814	197.76
420.274	182.76
420.734	177.16
421.195	191.76
421.655	187.46
422.115	198.76
422.576	192.66
423.036	199.96
423.496	204.06
423.956	213.26
424.416	230.06
424.876	263.86
425.336	262.76
425.797	268.26
426.257	255.86
426.717	233.76
427.177	236.76
427.637	216.76
428.097	232.06
428.556	241.86
429.016	270.46
429.476	267.06
429.936	276.96
430.396	279.26
430.856	290.56
431.315	315.96
431.775	351.86
432.235	390.16
432.694	357.16
433.154	376.16
433.614	396.26
434.073	335.26
434.533	284.66
434.993	266.76
435.452	278.96
435.912	294.66
436.371	288.76
436.83	281.66
437.29	270.26
437.749	253.56
438.209	250.26
438.668	271.26
439.127	282.76
439.587	266.96
440.046	251.16
440.505	260.76
440.964	272.56
441.424	329.06
441.883	305.66
442.342	254.26
442.801	223.46
443.26	219.06
443.719	214.66
444.178	218.16
444.637	215.86
445.096	215.46
445.555	230.06
446.014	225.86
446.473	227.66
446.932	230.06
447.391	229.06
447.849	222.06
448.308	214.36
448.767	221.06
449.226	227.96
449.685	234.56
450.143	246.66
450.602	229.96
451.061	229.36
451.519	230.26
451.978	235.46
452.436	233.86
452.895	241.66
453.353	251.56
453.812	236.66
454.27	247.66
454.729	237.06
455.187	236.26
455.646	243.36
456.104	243.76
456.562	264.36
457.021	265.76
457.479	254.76
457.937	273.66
458.395	264.36
458.854	241.36
459.312	251.66
459.77	273.66
460.228	252.86
460.686	241.26
461.144	247.36
461.602	243.06
462.06	242.66
462.518	248.56
462.976	252.86
463.434	256.56
463.892	254.86
464.35	266.66
464.808	283.46
465.266	263.66
465.724	254.96
466.181	268.96
466.639	269.46
467.097	284.86
467.555	287.26
468.012	303.56
468.47	304.76
468.928	319.66
469.385	329.36
469.843	346.36
470.3	350.06
470.758	354.26
471.215	381.76
471.673	399.76
472.13	399.86
472.588	419.26
473.045	367.86
473.503	367.66
473.96	387.76
474.417	398.76
474.875	428.06
475.332	478.26
475.789	457.36
476.246	470.66
476.704	485.96
477.161	508.76
477.618	529.76
478.075	559.46
478.532	610.16
478.989	678.96
479.446	808.86
479.903	768.66
480.36	812.56
480.817	856.16
481.274	965.76
481.731	1081.66
482.188	1174.36
482.645	1307.96
483.102	1408.96
483.558	1551.36
484.015	1616.06
484.472	1576.36
484.929	1531.26
485.385	1481.56
485.842	1447.36
486.299	1374.56
486.755	1298.46
487.212	1090.96
487.668	921.36
488.125	839.86
488.582	778.36
489.038	736.96
489.494	705.26
489.951	674.96
490.407	655.36
490.864	641.66
491.32	633.76
491.776	632.46
492.233	635.66
492.689	600.66
493.145	594.66
493.602	586.96
494.058	606.26
494.514	607.96
494.97	636.36
495.426	642.56
495.882	612.26
496.338	603.16
496.794	610.56
497.251	607.66
497.707	618.56
498.163	632.06
498.618	634.36
499.074	629.56
499.53	670.26
499.986	666.56
500.442	643.96
500.898	631.46
501.354	623.16
501.809	630.36
502.265	638.76
502.721	661.96
503.177	670.36
503.632	651.76
504.088	683.36
504.543	705.66
504.999	695.96
505.455	643.86
505.91	626.36
506.366	617.96
506.821	616.46
507.277	613.86
507.732	615.76
508.187	612.16
508.643	614.46
509.098	617.76
509.553	648.16
510.009	652.36
510.464	654.66
510.919	682.46
511.375	680.26
511.83	696.76
512.285	705.86
512.74	757.16
513.195	765.76
513.65	755.16
514.105	758.16
514.56	763.96
515.015	781.16
515.47	798.86
515.925	786.96
516.38	774.76
516.835	786.86
517.29	775.06
517.745	763.76
518.2	747.76
518.655	745.36
519.109	733.46
519.564	724.86
520.019	720.66
520.474	709.76
520.928	722.16
521.383	715.76
521.838	712.26
522.292	695.16
522.747	699.76
523.201	693.66
523.656	687.66
524.11	676.96
524.565	673.16
525.019	676.36
525.474	691.16
525.928	690.16
526.382	687.16
526.837	682.66
527.291	686.76
527.745	682.56
528.2	685.26
528.654	681.06
529.108	680.86
529.562	678.26
530.016	678.26
530.47	685.66
530.925	686.16
531.379	691.26
531.833	697.86
532.287	698.76
532.741	702.46
533.195	695.26
533.649	698.86
534.103	701.26
534.556	696.26
535.01	702.26
535.464	688.46
535.918	710.46
536.372	709.16
536.826	703.16
537.279	696.96
537.733	698.36
538.187	701.96
538.64	706.86
539.094	720.36
539.548	723.26
540.001	705.16
540.455	716.96
540.908	728.36
541.362	731.96
541.815	738.66
542.269	748.56
542.722	750.76
543.175	763.06
543.629	768.96
544.082	777.66
544.536	777.26
544.989	770.46
545.442	773.46
545.895	780.36
546.349	784.56
546.802	785.96
547.255	792.76
547.708	790.96
548.161	818.16
548.614	812.46
549.067	816.16
549.52	806.56
549.973	796.86
550.426	792.26
550.879	783.46
551.332	786.46
551.785	789.66
552.238	803.76
552.691	802.06
553.144	825.16
553.596	837.56
554.049	852.46
554.502	874.66
554.955	894.96
555.407	896.26
555.86	892.56
556.313	877.56
556.765	875.06
557.218	877.56
557.67	875.66
558.123	866.66
558.576	851.56
559.028	858.36
559.48	868.66
559.933	865.56
560.385	829.96
560.838	797.36
561.29	778.06
561.742	767.26
562.195	758.56
562.647	756.96
563.099	764.16
563.551	767.56
564.004	774.26
564.456	765.86
564.908	758.76
565.36	740.06
565.812	730.96
566.264	726.46
566.716	721.66
567.168	714.96
567.62	724.96
568.072	696.86
568.524	693.06
568.976	691.76
569.428	675.16
569.88	672.46
570.332	679.26
570.784	678.56
571.235	676.96
571.687	692.86
572.139	679.96
572.59	700.06
573.042	691.26
573.494	700.16
573.945	693.86
574.397	663.86
574.849	676.26
575.3	676.56
575.752	674.46
576.203	674.56
576.655	676.06
577.106	662.36
577.557	669.96
578.009	658.66
578.46	657.66
578.912	647.36
579.363	657.16
579.814	656.36
580.265	649.16
580.717	656.56
581.168	673.06
581.619	675.96
582.07	676.46
582.521	665.06
582.972	666.86
583.423	667.66
583.875	674.46
584.326	704.66
584.777	749.96
585.227	839.66
585.678	941.86
586.129	1034.46
586.58	1125.26
587.031	1199.06
587.482	1370.86
587.933	1574.46
588.384	1363.76
588.834	994.26
589.285	807.86
589.736	781.36
590.186	770.86
590.637	763.16
591.088	734.76
591.538	737.96
591.989	734.46
592.439	727.36
592.89	717.66
593.34	701.06
593.791	700.96
594.241	696.56
594.692	712.06
595.142	697.06
595.593	690.76
596.043	706.86
596.493	705.16
596.943	716.76
597.394	717.96
597.844	705.36
598.294	732.06
598.744	738.66
599.195	774.96
599.645	808.96
600.095	855.26
600.545	905.06
600.995	970.86
601.445	1012.66
601.895	1083.66
602.345	1137.86
602.795	1104.36
603.245	1056.26
603.695	1002.56
604.145	950.46
604.594	906.66
605.044	852.16
605.494	793.16
605.944	745.36
606.393	738.36
606.843	721.86
607.293	727.56
607.743	725.16
608.192	735.76
608.642	762.26
609.091	768.36
609.541	769.16
609.99	770.56
610.44	762.76
610.889	718.06
611.339	698.96
611.788	682.46
612.238	696.76
612.687	725.96
613.136	732.16
613.586	746.66
614.035	743.36
614.484	772.96
614.933	760.46
615.383	749.16
615.832	742.16
616.281	719.46
616.73	680.06
617.179	659.16
617.628	658.96
618.077	632.66
618.526	626.26
618.975	625.96
619.424	611.56
619.873	614.36
620.322	611.26
620.771	607.46
621.22	603.16
621.669	590.56
622.118	575.96
622.567	575.16
623.015	569.46
623.464	565.16
623.913	551.46
624.361	555.26
624.81	560.36
625.259	552.76
625.707	553.86
626.156	555.16
626.604	562.36
627.053	557.16
627.501	556.36
627.95	562.56
628.398	586.26
628.847	569.26
629.295	567.76
629.744	568.56
630.192	564.66
630.64	563.96
631.089	576.66
631.537	581.26
631.985	598.66
632.433	611.76
632.881	622.06
633.33	676.46
633.778	652.66
634.226	571.16
634.674	566.16
635.122	580.56
635.57	606.36
636.018	625.16
636.466	575.46
636.914	561.26
637.362	569.06
637.81	582.56
638.258	573.96
638.705	573.56
639.153	605.16
639.601	613.16
640.049	641.16
640.497	659.56
640.944	691.66
641.392	647.06
641.84	615.76
642.287	588.56
642.735	577.66
643.182	576.76
643.63	573.56
644.078	590.66
644.525	599.56
644.973	595.96
645.42	606.76
645.867	622.56
646.315	637.26
646.762	668.56
647.21	697.66
647.657	723.76
648.104	762.76
648.551	776.16
648.999	840.56
649.446	930.86
649.893	1017.56
650.34	1169.06
650.787	1423.26
651.234	1758.96
651.682	2319.56
652.129	3208.76
652.576	4636.56
653.023	6808.66
653.47	9338.16
653.917	11666.56
654.363	13335.76
654.81	14656.36
655.257	13949.56
655.704	9094.76
656.151	5334.56
656.598	3463.16
657.044	2444.46
657.491	1882.06
657.938	1507.06
658.385	1257.26
658.831	1079.56
659.278	963.56
659.724	860.56
660.171	784.96
660.618	730.96
661.064	700.16
661.511	668.16
661.957	659.16
662.404	646.26
662.85	645.56
663.296	628.46
663.743	567.36
664.189	539.26
664.635	532.26
665.082	524.46
665.528	530.56
665.974	513.66
666.42	513.76
666.867	509.46
667.313	492.36
667.759	479.96
668.205	481.46
668.651	488.76
669.097	501.56
669.543	514.46
669.989	476.26
670.435	445.96
670.881	451.36
671.327	442.06
671.773	475.36
672.219	488.96
672.665	538.26
673.11	582.66
673.556	624.76
674.002	663.16
674.448	652.56
674.893	541.96
675.339	472.06
675.785	432.06
676.23	417.26
676.676	384.06
677.122	379.36
677.567	374.16
678.013	365.56
678.458	353.56
678.904	354.56
679.349	339.36
679.794	356.06
680.24	347.76
680.685	352.56
681.131	341.56
681.576	350.16
682.021	355.56
682.466	351.96
682.912	351.16
683.357	350.56
683.802	373.46
684.247	410.46
684.692	450.06
685.137	489.76
685.583	531.66
686.028	561.36
686.473	511.76
686.918	438.36
687.363	410.26
687.807	391.16
688.252	363.36
688.697	354.76
689.142	334.96
689.587	330.86
690.032	325.56
690.477	339.66
690.921	349.06
691.366	377.86
691.811	400.86
692.255	427.36
692.7	457.76
693.145	497.26
693.589	712.96
694.034	1132.56
694.478	1537.86
694.923	1714.56
695.367	2222.86
695.812	1179.16
696.256	497.06
696.701	368.96
697.145	342.56
697.59	325.06
698.034	323.36
698.478	329.16
698.922	328.26
699.367	324.26
699.811	338.36
700.255	358.66
700.699	385.66
701.143	431.56
701.588	476.26
702.032	514.26
702.476	509.16
702.92	486.36
703.364	490.26
703.808	643.16
704.252	1042.56
704.696	1456.36
705.14	1650.06
705.584	2084.06
706.027	1044.16
706.471	511.56
706.915	394.26
707.359	343.46
707.803	318.66
708.246	307.66
708.69	313.86
709.134	315.16
709.577	309.66
710.021	311.36
710.465	300.36
710.908	301.66
711.352	301.86
711.795	313.86
712.239	355.66
712.682	392.76
713.126	412.56
713.569	456.66
714.012	367.46
714.456	325.86
714.899	302.36
715.342	274.16
715.786	263.56
716.229	263.76
716.672	257.56
717.115	248.56
717.558	248.46
718.002	244.66
718.445	267.86
718.888	282.46
719.331	291.16
719.774	300.16
720.217	302.46
720.66	275.16
721.103	263.66
721.546	257.26
721.989	248.76
722.432	233.86
722.874	239.46
723.317	239.66
723.76	232.56
724.203	253.96
724.645	316.76
725.088	449.06
725.531	566.36
725.974	634.56
726.416	543.26
726.859	303.06
727.301	246.26
727.744	237.66
728.187	228.16
728.629	241.66
729.071	237.86
729.514	257.96
729.956	273.46
730.399	280.76
730.841	279.36
731.283	267.06
731.726	268.06
732.168	256.66
732.61	266.06
733.053	281.56
733.495	320.26
733.937	352.06
734.379	397.66
734.821	440.56
735.263	542.06
735.705	854.56
736.148	1610.06
736.59	2593.76
737.032	2983.56
737.474	2436.16
737.916	790.76
738.357	428.86
738.799	328.96
739.241	301.56
739.683	273.36
740.125	295.76
740.567	294.06
741.008	307.76
741.45	306.36
741.892	315.66
742.334	343.56
742.775	345.46
743.217	330.56
743.658	268.46
744.1	248.36
744.542	260.56
744.983	309.36
745.425	335.96
745.866	336.66
746.307	283.96
746.749	282.76
747.19	323.66
747.632	463.76
748.073	902.76
748.514	1879.26
748.956	2823.56
749.397	3553.76
749.838	2937.96
750.279	2890.86
750.72	1467.96
751.162	542.66
751.603	319.76
752.044	249.56
752.485	211.56
752.926	208.06
753.367	202.76
753.808	196.96
754.249	185.76
754.69	180.86
755.131	184.06
755.572	177.96
756.013	187.36
756.453	186.96
756.894	191.06
757.335	184.26
757.776	192.46
758.216	190.36
758.657	198.46
759.098	205.26
759.538	226.16
759.979	266.76
760.42	378.76
760.86	715.96
761.301	1866.56
761.741	4439.46
762.182	6245.26
762.622	4402.66
763.063	1288.66
763.503	536.26
763.943	356.26
764.384	355.66
764.824	436.66
765.264	472.76
765.705	316.46
766.145	208.56
766.585	190.46
767.025	176.96
767.465	190.26
767.906	259.26
768.346	344.06
768.786	363.86
769.226	277.06
769.666	327.66
770.106	642.76
770.546	1599.46
770.986	2581.96
771.426	2319.36
771.866	783.46
772.306	334.46
772.745	215.86
773.185	178.96
773.625	175.16
774.065	162.46
774.505	198.26
774.944	331.46
775.384	742.46
775.824	1303.96
776.263	1261.86
776.703	536.86
777.142	226.46
777.582	158.86
778.021	137.56
778.461	142.06
778.9	137.26
779.34	131.66
779.779	113.96
780.219	106.06
780.658	101.46
781.097	111.86
781.537	115.26
781.976	108.96
782.415	109.16
782.855	109.46
783.294	101.16
783.733	101.86
784.172	106.46
784.611	106.96
785.05	107.56
785.489	107.36
785.928	115.16
786.367	124.86
786.806	115.86
787.245	123.86
787.684	134.36
788.123	140.26
788.562	135.16
789.001	128.16
789.44	125.36
789.879	121.46
790.317	119.76
790.756	128.06
791.195	127.06
791.634	145.06
792.072	206.76
792.511	377.06
792.95	1028.76
793.388	2127.86
793.827	1891.06
794.265	670.26
794.704	283.26
795.142	179.16
795.581	151.26
796.019	138.26
796.458	129.86
796.896	122.06
797.334	130.46
797.773	157.16
798.211	220.16
798.649	452.76
799.087	1030.96
799.526	1594.66
799.964	2011.16
800.402	1955.56
800.84	741.46
801.278	300.06
801.716	178.36
802.154	151.26
802.592	140.66
803.03	141.96
803.468	130.76
803.906	138.86
804.344	137.86
804.782	136.66
805.22	128.86
805.658	126.56
806.096	140.16
806.533	158.86
806.971	165.76
807.409	214.06
807.847	317.66
808.284	684.66
808.722	1895.96
809.16	3253.36
809.597	3129.86
810.035	5376.96
810.472	5587.66
810.91	2045.76
811.347	783.66
811.785	400.06
812.222	256.26
812.66	190.46
813.097	163.36
813.535	138.76
813.972	132.96
814.409	122.06
814.846	108.76
815.284	110.96
815.721	106.56
816.158	107.76
816.595	122.66
817.032	183.06
817.47	197.06
817.907	165.06
818.344	162.36
818.781	114.06
819.218	92.66
819.655	123.46
820.092	177.76
820.529	201.06
820.966	170.06
821.403	130.76
821.839	113.76
822.276	102.76
822.713	121.56
823.15	133.96
823.587	117.86
824.023	148.76
824.46	308.06
824.897	904.96
825.333	1313.36
825.77	566.86
826.206	222.26
826.643	126.56
827.08	98.96
827.516	88.06
827.953	79.66
828.389	81.76
828.825	77.66
829.262	61.06
829.698	61.56
830.135	64.46
830.571	60.96
831.007	56.06
831.443	63.76
831.88	59.66
832.316	57.66
832.752	60.56
833.188	61.96
833.624	68.36
834.06	58.96
834.497	60.36
834.933	66.86
835.369	76.66
835.805	56.06
836.241	77.16
836.677	74.66
837.112	88.16
837.548	105.66
837.984	132.06
838.42	196.06
838.856	505.86
839.292	1519.16
839.727	2241.06
840.163	1044.96
840.599	943.06
841.034	2033.06
841.47	2059.26
841.906	760.16
842.341	330.66
842.777	237.06
843.212	330.36
843.648	323.76
844.083	150.26
844.519	97.16
844.954	79.16
845.39	62.06
845.825	55.26
846.261	58.86
846.696	51.96
847.131	53.76
847.566	57.76
848.002	50.96
848.437	49.06
848.872	59.56
849.307	54.56
849.742	90.16
850.177	184.76
850.613	565.36
851.048	861.16
851.483	371.76
851.918	155.76
852.353	81.06
852.788	70.26
853.223	58.36
853.657	52.96
854.092	45.36
854.527	36.66
854.962	37.76
855.397	43.66
855.832	54.96
856.266	36.86
856.701	45.06
857.136	33.46
857.57	42.06
858.005	50.66
858.44	52.96
858.874	43.46
859.309	56.46
859.743	42.46
860.178	48.46
860.612	40.96
861.047	45.76
861.481	64.26
861.915	69.06
862.35	45.06
862.784	29.16
863.218	32.86
863.653	26.66
864.087	46.06
864.521	54.66
864.955	69.16
865.39	154.56
865.824	171.56
866.258	117.96
866.692	161.96
867.126	171.26
867.56	96.16
867.994	50.46
868.428	35.46
868.862	49.06
869.296	49.36
869.73	56.36
870.164	46.56
870.598	45.16
871.031	35.76
871.465	24.46
871.899	31.16
872.333	23.26
872.766	28.46
873.2	24.76
873.634	24.26
874.067	24.46
874.501	27.46
874.935	30.46
875.368	31.46
875.802	23.46
876.235	24.86
876.669	19.16
877.102	18.26
877.535	20.96
877.969	20.86
878.402	20.56
878.836	18.66
879.269	24.16
879.702	27.16
880.135	16.56
880.569	20.66
881.002	31.16
881.435	21.16
881.868	18.16
882.301	17.96
882.734	14.26
883.167	25.36
883.601	19.86
884.034	21.46
884.467	9.86
884.899	17.66
885.332	15.16
885.765	12.66
886.198	12.06
886.631	11.16
887.064	17.96
887.497	17.76
887.929	24.16
888.362	12.76
888.795	14.56
889.228	17.06
889.66	20.66
890.093	16.36
890.526	15.46
890.958	14.56
891.391	20.06
891.823	18.56
892.256	11.76
892.688	6.96
893.121	10.76
893.553	17.86
893.985	20.46
894.418	16.86
894.85	8.56
895.282	12.16
895.715	18.96
896.147	17.16
896.579	15.06
897.011	13.66
897.444	20.56
897.876	12.86
898.308	14.86
898.74	14.76
899.172	10.46
899.604	22.76
900.036	15.46
900.468	9.66
900.9	16.16
901.332	15.26
901.764	14.76
902.196	22.06
902.628	17.16
903.06	16.06
903.491	28.36
903.923	17.46
904.355	14.76
904.787	21.66
905.218	29.76
905.65	21.06
906.082	9.16
906.513	9.36
906.945	23.26
907.376	15.76
907.808	19.86
908.239	23.46
908.671	22.46
909.102	24.06
909.534	19.06
909.965	48.96
910.397	89.76
910.828	317.16
911.259	461.76
911.691	212.76
912.122	106.86
912.553	48.96
912.984	36.16
913.415	30.56
913.847	26.06
914.278	18.56
914.709	13.46
915.14	13.26
915.571	14.06
916.002	11.76
916.433	24.36
916.864	18.06
917.295	12.86
917.726	20.06
918.157	13.56
918.587	23.76
919.018	23.16
919.449	19.56
919.88	22.66
920.311	30.56
920.741	50.96
921.172	164.76
921.603	149.26
922.033	66.56
922.464	50.96
922.895	19.86
923.325	20.26
923.756	11.56
924.186	16.66
924.617	24.26
925.047	37.76
925.478	53.76
925.908	48.96
926.338	28.36
926.769	19.56
927.199	20.36
927.629	7.56
928.06	14.16
928.49	15.26
928.92	17.66
929.35	13.36
929.78	5.36
930.21	6.66
930.641	5.76
931.071	9.06
931.501	5.26
931.931	8.76
932.361	11.56
932.791	2.16
933.221	5.36
933.651	6.86
934.08	16.86
934.51	32.06
934.94	9.76
935.37	11.06
935.8	8.36
936.229	3.16
936.659	11.06
937.089	-0.94
937.519	13.76
937.948	13.06
938.378	17.16
938.807	7.26
939.237	5.76
939.666	8.56
940.096	-3.84
940.525	0.46
940.955	2.06
941.384	1.16
941.814	-7.44
942.243	-4.94
942.672	5.66
943.102	-4.44
943.531	-2.44
943.96	8.16
944.39	7.26
944.819	5.86
945.248	1.46
945.677	1.16
946.106	5.16
946.535	6.76
946.964	4.66
947.393	0.86
947.822	0.06
948.251	-3.44
948.68	5.26
949.109	6.46
949.538	4.66
949.967	1.36
950.396	1.06
950.825	-0.14
951.254	1.76
951.682	-9.34
952.111	-4.04
952.54	-0.34
952.969	-2.44
953.397	-8.04
953.826	1.46
954.254	-7.74
954.683	-0.74
955.112	-9.54
955.54	-1.54
955.969	1.66
956.397	4.96
956.826	-3.24
957.254	2.06
957.682	-1.34
958.111	5.06
958.539	-5.24
958.967	-7.54
959.396	-0.54
959.824	5.16
960.252	8.06
960.68	-5.34
961.109	-2.34
961.537	-8.94
961.965	-0.94
962.393	0.16
962.821	-3.54
963.249	-7.94
963.677	-0.84
964.105	5.96
964.533	39.76
964.961	40.66
965.389	19.66
965.817	8.36
966.245	1.86
966.672	-0.54
967.1	-6.94
967.528	-0.24
967.956	-5.54
968.383	0.36
968.811	-4.34
969.239	-1.24
969.666	-0.94
970.094	-1.64
970.522	-4.64
970.949	-1.04
971.377	-3.34
971.804	-6.44
972.232	-7.14
972.659	-6.64
973.087	-7.64
973.514	-6.44
973.941	-0.34
974.369	-1.84
974.796	-1.44
975.223	0.66
975.651	1.16
976.078	1.06
976.505	-4.84
976.932	6.76
977.359	14.46
977.786	13.96
978.214	1.76
978.641	-0.04
979.068	-7.64
979.495	0.06
979.922	2.66
980.349	-8.94
980.776	-1.54
981.202	-4.44
981.629	2.36
982.056	3.36
982.483	3.26
982.91	-1.84
983.337	-7.04
983.763	2.46
984.19	-5.84
984.617	-3.94
985.043	-4.34
985.47	2.56
985.897	-3.04
986.323	-12.64
986.75	3.66
987.176	-4.44
987.603	-3.34
988.029	-3.24
988.456	-1.44
988.882	-0.14
989.308	-13.14
989.735	-4.94
990.161	0.26
990.587	-10.54
991.014	-0.04
991.44	5.56
991.866	-1.14
992.292	-3.94
992.719	-9.44
993.145	0.16
993.571	-8.14
993.997	-5.74
994.423	-8.64
994.849	-5.14
995.275	1.56
995.701	0.46
996.127	-5.04
996.553	2.66
996.979	-2.24
997.405	3.96
997.83	-4.04
998.256	-6.34
998.682	-7.74
999.108	-9.54
999.534	-3.94
999.959	-1.74
1000.385	-10.34
1000.811	1.36
1001.236	-12.94
1001.662	-10.94
1002.087	-6.14
1002.513	-2.94
1002.938	-1.44
1003.364	-5.04
1003.789	4.16
1004.215	0.16
1004.64	-4.74
1005.066	-2.84
1005.491	-5.24
1005.916	-1.84
1006.342	-7.34
1006.767	-2.24
1007.192	2.16
1007.617	-5.94
1008.042	-6.74
1008.468	-4.64
1008.893	-6.54
1009.318	-8.04
1009.743	-1.74
1010.168	3.26
1010.593	-2.64
1011.018	-4.14
1011.443	-6.64
1011.868	-1.14
1012.293	-1.74
1012.718	-7.54
1013.143	3.26
1013.567	-8.34
1013.992	-2.14
1014.417	-9.24
1014.842	3.36
1015.267	-9.64
1015.691	-4.74
1016.116	2.46
1016.541	2.06
1016.965	-0.34
1017.39	-4.34
1017.814	-6.14
1018.239	-1.74
1018.663	-8.04
1019.088	-15.14
1019.512	-4.14
1019.937	-7.64
1020.361	-5.84
1020.785	-10.74
1021.21	2.16
1021.634	-2.34
1022.058	-5.04
1022.483	0.36
1022.907	-5.94
1023.331	-7.94
1023.755	-5.04
1024.179	-9.34
1024.604	-4.14
1025.028	-9.24
1025.452	-6.74
1025.876	-2.54
1026.3	3.36
1026.724	-13.94
1027.148	-5.14
1027.572	-9.54
1027.996	-3.74
1028.42	-8.04
1028.843	-5.34
1029.267	-5.54
1029.691	-5.24
1030.115	-7.04
1030.539	-6.04
1030.962	-8.04
1031.386	-11.54
1031.81	-8.94
1032.233	-4.44
1032.657	-3.04
1033.08	-6.74
1033.504	-1.84
1033.927	-8.34
1034.351	-4.44
1034.774	-5.84
1035.198	-7.34
1035.621	-4.44
1036.045	-9.24
1036.468	-2.64
1036.891	-12.84
1037.315	-14.14
1037.738	-9.94
1038.161	-5.24
1038.584	-7.34
1039.008	-9.34
1039.431	-10.34
1039.854	-6.04
1040.277	-11.14
1040.7	-14.84
1041.123	-5.44
1041.546	-7.34
1041.969	-0.64
1042.392	-6.14
1042.815	-10.14
1043.238	-0.64
1043.661	-0.84
1044.084	-8.94
1044.507	-1.44
1044.93	-9.14
1045.352	-3.54
1045.775	-4.14
1046.198	-7.74
1046.621	-6.94
1047.043	-2.84
1047.466	-2.14
1047.889	-0.54
1048.311	-10.34
1048.734	-6.34
1049.156	-2.44
1049.579	-5.94
1050.001	-7.74
1050.424	-1.24
1050.846	-3.14
1051.269	-9.04
1051.691	-9.64
1052.113	-9.64
1052.536	-3.94
1052.958	-4.44
1053.38	-6.64
1053.802	-10.94
1054.225	-3.14
1054.647	-12.74
1055.069	-9.34
1055.491	-0.34
1055.913	-7.94
1056.335	-2.04
1056.757	-4.04
1057.179	-8.14
1057.601	-6.04
1058.023	-2.94
1058.445	-3.74
1058.867	-7.24
1059.289	-7.34
1059.711	-9.64
1060.133	-8.24
1060.555	-5.54
1060.976	-7.34
1061.398	-7.24
1061.82	-10.14
1062.241	-1.54
1062.663	-6.04
1063.085	-7.64
1063.506	3.06
1063.928	-4.34
1064.35	-3.44
1064.771	-17.84
1065.193	-7.14
1065.614	-12.24
1066.035	-6.54
1066.457	-9.74
1066.878	0.36
1067.3	-11.74
1067.721	-7.04
1068.142	-4.34
1068.564	-7.54
1068.985	-6.34
1069.406	-12.94
1069.827	-7.84
1070.248	-6.14
1070.67	-8.84
1071.091	-4.24
1071.512	-2.94
1071.933	-9.54
1072.354	-5.14
1072.775	-4.54
1073.196	-7.74
1073.617	-6.94
1074.038	-9.94
1074.459	-3.24
1074.88	-10.34
1075.3	1.46
1075.721	-7.14
1076.142	-5.34
1076.563	-3.64
1076.983	-7.54
1077.404	-2.34
1077.825	-11.34
1078.246	-6.14
1078.666	-15.94
1079.087	-4.64
1079.507	-12.34
1079.928	-2.74
1080.348	-5.64
1080.769	-0.84
1081.189	-0.24
1081.61	-8.44
1082.03	-9.84
1082.451	-5.14
1082.871	-2.14
1083.291	-8.54
1083.711	-8.54
1084.132	-6.54
1084.552	-8.44
1084.972	-1.94
1085.392	-9.74
1085.813	-8.54
1086.233	-9.34
1086.653	-10.64
1087.073	-7.24
1087.493	-10.34
1087.913	-7.64
1088.333	-7.44
1088.753	-4.04
1089.173	2.16
1089.593	-5.44
1090.013	-1.44
1090.433	1.36
1090.852	-11.04
1091.272	0.46
1091.692	-5.34
1092.112	-7.34
1092.531	-18.34
1092.951	-7.64
1093.371	-3.34
1093.79	-3.84
1094.21	-7.44
1094.63	-6.24
1095.049	-2.74
1095.469	-0.34
1095.888	-6.64
1096.308	-5.34
1096.727	4.56
1097.146	-8.74
1097.566	-2.54
1097.985	-6.04
1098.405	-4.64
1098.824	-10.74
1099.243	-6.74
1099.662	-8.14
1100.082	-7.34
1100.501	-3.74
1100.92	-10.34
1101.339	-12.24
1101.758	-10.44
