Data from 20171114-ORNL-Ar_H_NY_Subt18_08-06-09-542.txt Node
Date: Tue Nov 14 08:06:09 EST 2017
User: Ender
Spectrometer: HR+D1039
Trigger mode: 0
Integration Time (sec): 2.730000E-2
Scans to average: 10
Electric dark correction enabled: true
Nonlinearity correction enabled: false
Boxcar width: 0
XAxis mode: Wavelengths
Number of Pixels in Spectrum: 2048
>>>>>Begin Spectral Data<<<<<
187.836	-5.89
188.309	-5.89
188.782	-5.89
189.255	-4.99
189.728	-2.99
190.201	8.51
190.674	2.51
191.147	7.81
191.619	-8.89
192.092	4.61
192.565	1.61
193.038	-0.79
193.511	-1.89
193.984	-0.69
194.456	1.11
194.929	2.51
195.402	-0.29
195.874	-2.29
196.347	1.11
196.82	-5.29
197.292	8.41
197.765	3.91
198.237	-7.29
198.71	-0.99
199.182	-1.69
199.655	2.61
200.127	3.51
200.6	2.11
201.072	-0.49
201.544	-1.59
202.017	-4.29
202.489	5.41
202.961	-1.49
203.433	-6.59
203.906	-6.49
204.378	-8.59
204.85	-3.89
205.322	-9.99
205.794	2.21
206.266	-1.89
206.739	-5.39
207.211	2.81
207.683	-8.49
208.155	-3.09
208.627	-1.39
209.099	-0.39
209.57	-5.79
210.042	-6.99
210.514	-5.49
210.986	-2.19
211.458	-11.79
211.93	0.31
212.402	1.81
212.873	-12.89
213.345	-9.49
213.817	-14.59
214.288	-7.09
214.76	-16.49
215.232	-2.89
215.703	-3.49
216.175	-5.69
216.646	-2.89
217.118	-5.29
217.589	-5.39
218.061	1.71
218.532	-5.89
219.004	1.51
219.475	-3.39
219.946	-2.99
220.418	-2.29
220.889	1.41
221.36	-2.99
221.832	-0.19
222.303	-11.09
222.774	-2.19
223.245	-7.59
223.717	-0.69
224.188	-6.89
224.659	-11.99
225.13	-6.69
225.601	-2.89
226.072	2.11
226.543	5.21
227.014	3.31
227.485	2.21
227.956	-6.49
228.427	-3.09
228.898	-1.79
229.369	1.51
229.839	-1.79
230.31	-2.99
230.781	0.81
231.252	-3.29
231.722	-1.79
232.193	1.61
232.664	5.61
233.135	-1.89
233.605	5.01
234.076	-5.69
234.546	5.91
235.017	-2.29
235.487	2.31
235.958	-1.09
236.428	1.71
236.899	3.01
237.369	4.91
237.84	2.61
238.31	5.31
238.78	-0.89
239.251	6.11
239.721	4.11
240.191	0.11
240.662	-0.89
241.132	4.01
241.602	-2.59
242.072	-0.09
242.542	4.31
243.013	1.91
243.483	-0.39
243.953	3.41
244.423	-0.79
244.893	-4.19
245.363	-1.09
245.833	3.11
246.303	-3.29
246.773	9.81
247.243	7.21
247.712	3.71
248.182	8.61
248.652	5.11
249.122	1.31
249.592	17.01
250.061	15.41
250.531	34.21
251.001	19.61
251.471	19.31
251.94	19.61
252.41	8.21
252.879	3.61
253.349	17.51
253.818	5.41
254.288	5.41
254.757	7.51
255.227	1.01
255.696	0.21
256.166	11.51
256.635	7.41
257.105	10.41
257.574	9.91
258.043	2.41
258.513	7.51
258.982	17.71
259.451	2.01
259.92	13.61
260.389	11.91
260.859	17.31
261.328	12.01
261.797	17.21
262.266	9.91
262.735	10.11
263.204	-0.69
263.673	4.41
264.142	3.51
264.611	-0.59
265.08	4.11
265.549	-2.99
266.018	7.31
266.487	-3.99
266.955	-1.99
267.424	6.41
267.893	10.51
268.362	3.81
268.83	5.21
269.299	14.91
269.768	6.91
270.236	6.71
270.705	6.31
271.174	7.61
271.642	11.11
272.111	8.81
272.579	16.21
273.048	25.01
273.516	30.81
273.985	25.31
274.453	22.91
274.922	17.81
275.39	8.51
275.858	4.11
276.327	12.21
276.795	18.71
277.263	13.71
277.731	27.91
278.2	58.01
278.668	66.21
279.136	55.81
279.604	21.31
280.072	23.31
280.54	15.01
281.008	17.21
281.477	9.51
281.945	13.91
282.413	16.01
282.881	16.71
283.348	9.01
283.816	20.41
284.284	16.31
284.752	24.21
285.22	21.51
285.688	17.51
286.156	18.61
286.623	44.61
287.091	56.51
287.559	32.01
288.026	18.41
288.494	21.31
288.962	12.61
289.429	15.61
289.897	17.41
290.364	15.81
290.832	23.61
291.3	18.11
291.767	19.41
292.234	19.01
292.702	10.81
293.169	15.81
293.637	18.21
294.104	18.61
294.571	10.91
295.039	8.61
295.506	17.21
295.973	15.21
296.44	21.91
296.908	19.61
297.375	22.31
297.842	17.41
298.309	15.51
298.776	20.71
299.243	24.41
299.71	17.21
300.177	19.21
300.644	26.51
301.111	18.61
301.578	24.91
302.045	15.71
302.512	27.51
302.979	28.31
303.446	20.71
303.913	21.41
304.379	19.81
304.846	25.91
305.313	21.21
305.78	22.81
306.246	27.41
306.713	27.41
307.18	29.41
307.646	30.21
308.113	27.31
308.579	28.11
309.046	29.61
309.512	27.41
309.979	25.51
310.445	30.11
310.912	32.41
311.378	31.61
311.845	34.91
312.311	32.21
312.777	35.61
313.244	31.01
313.71	30.11
314.176	40.91
314.642	33.71
315.109	24.31
315.575	33.31
316.041	47.81
316.507	40.31
316.973	38.01
317.439	37.61
317.905	39.01
318.371	33.91
318.837	38.71
319.303	37.41
319.769	36.11
320.235	37.31
320.701	35.51
321.167	38.61
321.633	42.01
322.099	43.11
322.564	51.61
323.03	38.11
323.496	40.21
323.962	42.81
324.427	40.11
324.893	46.11
325.359	36.71
325.824	31.61
326.29	33.81
326.755	40.31
327.221	45.51
327.686	43.41
328.152	56.01
328.617	45.71
329.083	45.31
329.548	48.31
330.014	47.41
330.479	41.01
330.944	46.31
331.41	49.61
331.875	43.41
332.34	44.41
332.805	48.81
333.271	48.61
333.736	46.51
334.201	58.41
334.666	51.61
335.131	52.71
335.596	49.11
336.061	53.41
336.526	46.11
336.991	50.51
337.456	54.71
337.921	50.61
338.386	42.01
338.851	46.31
339.316	52.91
339.781	49.71
340.246	50.01
340.711	51.61
341.175	58.01
341.64	44.41
342.105	53.21
342.569	54.21
343.034	59.81
343.499	52.11
343.963	54.41
344.428	67.51
344.893	63.91
345.357	64.31
345.822	60.71
346.286	68.01
346.751	76.41
347.215	65.01
347.679	76.91
348.144	93.21
348.608	86.21
349.073	75.71
349.537	79.31
350.001	80.91
350.465	88.71
350.93	85.81
351.394	86.91
351.858	84.61
352.322	94.31
352.786	84.51
353.25	100.41
353.715	101.91
354.179	103.41
354.643	123.31
355.107	130.81
355.571	112.51
356.035	105.01
356.498	120.11
356.962	134.21
357.426	134.11
357.89	114.61
358.354	89.51
358.818	79.21
359.281	83.61
359.745	86.41
360.209	81.11
360.673	77.71
361.136	86.71
361.6	88.01
362.064	88.31
362.527	90.11
362.991	96.11
363.454	89.01
363.918	77.41
364.381	78.11
364.845	86.91
365.308	94.21
365.772	86.21
366.235	89.31
366.698	84.71
367.162	85.01
367.625	89.61
368.088	87.61
368.552	91.11
369.015	91.41
369.478	105.31
369.941	103.31
370.404	97.21
370.867	107.21
371.331	112.81
371.794	115.61
372.257	109.11
372.72	121.11
373.183	112.71
373.646	109.31
374.109	104.91
374.572	106.61
375.035	108.01
375.497	110.31
375.96	107.01
376.423	103.11
376.886	115.91
377.349	115.81
377.811	105.81
378.274	107.41
378.737	107.91
379.199	116.71
379.662	113.81
380.125	121.11
380.587	120.01
381.05	130.91
381.512	126.71
381.975	141.61
382.437	132.51
382.9	126.81
383.362	134.71
383.825	149.21
384.287	153.81
384.75	140.91
385.212	139.21
385.674	138.61
386.136	143.81
386.599	128.71
387.061	130.81
387.523	134.11
387.985	139.31
388.447	148.91
388.91	145.31
389.372	162.31
389.834	156.81
390.296	148.51
390.758	160.81
391.22	174.51
391.682	211.41
392.144	302.01
392.606	232.81
393.068	169.31
393.529	170.11
393.991	161.71
394.453	154.51
394.915	166.81
395.377	189.91
395.838	217.11
396.3	154.51
396.762	144.51
397.224	127.91
397.685	134.41
398.147	126.51
398.608	134.71
399.07	141.81
399.531	142.51
399.993	149.01
400.454	158.71
400.916	154.51
401.377	150.31
401.839	152.71
402.3	156.21
402.762	174.81
403.223	182.91
403.684	174.51
404.145	168.11
404.607	168.81
405.068	170.91
405.529	177.81
405.99	191.71
406.451	181.71
406.913	172.31
407.374	168.61
407.835	164.11
408.296	164.11
408.757	182.51
409.218	202.51
409.679	182.21
410.14	183.91
410.601	177.11
411.062	187.31
411.522	200.01
411.983	192.91
412.444	177.31
412.905	183.81
413.366	185.11
413.826	196.51
414.287	221.11
414.748	270.11
415.208	249.21
415.669	211.71
416.13	210.91
416.59	208.81
417.051	217.91
417.511	223.51
417.972	235.81
418.432	251.61
418.893	288.21
419.353	260.51
419.814	204.61
420.274	187.51
420.734	184.11
421.195	201.61
421.655	198.01
422.115	197.11
422.576	194.11
423.036	202.21
423.496	213.41
423.956	213.71
424.416	239.91
424.876	272.71
425.336	264.81
425.797	263.51
426.257	266.51
426.717	247.81
427.177	244.51
427.637	224.51
428.097	237.31
428.556	258.11
429.016	274.41
429.476	270.31
429.936	280.61
430.396	284.41
430.856	302.11
431.315	323.61
431.775	357.81
432.235	386.41
432.694	355.41
433.154	371.61
433.614	401.51
434.073	352.21
434.533	290.71
434.993	281.21
435.452	293.51
435.912	300.31
436.371	299.51
436.83	291.71
437.29	272.61
437.749	252.91
438.209	252.41
438.668	283.51
439.127	293.91
439.587	270.21
440.046	249.01
440.505	264.01
440.964	277.21
441.424	329.51
441.883	314.51
442.342	260.11
442.801	232.01
443.26	232.71
443.719	226.71
444.178	229.61
444.637	221.51
445.096	226.41
445.555	226.21
446.014	228.61
446.473	229.11
446.932	236.11
447.391	227.01
447.849	232.01
448.308	218.61
448.767	230.71
449.226	237.81
449.685	235.71
450.143	257.81
450.602	239.91
451.061	238.31
451.519	238.61
451.978	238.41
452.436	247.81
452.895	251.01
453.353	254.71
453.812	246.01
454.27	244.01
454.729	248.81
455.187	248.01
455.646	253.51
456.104	257.71
456.562	267.51
457.021	272.21
457.479	272.21
457.937	276.01
458.395	259.01
458.854	261.61
459.312	261.01
459.77	281.01
460.228	261.61
460.686	251.31
461.144	259.21
461.602	248.31
462.06	243.11
462.518	262.21
462.976	259.11
463.434	270.91
463.892	271.01
464.35	281.91
464.808	297.71
465.266	275.51
465.724	279.01
466.181	287.21
466.639	282.71
467.097	291.81
467.555	308.71
468.012	305.31
468.47	319.41
468.928	334.11
469.385	346.31
469.843	360.41
470.3	358.21
470.758	370.31
471.215	397.81
471.673	412.21
472.13	411.01
472.588	426.81
473.045	385.01
473.503	392.11
473.96	404.81
474.417	409.11
474.875	442.31
475.332	489.01
475.789	477.01
476.246	482.51
476.704	499.61
477.161	526.21
477.618	540.51
478.075	579.01
478.532	633.31
478.989	714.01
479.446	835.11
479.903	796.81
480.36	832.51
480.817	898.21
481.274	982.11
481.731	1102.51
482.188	1193.41
482.645	1335.61
483.102	1434.61
483.558	1583.81
484.015	1637.91
484.472	1614.41
484.929	1557.21
485.385	1508.11
485.842	1468.91
486.299	1399.51
486.755	1332.61
487.212	1133.51
487.668	951.11
488.125	877.61
488.582	798.11
489.038	773.81
489.494	730.21
489.951	704.61
490.407	686.51
490.864	658.91
491.32	662.31
491.776	663.01
492.233	661.01
492.689	621.81
493.145	631.51
493.602	612.21
494.058	632.11
494.514	632.01
494.97	647.31
495.426	665.21
495.882	642.51
496.338	628.61
496.794	639.41
497.251	640.01
497.707	654.81
498.163	654.51
498.618	659.61
499.074	659.11
499.53	693.61
499.986	697.71
500.442	678.81
500.898	644.41
501.354	644.21
501.809	652.61
502.265	658.61
502.721	683.11
503.177	686.71
503.632	686.91
504.088	699.61
504.543	730.71
504.999	727.51
505.455	675.71
505.91	654.81
506.366	657.81
506.821	646.01
507.277	635.41
507.732	641.31
508.187	632.01
508.643	643.41
509.098	650.91
509.553	673.31
510.009	682.81
510.464	688.21
510.919	705.81
511.375	712.41
511.83	735.11
512.285	740.31
512.74	772.71
513.195	812.81
513.65	795.51
514.105	797.31
514.56	794.71
515.015	806.11
515.47	825.81
515.925	810.91
516.38	811.61
516.835	816.71
517.29	798.01
517.745	798.61
518.2	783.91
518.655	774.71
519.109	766.91
519.564	756.81
520.019	757.91
520.474	740.31
520.928	744.51
521.383	735.11
521.838	730.41
522.292	728.61
522.747	738.21
523.201	722.01
523.656	701.11
524.11	712.01
524.565	708.31
525.019	709.31
525.474	720.11
525.928	729.11
526.382	721.71
526.837	717.61
527.291	722.81
527.745	714.01
528.2	723.81
528.654	717.61
529.108	711.21
529.562	711.61
530.016	710.51
530.47	707.31
530.925	716.41
531.379	714.91
531.833	720.71
532.287	714.31
532.741	723.71
533.195	728.61
533.649	736.71
534.103	739.11
534.556	722.21
535.01	733.01
535.464	721.31
535.918	740.41
536.372	735.41
536.826	738.41
537.279	725.31
537.733	732.71
538.187	736.41
538.64	731.41
539.094	744.51
539.548	743.61
540.001	742.71
540.455	733.31
540.908	750.41
541.362	751.21
541.815	773.01
542.269	781.21
542.722	782.31
543.175	788.51
543.629	792.21
544.082	809.51
544.536	810.81
544.989	813.91
545.442	815.81
545.895	814.11
546.349	819.61
546.802	809.61
547.255	824.41
547.708	818.11
548.161	831.41
548.614	836.31
549.067	857.71
549.52	848.61
549.973	838.91
550.426	825.11
550.879	822.91
551.332	816.51
551.785	821.01
552.238	827.41
552.691	837.71
553.144	848.41
553.596	865.51
554.049	884.01
554.502	923.71
554.955	938.21
555.407	943.01
555.86	918.61
556.313	921.31
556.765	910.21
557.218	907.61
557.67	905.21
558.123	906.11
558.576	889.51
559.028	894.81
559.48	905.41
559.933	897.01
560.385	860.91
560.838	831.51
561.29	801.41
561.742	802.01
562.195	780.71
562.647	775.81
563.099	791.31
563.551	784.11
564.004	805.31
564.456	796.71
564.908	780.11
565.36	761.11
565.812	757.41
566.264	746.31
566.716	748.71
567.168	730.71
567.62	742.81
568.072	724.61
568.524	715.31
568.976	705.11
569.428	693.11
569.88	689.11
570.332	692.31
570.784	700.21
571.235	699.21
571.687	700.61
572.139	713.11
572.59	723.41
573.042	719.21
573.494	721.91
573.945	718.71
574.397	696.71
574.849	705.11
575.3	699.91
575.752	694.61
576.203	692.11
576.655	694.71
577.106	678.91
577.557	680.31
578.009	673.51
578.46	680.91
578.912	683.51
579.363	676.11
579.814	687.71
580.265	692.01
580.717	676.71
581.168	683.21
581.619	694.81
582.07	685.21
582.521	694.41
582.972	684.31
583.423	687.61
583.875	694.21
584.326	709.11
584.777	756.71
585.227	830.41
585.678	916.61
586.129	1007.91
586.58	1082.81
587.031	1158.21
587.482	1323.31
587.933	1501.81
588.384	1301.61
588.834	976.41
589.285	818.91
589.736	793.61
590.186	789.11
590.637	765.41
591.088	762.91
591.538	752.81
591.989	740.11
592.439	741.31
592.89	724.71
593.34	716.51
593.791	714.41
594.241	709.01
594.692	717.11
595.142	724.11
595.593	713.21
596.043	721.51
596.493	736.61
596.943	733.81
597.394	728.81
597.844	718.11
598.294	746.81
598.744	762.71
599.195	782.11
599.645	833.51
600.095	865.91
600.545	933.41
600.995	979.51
601.445	1037.81
601.895	1103.71
602.345	1152.11
602.795	1126.81
603.245	1078.41
603.695	1029.91
604.145	976.71
604.594	934.01
605.044	869.71
605.494	819.31
605.944	775.31
606.393	747.01
606.843	730.51
607.293	741.31
607.743	737.71
608.192	754.41
608.642	776.01
609.091	784.81
609.541	776.71
609.99	783.81
610.44	781.91
610.889	727.51
611.339	711.51
611.788	696.91
612.238	707.51
612.687	725.71
613.136	729.81
613.586	741.31
614.035	734.21
614.484	757.51
614.933	765.11
615.383	757.51
615.832	748.81
616.281	734.01
616.73	699.51
617.179	669.41
617.628	662.41
618.077	646.41
618.526	628.01
618.975	628.31
619.424	628.21
619.873	627.81
620.322	625.21
620.771	611.31
621.22	609.91
621.669	601.21
622.118	591.11
622.567	582.41
623.015	576.11
623.464	576.91
623.913	570.31
624.361	555.41
624.81	565.61
625.259	558.31
625.707	567.21
626.156	562.01
626.604	568.91
627.053	570.71
627.501	563.81
627.95	573.31
628.398	586.71
628.847	569.81
629.295	578.51
629.744	581.91
630.192	568.11
630.64	566.41
631.089	568.61
631.537	587.21
631.985	594.21
632.433	601.81
632.881	614.41
633.33	665.21
633.778	647.51
634.226	576.41
634.674	577.01
635.122	583.61
635.57	610.81
636.018	633.91
636.466	589.41
636.914	555.91
637.362	576.71
637.81	581.31
638.258	582.31
638.705	585.61
639.153	612.01
639.601	616.81
640.049	654.21
640.497	682.01
640.944	694.11
641.392	646.11
641.84	622.11
642.287	589.41
642.735	580.01
643.182	570.61
643.63	578.11
644.078	574.61
644.525	601.51
644.973	594.91
645.42	610.71
645.867	628.31
646.315	650.81
646.762	678.11
647.21	695.61
647.657	712.11
648.104	745.51
648.551	777.01
648.999	842.31
649.446	918.31
649.893	1008.11
650.34	1168.41
650.787	1404.31
651.234	1738.61
651.682	2264.61
652.129	3096.01
652.576	4465.41
653.023	6573.61
653.47	9034.81
653.917	11291.81
654.363	13064.71
654.81	14418.71
655.257	13771.51
655.704	9007.21
656.151	5320.11
656.598	3442.21
657.044	2445.01
657.491	1878.31
657.938	1493.51
658.385	1261.91
658.831	1091.91
659.278	963.71
659.724	857.21
660.171	799.01
660.618	724.91
661.064	686.71
661.511	678.51
661.957	661.31
662.404	645.81
662.85	661.71
663.296	632.71
663.743	562.21
664.189	540.61
664.635	527.61
665.082	523.21
665.528	527.81
665.974	520.11
666.42	508.71
666.867	515.51
667.313	498.81
667.759	472.71
668.205	486.61
668.651	488.51
669.097	478.81
669.543	501.11
669.989	477.31
670.435	446.51
670.881	446.41
671.327	452.81
671.773	471.01
672.219	488.31
672.665	537.51
673.11	581.91
673.556	619.91
674.002	670.51
674.448	658.31
674.893	546.51
675.339	478.11
675.785	439.61
676.23	416.91
676.676	387.11
677.122	390.41
677.567	373.11
678.013	369.31
678.458	363.31
678.904	358.81
679.349	354.61
679.794	351.01
680.24	356.61
680.685	348.91
681.131	344.91
681.576	349.11
682.021	351.41
682.466	354.61
682.912	349.61
683.357	351.01
683.802	381.51
684.247	404.31
684.692	451.51
685.137	492.51
685.583	532.51
686.028	565.31
686.473	517.21
686.918	438.21
687.363	418.91
687.807	392.51
688.252	360.61
688.697	352.71
689.142	334.51
689.587	333.51
690.032	331.91
690.477	346.11
690.921	347.41
691.366	383.31
691.811	398.31
692.255	431.41
692.7	459.01
693.145	492.81
693.589	690.31
694.034	1118.71
694.478	1519.91
694.923	1725.51
695.367	2250.71
695.812	1183.51
696.256	498.21
696.701	365.51
697.145	347.01
697.59	326.21
698.034	319.71
698.478	329.81
698.922	326.21
699.367	323.91
699.811	343.11
700.255	351.91
700.699	376.21
701.143	424.31
701.588	471.41
702.032	507.61
702.476	510.51
702.92	494.41
703.364	485.61
703.808	640.41
704.252	1025.61
704.696	1444.81
705.14	1665.61
705.584	2128.91
706.027	1055.81
706.471	512.81
706.915	396.51
707.359	346.41
707.803	320.41
708.246	302.51
708.69	314.41
709.134	312.71
709.577	313.91
710.021	322.71
710.465	307.11
710.908	292.51
711.352	295.31
711.795	309.61
712.239	349.21
712.682	381.11
713.126	420.01
713.569	461.11
714.012	368.01
714.456	318.61
714.899	301.81
715.342	274.31
715.786	263.11
716.229	253.81
716.672	257.71
717.115	245.11
717.558	246.81
718.002	256.01
718.445	255.61
718.888	286.01
719.331	297.91
719.774	312.01
720.217	304.41
720.66	275.81
721.103	268.51
721.546	257.41
721.989	251.01
722.432	236.11
722.874	245.61
723.317	232.91
723.76	237.51
724.203	259.81
724.645	313.21
725.088	441.71
725.531	564.61
725.974	646.71
726.416	547.31
726.859	306.81
727.301	237.51
727.744	234.11
728.187	228.31
728.629	233.31
729.071	239.31
729.514	251.81
729.956	268.21
730.399	290.71
730.841	278.01
731.283	272.01
731.726	260.11
732.168	256.61
732.61	269.01
733.053	288.31
733.495	311.71
733.937	348.51
734.379	388.81
734.821	429.21
735.263	538.21
735.705	818.71
736.148	1553.11
736.59	2541.71
737.032	3037.81
737.474	2458.01
737.916	804.11
738.357	424.71
738.799	329.91
739.241	306.01
739.683	290.91
740.125	290.91
740.567	295.71
741.008	313.11
741.45	313.11
741.892	315.81
742.334	341.41
742.775	359.11
743.217	341.11
743.658	275.21
744.1	253.61
744.542	255.61
744.983	311.41
745.425	343.21
745.866	342.41
746.307	280.11
746.749	279.11
747.19	318.71
747.632	451.11
748.073	863.21
748.514	1831.91
748.956	2829.31
749.397	3526.61
749.838	2930.41
750.279	2961.41
750.72	1481.71
751.162	537.71
751.603	322.41
752.044	243.61
752.485	214.01
752.926	212.41
753.367	203.31
753.808	197.91
754.249	188.21
754.69	182.21
755.131	180.31
755.572	178.11
756.013	179.01
756.453	184.21
756.894	188.61
757.335	188.61
757.776	194.61
758.216	199.31
758.657	199.61
759.098	205.61
759.538	232.31
759.979	256.41
760.42	369.01
760.86	688.91
761.301	1782.71
761.741	4343.61
762.182	6408.21
762.622	4512.81
763.063	1292.41
763.503	528.81
763.943	337.81
764.384	339.21
764.824	398.61
765.264	425.71
765.705	296.11
766.145	201.31
766.585	191.91
767.025	177.21
767.465	189.81
767.906	234.31
768.346	311.91
768.786	336.01
769.226	268.01
769.666	312.51
770.106	612.71
770.546	1516.31
770.986	2615.21
771.426	2351.41
771.866	782.31
772.306	325.31
772.745	211.21
773.185	169.41
773.625	172.71
774.065	164.11
774.505	197.51
774.944	299.51
775.384	653.91
775.824	1190.71
776.263	1172.01
776.703	493.21
777.142	216.71
777.582	149.31
778.021	142.71
778.461	145.61
778.9	140.01
779.34	131.51
779.779	113.61
780.219	108.51
780.658	113.81
781.097	107.51
781.537	114.11
781.976	110.81
782.415	110.31
782.855	109.01
783.294	106.81
783.733	111.41
784.172	108.81
784.611	112.51
785.05	109.21
785.489	106.61
785.928	117.41
786.367	114.01
786.806	117.91
787.245	131.91
787.684	135.01
788.123	143.51
788.562	134.71
789.001	125.61
789.44	119.01
789.879	118.31
790.317	116.21
790.756	124.81
791.195	130.41
791.634	145.21
792.072	201.51
792.511	354.41
792.95	975.11
793.388	2106.21
793.827	1924.41
794.265	663.21
794.704	281.61
795.142	182.01
795.581	151.01
796.019	143.21
796.458	121.51
796.896	129.91
797.334	122.41
797.773	158.91
798.211	222.71
798.649	427.91
799.087	995.61
799.526	1584.41
799.964	1976.51
800.402	2014.61
800.84	760.91
801.278	299.21
801.716	187.51
802.154	153.71
802.592	143.91
803.03	143.21
803.468	135.91
803.906	144.91
804.344	145.81
804.782	140.01
805.22	130.61
805.658	130.51
806.096	146.41
806.533	159.91
806.971	174.51
807.409	208.31
807.847	305.41
808.284	645.41
808.722	1814.31
809.16	3269.01
809.597	3063.21
810.035	5327.11
810.472	5743.71
810.91	2057.01
811.347	782.71
811.785	387.61
812.222	254.41
812.66	196.71
813.097	159.41
813.535	140.21
813.972	126.71
814.409	121.11
814.846	107.01
815.284	113.01
815.721	107.41
816.158	110.11
816.595	119.61
817.032	179.31
817.47	201.91
817.907	169.71
818.344	152.41
818.781	118.11
819.218	99.91
819.655	126.11
820.092	183.11
820.529	218.31
820.966	181.21
821.403	131.51
821.839	101.71
822.276	101.01
822.713	130.41
823.15	138.11
823.587	118.71
824.023	148.01
824.46	294.01
824.897	884.71
825.333	1338.41
825.77	576.41
826.206	233.61
826.643	134.21
827.08	102.41
827.516	82.11
827.953	78.51
828.389	76.61
828.825	66.31
829.262	71.01
829.698	60.71
830.135	69.01
830.571	57.81
831.007	61.31
831.443	64.21
831.88	66.31
832.316	63.41
832.752	67.21
833.188	65.21
833.624	67.51
834.06	61.71
834.497	72.81
834.933	75.11
835.369	72.61
835.805	66.61
836.241	73.91
836.677	78.51
837.112	87.91
837.548	99.21
837.984	137.61
838.42	195.31
838.856	475.01
839.292	1470.21
839.727	2276.61
840.163	1054.11
840.599	900.81
841.034	1984.81
841.47	2116.91
841.906	775.41
842.341	333.21
842.777	225.21
843.212	306.81
843.648	294.11
844.083	146.41
844.519	89.51
844.954	80.91
845.39	58.11
845.825	55.61
846.261	54.51
846.696	58.61
847.131	54.21
847.566	54.41
848.002	54.11
848.437	53.51
848.872	64.21
849.307	63.51
849.742	84.91
850.177	176.01
850.613	536.51
851.048	864.91
851.483	369.81
851.918	141.41
852.353	86.11
852.788	61.31
853.223	52.61
853.657	59.01
854.092	46.21
854.527	37.31
854.962	36.81
855.397	46.21
855.832	48.91
856.266	39.41
856.701	37.31
857.136	34.81
857.57	37.61
858.005	47.61
858.44	56.31
858.874	40.61
859.309	50.51
859.743	46.41
860.178	41.71
860.612	36.71
861.047	46.31
861.481	65.71
861.915	68.91
862.35	45.61
862.784	28.21
863.218	41.31
863.653	31.31
864.087	38.31
864.521	51.51
864.955	75.61
865.39	163.61
865.824	174.31
866.258	110.81
866.692	159.01
867.126	174.11
867.56	104.51
867.994	53.61
868.428	44.61
868.862	38.01
869.296	52.81
869.73	56.81
870.164	49.01
870.598	49.31
871.031	41.91
871.465	32.61
871.899	28.31
872.333	30.21
872.766	22.31
873.2	21.51
873.634	31.01
874.067	25.61
874.501	26.21
874.935	34.11
875.368	32.91
875.802	31.61
876.235	29.01
876.669	24.31
877.102	24.91
877.535	21.41
877.969	18.81
878.402	21.01
878.836	21.41
879.269	23.51
879.702	27.71
880.135	28.31
880.569	21.91
881.002	31.91
881.435	22.01
881.868	17.21
882.301	20.21
882.734	19.91
883.167	19.11
883.601	23.51
884.034	21.41
884.467	10.91
884.899	20.41
885.332	12.41
885.765	13.11
886.198	17.61
886.631	18.01
887.064	22.71
887.497	18.31
887.929	24.01
888.362	12.81
888.795	9.71
889.228	18.71
889.66	25.21
890.093	19.31
890.526	17.11
890.958	15.91
891.391	23.81
891.823	22.41
892.256	18.01
892.688	19.41
893.121	19.31
893.553	12.81
893.985	24.61
894.418	15.01
894.85	12.51
895.282	16.61
895.715	11.51
896.147	17.21
896.579	13.51
897.011	14.81
897.444	17.01
897.876	8.41
898.308	18.71
898.74	11.71
899.172	15.71
899.604	21.01
900.036	19.01
900.468	16.11
900.9	19.01
901.332	20.71
901.764	16.41
902.196	15.31
902.628	17.61
903.06	20.91
903.491	32.41
903.923	23.01
904.355	20.81
904.787	22.91
905.218	18.61
905.65	22.11
906.082	15.01
906.513	12.81
906.945	16.41
907.376	13.81
907.808	25.51
908.239	20.91
908.671	15.11
909.102	18.81
909.534	22.71
909.965	45.91
910.397	88.81
910.828	310.01
911.259	470.91
911.691	219.91
912.122	104.81
912.553	51.91
912.984	33.31
913.415	26.41
913.847	24.21
914.278	16.51
914.709	11.01
915.14	19.01
915.571	14.81
916.002	11.81
916.433	20.21
916.864	17.21
917.295	15.21
917.726	18.21
918.157	15.21
918.587	25.51
919.018	20.41
919.449	20.41
919.88	24.31
920.311	31.21
920.741	44.71
921.172	160.71
921.603	148.21
922.033	64.01
922.464	48.71
922.895	24.01
923.325	19.11
923.756	15.41
924.186	12.51
924.617	24.61
925.047	37.41
925.478	48.71
925.908	37.91
926.338	28.41
926.769	23.31
927.199	18.21
927.629	7.51
928.06	17.01
928.49	15.31
928.92	16.21
929.35	12.81
929.78	13.51
930.21	7.11
930.641	6.91
931.071	9.81
931.501	3.61
931.931	13.71
932.361	7.61
932.791	5.21
933.221	9.91
933.651	7.91
934.08	18.11
934.51	27.31
934.94	12.81
935.37	14.21
935.8	13.21
936.229	10.41
936.659	11.51
937.089	3.31
937.519	12.71
937.948	20.91
938.378	15.21
938.807	1.71
939.237	6.41
939.666	9.41
940.096	-3.69
940.525	-0.49
940.955	1.01
941.384	4.21
941.814	-0.49
942.243	-6.59
942.672	-0.39
943.102	-0.19
943.531	1.01
943.96	-4.59
944.39	1.11
944.819	-2.99
945.248	5.01
945.677	4.91
946.106	4.61
946.535	10.21
946.964	0.21
947.393	-0.89
947.822	1.21
948.251	1.11
948.68	6.61
949.109	8.21
949.538	7.41
949.967	3.81
950.396	1.01
950.825	-0.79
951.254	3.51
951.682	-6.59
952.111	2.71
952.54	6.01
952.969	-4.59
953.397	-2.39
953.826	-1.59
954.254	-8.19
954.683	-4.39
955.112	-3.19
955.54	4.51
955.969	4.81
956.397	0.81
956.826	-3.79
957.254	4.51
957.682	4.71
958.111	7.31
958.539	-1.19
958.967	1.11
959.396	-1.99
959.824	1.81
960.252	1.61
960.68	-1.49
961.109	-3.19
961.537	-6.69
961.965	-4.09
962.393	4.71
962.821	-0.19
963.249	2.71
963.677	1.81
964.105	2.91
964.533	41.01
964.961	38.11
965.389	19.71
965.817	6.81
966.245	1.41
966.672	0.81
967.1	-5.39
967.528	-0.99
967.956	-6.29
968.383	-1.79
968.811	-3.09
969.239	-0.09
969.666	-2.49
970.094	1.81
970.522	3.41
970.949	-1.09
971.377	-0.99
971.804	2.81
972.232	0.91
972.659	0.21
973.087	-5.99
973.514	-4.29
973.941	-2.69
974.369	0.81
974.796	-2.79
975.223	-4.99
975.651	0.01
976.078	3.31
976.505	-3.19
976.932	8.01
977.359	13.31
977.786	13.81
978.214	1.41
978.641	-4.59
979.068	-3.09
979.495	-1.69
979.922	-1.59
980.349	-1.09
980.776	2.51
981.202	1.51
981.629	1.31
982.056	9.51
982.483	-2.49
982.91	3.81
983.337	-8.69
983.763	4.41
984.19	-0.29
984.617	-1.89
985.043	-0.09
985.47	-4.09
985.897	-4.49
986.323	-4.99
986.75	2.91
987.176	4.21
987.603	-0.59
988.029	0.91
988.456	-2.99
988.882	1.01
989.308	-5.29
989.735	-8.99
990.161	-4.09
990.587	-11.49
991.014	1.51
991.44	7.11
991.866	1.61
992.292	-7.39
992.719	-2.79
993.145	6.81
993.571	-3.99
993.997	-5.29
994.423	-4.89
994.849	-9.19
995.275	0.01
995.701	2.31
996.127	-5.49
996.553	1.21
996.979	0.41
997.405	-1.69
997.83	-3.69
998.256	0.61
998.682	-1.09
999.108	-10.59
999.534	-4.49
999.959	-4.49
1000.385	-6.19
1000.811	-2.69
1001.236	-4.19
1001.662	-5.99
1002.087	-4.89
1002.513	6.21
1002.938	0.11
1003.364	-3.29
1003.789	-1.99
1004.215	2.51
1004.64	-1.89
1005.066	5.51
1005.491	1.11
1005.916	1.51
1006.342	-3.29
1006.767	-0.69
1007.192	8.01
1007.617	-7.79
1008.042	-7.19
1008.468	-7.49
1008.893	-2.29
1009.318	-3.39
1009.743	2.31
1010.168	0.81
1010.593	1.31
1011.018	-7.59
1011.443	-1.59
1011.868	-0.39
1012.293	-1.39
1012.718	-6.59
1013.143	-5.89
1013.567	3.31
1013.992	-10.69
1014.417	-9.29
1014.842	5.91
1015.267	-10.09
1015.691	-8.69
1016.116	1.51
1016.541	-1.39
1016.965	-3.99
1017.39	-1.29
1017.814	-2.79
1018.239	3.31
1018.663	-7.39
1019.088	-12.09
1019.512	-4.79
1019.937	1.01
1020.361	0.31
1020.785	-14.19
1021.21	-0.99
1021.634	-2.49
1022.058	0.41
1022.483	5.81
1022.907	-4.69
1023.331	-2.09
1023.755	-5.59
1024.179	-4.89
1024.604	-12.19
1025.028	-3.79
1025.452	-6.09
1025.876	0.91
1026.3	2.51
1026.724	-7.29
1027.148	1.41
1027.572	-3.79
1027.996	-4.99
1028.42	-3.79
1028.843	-7.09
1029.267	-7.19
1029.691	-0.49
1030.115	-8.49
1030.539	-7.19
1030.962	-7.59
1031.386	-8.69
1031.81	3.91
1032.233	-2.29
1032.657	-9.39
1033.08	-5.09
1033.504	-5.99
1033.927	-7.89
1034.351	0.01
1034.774	-5.39
1035.198	-0.89
1035.621	-6.79
1036.045	-6.09
1036.468	0.21
1036.891	-11.99
1037.315	-10.29
1037.738	-14.89
1038.161	1.31
1038.584	-6.69
1039.008	-3.09
1039.431	-10.29
1039.854	-0.99
1040.277	-9.69
1040.7	-9.49
1041.123	-0.79
1041.546	-8.09
1041.969	-6.39
1042.392	-6.89
1042.815	-4.39
1043.238	-1.89
1043.661	2.71
1044.084	-2.99
1044.507	-8.39
1044.93	1.71
1045.352	-6.09
1045.775	-1.99
1046.198	2.01
1046.621	-0.29
1047.043	-5.29
1047.466	7.81
1047.889	0.41
1048.311	-2.99
1048.734	0.91
1049.156	-0.49
1049.579	-1.39
1050.001	-1.79
1050.424	-1.19
1050.846	-7.69
1051.269	-8.49
1051.691	-5.89
1052.113	-1.09
1052.536	1.81
1052.958	-4.29
1053.38	-5.39
1053.802	-3.69
1054.225	-1.19
1054.647	-8.49
1055.069	1.01
1055.491	-0.09
1055.913	-2.19
1056.335	-6.49
1056.757	-6.29
1057.179	-9.59
1057.601	-5.29
1058.023	-4.49
1058.445	-3.29
1058.867	0.81
1059.289	0.61
1059.711	-6.09
1060.133	-3.99
1060.555	-5.59
1060.976	-3.39
1061.398	-8.79
1061.82	-7.89
1062.241	-3.79
1062.663	1.61
1063.085	-2.19
1063.506	-4.49
1063.928	-4.09
1064.35	-0.89
1064.771	-10.29
1065.193	-1.09
1065.614	-12.79
1066.035	2.81
1066.457	-1.39
1066.878	-4.29
1067.3	-6.89
1067.721	-7.89
1068.142	-5.39
1068.564	-2.79
1068.985	-3.19
1069.406	-7.29
1069.827	-3.69
1070.248	2.81
1070.67	-4.49
1071.091	-7.09
1071.512	-7.49
1071.933	-5.29
1072.354	-3.19
1072.775	-10.19
1073.196	-8.89
1073.617	-1.39
1074.038	-4.69
1074.459	-2.79
1074.88	-9.49
1075.3	-6.19
1075.721	-1.09
1076.142	-2.19
1076.563	-5.39
1076.983	-7.59
1077.404	-6.39
1077.825	-7.29
1078.246	-3.69
1078.666	-13.29
1079.087	-3.39
1079.507	-8.69
1079.928	-4.49
1080.348	-1.99
1080.769	-7.09
1081.189	-0.09
1081.61	0.01
1082.03	-7.59
1082.451	-4.79
1082.871	-4.39
1083.291	-10.09
1083.711	-2.79
1084.132	-10.99
1084.552	-3.59
1084.972	-0.89
1085.392	-14.79
1085.813	-10.79
1086.233	-7.39
1086.653	-8.49
1087.073	4.41
1087.493	-8.39
1087.913	-4.79
1088.333	-7.89
1088.753	-11.49
1089.173	2.01
1089.593	-2.19
1090.013	-0.39
1090.433	7.21
1090.852	-6.19
1091.272	-7.59
1091.692	-4.59
1092.112	-3.59
1092.531	-12.09
1092.951	-18.59
1093.371	-4.39
1093.79	0.31
1094.21	-1.79
1094.63	-6.59
1095.049	-2.49
1095.469	0.41
1095.888	-2.59
1096.308	4.81
1096.727	9.81
1097.146	-11.39
1097.566	-1.89
1097.985	-3.39
1098.405	-1.29
1098.824	-3.89
1099.243	-9.09
1099.662	-9.69
1100.082	-7.59
1100.501	-1.89
1100.92	-9.59
1101.339	-5.19
1101.758	-1.79
