Data from 20171114-ORNL-Ar_H_NY_Subt18_08-03-36-948.txt Node
Date: Tue Nov 14 08:03:36 EST 2017
User: Ender
Spectrometer: HR+D1039
Trigger mode: 0
Integration Time (sec): 2.730000E-2
Scans to average: 10
Electric dark correction enabled: true
Nonlinearity correction enabled: false
Boxcar width: 0
XAxis mode: Wavelengths
Number of Pixels in Spectrum: 2048
>>>>>Begin Spectral Data<<<<<
187.836	-3.67
188.309	-3.67
188.782	-3.67
189.255	-0.27
189.728	0.43
190.201	5.83
190.674	5.73
191.147	6.53
191.619	-0.37
192.092	-3.57
192.565	6.43
193.038	-6.77
193.511	-4.37
193.984	-0.47
194.456	-3.27
194.929	0.53
195.402	-5.37
195.874	2.63
196.347	-3.87
196.82	-6.07
197.292	4.33
197.765	0.53
198.237	-4.47
198.71	3.33
199.182	0.43
199.655	4.83
200.127	-2.27
200.6	-11.07
201.072	-1.67
201.544	-5.17
202.017	-2.27
202.489	2.53
202.961	-0.97
203.433	-6.97
203.906	-9.47
204.378	-11.77
204.85	-11.57
205.322	-7.57
205.794	1.93
206.266	-4.27
206.739	-11.97
207.211	1.03
207.683	-4.57
208.155	-8.87
208.627	-10.97
209.099	-4.17
209.57	-10.97
210.042	-6.67
210.514	-3.37
210.986	1.13
211.458	-10.97
211.93	-7.27
212.402	-0.47
212.873	-6.17
213.345	-7.37
213.817	-15.67
214.288	-5.67
214.76	-15.77
215.232	-3.47
215.703	-5.67
216.175	-8.87
216.646	-6.17
217.118	-7.97
217.589	-8.57
218.061	-2.97
218.532	-9.07
219.004	-4.47
219.475	-6.37
219.946	-5.97
220.418	-6.77
220.889	2.03
221.36	-0.97
221.832	-3.67
222.303	-8.07
222.774	3.43
223.245	-11.47
223.717	-6.37
224.188	-4.67
224.659	-9.47
225.13	-8.47
225.601	-2.57
226.072	0.23
226.543	-2.77
227.014	-1.57
227.485	-4.97
227.956	-6.87
228.427	-3.87
228.898	-1.47
229.369	-0.97
229.839	-1.67
230.31	-8.17
230.781	-0.07
231.252	-6.87
231.722	-9.77
232.193	-0.47
232.664	-1.77
233.135	-3.47
233.605	-10.27
234.076	-5.37
234.546	-4.67
235.017	-5.37
235.487	-2.57
235.958	-8.57
236.428	-10.47
236.899	-3.87
237.369	-1.47
237.84	-2.37
238.31	-0.37
238.78	-4.97
239.251	-8.47
239.721	-7.07
240.191	-6.87
240.662	-14.57
241.132	-7.27
241.602	-6.57
242.072	-5.87
242.542	3.33
243.013	-5.97
243.483	-3.17
243.953	-0.17
244.423	-8.67
244.893	-11.07
245.363	-4.57
245.833	-5.87
246.303	-8.17
246.773	6.53
247.243	-4.87
247.712	-1.17
248.182	-1.97
248.652	1.03
249.122	-15.77
249.592	2.23
250.061	-8.17
250.531	-1.27
251.001	-4.27
251.471	-0.47
251.94	1.43
252.41	-3.47
252.879	-6.17
253.349	5.43
253.818	4.93
254.288	0.43
254.757	-0.57
255.227	-9.17
255.696	0.43
256.166	1.03
256.635	0.33
257.105	-0.17
257.574	-1.87
258.043	-4.67
258.513	-11.07
258.982	-0.87
259.451	-7.07
259.92	-3.77
260.389	-6.27
260.859	2.23
261.328	-7.37
261.797	0.73
262.266	-7.37
262.735	1.63
263.204	0.13
263.673	-8.27
264.142	0.23
264.611	-6.37
265.08	-9.07
265.549	-10.07
266.018	-2.57
266.487	-11.07
266.955	-8.87
267.424	-10.07
267.893	-1.67
268.362	-4.27
268.83	-5.37
269.299	2.33
269.768	-1.87
270.236	-0.07
270.705	-1.57
271.174	-5.87
271.642	2.53
272.111	2.03
272.579	0.43
273.048	-7.27
273.516	-6.37
273.985	2.43
274.453	7.53
274.922	3.53
275.39	-0.87
275.858	-8.47
276.327	2.93
276.795	9.13
277.263	-4.77
277.731	10.63
278.2	-2.47
278.668	-3.77
279.136	1.93
279.604	-4.57
280.072	-2.57
280.54	-1.07
281.008	-0.97
281.477	6.33
281.945	2.73
282.413	7.03
282.881	3.63
283.348	-1.77
283.816	2.73
284.284	4.83
284.752	11.23
285.22	-0.57
285.688	0.43
286.156	3.63
286.623	6.63
287.091	-0.77
287.559	3.83
288.026	3.23
288.494	2.63
288.962	-3.67
289.429	1.23
289.897	9.03
290.364	4.83
290.832	11.33
291.3	5.73
291.767	6.73
292.234	4.93
292.702	-1.37
293.169	1.73
293.637	9.03
294.104	6.73
294.571	-3.37
295.039	2.03
295.506	-0.27
295.973	6.13
296.44	7.63
296.908	4.23
297.375	2.63
297.842	1.03
298.309	-3.07
298.776	0.43
299.243	5.53
299.71	-4.97
300.177	8.03
300.644	7.63
301.111	3.63
301.578	3.73
302.045	8.83
302.512	6.03
302.979	6.03
303.446	5.53
303.913	1.63
304.379	-1.37
304.846	13.63
305.313	8.73
305.78	5.53
306.246	6.83
306.713	3.03
307.18	11.73
307.646	10.83
308.113	5.33
308.579	1.53
309.046	8.13
309.512	7.23
309.979	2.63
310.445	13.83
310.912	10.93
311.378	13.33
311.845	10.83
312.311	13.23
312.777	11.23
313.244	12.13
313.71	22.43
314.176	10.83
314.642	14.83
315.109	2.53
315.575	16.83
316.041	10.43
316.507	11.53
316.973	16.73
317.439	13.43
317.905	14.23
318.371	16.83
318.837	18.73
319.303	11.93
319.769	17.53
320.235	11.13
320.701	21.33
321.167	19.33
321.633	17.23
322.099	17.53
322.564	24.53
323.03	12.63
323.496	15.43
323.962	24.43
324.427	15.33
324.893	22.03
325.359	20.03
325.824	14.53
326.29	17.23
326.755	17.33
327.221	18.63
327.686	18.23
328.152	22.23
328.617	19.23
329.083	21.23
329.548	29.63
330.014	20.33
330.479	19.03
330.944	17.83
331.41	19.43
331.875	24.63
332.34	21.63
332.805	18.23
333.271	19.43
333.736	15.93
334.201	30.73
334.666	22.93
335.131	24.63
335.596	30.13
336.061	24.83
336.526	17.83
336.991	23.23
337.456	31.93
337.921	20.63
338.386	25.03
338.851	23.93
339.316	29.83
339.781	21.93
340.246	29.13
340.711	26.53
341.175	27.93
341.64	15.03
342.105	29.33
342.569	30.83
343.034	32.43
343.499	25.93
343.963	26.73
344.428	36.83
344.893	34.43
345.357	33.43
345.822	39.93
346.286	39.93
346.751	36.33
347.215	38.83
347.679	34.73
348.144	53.13
348.608	49.33
349.073	39.13
349.537	42.73
350.001	42.93
350.465	48.33
350.93	40.53
351.394	43.03
351.858	36.33
352.322	48.83
352.786	45.43
353.25	52.53
353.715	60.93
354.179	54.83
354.643	66.13
355.107	61.13
355.571	60.73
356.035	57.13
356.498	63.63
356.962	62.83
357.426	69.73
357.89	60.63
358.354	52.43
358.818	53.23
359.281	48.83
359.745	43.23
360.209	41.63
360.673	42.23
361.136	48.33
361.6	54.53
362.064	53.03
362.527	56.33
362.991	53.93
363.454	49.53
363.918	51.53
364.381	49.43
364.845	57.43
365.308	52.23
365.772	65.33
366.235	59.73
366.698	51.33
367.162	52.03
367.625	47.53
368.088	54.23
368.552	51.13
369.015	48.13
369.478	62.93
369.941	64.43
370.404	55.93
370.867	68.53
371.331	68.13
371.794	66.93
372.257	61.53
372.72	69.83
373.183	61.33
373.646	59.13
374.109	60.63
374.572	64.53
375.035	66.73
375.497	68.03
375.96	65.63
376.423	67.63
376.886	67.93
377.349	76.23
377.811	65.63
378.274	69.13
378.737	64.33
379.199	70.33
379.662	70.83
380.125	69.23
380.587	67.43
381.05	71.83
381.512	70.93
381.975	87.83
382.437	75.73
382.9	79.03
383.362	82.63
383.825	88.53
384.287	88.13
384.75	77.43
385.212	88.53
385.674	82.73
386.136	90.93
386.599	77.33
387.061	80.03
387.523	85.43
387.985	85.33
388.447	89.83
388.91	88.03
389.372	89.53
389.834	87.03
390.296	83.23
390.758	87.83
391.22	90.83
391.682	101.53
392.144	97.43
392.606	92.93
393.068	94.83
393.529	108.03
393.991	95.93
394.453	93.73
394.915	93.33
395.377	92.93
395.838	88.03
396.3	91.53
396.762	104.33
397.224	102.23
397.685	90.53
398.147	92.33
398.608	91.13
399.07	96.03
399.531	98.53
399.993	100.23
400.454	107.13
400.916	109.13
401.377	106.43
401.839	107.03
402.3	109.83
402.762	123.03
403.223	125.23
403.684	128.03
404.145	110.93
404.607	110.83
405.068	105.43
405.529	123.73
405.99	122.83
406.451	117.73
406.913	127.73
407.374	112.13
407.835	109.63
408.296	112.33
408.757	115.53
409.218	127.93
409.679	120.13
410.14	120.63
410.601	121.83
411.062	125.13
411.522	136.43
411.983	120.63
412.444	123.53
412.905	136.23
413.366	139.63
413.826	150.43
414.287	172.53
414.748	214.93
415.208	207.53
415.669	173.83
416.13	160.23
416.59	159.23
417.051	169.93
417.511	178.23
417.972	190.43
418.432	200.23
418.893	246.23
419.353	212.23
419.814	165.23
420.274	149.53
420.734	140.03
421.195	150.13
421.655	145.53
422.115	153.43
422.576	153.23
423.036	157.13
423.496	155.03
423.956	168.43
424.416	178.73
424.876	207.73
425.336	189.53
425.797	187.23
426.257	189.63
426.717	173.33
427.177	170.33
427.637	144.53
428.097	153.63
428.556	156.23
429.016	179.83
429.476	160.93
429.936	164.03
430.396	158.63
430.856	166.43
431.315	180.33
431.775	199.93
432.235	222.53
432.694	200.63
433.154	210.23
433.614	215.13
434.073	193.83
434.533	171.83
434.993	167.83
435.452	176.23
435.912	180.63
436.371	176.33
436.83	176.63
437.29	176.63
437.749	163.13
438.209	170.93
438.668	179.63
439.127	184.83
439.587	177.43
440.046	172.13
440.505	179.43
440.964	189.33
441.424	215.43
441.883	210.33
442.342	192.53
442.801	168.23
443.26	172.83
443.719	170.33
444.178	178.73
444.637	162.73
445.096	167.43
445.555	176.43
446.014	178.83
446.473	183.13
446.932	179.73
447.391	177.73
447.849	178.83
448.308	170.23
448.767	170.93
449.226	188.33
449.685	182.23
450.143	198.03
450.602	184.13
451.061	181.53
451.519	182.23
451.978	178.43
452.436	179.23
452.895	188.43
453.353	182.83
453.812	173.23
454.27	184.23
454.729	182.03
455.187	179.13
455.646	186.03
456.104	181.43
456.562	197.33
457.021	200.03
457.479	193.63
457.937	198.23
458.395	195.63
458.854	185.73
459.312	186.13
459.77	194.93
460.228	189.63
460.686	184.23
461.144	193.23
461.602	186.83
462.06	184.33
462.518	195.63
462.976	189.13
463.434	189.23
463.892	187.83
464.35	199.13
464.808	205.93
465.266	196.03
465.724	208.53
466.181	200.33
466.639	204.83
467.097	217.63
467.555	221.13
468.012	216.23
468.47	219.13
468.928	233.93
469.385	239.73
469.843	238.73
470.3	245.63
470.758	246.33
471.215	255.43
471.673	274.03
472.13	275.83
472.588	286.93
473.045	261.73
473.503	270.13
473.96	265.43
474.417	268.23
474.875	287.93
475.332	307.03
475.789	298.23
476.246	295.63
476.704	306.63
477.161	318.03
477.618	309.23
478.075	327.13
478.532	344.43
478.989	356.63
479.446	399.53
479.903	355.33
480.36	353.43
480.817	342.03
481.274	357.13
481.731	367.63
482.188	368.23
482.645	385.93
483.102	390.83
483.558	412.53
484.015	421.23
484.472	415.73
484.929	411.03
485.385	416.13
485.842	417.13
486.299	433.43
486.755	456.93
487.212	429.43
487.668	395.73
488.125	393.63
488.582	389.03
489.038	377.23
489.494	384.83
489.951	381.63
490.407	385.33
490.864	384.63
491.32	384.33
491.776	402.43
492.233	411.13
492.689	374.43
493.145	386.13
493.602	395.13
494.058	396.43
494.514	394.83
494.97	410.63
495.426	416.73
495.882	397.83
496.338	403.83
496.794	406.93
497.251	394.33
497.707	413.23
498.163	417.53
498.618	410.23
499.074	415.53
499.53	428.73
499.986	440.33
500.442	426.33
500.898	411.03
501.354	406.53
501.809	415.43
502.265	423.53
502.721	429.83
503.177	431.93
503.632	432.93
504.088	429.43
504.543	437.33
504.999	450.23
505.455	441.03
505.91	427.13
506.366	436.13
506.821	424.73
507.277	426.03
507.732	434.23
508.187	430.13
508.643	435.43
509.098	428.23
509.553	442.03
510.009	456.53
510.464	445.23
510.919	459.03
511.375	457.93
511.83	473.63
512.285	474.03
512.74	488.23
513.195	501.13
513.65	489.23
514.105	502.43
514.56	502.13
515.015	506.23
515.47	527.73
515.925	510.33
516.38	515.43
516.835	526.03
517.29	513.53
517.745	503.93
518.2	505.13
518.655	491.73
519.109	484.73
519.564	482.83
520.019	467.23
520.474	465.03
520.928	468.53
521.383	467.23
521.838	452.13
522.292	464.73
522.747	467.53
523.201	461.23
523.656	459.73
524.11	455.73
524.565	456.43
525.019	447.83
525.474	449.93
525.928	446.93
526.382	446.53
526.837	448.03
527.291	443.23
527.745	443.23
528.2	444.43
528.654	437.43
529.108	440.23
529.562	443.53
530.016	443.13
530.47	433.73
530.925	433.23
531.379	435.33
531.833	436.93
532.287	432.83
532.741	430.93
533.195	429.83
533.649	436.73
534.103	447.93
534.556	431.33
535.01	437.23
535.464	429.13
535.918	442.53
536.372	441.33
536.826	443.43
537.279	433.03
537.733	444.23
538.187	440.03
538.64	436.43
539.094	445.23
539.548	444.53
540.001	447.83
540.455	441.03
540.908	448.93
541.362	462.03
541.815	466.03
542.269	471.63
542.722	468.73
543.175	471.73
543.629	481.03
544.082	482.23
544.536	480.43
544.989	486.23
545.442	490.83
545.895	482.73
546.349	482.33
546.802	482.93
547.255	498.83
547.708	499.13
548.161	504.53
548.614	502.73
549.067	509.73
549.52	508.33
549.973	491.33
550.426	487.43
550.879	474.13
551.332	480.53
551.785	489.33
552.238	487.53
552.691	488.33
553.144	498.23
553.596	507.93
554.049	518.33
554.502	536.83
554.955	547.03
555.407	538.23
555.86	533.73
556.313	526.43
556.765	524.23
557.218	515.83
557.67	507.33
558.123	508.43
558.576	500.63
559.028	516.83
559.48	525.33
559.933	523.63
560.385	495.13
560.838	484.73
561.29	467.53
561.742	466.83
562.195	451.03
562.647	446.83
563.099	459.83
563.551	458.23
564.004	462.73
564.456	452.93
564.908	437.53
565.36	427.23
565.812	420.73
566.264	416.03
566.716	414.83
567.168	402.43
567.62	405.03
568.072	405.43
568.524	403.53
568.976	396.83
569.428	391.73
569.88	387.43
570.332	386.33
570.784	385.53
571.235	390.33
571.687	401.63
572.139	407.73
572.59	404.33
573.042	406.73
573.494	397.93
573.945	399.53
574.397	379.43
574.849	382.23
575.3	381.93
575.752	372.13
576.203	379.83
576.655	381.23
577.106	371.03
577.557	369.43
578.009	375.83
578.46	373.23
578.912	370.43
579.363	364.73
579.814	353.73
580.265	362.83
580.717	362.33
581.168	365.53
581.619	373.13
582.07	377.33
582.521	368.13
582.972	362.53
583.423	369.33
583.875	363.23
584.326	373.93
584.777	372.43
585.227	393.43
585.678	378.83
586.129	394.03
586.58	407.33
587.031	417.23
587.482	431.23
587.933	432.73
588.384	435.93
588.834	431.33
589.285	427.93
589.736	432.73
590.186	425.63
590.637	420.93
591.088	412.93
591.538	404.53
591.989	402.93
592.439	398.13
592.89	382.13
593.34	377.23
593.791	384.33
594.241	369.53
594.692	375.83
595.142	367.03
595.593	369.83
596.043	377.83
596.493	374.13
596.943	380.43
597.394	380.03
597.844	384.63
598.294	391.13
598.744	403.93
599.195	413.23
599.645	441.13
600.095	460.83
600.545	499.73
600.995	517.83
601.445	562.93
601.895	587.73
602.345	624.13
602.795	606.73
603.245	578.93
603.695	543.23
604.145	515.73
604.594	487.03
605.044	446.43
605.494	431.13
605.944	387.93
606.393	391.93
606.843	382.93
607.293	385.23
607.743	372.53
608.192	384.53
608.642	394.33
609.091	398.63
609.541	394.83
609.99	390.33
610.44	397.93
610.889	374.53
611.339	360.03
611.788	349.53
612.238	357.03
612.687	361.63
613.136	360.73
613.586	364.83
614.035	357.83
614.484	368.03
614.933	369.93
615.383	374.93
615.832	369.03
616.281	355.33
616.73	346.23
617.179	336.63
617.628	325.33
618.077	328.13
618.526	310.13
618.975	313.63
619.424	314.93
619.873	307.13
620.322	309.03
620.771	299.83
621.22	299.43
621.669	296.33
622.118	300.13
622.567	291.23
623.015	277.23
623.464	285.93
623.913	273.93
624.361	270.43
624.81	265.13
625.259	267.63
625.707	277.03
626.156	269.03
626.604	284.33
627.053	277.43
627.501	279.53
627.95	288.33
628.398	283.93
628.847	275.33
629.295	283.83
629.744	280.03
630.192	280.53
630.64	278.53
631.089	260.93
631.537	252.03
631.985	248.23
632.433	256.53
632.881	245.13
633.33	259.83
633.778	245.33
634.226	241.03
634.674	258.03
635.122	250.73
635.57	261.23
636.018	269.63
636.466	256.03
636.914	264.03
637.362	272.93
637.81	276.03
638.258	283.73
638.705	278.93
639.153	290.63
639.601	292.03
640.049	298.43
640.497	318.63
640.944	339.63
641.392	301.13
641.84	282.13
642.287	256.43
642.735	242.83
643.182	248.53
643.63	242.23
644.078	241.53
644.525	245.23
644.973	235.53
645.42	247.23
645.867	246.83
646.315	247.73
646.762	249.03
647.21	247.13
647.657	241.43
648.104	236.63
648.551	238.53
648.999	229.93
649.446	235.53
649.893	227.43
650.34	233.83
650.787	234.23
651.234	248.63
651.682	264.63
652.129	278.13
652.576	294.53
653.023	350.23
653.47	403.13
653.917	443.43
654.363	484.83
654.81	525.93
655.257	512.53
655.704	403.63
656.151	313.93
656.598	277.93
657.044	243.53
657.491	239.33
657.938	228.83
658.385	228.13
658.831	231.13
659.278	241.33
659.724	225.53
660.171	223.23
660.618	209.53
661.064	212.73
661.511	212.63
661.957	228.23
662.404	214.73
662.85	240.23
663.296	219.73
663.743	216.53
664.189	213.33
664.635	215.83
665.082	215.13
665.528	216.73
665.974	218.63
666.42	212.13
666.867	204.83
667.313	200.13
667.759	199.33
668.205	191.23
668.651	198.13
669.097	193.43
669.543	199.93
669.989	190.73
670.435	204.03
670.881	195.53
671.327	197.23
671.773	207.53
672.219	219.83
672.665	252.13
673.11	264.13
673.556	306.53
674.002	325.23
674.448	318.43
674.893	266.03
675.339	228.13
675.785	209.63
676.23	201.73
676.676	176.43
677.122	177.33
677.567	174.33
678.013	169.53
678.458	171.43
678.904	169.53
679.349	165.73
679.794	167.23
680.24	162.23
680.685	159.13
681.131	154.73
681.576	163.03
682.021	172.33
682.466	168.13
682.912	159.03
683.357	153.43
683.802	171.33
684.247	193.23
684.692	220.53
685.137	235.33
685.583	269.43
686.028	284.33
686.473	255.33
686.918	211.73
687.363	198.43
687.807	182.83
688.252	176.13
688.697	173.43
689.142	160.63
689.587	159.93
690.032	145.53
690.477	157.53
690.921	162.13
691.366	182.73
691.811	182.13
692.255	208.63
692.7	220.23
693.145	234.13
693.589	331.23
694.034	550.63
694.478	791.03
694.923	920.33
695.367	1224.53
695.812	634.93
696.256	243.13
696.701	183.53
697.145	164.93
697.59	148.83
698.034	149.73
698.478	156.73
698.922	146.63
699.367	147.63
699.811	158.13
700.255	163.23
700.699	187.43
701.143	203.23
701.588	231.33
702.032	256.93
702.476	249.43
702.92	234.33
703.364	235.13
703.808	298.63
704.252	500.83
704.696	728.33
705.14	887.83
705.584	1164.93
706.027	557.93
706.471	254.83
706.915	193.33
707.359	168.83
707.803	153.33
708.246	143.43
708.69	152.53
709.134	152.63
709.577	151.33
710.021	151.93
710.465	149.33
710.908	140.23
711.352	140.93
711.795	148.73
712.239	162.43
712.682	178.23
713.126	199.03
713.569	228.03
714.012	177.73
714.456	147.83
714.899	128.73
715.342	120.03
715.786	117.93
716.229	123.73
716.672	115.73
717.115	117.03
717.558	113.53
718.002	109.13
718.445	124.03
718.888	131.83
719.331	134.03
719.774	142.83
720.217	148.03
720.66	135.63
721.103	128.73
721.546	116.93
721.989	113.53
722.432	98.03
722.874	112.33
723.317	101.93
723.76	104.53
724.203	117.33
724.645	152.33
725.088	214.33
725.531	269.93
725.974	328.83
726.416	272.13
726.859	149.93
727.301	114.43
727.744	110.43
728.187	108.53
728.629	110.73
729.071	117.63
729.514	124.73
729.956	133.13
730.399	132.83
730.841	140.83
731.283	126.73
731.726	123.53
732.168	118.03
732.61	127.33
733.053	135.93
733.495	152.53
733.937	164.03
734.379	190.33
734.821	203.13
735.263	263.23
735.705	396.73
736.148	764.53
736.59	1305.43
737.032	1656.73
737.474	1358.83
737.916	421.33
738.357	211.93
738.799	153.93
739.241	139.33
739.683	135.43
740.125	140.53
740.567	144.23
741.008	157.23
741.45	152.73
741.892	150.63
742.334	174.33
742.775	183.13
743.217	174.13
743.658	129.73
744.1	124.33
744.542	123.83
744.983	158.43
745.425	183.93
745.866	174.93
746.307	135.03
746.749	129.23
747.19	153.93
747.632	211.13
748.073	412.63
748.514	923.93
748.956	1482.63
749.397	1844.13
749.838	1543.63
750.279	1605.13
750.72	811.33
751.162	284.73
751.603	165.23
752.044	127.03
752.485	96.83
752.926	100.33
753.367	92.63
753.808	86.33
754.249	93.33
754.69	87.53
755.131	85.03
755.572	83.93
756.013	85.03
756.453	84.33
756.894	76.33
757.335	84.43
757.776	95.03
758.216	95.43
758.657	90.53
759.098	85.93
759.538	102.93
759.979	125.73
760.42	172.73
760.86	332.53
761.301	870.33
761.741	2189.23
762.182	3483.63
762.622	2512.03
763.063	703.93
763.503	273.23
763.943	158.93
764.384	126.23
764.824	104.33
765.264	97.13
765.705	92.43
766.145	80.73
766.585	77.23
767.025	81.23
767.465	72.03
767.906	79.33
768.346	86.43
768.786	81.03
769.226	91.73
769.666	150.13
770.106	281.83
770.546	755.83
770.986	1395.43
771.426	1302.03
771.866	423.43
772.306	157.93
772.745	98.73
773.185	79.53
773.625	72.93
774.065	62.13
774.505	76.53
774.944	93.03
775.384	183.23
775.824	321.53
776.263	324.93
776.703	149.73
777.142	73.13
777.582	59.63
778.021	49.93
778.461	51.93
778.9	51.63
779.34	59.33
779.779	44.33
780.219	39.63
780.658	40.73
781.097	44.43
781.537	50.43
781.976	41.33
782.415	32.83
782.855	44.03
783.294	40.53
783.733	41.43
784.172	46.93
784.611	41.63
785.05	46.93
785.489	45.73
785.928	50.13
786.367	57.43
786.806	52.03
787.245	57.93
787.684	61.93
788.123	65.53
788.562	57.93
789.001	55.83
789.44	58.43
789.879	50.33
790.317	51.03
790.756	56.33
791.195	53.83
791.634	64.63
792.072	92.93
792.511	170.23
792.95	484.53
793.388	1115.93
793.827	1062.13
794.265	352.13
794.704	145.43
795.142	86.23
795.581	69.53
796.019	63.63
796.458	65.23
796.896	47.73
797.334	63.03
797.773	71.73
798.211	97.43
798.649	204.43
799.087	496.93
799.526	819.83
799.964	1033.33
800.402	1113.33
800.84	408.43
801.278	154.33
801.716	86.03
802.154	72.43
802.592	68.23
803.03	64.83
803.468	58.23
803.906	65.33
804.344	71.23
804.782	67.23
805.22	62.23
805.658	50.63
806.096	72.83
806.533	77.03
806.971	79.23
807.409	103.63
807.847	147.43
808.284	307.33
808.722	928.23
809.16	1757.43
809.597	1603.43
810.035	2814.03
810.472	3226.33
810.91	1163.03
811.347	424.93
811.785	211.63
812.222	134.33
812.66	95.33
813.097	79.03
813.535	68.53
813.972	60.43
814.409	60.83
814.846	48.43
815.284	55.23
815.721	47.63
816.158	48.33
816.595	46.13
817.032	75.53
817.47	94.53
817.907	69.73
818.344	45.53
818.781	42.43
819.218	37.63
819.655	54.33
820.092	106.33
820.529	113.93
820.966	96.73
821.403	71.43
821.839	47.53
822.276	37.03
822.713	57.83
823.15	71.43
823.587	48.43
824.023	65.73
824.46	133.43
824.897	445.73
825.333	736.73
825.77	315.43
826.206	109.83
826.643	66.63
827.08	47.83
827.516	41.83
827.953	28.43
828.389	41.43
828.825	27.63
829.262	29.93
829.698	26.73
830.135	20.83
830.571	23.03
831.007	22.03
831.443	27.33
831.88	25.33
832.316	23.13
832.752	26.13
833.188	28.73
833.624	25.83
834.06	29.33
834.497	31.53
834.933	28.43
835.369	34.33
835.805	26.73
836.241	31.83
836.677	31.33
837.112	38.13
837.548	45.53
837.984	57.03
838.42	90.53
838.856	234.13
839.292	775.13
839.727	1259.23
840.163	580.63
840.599	460.13
841.034	1063.13
841.47	1184.83
841.906	424.73
842.341	162.03
842.777	94.43
843.212	102.53
843.648	93.93
844.083	49.73
844.519	35.23
844.954	31.43
845.39	18.53
845.825	22.73
846.261	24.53
846.696	21.73
847.131	23.43
847.566	22.33
848.002	21.23
848.437	19.43
848.872	30.63
849.307	26.63
849.742	34.43
850.177	77.53
850.613	278.43
851.048	473.83
851.483	200.33
851.918	68.33
852.353	37.83
852.788	23.63
853.223	19.93
853.657	24.03
854.092	16.43
854.527	16.93
854.962	15.43
855.397	19.83
855.832	26.63
856.266	18.03
856.701	18.63
857.136	13.43
857.57	19.23
858.005	19.13
858.44	28.63
858.874	19.43
859.309	26.33
859.743	13.33
860.178	21.93
860.612	13.83
861.047	23.13
861.481	34.33
861.915	38.13
862.35	26.13
862.784	10.93
863.218	11.13
863.653	15.03
864.087	29.13
864.521	22.63
864.955	30.53
865.39	75.63
865.824	86.43
866.258	60.73
866.692	89.33
867.126	111.53
867.56	57.43
867.994	22.83
868.428	20.93
868.862	22.83
869.296	31.23
869.73	30.03
870.164	26.73
870.598	22.83
871.031	15.23
871.465	5.33
871.899	14.13
872.333	4.03
872.766	9.23
873.2	7.03
873.634	11.53
874.067	17.03
874.501	11.73
874.935	17.43
875.368	12.33
875.802	9.33
876.235	10.23
876.669	6.83
877.102	8.13
877.535	8.43
877.969	7.93
878.402	8.03
878.836	-0.27
879.269	9.43
879.702	9.53
880.135	11.03
880.569	1.13
881.002	13.53
881.435	2.23
881.868	2.73
882.301	10.13
882.734	7.03
883.167	9.33
883.601	4.03
884.034	7.13
884.467	-5.57
884.899	12.23
885.332	1.33
885.765	-5.07
886.198	11.23
886.631	11.83
887.064	9.13
887.497	10.23
887.929	14.63
888.362	2.63
888.795	-0.77
889.228	0.23
889.66	8.03
890.093	4.83
890.526	7.53
890.958	5.83
891.391	6.43
891.823	12.13
892.256	3.23
892.688	-0.57
893.121	2.53
893.553	2.93
893.985	10.33
894.418	9.23
894.85	-1.47
895.282	8.53
895.715	8.83
896.147	2.33
896.579	12.03
897.011	4.83
897.444	5.73
897.876	4.23
898.308	9.93
898.74	1.33
899.172	3.13
899.604	11.83
900.036	5.93
900.468	-1.07
900.9	5.73
901.332	9.73
901.764	-1.27
902.196	7.33
902.628	7.03
903.06	6.43
903.491	14.43
903.923	6.03
904.355	6.43
904.787	11.13
905.218	10.43
905.65	9.03
906.082	-0.27
906.513	-0.37
906.945	2.43
907.376	-3.97
907.808	3.73
908.239	8.83
908.671	1.13
909.102	5.53
909.534	5.63
909.965	18.43
910.397	41.53
910.828	162.43
911.259	264.73
911.691	112.03
912.122	54.83
912.553	23.83
912.984	14.73
913.415	10.33
913.847	9.03
914.278	3.63
914.709	-2.67
915.14	9.33
915.571	4.53
916.002	-2.07
916.433	4.33
916.864	9.23
917.295	4.13
917.726	8.13
918.157	-0.17
918.587	13.23
919.018	6.13
919.449	7.03
919.88	7.93
920.311	12.63
920.741	23.83
921.172	86.13
921.603	70.23
922.033	36.33
922.464	26.83
922.895	6.43
923.325	13.43
923.756	5.53
924.186	2.43
924.617	7.93
925.047	0.53
925.478	5.43
925.908	7.93
926.338	5.23
926.769	2.73
927.199	4.13
927.629	-1.67
928.06	1.93
928.49	4.93
928.92	8.03
929.35	5.03
929.78	3.93
930.21	-1.17
930.641	-0.37
931.071	4.63
931.501	-1.57
931.931	1.03
932.361	1.63
932.791	-3.57
933.221	-0.97
933.651	-4.17
934.08	3.33
934.51	11.93
934.94	-0.77
935.37	8.53
935.8	6.63
936.229	4.13
936.659	4.33
937.089	1.83
937.519	5.73
937.948	9.43
938.378	7.63
938.807	2.53
939.237	2.73
939.666	1.53
940.096	-7.27
940.525	-3.37
940.955	-3.67
941.384	-5.27
941.814	-8.17
942.243	-8.47
942.672	1.23
943.102	-4.57
943.531	-0.47
943.96	0.93
944.39	0.73
944.819	-1.87
945.248	-1.57
945.677	2.33
946.106	-0.17
946.535	-1.77
946.964	-3.97
947.393	-1.07
947.822	-0.17
948.251	-6.37
948.68	-0.47
949.109	-2.17
949.538	2.03
949.967	-3.37
950.396	2.73
950.825	-3.07
951.254	-0.27
951.682	-3.27
952.111	-0.47
952.54	6.53
952.969	-8.27
953.397	-10.07
953.826	-6.37
954.254	-3.67
954.683	1.03
955.112	-6.67
955.54	0.53
955.969	-1.47
956.397	-3.27
956.826	-10.57
957.254	-1.27
957.682	-2.47
958.111	4.43
958.539	-5.57
958.967	1.03
959.396	-3.47
959.824	-5.47
960.252	-3.87
960.68	-8.07
961.109	-4.07
961.537	-5.77
961.965	-3.07
962.393	1.73
962.821	-0.37
963.249	-2.87
963.677	1.53
964.105	-1.57
964.533	23.53
964.961	22.23
965.389	9.23
965.817	5.33
966.245	0.13
966.672	-5.77
967.1	-13.57
967.528	-4.97
967.956	-6.97
968.383	0.43
968.811	-8.07
969.239	-1.17
969.666	-3.97
970.094	1.83
970.522	-8.37
970.949	-7.37
971.377	-5.07
971.804	-8.37
972.232	-4.27
972.659	-5.47
973.087	-8.67
973.514	-5.17
973.941	-7.97
974.369	-2.57
974.796	-1.47
975.223	-1.37
975.651	-4.87
976.078	1.23
976.505	-5.17
976.932	-6.57
977.359	4.63
977.786	10.43
978.214	-2.47
978.641	-6.67
979.068	-6.27
979.495	-6.77
979.922	-2.37
980.349	-6.47
980.776	1.93
981.202	-0.27
981.629	0.53
982.056	2.23
982.483	-8.37
982.91	1.83
983.337	-8.87
983.763	2.03
984.19	-8.27
984.617	-10.57
985.043	-10.87
985.47	-1.87
985.897	-9.77
986.323	-9.67
986.75	1.63
987.176	2.93
987.603	-9.87
988.029	-1.67
988.456	-7.07
988.882	2.03
989.308	-7.97
989.735	-9.37
990.161	2.33
990.587	-8.57
991.014	-3.67
991.44	4.63
991.866	-5.67
992.292	-7.97
992.719	-2.97
993.145	2.73
993.571	-9.07
993.997	-9.37
994.423	-5.47
994.849	-2.27
995.275	-0.67
995.701	-1.87
996.127	-4.27
996.553	-1.27
996.979	-9.97
997.405	-9.27
997.83	-8.47
998.256	-5.77
998.682	-6.87
999.108	-6.97
999.534	2.53
999.959	-0.27
1000.385	-8.97
1000.811	-4.67
1001.236	-6.77
1001.662	-13.37
1002.087	-14.77
1002.513	-7.77
1002.938	-3.47
1003.364	-7.87
1003.789	2.63
1004.215	7.43
1004.64	-3.07
1005.066	-2.07
1005.491	-2.37
1005.916	-12.17
1006.342	-2.07
1006.767	-10.17
1007.192	2.33
1007.617	-3.57
1008.042	-10.77
1008.468	-6.47
1008.893	-5.07
1009.318	-0.77
1009.743	-2.97
1010.168	4.63
1010.593	1.73
1011.018	-10.37
1011.443	-3.67
1011.868	-3.17
1012.293	-6.17
1012.718	-7.27
1013.143	-3.37
1013.567	5.53
1013.992	-5.07
1014.417	-9.67
1014.842	3.33
1015.267	-7.87
1015.691	-4.27
1016.116	-0.17
1016.541	0.43
1016.965	0.13
1017.39	4.73
1017.814	-0.17
1018.239	-2.37
1018.663	-12.37
1019.088	-12.37
1019.512	-5.37
1019.937	-3.07
1020.361	-2.87
1020.785	-9.57
1021.21	-6.17
1021.634	-4.37
1022.058	-0.97
1022.483	1.33
1022.907	-0.67
1023.331	-5.07
1023.755	-2.07
1024.179	-1.97
1024.604	-5.87
1025.028	-6.37
1025.452	-8.17
1025.876	-3.87
1026.3	0.63
1026.724	-15.67
1027.148	-3.57
1027.572	-7.97
1027.996	-1.57
1028.42	2.83
1028.843	-4.47
1029.267	-8.37
1029.691	-3.07
1030.115	-4.37
1030.539	-13.87
1030.962	-6.37
1031.386	-12.37
1031.81	-6.27
1032.233	-5.17
1032.657	-4.27
1033.08	-2.57
1033.504	-2.67
1033.927	-3.77
1034.351	-5.57
1034.774	1.33
1035.198	-3.97
1035.621	-6.67
1036.045	-6.97
1036.468	-2.57
1036.891	-15.57
1037.315	-7.27
1037.738	-8.27
1038.161	0.33
1038.584	-6.17
1039.008	-8.87
1039.431	-4.17
1039.854	-3.07
1040.277	-7.27
1040.7	-11.17
1041.123	-3.37
1041.546	-5.87
1041.969	-6.17
1042.392	-7.47
1042.815	-5.57
1043.238	-0.97
1043.661	3.23
1044.084	-11.27
1044.507	-7.87
1044.93	-9.07
1045.352	-6.07
1045.775	-7.17
1046.198	0.03
1046.621	0.43
1047.043	1.13
1047.466	5.83
1047.889	2.03
1048.311	-8.07
1048.734	-7.67
1049.156	-1.97
1049.579	-0.17
1050.001	-4.47
1050.424	-3.47
1050.846	-3.17
1051.269	-4.97
1051.691	-7.97
1052.113	-2.37
1052.536	3.03
1052.958	-4.67
1053.38	-4.77
1053.802	-6.17
1054.225	0.73
1054.647	-3.67
1055.069	-4.17
1055.491	3.33
1055.913	-2.27
1056.335	1.83
1056.757	-9.77
1057.179	-3.77
1057.601	-4.47
1058.023	-2.27
1058.445	-6.27
1058.867	-3.67
1059.289	-0.77
1059.711	-9.67
1060.133	-3.17
1060.555	-14.07
1060.976	-8.37
1061.398	-1.07
1061.82	-6.77
1062.241	-3.87
1062.663	-9.67
1063.085	-5.47
1063.506	4.73
1063.928	-0.37
1064.35	1.83
1064.771	-14.47
1065.193	-4.87
1065.614	-13.07
1066.035	4.83
1066.457	-3.57
1066.878	-2.27
1067.3	-5.87
1067.721	-8.37
1068.142	-5.57
1068.564	-5.27
1068.985	-6.77
1069.406	-2.57
1069.827	-6.17
1070.248	-5.77
1070.67	-8.17
1071.091	-7.27
1071.512	-2.87
1071.933	-3.37
1072.354	-11.47
1072.775	-3.17
1073.196	-8.07
1073.617	1.43
1074.038	-9.57
1074.459	-0.47
1074.88	-7.37
1075.3	-2.87
1075.721	-3.97
1076.142	1.33
1076.563	-4.87
1076.983	-13.07
1077.404	-0.07
1077.825	-6.97
1078.246	-2.07
1078.666	-9.57
1079.087	-6.47
1079.507	-9.37
1079.928	0.13
1080.348	2.93
1080.769	-7.87
1081.189	-3.97
1081.61	-3.77
1082.03	-4.97
1082.451	-1.97
1082.871	-1.77
1083.291	-7.97
1083.711	-11.47
1084.132	-9.07
1084.552	-5.47
1084.972	0.53
1085.392	-7.37
1085.813	-10.47
1086.233	-10.37
1086.653	-8.17
1087.073	-2.57
1087.493	-9.57
1087.913	-5.67
1088.333	-7.57
1088.753	-3.17
1089.173	2.03
1089.593	-4.67
1090.013	1.43
1090.433	-0.27
1090.852	-5.27
1091.272	-5.27
1091.692	-1.47
1092.112	-7.67
1092.531	-13.57
1092.951	-11.97
1093.371	-3.47
1093.79	-6.57
1094.21	-2.77
1094.63	-7.77
1095.049	-3.87
1095.469	-4.87
1095.888	-0.27
1096.308	4.43
1096.727	0.93
1097.146	-9.97
1097.566	-3.57
1097.985	-7.67
1098.405	-8.77
1098.824	-8.57
1099.243	-6.87
1099.662	-5.47
1100.082	-1.47
1100.501	-3.97
1100.92	-7.97
1101.339	-7.57
1101.758	-6.67
