Data from 20171114-ORNL-Ar_H_NY_Subt18_08-05-35-420.txt Node
Date: Tue Nov 14 08:05:35 EST 2017
User: Ender
Spectrometer: HR+D1039
Trigger mode: 0
Integration Time (sec): 2.730000E-2
Scans to average: 10
Electric dark correction enabled: true
Nonlinearity correction enabled: false
Boxcar width: 0
XAxis mode: Wavelengths
Number of Pixels in Spectrum: 2048
>>>>>Begin Spectral Data<<<<<
187.836	-5.11
188.309	-5.11
188.782	-5.11
189.255	4.29
189.728	2.59
190.201	7.89
190.674	1.19
191.147	3.29
191.619	-8.51
192.092	2.59
192.565	7.09
193.038	-1.41
193.511	1.29
193.984	-2.81
194.456	-4.21
194.929	-0.01
195.402	-4.01
195.874	-4.11
196.347	-3.71
196.82	-9.31
197.292	-0.91
197.765	-9.21
198.237	-8.01
198.71	5.69
199.182	-3.71
199.655	3.59
200.127	3.19
200.6	0.29
201.072	-7.91
201.544	-4.31
202.017	-2.71
202.489	5.89
202.961	0.29
203.433	-5.51
203.906	-3.81
204.378	-2.91
204.85	-8.51
205.322	-8.31
205.794	-0.31
206.266	-0.41
206.739	-4.81
207.211	5.09
207.683	-10.51
208.155	-6.01
208.627	-9.51
209.099	-10.21
209.57	-7.71
210.042	-4.11
210.514	-2.61
210.986	-4.11
211.458	-7.51
211.93	-0.71
212.402	4.39
212.873	-4.21
213.345	-1.91
213.817	-10.51
214.288	-5.91
214.76	-11.01
215.232	-8.91
215.703	-3.41
216.175	-6.71
216.646	0.99
217.118	-10.11
217.589	-3.51
218.061	-4.11
218.532	-8.01
219.004	-2.31
219.475	-1.01
219.946	-4.11
220.418	-6.01
220.889	1.89
221.36	3.89
221.832	-4.61
222.303	-11.71
222.774	-0.81
223.245	-14.11
223.717	-5.51
224.188	-5.41
224.659	-9.51
225.13	-7.71
225.601	-3.91
226.072	2.69
226.543	-4.91
227.014	-3.01
227.485	-1.31
227.956	-8.61
228.427	2.49
228.898	-3.71
229.369	4.09
229.839	-10.91
230.31	-12.01
230.781	8.29
231.252	-1.31
231.722	3.19
232.193	1.89
232.664	4.09
233.135	1.59
233.605	1.49
234.076	-4.61
234.546	-3.31
235.017	2.29
235.487	-0.21
235.958	1.29
236.428	0.69
236.899	-0.11
237.369	1.89
237.84	3.09
238.31	6.99
238.78	6.09
239.251	0.09
239.721	3.79
240.191	-1.31
240.662	1.19
241.132	-2.51
241.602	0.99
242.072	1.09
242.542	3.59
243.013	4.59
243.483	8.49
243.953	7.19
244.423	2.49
244.893	-7.51
245.363	4.39
245.833	2.09
246.303	2.49
246.773	5.09
247.243	3.09
247.712	2.39
248.182	7.39
248.652	9.99
249.122	-3.61
249.592	18.09
250.061	23.19
250.531	34.99
251.001	14.39
251.471	19.69
251.94	14.79
252.41	9.29
252.879	7.09
253.349	14.49
253.818	5.39
254.288	-1.21
254.757	7.09
255.227	-2.51
255.696	7.59
256.166	2.69
256.635	10.49
257.105	12.49
257.574	11.59
258.043	10.89
258.513	15.19
258.982	19.99
259.451	6.29
259.92	10.19
260.389	8.09
260.859	25.59
261.328	10.39
261.797	16.49
262.266	12.29
262.735	8.99
263.204	1.49
263.673	2.59
264.142	13.49
264.611	-1.71
265.08	-3.71
265.549	5.79
266.018	5.89
266.487	-0.41
266.955	-0.61
267.424	-1.71
267.893	5.19
268.362	5.69
268.83	4.29
269.299	12.89
269.768	12.59
270.236	4.89
270.705	3.59
271.174	5.89
271.642	11.39
272.111	6.69
272.579	15.09
273.048	25.89
273.516	34.89
273.985	28.19
274.453	24.29
274.922	14.09
275.39	9.89
275.858	8.49
276.327	11.79
276.795	17.09
277.263	8.39
277.731	29.29
278.2	58.89
278.668	60.99
279.136	50.99
279.604	20.09
280.072	19.49
280.54	6.59
281.008	7.69
281.477	10.29
281.945	13.99
282.413	15.99
282.881	13.89
283.348	8.79
283.816	15.99
284.284	17.29
284.752	25.09
285.22	17.89
285.688	18.29
286.156	24.59
286.623	50.59
287.091	56.89
287.559	32.09
288.026	16.69
288.494	13.29
288.962	8.69
289.429	14.69
289.897	19.09
290.364	17.39
290.832	20.99
291.3	15.89
291.767	22.59
292.234	22.79
292.702	16.59
293.169	21.19
293.637	22.79
294.104	22.19
294.571	13.49
295.039	14.59
295.506	15.39
295.973	16.19
296.44	12.59
296.908	18.39
297.375	20.39
297.842	24.59
298.309	19.69
298.776	19.79
299.243	21.59
299.71	16.39
300.177	22.69
300.644	28.19
301.111	24.59
301.578	25.39
302.045	19.39
302.512	20.89
302.979	29.39
303.446	19.79
303.913	18.39
304.379	23.79
304.846	35.39
305.313	24.49
305.78	23.89
306.246	25.49
306.713	26.29
307.18	32.39
307.646	27.89
308.113	30.49
308.579	24.69
309.046	31.19
309.512	31.69
309.979	20.69
310.445	29.39
310.912	29.49
311.378	32.09
311.845	29.39
312.311	28.29
312.777	32.49
313.244	31.29
313.71	44.49
314.176	35.49
314.642	32.99
315.109	33.79
315.575	36.09
316.041	40.89
316.507	41.19
316.973	40.49
317.439	38.29
317.905	33.89
318.371	36.69
318.837	35.79
319.303	39.19
319.769	39.19
320.235	40.79
320.701	35.09
321.167	39.99
321.633	39.49
322.099	44.29
322.564	46.29
323.03	45.89
323.496	44.39
323.962	45.59
324.427	47.09
324.893	45.49
325.359	40.19
325.824	38.89
326.29	35.09
326.755	36.89
327.221	44.99
327.686	41.89
328.152	47.29
328.617	43.09
329.083	55.09
329.548	54.09
330.014	50.49
330.479	46.59
330.944	43.59
331.41	45.89
331.875	45.29
332.34	42.29
332.805	41.49
333.271	50.29
333.736	47.19
334.201	56.99
334.666	56.79
335.131	55.39
335.596	54.69
336.061	53.29
336.526	47.79
336.991	52.09
337.456	54.59
337.921	49.19
338.386	43.29
338.851	44.79
339.316	53.89
339.781	50.19
340.246	53.49
340.711	50.99
341.175	60.29
341.64	50.39
342.105	54.49
342.569	53.59
343.034	64.69
343.499	60.69
343.963	51.09
344.428	65.09
344.893	62.69
345.357	65.59
345.822	67.39
346.286	69.59
346.751	76.79
347.215	69.69
347.679	85.29
348.144	104.99
348.608	81.49
349.073	71.29
349.537	77.19
350.001	75.29
350.465	89.89
350.93	86.49
351.394	83.89
351.858	80.09
352.322	84.29
352.786	90.09
353.25	103.19
353.715	118.89
354.179	109.99
354.643	121.09
355.107	129.69
355.571	107.79
356.035	100.89
356.498	120.39
356.962	124.89
357.426	137.09
357.89	114.19
358.354	99.39
358.818	88.09
359.281	82.99
359.745	82.19
360.209	78.39
360.673	76.29
361.136	85.39
361.6	89.89
362.064	82.89
362.527	89.59
362.991	98.29
363.454	86.19
363.918	80.89
364.381	75.59
364.845	84.89
365.308	87.49
365.772	85.29
366.235	86.29
366.698	86.89
367.162	88.39
367.625	89.99
368.088	86.89
368.552	86.79
369.015	94.89
369.478	98.69
369.941	100.09
370.404	95.39
370.867	100.79
371.331	104.89
371.794	118.49
372.257	117.79
372.72	116.69
373.183	108.59
373.646	104.79
374.109	105.59
374.572	108.99
375.035	108.79
375.497	116.79
375.96	109.49
376.423	105.39
376.886	119.29
377.349	109.79
377.811	104.29
378.274	106.39
378.737	114.59
379.199	114.69
379.662	112.59
380.125	119.29
380.587	119.69
381.05	131.19
381.512	131.89
381.975	137.39
382.437	135.19
382.9	129.29
383.362	136.89
383.825	143.89
384.287	146.69
384.75	144.09
385.212	137.29
385.674	143.99
386.136	142.89
386.599	125.19
387.061	130.99
387.523	132.29
387.985	134.99
388.447	141.79
388.91	142.69
389.372	157.59
389.834	157.39
390.296	147.39
390.758	158.19
391.22	164.19
391.682	210.39
392.144	294.99
392.606	233.89
393.068	164.69
393.529	173.49
393.991	155.29
394.453	151.79
394.915	164.09
395.377	189.09
395.838	212.39
396.3	156.29
396.762	148.59
397.224	135.99
397.685	126.39
398.147	136.39
398.608	131.09
399.07	131.29
399.531	141.59
399.993	143.39
400.454	153.89
400.916	146.69
401.377	144.89
401.839	157.09
402.3	151.39
402.762	163.99
403.223	185.49
403.684	177.79
404.145	155.09
404.607	158.19
405.068	165.39
405.529	165.49
405.99	189.19
406.451	181.19
406.913	173.59
407.374	166.89
407.835	161.99
408.296	166.09
408.757	173.89
409.218	193.69
409.679	184.59
410.14	177.89
410.601	184.19
411.062	191.09
411.522	194.29
411.983	192.79
412.444	178.19
412.905	187.49
413.366	182.09
413.826	194.19
414.287	219.99
414.748	264.19
415.208	254.59
415.669	205.99
416.13	204.39
416.59	203.79
417.051	212.09
417.511	215.09
417.972	241.99
418.432	245.49
418.893	283.79
419.353	257.69
419.814	194.59
420.274	178.89
420.734	178.69
421.195	196.19
421.655	202.09
422.115	200.09
422.576	193.19
423.036	199.59
423.496	210.59
423.956	219.69
424.416	235.09
424.876	273.39
425.336	266.39
425.797	266.99
426.257	258.09
426.717	246.89
427.177	239.09
427.637	227.59
428.097	236.29
428.556	250.09
429.016	270.99
429.476	271.79
429.936	272.19
430.396	276.99
430.856	305.09
431.315	318.99
431.775	354.69
432.235	381.89
432.694	360.19
433.154	367.29
433.614	397.09
434.073	343.89
434.533	286.59
434.993	283.69
435.452	280.19
435.912	303.99
436.371	296.69
436.83	286.69
437.29	267.19
437.749	248.59
438.209	242.19
438.668	277.59
439.127	300.49
439.587	269.19
440.046	248.89
440.505	258.79
440.964	278.99
441.424	339.49
441.883	312.09
442.342	254.69
442.801	224.19
443.26	223.59
443.719	220.79
444.178	221.89
444.637	218.59
445.096	219.09
445.555	226.29
446.014	226.09
446.473	229.19
446.932	233.79
447.391	221.49
447.849	227.99
448.308	220.19
448.767	227.39
449.226	241.49
449.685	236.39
450.143	248.69
450.602	235.99
451.061	225.39
451.519	238.19
451.978	233.29
452.436	239.29
452.895	245.09
453.353	257.19
453.812	240.59
454.27	244.49
454.729	241.39
455.187	242.79
455.646	244.59
456.104	252.39
456.562	273.89
457.021	267.09
457.479	267.69
457.937	273.69
458.395	266.49
458.854	249.79
459.312	259.19
459.77	276.89
460.228	264.69
460.686	240.49
461.144	257.29
461.602	243.29
462.06	246.29
462.518	260.39
462.976	258.79
463.434	262.29
463.892	265.49
464.35	289.59
464.808	292.49
465.266	270.29
465.724	277.39
466.181	273.79
466.639	269.09
467.097	293.99
467.555	307.49
468.012	309.99
468.47	315.79
468.928	326.29
469.385	345.99
469.843	355.69
470.3	349.49
470.758	366.09
471.215	387.59
471.673	418.79
472.13	415.99
472.588	423.29
473.045	375.29
473.503	378.79
473.96	396.89
474.417	400.79
474.875	433.19
475.332	472.69
475.789	469.29
476.246	463.99
476.704	489.89
477.161	505.69
477.618	528.19
478.075	568.99
478.532	619.39
478.989	705.59
479.446	824.69
479.903	788.99
480.36	815.59
480.817	879.89
481.274	982.89
481.731	1095.79
482.188	1176.49
482.645	1313.19
483.102	1428.89
483.558	1573.99
484.015	1636.69
484.472	1599.79
484.929	1539.19
485.385	1486.49
485.842	1447.39
486.299	1401.99
486.755	1309.59
487.212	1113.09
487.668	949.09
488.125	864.99
488.582	791.69
489.038	764.49
489.494	721.49
489.951	687.89
490.407	678.39
490.864	657.39
491.32	651.59
491.776	649.99
492.233	652.29
492.689	620.39
493.145	609.79
493.602	604.59
494.058	615.89
494.514	627.79
494.97	654.89
495.426	654.69
495.882	627.19
496.338	623.49
496.794	636.29
497.251	623.79
497.707	644.09
498.163	643.19
498.618	647.39
499.074	660.29
499.53	686.19
499.986	684.89
500.442	656.49
500.898	644.49
501.354	630.09
501.809	644.09
502.265	648.99
502.721	678.09
503.177	675.99
503.632	666.79
504.088	674.09
504.543	720.29
504.999	718.59
505.455	659.89
505.91	637.59
506.366	634.19
506.821	629.09
507.277	638.49
507.732	633.39
508.187	628.99
508.643	636.39
509.098	640.69
509.553	659.49
510.009	667.99
510.464	675.59
510.919	693.89
511.375	693.99
511.83	710.09
512.285	732.29
512.74	763.89
513.195	785.49
513.65	777.69
514.105	768.39
514.56	782.69
515.015	805.09
515.47	809.09
515.925	792.49
516.38	800.29
516.835	792.89
517.29	786.49
517.745	778.69
518.2	770.79
518.655	749.69
519.109	744.09
519.564	748.59
520.019	734.09
520.474	732.49
520.928	730.79
521.383	729.29
521.838	723.19
522.292	721.59
522.747	720.19
523.201	706.59
523.656	701.89
524.11	703.49
524.565	684.19
525.019	708.89
525.474	702.69
525.928	706.49
526.382	695.69
526.837	699.49
527.291	706.39
527.745	695.79
528.2	693.29
528.654	687.29
529.108	697.09
529.562	699.89
530.016	694.59
530.47	691.79
530.925	693.19
531.379	705.29
531.833	715.79
532.287	708.99
532.741	709.19
533.195	709.79
533.649	722.89
534.103	719.99
534.556	714.39
535.01	717.29
535.464	712.29
535.918	727.89
536.372	726.49
536.826	716.29
537.279	717.79
537.733	707.79
538.187	716.69
538.64	710.69
539.094	733.59
539.548	738.29
540.001	731.29
540.455	715.39
540.908	734.49
541.362	736.69
541.815	749.09
542.269	762.89
542.722	751.09
543.175	768.59
543.629	771.69
544.082	788.79
544.536	784.09
544.989	780.99
545.442	793.09
545.895	781.89
546.349	794.09
546.802	782.19
547.255	790.89
547.708	809.99
548.161	803.99
548.614	820.79
549.067	832.79
549.52	819.39
549.973	807.79
550.426	800.59
550.879	802.59
551.332	798.69
551.785	813.39
552.238	809.89
552.691	815.29
553.144	832.99
553.596	851.59
554.049	864.19
554.502	886.99
554.955	905.99
555.407	901.79
555.86	894.99
556.313	894.19
556.765	876.79
557.218	879.49
557.67	889.29
558.123	883.19
558.576	872.69
559.028	877.69
559.48	887.59
559.933	870.99
560.385	830.49
560.838	799.09
561.29	778.19
561.742	778.59
562.195	755.99
562.647	769.29
563.099	766.79
563.551	763.49
564.004	771.89
564.456	774.29
564.908	757.49
565.36	741.79
565.812	730.19
566.264	729.59
566.716	718.99
567.168	710.59
567.62	717.19
568.072	699.19
568.524	692.19
568.976	697.89
569.428	675.39
569.88	674.89
570.332	685.59
570.784	679.29
571.235	672.79
571.687	694.59
572.139	704.49
572.59	706.89
573.042	717.79
573.494	705.99
573.945	700.19
574.397	683.29
574.849	689.89
575.3	686.39
575.752	678.49
576.203	677.99
576.655	681.79
577.106	665.89
577.557	669.09
578.009	662.49
578.46	662.89
578.912	659.49
579.363	661.29
579.814	667.89
580.265	656.59
580.717	661.69
581.168	676.09
581.619	680.69
582.07	678.99
582.521	671.49
582.972	660.49
583.423	674.79
583.875	679.99
584.326	695.19
584.777	746.29
585.227	805.59
585.678	903.09
586.129	989.89
586.58	1064.59
587.031	1159.09
587.482	1300.39
587.933	1483.69
588.384	1290.19
588.834	962.79
589.285	791.69
589.736	778.09
590.186	757.19
590.637	754.09
591.088	735.19
591.538	723.49
591.989	732.39
592.439	723.39
592.89	720.19
593.34	704.49
593.791	703.29
594.241	693.79
594.692	699.09
595.142	691.89
595.593	688.99
596.043	693.29
596.493	708.89
596.943	707.69
597.394	702.59
597.844	699.09
598.294	716.79
598.744	739.89
599.195	764.69
599.645	799.39
600.095	829.19
600.545	896.99
600.995	951.09
601.445	1005.59
601.895	1067.69
602.345	1105.69
602.795	1096.89
603.245	1039.69
603.695	1005.39
604.145	948.79
604.594	899.99
605.044	842.99
605.494	778.49
605.944	737.59
606.393	733.89
606.843	720.29
607.293	721.39
607.743	721.69
608.192	729.19
608.642	744.29
609.091	754.89
609.541	749.69
609.99	755.59
610.44	756.19
610.889	706.89
611.339	690.19
611.788	669.29
612.238	685.19
612.687	704.29
613.136	702.09
613.586	724.19
614.035	721.29
614.484	744.79
614.933	740.19
615.383	724.59
615.832	721.29
616.281	712.99
616.73	681.49
617.179	658.59
617.628	638.39
618.077	625.19
618.526	612.19
618.975	608.09
619.424	598.79
619.873	599.09
620.322	605.79
620.771	589.59
621.22	582.79
621.669	579.99
622.118	582.79
622.567	569.19
623.015	556.49
623.464	553.69
623.913	546.59
624.361	544.29
624.81	532.29
625.259	545.29
625.707	546.39
626.156	541.09
626.604	555.59
627.053	549.89
627.501	543.69
627.95	558.59
628.398	569.29
628.847	568.29
629.295	563.39
629.744	561.69
630.192	542.49
630.64	546.79
631.089	546.69
631.537	554.89
631.985	574.29
632.433	574.39
632.881	585.79
633.33	640.59
633.778	613.09
634.226	549.29
634.674	552.59
635.122	557.79
635.57	579.29
636.018	605.19
636.466	561.09
636.914	539.09
637.362	562.39
637.81	558.29
638.258	565.09
638.705	575.49
639.153	586.19
639.601	604.29
640.049	621.79
640.497	652.49
640.944	666.99
641.392	624.19
641.84	599.09
642.287	565.09
642.735	560.59
643.182	554.99
643.63	560.19
644.078	556.49
644.525	566.49
644.973	573.59
645.42	586.89
645.867	609.39
646.315	625.09
646.762	643.29
647.21	664.59
647.657	697.09
648.104	732.99
648.551	752.69
648.999	803.49
649.446	892.89
649.893	972.09
650.34	1118.49
650.787	1343.39
651.234	1686.49
651.682	2170.29
652.129	2999.79
652.576	4306.79
653.023	6342.79
653.47	8749.09
653.917	10975.69
654.363	12703.19
654.81	14129.89
655.257	13477.69
655.704	8801.99
656.151	5185.79
656.598	3356.79
657.044	2367.69
657.491	1824.79
657.938	1459.59
658.385	1212.49
658.831	1052.39
659.278	939.99
659.724	835.39
660.171	763.79
660.618	703.59
661.064	674.19
661.511	644.99
661.957	634.79
662.404	623.49
662.85	630.59
663.296	605.49
663.743	541.49
664.189	527.29
664.635	506.99
665.082	508.09
665.528	504.29
665.974	505.09
666.42	495.09
666.867	485.89
667.313	473.59
667.759	464.89
668.205	463.89
668.651	465.69
669.097	470.19
669.543	478.39
669.989	453.99
670.435	445.79
670.881	427.29
671.327	426.59
671.773	452.99
672.219	469.49
672.665	521.79
673.11	552.29
673.556	599.39
674.002	648.19
674.448	633.59
674.893	536.59
675.339	462.59
675.785	419.39
676.23	402.59
676.676	372.39
677.122	369.49
677.567	348.69
678.013	357.99
678.458	346.89
678.904	346.19
679.349	323.19
679.794	332.19
680.24	340.19
680.685	338.09
681.131	326.69
681.576	334.79
682.021	333.89
682.466	334.49
682.912	332.59
683.357	332.59
683.802	361.09
684.247	389.79
684.692	429.89
685.137	482.09
685.583	516.29
686.028	543.19
686.473	496.39
686.918	425.99
687.363	401.09
687.807	375.49
688.252	353.29
688.697	344.39
689.142	321.89
689.587	313.29
690.032	309.69
690.477	324.99
690.921	340.19
691.366	365.49
691.811	384.59
692.255	408.49
692.7	440.59
693.145	472.79
693.589	657.69
694.034	1066.89
694.478	1463.29
694.923	1672.59
695.367	2192.79
695.812	1143.49
696.256	478.89
696.701	349.19
697.145	332.59
697.59	315.29
698.034	306.59
698.478	317.79
698.922	312.59
699.367	301.99
699.811	321.99
700.255	345.69
700.699	364.39
701.143	402.19
701.588	454.99
702.032	497.99
702.476	495.59
702.92	468.39
703.364	461.29
703.808	594.29
704.252	973.69
704.696	1377.29
705.14	1611.79
705.584	2056.39
706.027	1020.69
706.471	492.59
706.915	375.39
707.359	329.69
707.803	300.59
708.246	291.79
708.69	295.99
709.134	290.89
709.577	289.99
710.021	307.89
710.465	292.29
710.908	278.19
711.352	278.79
711.795	296.79
712.239	338.89
712.682	364.89
713.126	403.89
713.569	448.19
714.012	357.39
714.456	307.39
714.899	293.59
715.342	264.39
715.786	248.19
716.229	246.29
716.672	248.39
717.115	241.79
717.558	234.49
718.002	233.19
718.445	249.19
718.888	276.79
719.331	284.69
719.774	295.59
720.217	285.89
720.66	269.39
721.103	251.99
721.546	248.79
721.989	243.39
722.432	221.69
722.874	225.79
723.317	228.69
723.76	230.59
724.203	244.69
724.645	300.29
725.088	413.69
725.531	541.39
725.974	614.49
726.416	517.89
726.859	287.69
727.301	235.69
727.744	218.99
728.187	226.49
728.629	221.29
729.071	229.09
729.514	249.29
729.956	258.79
730.399	261.69
730.841	268.49
731.283	261.79
731.726	251.19
732.168	238.99
732.61	261.69
733.053	268.09
733.495	292.99
733.937	329.69
734.379	374.99
734.821	402.09
735.263	499.79
735.705	771.99
736.148	1472.29
736.59	2435.29
737.032	2919.19
737.474	2389.39
737.916	763.79
738.357	405.49
738.799	310.19
739.241	285.09
739.683	268.89
740.125	275.49
740.567	279.19
741.008	304.39
741.45	300.69
741.892	302.09
742.334	330.99
742.775	344.89
743.217	327.49
743.658	254.89
744.1	238.79
744.542	248.99
744.983	297.59
745.425	334.69
745.866	322.79
746.307	275.29
746.749	268.29
747.19	305.59
747.632	424.89
748.073	803.09
748.514	1734.59
748.956	2722.79
749.397	3385.59
749.838	2810.59
750.279	2831.69
750.72	1426.69
751.162	521.09
751.603	300.99
752.044	239.09
752.485	199.79
752.926	196.19
753.367	191.79
753.808	188.09
754.249	182.49
754.69	178.09
755.131	172.39
755.572	172.69
756.013	164.09
756.453	174.49
756.894	173.59
757.335	176.69
757.776	189.09
758.216	186.29
758.657	189.09
759.098	188.49
759.538	210.79
759.979	240.39
760.42	346.19
760.86	651.69
761.301	1689.29
761.741	4115.19
762.182	6179.49
762.622	4353.99
763.063	1246.89
763.503	512.49
763.943	332.69
764.384	320.69
764.824	383.39
765.264	409.29
765.705	286.79
766.145	194.29
766.585	183.19
767.025	168.99
767.465	182.39
767.906	229.69
768.346	294.89
768.786	316.59
769.226	242.19
769.666	299.59
770.106	575.89
770.546	1432.99
770.986	2517.09
771.426	2270.89
771.866	753.69
772.306	319.69
772.745	201.19
773.185	166.29
773.625	167.39
774.065	160.99
774.505	187.49
774.944	288.99
775.384	630.59
775.824	1175.59
776.263	1161.09
776.703	491.19
777.142	206.19
777.582	152.09
778.021	128.19
778.461	135.49
778.9	134.79
779.34	120.09
779.779	112.59
780.219	105.29
780.658	104.29
781.097	105.69
781.537	104.49
781.976	104.49
782.415	101.89
782.855	103.09
783.294	94.39
783.733	99.89
784.172	109.09
784.611	94.79
785.05	107.39
785.489	105.59
785.928	102.29
786.367	117.29
786.806	112.09
787.245	123.59
787.684	120.99
788.123	141.09
788.562	131.09
789.001	118.99
789.44	119.29
789.879	113.69
790.317	114.59
790.756	127.79
791.195	117.69
791.634	136.29
792.072	190.09
792.511	333.59
792.95	933.99
793.388	2029.39
793.827	1865.89
794.265	645.39
794.704	265.09
795.142	179.39
795.581	145.89
796.019	131.09
796.458	115.49
796.896	112.29
797.334	124.09
797.773	149.19
798.211	203.09
798.649	399.79
799.087	955.99
799.526	1501.49
799.964	1886.59
800.402	1923.39
800.84	722.39
801.278	282.09
801.716	171.79
802.154	143.79
802.592	134.79
803.03	130.79
803.468	125.49
803.906	127.89
804.344	147.39
804.782	131.89
805.22	126.49
805.658	127.89
806.096	142.39
806.533	148.19
806.971	158.89
807.409	203.79
807.847	301.29
808.284	603.59
808.722	1726.39
809.16	3117.69
809.597	2907.19
810.035	5092.09
810.472	5572.49
810.91	1985.19
811.347	745.49
811.785	383.89
812.222	243.19
812.66	184.99
813.097	151.69
813.535	133.79
813.972	122.39
814.409	111.69
814.846	105.09
815.284	102.39
815.721	92.69
816.158	98.69
816.595	112.19
817.032	163.99
817.47	188.89
817.907	159.89
818.344	142.89
818.781	118.19
819.218	94.79
819.655	113.49
820.092	182.59
820.529	200.89
820.966	162.99
821.403	132.19
821.839	108.59
822.276	92.99
822.713	114.29
823.15	126.89
823.587	112.59
824.023	132.39
824.46	278.09
824.897	827.49
825.333	1301.69
825.77	554.09
826.206	216.99
826.643	129.09
827.08	90.39
827.516	80.79
827.953	73.79
828.389	65.99
828.825	63.59
829.262	63.79
829.698	56.99
830.135	57.19
830.571	63.29
831.007	63.39
831.443	58.69
831.88	55.29
832.316	54.39
832.752	56.19
833.188	60.89
833.624	53.59
834.06	68.89
834.497	63.39
834.933	66.29
835.369	67.49
835.805	74.69
836.241	78.29
836.677	78.69
837.112	83.39
837.548	96.59
837.984	128.59
838.42	188.69
838.856	462.09
839.292	1401.79
839.727	2199.99
840.163	1021.49
840.599	856.59
841.034	1899.79
841.47	2043.39
841.906	734.99
842.341	311.19
842.777	218.59
843.212	302.99
843.648	303.19
844.083	150.69
844.519	88.99
844.954	64.59
845.39	60.49
845.825	47.99
846.261	56.39
846.696	55.29
847.131	49.09
847.566	50.39
848.002	52.09
848.437	54.09
848.872	51.39
849.307	56.19
849.742	78.69
850.177	161.79
850.613	510.99
851.048	844.79
851.483	364.29
851.918	140.79
852.353	74.19
852.788	59.79
853.223	57.19
853.657	52.49
854.092	39.69
854.527	38.39
854.962	32.09
855.397	35.79
855.832	49.19
856.266	40.29
856.701	35.99
857.136	36.19
857.57	36.79
858.005	47.29
858.44	54.79
858.874	44.99
859.309	52.89
859.743	38.49
860.178	43.19
860.612	41.69
861.047	50.19
861.481	58.89
861.915	69.69
862.35	42.79
862.784	29.19
863.218	38.99
863.653	23.99
864.087	39.99
864.521	50.29
864.955	66.59
865.39	149.29
865.824	168.99
866.258	103.49
866.692	156.19
867.126	159.79
867.56	102.39
867.994	51.99
868.428	31.09
868.862	47.59
869.296	49.49
869.73	58.29
870.164	48.59
870.598	43.19
871.031	29.79
871.465	31.89
871.899	28.79
872.333	22.59
872.766	24.99
873.2	23.49
873.634	25.79
874.067	25.59
874.501	23.39
874.935	31.89
875.368	29.89
875.802	20.59
876.235	21.09
876.669	21.89
877.102	22.79
877.535	20.09
877.969	21.89
878.402	25.49
878.836	16.39
879.269	21.89
879.702	19.19
880.135	23.19
880.569	18.69
881.002	29.09
881.435	25.39
881.868	12.89
882.301	17.99
882.734	20.29
883.167	19.99
883.601	15.89
884.034	16.19
884.467	11.59
884.899	20.99
885.332	16.29
885.765	11.89
886.198	17.29
886.631	16.99
887.064	15.49
887.497	18.89
887.929	25.69
888.362	13.59
888.795	11.29
889.228	17.29
889.66	26.49
890.093	12.59
890.526	12.79
890.958	20.29
891.391	18.09
891.823	25.09
892.256	12.19
892.688	9.99
893.121	16.19
893.553	12.69
893.985	16.89
894.418	17.49
894.85	11.79
895.282	13.09
895.715	9.89
896.147	14.89
896.579	12.89
897.011	7.09
897.444	24.19
897.876	15.69
898.308	13.49
898.74	18.09
899.172	11.79
899.604	25.79
900.036	21.99
900.468	11.89
900.9	8.99
901.332	18.09
901.764	10.59
902.196	22.29
902.628	18.09
903.06	12.99
903.491	27.79
903.923	19.69
904.355	20.49
904.787	17.79
905.218	24.19
905.65	17.29
906.082	10.99
906.513	7.59
906.945	9.99
907.376	14.49
907.808	19.19
908.239	19.89
908.671	15.49
909.102	23.69
909.534	26.59
909.965	39.29
910.397	82.79
910.828	297.39
911.259	450.19
911.691	212.69
912.122	98.99
912.553	46.89
912.984	32.09
913.415	22.49
913.847	23.59
914.278	18.89
914.709	10.39
915.14	18.39
915.571	16.79
916.002	12.69
916.433	17.59
916.864	14.59
917.295	11.89
917.726	16.59
918.157	15.89
918.587	25.69
919.018	21.79
919.449	9.99
919.88	26.59
920.311	26.29
920.741	40.59
921.172	162.49
921.603	143.29
922.033	67.59
922.464	46.59
922.895	23.89
923.325	21.49
923.756	19.29
924.186	17.09
924.617	25.29
925.047	41.89
925.478	53.79
925.908	39.49
926.338	24.59
926.769	23.79
927.199	22.09
927.629	8.29
928.06	19.79
928.49	13.69
928.92	13.59
929.35	13.79
929.78	13.49
930.21	7.29
930.641	14.69
931.071	8.69
931.501	1.89
931.931	2.99
932.361	10.99
932.791	0.59
933.221	8.19
933.651	1.39
934.08	12.19
934.51	29.39
934.94	0.89
935.37	8.79
935.8	7.89
936.229	7.49
936.659	4.49
937.089	-0.01
937.519	11.39
937.948	22.99
938.378	14.29
938.807	5.49
939.237	-4.41
939.666	8.19
940.096	-7.21
940.525	2.89
940.955	2.89
941.384	4.39
941.814	-1.11
942.243	-5.81
942.672	4.59
943.102	-1.21
943.531	2.49
943.96	5.89
944.39	3.69
944.819	-0.71
945.248	0.19
945.677	-0.31
946.106	9.19
946.535	6.49
946.964	4.79
947.393	3.19
947.822	6.49
948.251	-2.41
948.68	0.19
949.109	2.79
949.538	2.99
949.967	-0.81
950.396	-3.81
950.825	-3.41
951.254	-3.41
951.682	-5.71
952.111	-0.01
952.54	2.49
952.969	-4.51
953.397	-4.51
953.826	1.69
954.254	-7.01
954.683	6.59
955.112	-1.31
955.54	4.09
955.969	1.49
956.397	3.59
956.826	-4.81
957.254	1.29
957.682	-3.51
958.111	4.49
958.539	-4.51
958.967	-0.61
959.396	-1.71
959.824	-0.21
960.252	3.79
960.68	-8.11
961.109	0.59
961.537	-5.61
961.965	-4.31
962.393	-3.91
962.821	-7.81
963.249	3.79
963.677	2.09
964.105	4.99
964.533	37.59
964.961	32.89
965.389	18.19
965.817	7.59
966.245	-1.81
966.672	-3.21
967.1	-7.71
967.528	-3.61
967.956	-3.11
968.383	1.99
968.811	1.79
969.239	-3.21
969.666	-7.51
970.094	2.09
970.522	-1.61
970.949	2.39
971.377	-6.21
971.804	-3.11
972.232	-1.71
972.659	-3.11
973.087	1.39
973.514	-5.01
973.941	-2.31
974.369	-1.71
974.796	2.79
975.223	0.69
975.651	-4.21
976.078	4.59
976.505	-3.81
976.932	0.59
977.359	11.29
977.786	8.09
978.214	4.39
978.641	-2.91
979.068	-6.41
979.495	-2.11
979.922	-4.01
980.349	-0.91
980.776	-0.01
981.202	-0.21
981.629	2.89
982.056	-1.41
982.483	-2.91
982.91	0.29
983.337	-6.51
983.763	-3.01
984.19	-5.71
984.617	-6.21
985.043	-4.71
985.47	1.89
985.897	-3.71
986.323	-12.91
986.75	3.29
987.176	-5.21
987.603	-1.61
988.029	-1.61
988.456	3.69
988.882	-0.11
989.308	-8.61
989.735	-2.01
990.161	2.19
990.587	-2.91
991.014	-4.31
991.44	7.29
991.866	-2.21
992.292	-5.61
992.719	-6.01
993.145	-4.81
993.571	-9.61
993.997	-5.51
994.423	-1.71
994.849	-0.71
995.275	0.19
995.701	1.99
996.127	-6.91
996.553	-2.21
996.979	-0.41
997.405	1.59
997.83	-12.11
998.256	-8.61
998.682	-5.51
999.108	-14.41
999.534	-1.21
999.959	-4.91
1000.385	-5.21
1000.811	-0.71
1001.236	-12.51
1001.662	-7.51
1002.087	-6.01
1002.513	-0.71
1002.938	-1.61
1003.364	-3.41
1003.789	4.99
1004.215	6.29
1004.64	-2.81
1005.066	1.59
1005.491	-2.81
1005.916	-4.51
1006.342	-10.01
1006.767	-6.61
1007.192	3.59
1007.617	-8.51
1008.042	-8.11
1008.468	-4.91
1008.893	4.09
1009.318	-0.81
1009.743	-2.81
1010.168	0.09
1010.593	-0.51
1011.018	-3.81
1011.443	-2.21
1011.868	-3.31
1012.293	-7.11
1012.718	-9.51
1013.143	-3.31
1013.567	-3.61
1013.992	-4.91
1014.417	-11.41
1014.842	3.99
1015.267	-6.31
1015.691	-3.11
1016.116	-1.71
1016.541	-6.21
1016.965	5.79
1017.39	1.19
1017.814	-2.01
1018.239	0.79
1018.663	-1.41
1019.088	-5.41
1019.512	3.29
1019.937	-2.61
1020.361	-4.31
1020.785	-9.51
1021.21	-0.81
1021.634	-6.81
1022.058	-0.21
1022.483	3.69
1022.907	-6.11
1023.331	-8.21
1023.755	-2.91
1024.179	-4.11
1024.604	-8.51
1025.028	0.59
1025.452	-2.01
1025.876	-1.41
1026.3	-0.01
1026.724	-5.31
1027.148	1.39
1027.572	-1.81
1027.996	-3.61
1028.42	-4.31
1028.843	-5.61
1029.267	-7.71
1029.691	-1.31
1030.115	-6.71
1030.539	-8.31
1030.962	-7.61
1031.386	-10.61
1031.81	-2.51
1032.233	-4.11
1032.657	-1.51
1033.08	-3.21
1033.504	-2.81
1033.927	1.69
1034.351	1.29
1034.774	-4.11
1035.198	-4.51
1035.621	-6.21
1036.045	-7.81
1036.468	-3.71
1036.891	-12.71
1037.315	-12.41
1037.738	-12.11
1038.161	-3.81
1038.584	-3.21
1039.008	-8.41
1039.431	0.59
1039.854	-6.61
1040.277	-7.91
1040.7	-11.71
1041.123	-1.21
1041.546	-7.81
1041.969	-5.41
1042.392	-6.51
1042.815	-0.91
1043.238	3.29
1043.661	0.29
1044.084	-5.41
1044.507	-6.91
1044.93	-8.51
1045.352	-9.11
1045.775	-4.91
1046.198	-7.11
1046.621	-4.41
1047.043	4.59
1047.466	6.79
1047.889	-3.31
1048.311	-7.91
1048.734	3.09
1049.156	-4.91
1049.579	-1.41
1050.001	-5.31
1050.424	-1.41
1050.846	-4.81
1051.269	-3.01
1051.691	-8.11
1052.113	-6.11
1052.536	-3.61
1052.958	-1.71
1053.38	-5.61
1053.802	-6.41
1054.225	2.19
1054.647	-7.71
1055.069	-4.01
1055.491	5.49
1055.913	-10.11
1056.335	-2.61
1056.757	-3.91
1057.179	-12.41
1057.601	-3.61
1058.023	-4.01
1058.445	-8.11
1058.867	-4.21
1059.289	-7.91
1059.711	-7.71
1060.133	-2.11
1060.555	-0.61
1060.976	-9.11
1061.398	-10.71
1061.82	-6.71
1062.241	-6.31
1062.663	-9.31
1063.085	-12.41
1063.506	2.19
1063.928	-4.41
1064.35	-0.51
1064.771	-10.31
1065.193	-1.01
1065.614	-11.71
1066.035	0.79
1066.457	1.69
1066.878	2.69
1067.3	-11.01
1067.721	-5.51
1068.142	-2.91
1068.564	-7.31
1068.985	-6.91
1069.406	-11.01
1069.827	-6.51
1070.248	-2.11
1070.67	-7.71
1071.091	-6.91
1071.512	-0.41
1071.933	-9.61
1072.354	-8.71
1072.775	-3.91
1073.196	-6.11
1073.617	-8.01
1074.038	-1.51
1074.459	-6.21
1074.88	-6.91
1075.3	-0.01
1075.721	-5.41
1076.142	-3.71
1076.563	-1.91
1076.983	-10.31
1077.404	-8.71
1077.825	-15.81
1078.246	0.19
1078.666	-13.31
1079.087	-3.31
1079.507	-6.91
1079.928	-1.01
1080.348	-2.01
1080.769	-9.91
1081.189	-2.41
1081.61	-4.11
1082.03	-4.11
1082.451	-7.51
1082.871	-9.21
1083.291	-4.71
1083.711	-8.71
1084.132	-7.91
1084.552	-2.11
1084.972	0.99
1085.392	-8.81
1085.813	-10.31
1086.233	-4.21
1086.653	-10.31
1087.073	-4.51
1087.493	-4.61
1087.913	-11.31
1088.333	-8.81
1088.753	-7.01
1089.173	0.29
1089.593	0.69
1090.013	-2.81
1090.433	3.49
1090.852	-2.41
1091.272	-0.81
1091.692	0.09
1092.112	-7.11
1092.531	-13.31
1092.951	-16.61
1093.371	-2.01
1093.79	6.49
1094.21	-9.11
1094.63	-9.31
1095.049	-5.91
1095.469	-0.81
1095.888	-2.51
1096.308	-1.71
1096.727	10.29
1097.146	-3.51
1097.566	-5.31
1097.985	-9.61
1098.405	-1.11
1098.824	-7.01
1099.243	-10.61
1099.662	-6.21
1100.082	-6.11
1100.501	-3.51
1100.92	-6.41
1101.339	-9.91
1101.758	-1.91
