Data from 20171114-ORNL-Ar_H_NY_Subt18_08-08-18-660.txt Node
Date: Tue Nov 14 08:08:18 EST 2017
User: Ender
Spectrometer: HR+D1039
Trigger mode: 0
Integration Time (sec): 2.730000E-2
Scans to average: 10
Electric dark correction enabled: true
Nonlinearity correction enabled: false
Boxcar width: 0
XAxis mode: Wavelengths
Number of Pixels in Spectrum: 2048
>>>>>Begin Spectral Data<<<<<
187.836	-6.01
188.309	-6.01
188.782	-6.01
189.255	-4.21
189.728	-4.11
190.201	7.49
190.674	6.99
191.147	4.59
191.619	-7.01
192.092	2.59
192.565	2.79
193.038	3.29
193.511	-0.51
193.984	-0.01
194.456	0.19
194.929	-3.71
195.402	-1.41
195.874	-1.01
196.347	-3.21
196.82	-9.21
197.292	8.49
197.765	0.39
198.237	-7.91
198.71	4.99
199.182	-1.11
199.655	6.89
200.127	8.49
200.6	-3.21
201.072	2.49
201.544	-4.21
202.017	-4.61
202.489	6.39
202.961	-2.61
203.433	-3.11
203.906	-4.51
204.378	-6.91
204.85	-0.41
205.322	-9.61
205.794	-1.31
206.266	-4.71
206.739	-11.21
207.211	4.79
207.683	-9.31
208.155	-6.11
208.627	-9.71
209.099	0.89
209.57	-5.81
210.042	-2.31
210.514	-4.71
210.986	-3.21
211.458	-10.21
211.93	-7.51
212.402	4.69
212.873	-9.21
213.345	-10.01
213.817	-13.41
214.288	-1.61
214.76	-13.01
215.232	-1.21
215.703	2.89
216.175	-3.51
216.646	-3.01
217.118	-3.41
217.589	1.39
218.061	0.29
218.532	1.29
219.004	1.39
219.475	-4.01
219.946	-5.91
220.418	-3.41
220.889	5.19
221.36	-2.91
221.832	-5.61
222.303	-1.11
222.774	-1.01
223.245	-8.71
223.717	-9.51
224.188	-4.51
224.659	-5.41
225.13	-4.91
225.601	-3.01
226.072	-0.31
226.543	2.79
227.014	-1.21
227.485	0.79
227.956	-6.51
228.427	-0.61
228.898	0.09
229.369	8.49
229.839	-7.01
230.31	-3.81
230.781	3.79
231.252	-3.91
231.722	-9.61
232.193	-6.21
232.664	3.49
233.135	-3.51
233.605	-5.91
234.076	-7.81
234.546	0.69
235.017	7.09
235.487	-0.61
235.958	4.09
236.428	-2.31
236.899	4.89
237.369	8.39
237.84	-3.51
238.31	-0.01
238.78	3.39
239.251	1.69
239.721	-1.01
240.191	-0.51
240.662	-1.21
241.132	0.09
241.602	-4.81
242.072	2.59
242.542	1.69
243.013	4.19
243.483	6.09
243.953	-0.81
244.423	2.19
244.893	-4.71
245.363	2.89
245.833	0.49
246.303	-1.61
246.773	-0.11
247.243	-0.01
247.712	-0.41
248.182	9.49
248.652	8.29
249.122	-1.21
249.592	14.39
250.061	21.39
250.531	30.39
251.001	19.29
251.471	20.69
251.94	18.19
252.41	-0.21
252.879	7.59
253.349	17.29
253.818	7.09
254.288	7.99
254.757	8.69
255.227	-2.41
255.696	2.89
256.166	6.09
256.635	5.49
257.105	9.09
257.574	7.69
258.043	6.49
258.513	10.59
258.982	13.69
259.451	7.79
259.92	12.19
260.389	10.09
260.859	16.59
261.328	12.89
261.797	13.39
262.266	12.49
262.735	6.59
263.204	1.79
263.673	0.09
264.142	9.29
264.611	-3.11
265.08	7.59
265.549	-0.61
266.018	-0.11
266.487	-3.41
266.955	-9.51
267.424	-1.81
267.893	7.59
268.362	1.59
268.83	5.59
269.299	16.59
269.768	7.59
270.236	8.79
270.705	0.19
271.174	4.49
271.642	5.79
272.111	2.89
272.579	16.29
273.048	19.59
273.516	27.79
273.985	26.29
274.453	17.19
274.922	20.09
275.39	8.29
275.858	-3.11
276.327	8.29
276.795	13.79
277.263	7.39
277.731	27.49
278.2	51.79
278.668	47.69
279.136	44.39
279.604	22.59
280.072	17.29
280.54	13.69
281.008	8.49
281.477	11.29
281.945	16.19
282.413	13.99
282.881	15.59
283.348	8.09
283.816	11.09
284.284	11.09
284.752	19.79
285.22	14.09
285.688	17.59
286.156	14.49
286.623	45.29
287.091	49.99
287.559	28.19
288.026	15.69
288.494	15.89
288.962	2.89
289.429	9.59
289.897	18.79
290.364	13.09
290.832	19.49
291.3	11.19
291.767	18.99
292.234	15.29
292.702	16.09
293.169	13.79
293.637	24.79
294.104	17.69
294.571	15.19
295.039	15.69
295.506	11.19
295.973	19.39
296.44	9.89
296.908	18.59
297.375	15.79
297.842	19.59
298.309	13.09
298.776	11.09
299.243	24.39
299.71	9.19
300.177	24.59
300.644	22.09
301.111	18.19
301.578	20.89
302.045	6.79
302.512	23.49
302.979	22.39
303.446	22.39
303.913	18.19
304.379	13.59
304.846	28.69
305.313	22.89
305.78	16.29
306.246	23.09
306.713	14.69
307.18	21.59
307.646	25.69
308.113	30.89
308.579	24.19
309.046	24.59
309.512	24.19
309.979	15.19
310.445	28.89
310.912	25.39
311.378	26.19
311.845	25.69
312.311	30.59
312.777	38.29
313.244	32.19
313.71	32.39
314.176	27.49
314.642	34.69
315.109	31.79
315.575	35.29
316.041	39.59
316.507	33.39
316.973	34.79
317.439	35.39
317.905	37.59
318.371	32.99
318.837	35.99
319.303	29.29
319.769	34.49
320.235	31.79
320.701	34.19
321.167	33.39
321.633	37.29
322.099	40.09
322.564	43.99
323.03	43.29
323.496	36.19
323.962	37.29
324.427	31.69
324.893	39.29
325.359	33.69
325.824	36.99
326.29	35.79
326.755	35.79
327.221	33.69
327.686	38.69
328.152	46.79
328.617	39.99
329.083	44.09
329.548	50.19
330.014	41.69
330.479	38.89
330.944	34.89
331.41	39.19
331.875	43.29
332.34	40.19
332.805	37.99
333.271	44.99
333.736	37.99
334.201	51.69
334.666	46.59
335.131	52.69
335.596	45.99
336.061	41.29
336.526	42.89
336.991	47.79
337.456	52.29
337.921	45.39
338.386	46.89
338.851	41.99
339.316	40.59
339.781	46.79
340.246	50.39
340.711	43.19
341.175	42.99
341.64	40.29
342.105	50.79
342.569	54.89
343.034	60.79
343.499	48.59
343.963	48.89
344.428	57.69
344.893	56.69
345.357	59.39
345.822	55.49
346.286	67.99
346.751	68.49
347.215	66.69
347.679	68.29
348.144	94.99
348.608	78.69
349.073	68.29
349.537	74.19
350.001	76.49
350.465	87.89
350.93	81.89
351.394	75.39
351.858	73.59
352.322	82.89
352.786	86.89
353.25	96.99
353.715	109.39
354.179	101.39
354.643	118.69
355.107	132.29
355.571	102.79
356.035	105.99
356.498	117.69
356.962	118.59
357.426	135.29
357.89	109.59
358.354	84.09
358.818	80.39
359.281	73.59
359.745	80.69
360.209	77.89
360.673	79.49
361.136	80.79
361.6	80.99
362.064	83.79
362.527	75.99
362.991	87.69
363.454	78.39
363.918	77.09
364.381	74.19
364.845	74.59
365.308	79.69
365.772	83.29
366.235	85.29
366.698	82.59
367.162	81.89
367.625	87.89
368.088	86.59
368.552	85.49
369.015	89.79
369.478	93.99
369.941	97.99
370.404	92.29
370.867	104.19
371.331	105.49
371.794	119.19
372.257	113.39
372.72	118.49
373.183	103.79
373.646	102.39
374.109	101.89
374.572	103.19
375.035	107.09
375.497	104.49
375.96	103.59
376.423	102.39
376.886	114.79
377.349	106.09
377.811	100.39
378.274	104.79
378.737	102.89
379.199	110.39
379.662	111.29
380.125	111.89
380.587	116.69
381.05	125.29
381.512	123.99
381.975	130.19
382.437	126.89
382.9	123.59
383.362	134.49
383.825	141.39
384.287	150.89
384.75	138.89
385.212	145.79
385.674	137.99
386.136	128.09
386.599	121.99
387.061	121.99
387.523	129.19
387.985	135.49
388.447	143.79
388.91	138.99
389.372	153.99
389.834	152.39
390.296	154.19
390.758	157.29
391.22	173.19
391.682	211.19
392.144	309.69
392.606	233.99
393.068	167.29
393.529	171.89
393.991	150.69
394.453	141.09
394.915	152.99
395.377	196.39
395.838	219.19
396.3	155.59
396.762	137.49
397.224	133.99
397.685	126.79
398.147	126.69
398.608	128.79
399.07	132.99
399.531	131.39
399.993	148.39
400.454	147.39
400.916	146.39
401.377	144.29
401.839	153.99
402.3	153.59
402.762	161.39
403.223	179.39
403.684	162.99
404.145	160.79
404.607	153.29
405.068	162.89
405.529	165.99
405.99	185.89
406.451	175.49
406.913	173.89
407.374	160.39
407.835	163.29
408.296	172.79
408.757	171.19
409.218	194.09
409.679	184.69
410.14	174.39
410.601	172.09
411.062	183.29
411.522	198.39
411.983	191.29
412.444	173.59
412.905	178.69
413.366	180.29
413.826	192.29
414.287	208.49
414.748	258.59
415.208	242.89
415.669	205.39
416.13	202.09
416.59	197.29
417.051	212.09
417.511	216.49
417.972	235.69
418.432	242.29
418.893	277.69
419.353	243.79
419.814	198.69
420.274	182.49
420.734	176.09
421.195	199.09
421.655	197.39
422.115	183.79
422.576	188.69
423.036	190.69
423.496	207.89
423.956	216.39
424.416	232.99
424.876	264.79
425.336	253.99
425.797	258.59
426.257	252.09
426.717	245.29
427.177	232.29
427.637	218.59
428.097	235.59
428.556	245.59
429.016	267.49
429.476	262.29
429.936	278.69
430.396	279.09
430.856	296.39
431.315	320.19
431.775	352.99
432.235	378.59
432.694	341.79
433.154	366.69
433.614	399.69
434.073	341.89
434.533	281.89
434.993	270.49
435.452	277.19
435.912	299.59
436.371	286.99
436.83	282.49
437.29	269.99
437.749	250.09
438.209	248.79
438.668	271.09
439.127	290.59
439.587	265.19
440.046	252.29
440.505	256.59
440.964	276.49
441.424	333.79
441.883	307.59
442.342	252.89
442.801	221.39
443.26	220.09
443.719	220.59
444.178	217.99
444.637	215.89
445.096	216.69
445.555	222.29
446.014	221.39
446.473	228.39
446.932	232.79
447.391	228.69
447.849	233.79
448.308	226.29
448.767	217.69
449.226	233.99
449.685	238.39
450.143	247.79
450.602	241.69
451.061	224.69
451.519	231.19
451.978	230.19
452.436	228.59
452.895	241.39
453.353	249.19
453.812	238.89
454.27	234.19
454.729	236.69
455.187	240.19
455.646	244.19
456.104	241.89
456.562	256.69
457.021	267.49
457.479	261.59
457.937	273.19
458.395	253.09
458.854	245.49
459.312	249.59
459.77	272.69
460.228	250.29
460.686	243.69
461.144	247.89
461.602	244.99
462.06	244.59
462.518	254.09
462.976	252.69
463.434	253.09
463.892	261.09
464.35	273.39
464.808	288.99
465.266	266.09
465.724	267.69
466.181	268.19
466.639	262.69
467.097	289.59
467.555	296.19
468.012	298.59
468.47	302.19
468.928	327.79
469.385	335.79
469.843	349.79
470.3	352.79
470.758	358.89
471.215	385.39
471.673	401.39
472.13	413.49
472.588	413.59
473.045	368.09
473.503	372.29
473.96	393.79
474.417	400.59
474.875	429.69
475.332	475.89
475.789	457.59
476.246	464.29
476.704	490.59
477.161	505.49
477.618	517.09
478.075	562.39
478.532	609.89
478.989	687.69
479.446	805.59
479.903	758.79
480.36	805.79
480.817	859.29
481.274	956.49
481.731	1055.39
482.188	1145.99
482.645	1292.69
483.102	1379.09
483.558	1536.19
484.015	1578.09
484.472	1557.59
484.929	1500.29
485.385	1458.69
485.842	1420.19
486.299	1333.39
486.755	1291.39
487.212	1085.89
487.668	920.29
488.125	847.79
488.582	765.19
489.038	729.19
489.494	704.19
489.951	676.29
490.407	665.69
490.864	640.19
491.32	632.19
491.776	638.09
492.233	631.89
492.689	601.69
493.145	603.39
493.602	595.69
494.058	599.99
494.514	607.69
494.97	631.19
495.426	644.49
495.882	621.59
496.338	604.99
496.794	611.89
497.251	606.49
497.707	628.59
498.163	623.59
498.618	627.99
499.074	638.89
499.53	675.99
499.986	674.89
500.442	648.19
500.898	626.39
501.354	617.39
501.809	633.19
502.265	630.79
502.721	660.79
503.177	659.39
503.632	659.29
504.088	672.89
504.543	706.69
504.999	700.89
505.455	648.29
505.91	619.69
506.366	632.29
506.821	621.09
507.277	616.19
507.732	615.79
508.187	615.09
508.643	622.89
509.098	624.89
509.553	646.19
510.009	655.79
510.464	662.09
510.919	688.69
511.375	685.99
511.83	699.89
512.285	712.59
512.74	757.49
513.195	775.39
513.65	758.79
514.105	753.89
514.56	756.99
515.015	788.99
515.47	796.49
515.925	774.39
516.38	771.49
516.835	777.09
517.29	771.19
517.745	759.49
518.2	750.59
518.655	738.39
519.109	737.89
519.564	725.49
520.019	720.59
520.474	703.29
520.928	718.69
521.383	709.89
521.838	699.59
522.292	705.09
522.747	701.99
523.201	701.09
523.656	687.09
524.11	684.19
524.565	679.39
525.019	680.89
525.474	697.49
525.928	689.39
526.382	681.99
526.837	687.79
527.291	695.89
527.745	681.99
528.2	694.69
528.654	678.39
529.108	674.19
529.562	675.59
530.016	684.09
530.47	678.89
530.925	673.09
531.379	688.89
531.833	705.79
532.287	680.39
532.741	684.99
533.195	689.29
533.649	694.19
534.103	704.09
534.556	694.39
535.01	693.59
535.464	689.39
535.918	710.69
536.372	707.89
536.826	710.09
537.279	697.39
537.733	693.89
538.187	695.69
538.64	701.69
539.094	704.59
539.548	723.59
540.001	722.49
540.455	713.09
540.908	721.19
541.362	731.69
541.815	735.39
542.269	747.39
542.722	753.19
543.175	759.59
543.629	756.49
544.082	780.49
544.536	785.09
544.989	771.99
545.442	781.29
545.895	774.29
546.349	779.59
546.802	785.09
547.255	788.99
547.708	794.09
548.161	804.89
548.614	819.29
549.067	810.29
549.52	806.49
549.973	798.89
550.426	798.39
550.879	777.89
551.332	782.69
551.785	801.69
552.238	796.19
552.691	813.19
553.144	815.39
553.596	836.49
554.049	851.69
554.502	889.49
554.955	897.79
555.407	897.99
555.86	890.79
556.313	873.39
556.765	863.39
557.218	869.19
557.67	870.89
558.123	863.09
558.576	855.29
559.028	860.99
559.48	871.39
559.933	861.39
560.385	828.79
560.838	796.29
561.29	763.89
561.742	778.09
562.195	763.29
562.647	755.69
563.099	774.59
563.551	765.69
564.004	779.89
564.456	757.19
564.908	752.79
565.36	738.89
565.812	729.29
566.264	723.19
566.716	724.39
567.168	713.19
567.62	713.99
568.072	703.19
568.524	682.79
568.976	689.99
569.428	678.59
569.88	666.69
570.332	674.59
570.784	684.89
571.235	680.39
571.687	687.79
572.139	695.69
572.59	700.59
573.042	705.79
573.494	691.19
573.945	702.99
574.397	683.49
574.849	690.49
575.3	691.49
575.752	681.49
576.203	666.59
576.655	684.19
577.106	671.19
577.557	664.79
578.009	665.29
578.46	664.49
578.912	669.29
579.363	657.79
579.814	661.59
580.265	666.39
580.717	660.19
581.168	663.99
581.619	669.29
582.07	667.39
582.521	674.19
582.972	672.89
583.423	675.09
583.875	671.79
584.326	706.09
584.777	741.69
585.227	829.29
585.678	920.29
586.129	1022.59
586.58	1083.09
587.031	1171.99
587.482	1326.69
587.933	1526.79
588.384	1318.09
588.834	975.49
589.285	805.99
589.736	784.59
590.186	782.59
590.637	769.19
591.088	737.89
591.538	731.59
591.989	721.99
592.439	733.49
592.89	724.79
593.34	707.09
593.791	713.59
594.241	697.39
594.692	710.19
595.142	697.59
595.593	697.59
596.043	693.49
596.493	714.99
596.943	706.69
597.394	710.49
597.844	709.69
598.294	728.59
598.744	755.09
599.195	768.59
599.645	800.99
600.095	851.69
600.545	902.19
600.995	967.09
601.445	1015.19
601.895	1076.29
602.345	1124.09
602.795	1099.29
603.245	1059.69
603.695	1008.09
604.145	950.39
604.594	903.89
605.044	856.49
605.494	794.79
605.944	751.89
606.393	741.29
606.843	727.59
607.293	725.89
607.743	731.39
608.192	743.59
608.642	750.69
609.091	762.29
609.541	760.69
609.99	762.69
610.44	761.19
610.889	722.89
611.339	695.79
611.788	693.59
612.238	700.09
612.687	716.29
613.136	719.19
613.586	734.59
614.035	730.89
614.484	752.39
614.933	757.99
615.383	755.49
615.832	741.69
616.281	725.89
616.73	684.09
617.179	665.69
617.628	648.59
618.077	634.19
618.526	620.19
618.975	614.59
619.424	615.09
619.873	613.39
620.322	611.49
620.771	597.49
621.22	607.29
621.669	594.79
622.118	585.79
622.567	588.39
623.015	569.09
623.464	571.79
623.913	562.79
624.361	551.49
624.81	551.29
625.259	545.49
625.707	550.69
626.156	547.29
626.604	565.39
627.053	555.69
627.501	563.99
627.95	560.19
628.398	576.19
628.847	577.59
629.295	566.39
629.744	579.59
630.192	564.79
630.64	564.69
631.089	565.99
631.537	578.59
631.985	592.59
632.433	616.29
632.881	625.19
633.33	668.79
633.778	654.99
634.226	575.69
634.674	569.99
635.122	585.99
635.57	600.49
636.018	640.09
636.466	583.49
636.914	559.19
637.362	563.19
637.81	578.39
638.258	574.09
638.705	578.89
639.153	604.99
639.601	619.39
640.049	639.09
640.497	677.89
640.944	692.09
641.392	639.89
641.84	616.39
642.287	586.09
642.735	581.09
643.182	571.49
643.63	573.99
644.078	579.59
644.525	594.89
644.973	598.69
645.42	610.49
645.867	624.99
646.315	638.89
646.762	654.79
647.21	690.09
647.657	710.69
648.104	745.79
648.551	770.79
648.999	840.99
649.446	914.19
649.893	1015.39
650.34	1162.09
650.787	1410.79
651.234	1758.49
651.682	2296.19
652.129	3150.99
652.576	4564.69
653.023	6713.89
653.47	9190.59
653.917	11381.69
654.363	13047.69
654.81	14290.89
655.257	13613.19
655.704	8930.39
656.151	5268.29
656.598	3403.59
657.044	2420.69
657.491	1858.99
657.938	1472.49
658.385	1245.89
658.831	1082.59
659.278	973.59
659.724	857.89
660.171	785.59
660.618	720.49
661.064	691.89
661.511	669.39
661.957	649.99
662.404	637.79
662.85	650.39
663.296	620.19
663.743	559.59
664.189	539.89
664.635	540.09
665.082	521.79
665.528	519.99
665.974	516.59
666.42	514.19
666.867	505.79
667.313	492.69
667.759	488.99
668.205	484.79
668.651	497.89
669.097	494.49
669.543	513.49
669.989	478.29
670.435	449.49
670.881	439.29
671.327	458.09
671.773	475.29
672.219	489.39
672.665	545.79
673.11	584.59
673.556	630.89
674.002	672.99
674.448	651.29
674.893	553.29
675.339	470.29
675.785	436.49
676.23	416.49
676.676	388.49
677.122	383.29
677.567	375.69
678.013	363.69
678.458	353.19
678.904	358.49
679.349	342.59
679.794	355.09
680.24	351.59
680.685	355.79
681.131	349.49
681.576	350.99
682.021	353.69
682.466	352.99
682.912	348.29
683.357	354.99
683.802	379.79
684.247	412.89
684.692	451.39
685.137	494.69
685.583	538.59
686.028	564.39
686.473	507.99
686.918	445.89
687.363	417.49
687.807	391.79
688.252	365.99
688.697	352.79
689.142	338.49
689.587	336.59
690.032	327.79
690.477	345.59
690.921	348.19
691.366	385.69
691.811	401.59
692.255	428.79
692.7	465.09
693.145	502.89
693.589	711.89
694.034	1144.69
694.478	1543.69
694.923	1711.89
695.367	2226.49
695.812	1178.69
696.256	499.59
696.701	376.29
697.145	353.39
697.59	330.09
698.034	325.69
698.478	333.59
698.922	322.59
699.367	332.39
699.811	340.19
700.255	357.99
700.699	391.89
701.143	428.49
701.588	482.89
702.032	517.19
702.476	513.09
702.92	492.49
703.364	498.69
703.808	646.99
704.252	1064.29
704.696	1471.69
705.14	1666.09
705.584	2105.69
706.027	1049.09
706.471	514.89
706.915	403.79
707.359	347.79
707.803	319.09
708.246	307.29
708.69	312.39
709.134	314.59
709.577	313.19
710.021	321.19
710.465	309.39
710.908	297.99
711.352	297.99
711.795	317.69
712.239	354.69
712.682	398.99
713.126	419.29
713.569	464.09
714.012	378.09
714.456	322.69
714.899	291.39
715.342	274.99
715.786	271.39
716.229	255.79
716.672	259.49
717.115	250.09
717.558	252.69
718.002	248.59
718.445	260.79
718.888	281.29
719.331	292.09
719.774	306.59
720.217	307.39
720.66	291.49
721.103	266.99
721.546	247.59
721.989	249.89
722.432	227.49
722.874	241.39
723.317	227.79
723.76	241.99
724.203	257.79
724.645	329.59
725.088	451.29
725.531	570.89
725.974	631.79
726.416	545.29
726.859	308.89
727.301	247.49
727.744	237.59
728.187	233.49
728.629	239.49
729.071	240.39
729.514	263.69
729.956	270.79
730.399	282.59
730.841	288.89
731.283	280.09
731.726	265.69
732.168	268.19
732.61	270.69
733.053	286.99
733.495	321.39
733.937	345.79
734.379	400.19
734.821	439.49
735.263	549.69
735.705	859.59
736.148	1634.99
736.59	2587.59
737.032	2991.49
737.474	2447.69
737.916	807.89
738.357	431.19
738.799	325.39
739.241	297.19
739.683	285.79
740.125	297.39
740.567	300.89
741.008	315.49
741.45	317.69
741.892	314.69
742.334	354.09
742.775	357.89
743.217	343.19
743.658	274.39
744.1	254.59
744.542	263.99
744.983	310.39
745.425	336.39
745.866	337.29
746.307	283.29
746.749	281.39
747.19	331.89
747.632	465.29
748.073	903.29
748.514	1906.49
748.956	2841.49
749.397	3579.59
749.838	2971.49
750.279	2898.79
750.72	1476.69
751.162	549.19
751.603	321.69
752.044	250.49
752.485	212.99
752.926	213.19
753.367	212.19
753.808	192.69
754.249	191.09
754.69	186.69
755.131	181.99
755.572	178.49
756.013	186.39
756.453	182.99
756.894	188.89
757.335	196.49
757.776	193.99
758.216	197.39
758.657	193.19
759.098	196.69
759.538	235.29
759.979	274.99
760.42	381.39
760.86	727.59
761.301	1890.09
761.741	4486.49
762.182	6288.39
762.622	4414.39
763.063	1290.89
763.503	536.59
763.943	342.29
764.384	360.69
764.824	419.69
765.264	454.69
765.705	316.49
766.145	222.09
766.585	187.39
767.025	189.79
767.465	189.29
767.906	253.69
768.346	333.49
768.786	349.09
769.226	270.59
769.666	329.59
770.106	655.19
770.546	1602.79
770.986	2611.59
771.426	2329.69
771.866	792.29
772.306	330.69
772.745	215.19
773.185	180.69
773.625	174.29
774.065	171.69
774.505	197.69
774.944	319.99
775.384	698.89
775.824	1226.89
776.263	1178.89
776.703	508.39
777.142	228.59
777.582	159.09
778.021	140.69
778.461	139.89
778.9	144.29
779.34	138.19
779.779	123.49
780.219	111.79
780.658	111.49
781.097	111.89
781.537	115.29
781.976	110.59
782.415	108.29
782.855	109.69
783.294	98.69
783.733	106.59
784.172	107.09
784.611	106.59
785.05	108.79
785.489	110.39
785.928	117.49
786.367	123.99
786.806	122.69
787.245	126.69
787.684	135.99
788.123	150.79
788.562	134.19
789.001	122.29
789.44	122.09
789.879	119.89
790.317	120.19
790.756	129.59
791.195	134.69
791.634	151.49
792.072	208.19
792.511	369.49
792.95	1050.19
793.388	2121.99
793.827	1881.99
794.265	672.29
794.704	288.19
795.142	182.19
795.581	149.89
796.019	139.39
796.458	130.59
796.896	124.59
797.334	127.99
797.773	150.79
798.211	220.49
798.649	454.89
799.087	1050.49
799.526	1597.69
799.964	2007.59
800.402	1959.29
800.84	754.09
801.278	298.39
801.716	193.29
802.154	158.59
802.592	143.59
803.03	137.89
803.468	135.79
803.906	140.39
804.344	146.59
804.782	140.49
805.22	141.69
805.658	129.79
806.096	144.99
806.533	157.29
806.971	178.49
807.409	220.39
807.847	315.09
808.284	690.89
808.722	1912.29
809.16	3239.69
809.597	3154.79
810.035	5421.99
810.472	5589.59
810.91	2040.29
811.347	794.39
811.785	399.89
812.222	252.99
812.66	191.59
813.097	171.19
813.535	146.49
813.972	131.09
814.409	115.79
814.846	104.49
815.284	116.19
815.721	100.49
816.158	106.39
816.595	131.39
817.032	183.09
817.47	200.59
817.907	163.29
818.344	161.49
818.781	117.99
819.218	99.99
819.655	123.09
820.092	179.59
820.529	212.39
820.966	174.69
821.403	134.49
821.839	108.89
822.276	104.89
822.713	122.39
823.15	140.99
823.587	113.09
824.023	151.79
824.46	315.79
824.897	911.99
825.333	1336.89
825.77	571.99
826.206	231.69
826.643	136.09
827.08	100.29
827.516	82.29
827.953	74.19
828.389	82.59
828.825	69.09
829.262	65.59
829.698	63.69
830.135	68.69
830.571	62.09
831.007	62.19
831.443	64.09
831.88	63.79
832.316	69.39
832.752	61.49
833.188	66.19
833.624	62.99
834.06	69.79
834.497	69.49
834.933	70.19
835.369	79.69
835.805	68.19
836.241	75.19
836.677	82.39
837.112	85.49
837.548	99.99
837.984	137.79
838.42	203.29
838.856	514.49
839.292	1542.79
839.727	2257.89
840.163	1064.39
840.599	944.49
841.034	2039.19
841.47	2052.09
841.906	772.19
842.341	334.99
842.777	230.19
843.212	321.69
843.648	315.59
844.083	147.79
844.519	99.29
844.954	73.39
845.39	54.99
845.825	62.19
846.261	51.09
846.696	57.29
847.131	59.79
847.566	55.59
848.002	52.29
848.437	53.89
848.872	60.39
849.307	70.49
849.742	88.09
850.177	184.39
850.613	563.59
851.048	855.99
851.483	373.89
851.918	151.29
852.353	90.59
852.788	66.99
853.223	57.89
853.657	55.09
854.092	53.39
854.527	41.59
854.962	35.49
855.397	42.69
855.832	54.69
856.266	40.59
856.701	37.29
857.136	33.89
857.57	40.99
858.005	46.99
858.44	55.79
858.874	52.29
859.309	59.89
859.743	40.69
860.178	48.69
860.612	43.59
861.047	56.09
861.481	64.69
861.915	66.89
862.35	49.29
862.784	33.99
863.218	39.19
863.653	36.79
864.087	54.39
864.521	51.59
864.955	79.59
865.39	155.29
865.824	173.89
866.258	118.09
866.692	159.39
867.126	171.29
867.56	98.29
867.994	55.69
868.428	38.69
868.862	51.59
869.296	50.89
869.73	58.29
870.164	48.79
870.598	51.29
871.031	37.59
871.465	35.49
871.899	32.49
872.333	22.89
872.766	21.29
873.2	25.29
873.634	27.19
874.067	24.29
874.501	18.69
874.935	27.59
875.368	33.09
875.802	28.49
876.235	27.69
876.669	24.89
877.102	24.69
877.535	19.59
877.969	23.29
878.402	23.39
878.836	26.39
879.269	23.19
879.702	23.49
880.135	24.19
880.569	23.09
881.002	30.19
881.435	23.79
881.868	17.89
882.301	23.49
882.734	17.99
883.167	22.09
883.601	21.39
884.034	21.29
884.467	11.49
884.899	19.29
885.332	13.59
885.765	19.29
886.198	17.59
886.631	23.09
887.064	17.99
887.497	22.19
887.929	24.59
888.362	13.19
888.795	16.59
889.228	21.29
889.66	17.49
890.093	23.39
890.526	11.19
890.958	13.79
891.391	18.89
891.823	20.99
892.256	16.09
892.688	16.29
893.121	11.09
893.553	15.99
893.985	23.19
894.418	19.49
894.85	16.79
895.282	14.89
895.715	14.49
896.147	20.29
896.579	16.39
897.011	16.79
897.444	22.79
897.876	14.99
898.308	19.29
898.74	23.59
899.172	13.09
899.604	22.89
900.036	17.69
900.468	11.59
900.9	15.59
901.332	15.09
901.764	9.19
902.196	19.29
902.628	16.69
903.06	20.19
903.491	30.79
903.923	25.49
904.355	19.99
904.787	27.49
905.218	23.79
905.65	24.19
906.082	17.19
906.513	11.39
906.945	17.79
907.376	14.19
907.808	18.89
908.239	20.69
908.671	22.89
909.102	24.59
909.534	29.79
909.965	46.59
910.397	83.29
910.828	319.49
911.259	467.99
911.691	220.59
912.122	108.39
912.553	51.39
912.984	33.99
913.415	27.89
913.847	28.39
914.278	14.89
914.709	14.89
915.14	15.89
915.571	20.09
916.002	16.89
916.433	22.59
916.864	19.39
917.295	10.79
917.726	24.99
918.157	15.09
918.587	29.59
919.018	19.39
919.449	26.19
919.88	28.09
920.311	34.89
920.741	45.59
921.172	166.29
921.603	153.79
922.033	69.39
922.464	50.39
922.895	21.99
923.325	25.19
923.756	15.79
924.186	14.99
924.617	26.79
925.047	42.19
925.478	52.69
925.908	46.89
926.338	30.69
926.769	24.89
927.199	22.19
927.629	9.19
928.06	21.29
928.49	16.09
928.92	16.39
929.35	9.39
929.78	10.69
930.21	6.19
930.641	11.79
931.071	9.99
931.501	8.79
931.931	12.39
932.361	6.49
932.791	0.39
933.221	6.89
933.651	5.19
934.08	13.89
934.51	30.49
934.94	14.09
935.37	8.79
935.8	13.79
936.229	8.39
936.659	9.99
937.089	4.59
937.519	15.29
937.948	24.09
938.378	12.29
938.807	7.39
939.237	7.29
939.666	8.69
940.096	-4.31
940.525	2.89
940.955	3.59
941.384	1.99
941.814	-2.51
942.243	1.69
942.672	5.69
943.102	-5.71
943.531	1.09
943.96	7.49
944.39	0.59
944.819	-0.81
945.248	-3.61
945.677	3.19
946.106	6.59
946.535	7.79
946.964	1.69
947.393	0.49
947.822	5.39
948.251	-1.01
948.68	4.69
949.109	2.79
949.538	5.39
949.967	1.09
950.396	3.79
950.825	-1.91
951.254	1.59
951.682	-5.11
952.111	0.09
952.54	-0.51
952.969	-4.51
953.397	-1.91
953.826	3.39
954.254	-3.21
954.683	-0.81
955.112	-4.01
955.54	1.19
955.969	0.39
956.397	-0.11
956.826	-3.81
957.254	-1.51
957.682	0.79
958.111	4.89
958.539	1.59
958.967	3.39
959.396	-2.71
959.824	-0.61
960.252	3.49
960.68	-9.11
961.109	0.19
961.537	-4.21
961.965	-1.91
962.393	-5.01
962.821	-4.11
963.249	2.09
963.677	7.39
964.105	4.79
964.533	42.09
964.961	43.59
965.389	23.39
965.817	12.99
966.245	7.79
966.672	2.49
967.1	-9.81
967.528	-1.51
967.956	-2.61
968.383	4.39
968.811	-2.81
969.239	3.79
969.666	-3.11
970.094	0.59
970.522	-1.91
970.949	3.59
971.377	2.59
971.804	-4.31
972.232	-4.01
972.659	-2.71
973.087	-10.41
973.514	-1.11
973.941	-1.21
974.369	1.99
974.796	1.39
975.223	3.19
975.651	1.19
976.078	0.79
976.505	-0.41
976.932	4.19
977.359	16.69
977.786	13.69
978.214	1.69
978.641	-3.21
979.068	-6.71
979.495	-1.61
979.922	-3.81
980.349	-0.51
980.776	9.19
981.202	1.79
981.629	3.79
982.056	8.79
982.483	-3.91
982.91	6.89
983.337	-5.91
983.763	5.49
984.19	0.19
984.617	-2.81
985.043	-5.11
985.47	2.79
985.897	-0.41
986.323	-9.11
986.75	0.79
987.176	-1.71
987.603	-4.71
988.029	-3.31
988.456	-0.41
988.882	6.79
989.308	-6.41
989.735	-2.51
990.161	3.89
990.587	-2.91
991.014	3.09
991.44	1.79
991.866	2.99
992.292	-2.01
992.719	0.89
993.145	9.29
993.571	-6.01
993.997	-9.01
994.423	-0.11
994.849	-5.31
995.275	-0.51
995.701	4.39
996.127	-3.71
996.553	1.79
996.979	-6.31
997.405	-0.51
997.83	-7.51
998.256	-6.11
998.682	-2.61
999.108	-8.71
999.534	6.19
999.959	4.69
1000.385	-4.51
1000.811	1.99
1001.236	-2.41
1001.662	-11.41
1002.087	-8.01
1002.513	1.19
1002.938	-1.41
1003.364	-2.71
1003.789	4.69
1004.215	4.79
1004.64	-1.31
1005.066	0.79
1005.491	-2.21
1005.916	6.19
1006.342	-2.11
1006.767	-5.41
1007.192	4.59
1007.617	0.79
1008.042	-10.41
1008.468	-11.81
1008.893	-0.51
1009.318	-4.81
1009.743	-3.11
1010.168	2.99
1010.593	1.59
1011.018	-4.21
1011.443	-6.21
1011.868	-1.11
1012.293	-5.71
1012.718	-2.31
1013.143	2.89
1013.567	-1.41
1013.992	-6.51
1014.417	-13.71
1014.842	4.19
1015.267	-4.61
1015.691	-1.51
1016.116	5.09
1016.541	1.69
1016.965	-0.21
1017.39	7.49
1017.814	0.39
1018.239	-5.81
1018.663	-8.61
1019.088	-9.01
1019.512	-0.31
1019.937	-3.71
1020.361	-5.61
1020.785	-8.31
1021.21	-5.11
1021.634	-1.21
1022.058	-2.01
1022.483	2.99
1022.907	-0.11
1023.331	-5.51
1023.755	-6.91
1024.179	-0.21
1024.604	-5.61
1025.028	-1.71
1025.452	-5.21
1025.876	4.29
1026.3	0.99
1026.724	-11.31
1027.148	1.19
1027.572	-4.31
1027.996	-0.81
1028.42	-7.41
1028.843	-2.11
1029.267	-7.31
1029.691	-1.31
1030.115	-7.01
1030.539	-11.21
1030.962	-7.71
1031.386	-14.21
1031.81	4.29
1032.233	2.39
1032.657	-0.61
1033.08	-0.01
1033.504	1.09
1033.927	-4.71
1034.351	-5.81
1034.774	-5.81
1035.198	-4.71
1035.621	-12.51
1036.045	-7.41
1036.468	-1.01
1036.891	-12.21
1037.315	-10.41
1037.738	-6.41
1038.161	4.49
1038.584	-3.61
1039.008	-8.11
1039.431	-3.81
1039.854	-2.11
1040.277	-8.21
1040.7	-11.11
1041.123	0.99
1041.546	-3.11
1041.969	-1.21
1042.392	-11.01
1042.815	-4.21
1043.238	0.29
1043.661	-0.41
1044.084	-2.11
1044.507	-5.71
1044.93	-6.51
1045.352	-4.91
1045.775	-2.81
1046.198	1.99
1046.621	-2.91
1047.043	3.19
1047.466	4.39
1047.889	-5.71
1048.311	-4.81
1048.734	-1.51
1049.156	-2.21
1049.579	1.39
1050.001	2.49
1050.424	-4.31
1050.846	-3.91
1051.269	-8.71
1051.691	-6.01
1052.113	-6.61
1052.536	-5.41
1052.958	-3.71
1053.38	-1.61
1053.802	-4.31
1054.225	-2.21
1054.647	-9.61
1055.069	-6.51
1055.491	1.09
1055.913	-1.01
1056.335	-3.61
1056.757	-2.81
1057.179	-4.91
1057.601	-9.41
1058.023	-1.71
1058.445	-4.21
1058.867	-3.41
1059.289	-0.41
1059.711	-4.61
1060.133	-5.21
1060.555	-2.81
1060.976	-10.51
1061.398	-5.41
1061.82	-10.51
1062.241	-7.81
1062.663	-6.11
1063.085	-9.61
1063.506	-0.51
1063.928	-5.11
1064.35	-6.21
1064.771	-19.71
1065.193	-1.81
1065.614	-8.41
1066.035	-2.11
1066.457	-3.11
1066.878	4.79
1067.3	-4.01
1067.721	2.59
1068.142	2.99
1068.564	-0.91
1068.985	-2.71
1069.406	1.59
1069.827	-1.71
1070.248	-0.81
1070.67	-12.01
1071.091	-12.31
1071.512	-7.11
1071.933	-7.91
1072.354	-8.71
1072.775	-8.21
1073.196	-11.31
1073.617	-2.81
1074.038	-4.71
1074.459	-3.51
1074.88	-6.51
1075.3	1.49
1075.721	-4.81
1076.142	-2.01
1076.563	0.59
1076.983	-11.21
1077.404	-5.71
1077.825	-11.81
1078.246	-2.91
1078.666	-5.41
1079.087	-4.91
1079.507	-7.11
1079.928	-0.11
1080.348	-0.61
1080.769	-5.91
1081.189	-1.41
1081.61	-10.91
1082.03	-2.11
1082.451	-4.51
1082.871	-4.91
1083.291	-9.01
1083.711	-6.91
1084.132	-8.81
1084.552	-12.11
1084.972	-1.81
1085.392	-16.21
1085.813	-6.41
1086.233	-11.31
1086.653	-5.51
1087.073	-1.01
1087.493	-4.01
1087.913	-9.81
1088.333	-8.91
1088.753	-3.71
1089.173	2.79
1089.593	-4.21
1090.013	-5.11
1090.433	5.89
1090.852	-1.01
1091.272	-1.51
1091.692	-0.31
1092.112	-6.21
1092.531	-10.51
1092.951	-15.21
1093.371	-4.01
1093.79	2.59
1094.21	-2.01
1094.63	-11.01
1095.049	-5.71
1095.469	-0.11
1095.888	-4.11
1096.308	-3.11
1096.727	1.49
1097.146	-1.71
1097.566	-1.01
1097.985	-6.31
1098.405	4.99
1098.824	-11.71
1099.243	-4.11
1099.662	-10.91
1100.082	-9.61
1100.501	-1.11
1100.92	-6.41
1101.339	-3.41
1101.758	-5.71
