Data from 20171114-ORNL-Ar_H_NY_Subt18_08-04-12-162.txt Node
Date: Tue Nov 14 08:04:12 EST 2017
User: Ender
Spectrometer: HR+D1039
Trigger mode: 0
Integration Time (sec): 2.730000E-2
Scans to average: 10
Electric dark correction enabled: true
Nonlinearity correction enabled: false
Boxcar width: 0
XAxis mode: Wavelengths
Number of Pixels in Spectrum: 2048
>>>>>Begin Spectral Data<<<<<
187.836	-4.37
188.309	-4.37
188.782	-4.37
189.255	3.93
189.728	0.63
190.201	3.63
190.674	-1.97
191.147	-0.97
191.619	-6.87
192.092	5.03
192.565	2.83
193.038	-0.27
193.511	-2.67
193.984	3.13
194.456	-3.77
194.929	4.93
195.402	-3.17
195.874	-0.07
196.347	-4.07
196.82	-6.37
197.292	4.23
197.765	-1.17
198.237	-13.17
198.71	1.13
199.182	-2.27
199.655	-0.97
200.127	4.13
200.6	-2.37
201.072	-5.77
201.544	-4.67
202.017	-8.37
202.489	5.03
202.961	-3.87
203.433	-1.17
203.906	-2.67
204.378	-7.37
204.85	-4.27
205.322	-9.67
205.794	-4.07
206.266	-0.57
206.739	-3.07
207.211	-0.97
207.683	-3.67
208.155	-3.77
208.627	-7.57
209.099	-1.17
209.57	-0.77
210.042	-6.27
210.514	-1.77
210.986	-1.07
211.458	-4.17
211.93	-6.07
212.402	0.93
212.873	-4.17
213.345	-7.27
213.817	-8.17
214.288	-1.77
214.76	-9.77
215.232	-8.47
215.703	-5.57
216.175	-1.47
216.646	-10.37
217.118	-17.37
217.589	-8.07
218.061	-4.67
218.532	-4.07
219.004	2.13
219.475	-4.67
219.946	-1.57
220.418	-5.77
220.889	2.53
221.36	0.83
221.832	-1.47
222.303	-7.17
222.774	0.83
223.245	-10.07
223.717	-8.37
224.188	-3.57
224.659	-9.07
225.13	-8.77
225.601	-2.27
226.072	-1.37
226.543	-0.17
227.014	-4.07
227.485	0.53
227.956	-9.27
228.427	-0.57
228.898	2.23
229.369	0.83
229.839	-1.97
230.31	-8.07
230.781	-2.87
231.252	-5.87
231.722	-9.57
232.193	-0.87
232.664	2.93
233.135	0.43
233.605	-4.77
234.076	-3.27
234.546	2.83
235.017	4.93
235.487	3.13
235.958	-0.27
236.428	-3.67
236.899	3.23
237.369	1.73
237.84	-8.97
238.31	2.43
238.78	2.23
239.251	0.53
239.721	-0.47
240.191	0.23
240.662	-1.27
241.132	-3.17
241.602	-2.07
242.072	-1.67
242.542	4.63
243.013	3.93
243.483	4.13
243.953	3.73
244.423	0.43
244.893	-1.27
245.363	2.43
245.833	6.23
246.303	1.33
246.773	8.03
247.243	1.73
247.712	2.33
248.182	11.93
248.652	10.03
249.122	-0.67
249.592	14.03
250.061	19.13
250.531	30.13
251.001	17.33
251.471	20.63
251.94	18.73
252.41	6.93
252.879	-4.27
253.349	10.83
253.818	10.13
254.288	4.33
254.757	5.33
255.227	4.43
255.696	1.53
256.166	1.93
256.635	10.03
257.105	8.13
257.574	5.03
258.043	11.13
258.513	8.83
258.982	11.43
259.451	5.43
259.92	8.83
260.389	5.53
260.859	14.83
261.328	11.13
261.797	11.33
262.266	11.83
262.735	2.63
263.204	7.23
263.673	-2.57
264.142	6.53
264.611	2.13
265.08	-2.17
265.549	-0.07
266.018	2.23
266.487	-1.07
266.955	2.73
267.424	-0.37
267.893	3.03
268.362	2.73
268.83	-1.37
269.299	13.73
269.768	4.73
270.236	7.13
270.705	4.03
271.174	7.13
271.642	3.73
272.111	5.33
272.579	17.53
273.048	16.53
273.516	21.03
273.985	21.13
274.453	16.93
274.922	16.33
275.39	10.23
275.858	0.63
276.327	10.33
276.795	9.23
277.263	7.53
277.731	27.43
278.2	47.53
278.668	47.43
279.136	46.33
279.604	19.33
280.072	11.53
280.54	11.73
281.008	4.33
281.477	11.63
281.945	10.93
282.413	9.33
282.881	11.33
283.348	6.53
283.816	9.93
284.284	13.13
284.752	21.13
285.22	8.33
285.688	13.73
286.156	15.63
286.623	34.03
287.091	44.03
287.559	24.73
288.026	8.33
288.494	19.23
288.962	8.33
289.429	7.63
289.897	13.13
290.364	11.93
290.832	16.83
291.3	11.13
291.767	13.43
292.234	9.23
292.702	9.73
293.169	15.83
293.637	17.73
294.104	12.63
294.571	7.73
295.039	6.93
295.506	4.93
295.973	12.43
296.44	14.43
296.908	9.83
297.375	10.63
297.842	21.33
298.309	9.23
298.776	9.53
299.243	15.83
299.71	14.93
300.177	16.53
300.644	17.63
301.111	21.93
301.578	21.23
302.045	13.63
302.512	18.93
302.979	22.03
303.446	15.73
303.913	9.13
304.379	13.23
304.846	25.03
305.313	18.13
305.78	17.93
306.246	22.03
306.713	20.63
307.18	28.43
307.646	23.83
308.113	21.73
308.579	20.23
309.046	18.13
309.512	29.83
309.979	9.03
310.445	21.63
310.912	21.23
311.378	31.53
311.845	23.63
312.311	27.63
312.777	31.63
313.244	28.43
313.71	31.73
314.176	25.53
314.642	19.53
315.109	25.53
315.575	30.03
316.041	31.33
316.507	30.23
316.973	31.13
317.439	27.13
317.905	30.23
318.371	31.13
318.837	33.23
319.303	28.73
319.769	26.63
320.235	23.83
320.701	27.73
321.167	30.33
321.633	28.53
322.099	38.23
322.564	42.03
323.03	31.83
323.496	33.33
323.962	36.83
324.427	31.33
324.893	32.73
325.359	30.73
325.824	29.63
326.29	34.83
326.755	32.93
327.221	33.83
327.686	33.83
328.152	38.33
328.617	32.03
329.083	42.73
329.548	47.63
330.014	37.83
330.479	30.83
330.944	36.03
331.41	35.73
331.875	37.03
332.34	37.83
332.805	37.73
333.271	44.53
333.736	41.63
334.201	49.43
334.666	46.43
335.131	46.93
335.596	46.43
336.061	43.83
336.526	31.03
336.991	43.03
337.456	47.23
337.921	38.53
338.386	36.33
338.851	40.53
339.316	33.53
339.781	34.33
340.246	50.33
340.711	43.13
341.175	47.43
341.64	38.53
342.105	42.33
342.569	51.03
343.034	52.43
343.499	48.33
343.963	44.93
344.428	55.13
344.893	46.33
345.357	51.63
345.822	49.23
346.286	55.83
346.751	58.63
347.215	59.93
347.679	59.53
348.144	76.13
348.608	75.33
349.073	59.23
349.537	61.33
350.001	60.23
350.465	68.33
350.93	66.93
351.394	73.33
351.858	62.43
352.322	77.13
352.786	66.13
353.25	84.93
353.715	86.83
354.179	85.13
354.643	99.13
355.107	105.53
355.571	89.93
356.035	79.63
356.498	96.03
356.962	101.23
357.426	111.03
357.89	93.03
358.354	76.13
358.818	78.93
359.281	69.43
359.745	60.03
360.209	62.33
360.673	66.03
361.136	64.83
361.6	70.03
362.064	73.63
362.527	72.03
362.991	82.73
363.454	67.93
363.918	66.63
364.381	64.23
364.845	66.83
365.308	70.93
365.772	78.23
366.235	73.93
366.698	74.03
367.162	81.13
367.625	74.03
368.088	77.83
368.552	72.93
369.015	75.43
369.478	81.33
369.941	86.23
370.404	78.93
370.867	95.03
371.331	88.23
371.794	97.03
372.257	96.33
372.72	96.93
373.183	94.33
373.646	87.63
374.109	92.73
374.572	90.93
375.035	89.43
375.497	97.03
375.96	92.83
376.423	87.63
376.886	95.93
377.349	89.33
377.811	88.73
378.274	92.13
378.737	87.83
379.199	98.13
379.662	93.23
380.125	105.43
380.587	102.63
381.05	110.73
381.512	109.93
381.975	115.83
382.437	115.23
382.9	116.43
383.362	114.03
383.825	120.43
384.287	125.53
384.75	125.93
385.212	121.43
385.674	120.23
386.136	113.53
386.599	109.03
387.061	112.33
387.523	117.63
387.985	112.23
388.447	127.43
388.91	118.13
389.372	140.33
389.834	137.13
390.296	119.33
390.758	126.63
391.22	142.33
391.682	184.03
392.144	255.33
392.606	197.73
393.068	140.13
393.529	152.93
393.991	132.53
394.453	132.13
394.915	139.03
395.377	166.73
395.838	184.73
396.3	139.53
396.762	129.43
397.224	123.03
397.685	113.13
398.147	111.43
398.608	107.43
399.07	111.13
399.531	109.93
399.993	122.63
400.454	133.13
400.916	134.23
401.377	121.33
401.839	131.93
402.3	131.53
402.762	143.23
403.223	153.83
403.684	150.73
404.145	136.03
404.607	139.83
405.068	144.93
405.529	141.53
405.99	159.43
406.451	148.83
406.913	158.63
407.374	145.43
407.835	145.53
408.296	146.03
408.757	154.03
409.218	162.63
409.679	154.73
410.14	156.93
410.601	149.43
411.062	162.73
411.522	174.13
411.983	161.03
412.444	161.23
412.905	158.93
413.366	162.93
413.826	171.93
414.287	192.93
414.748	234.33
415.208	217.13
415.669	186.53
416.13	190.33
416.59	182.03
417.051	183.53
417.511	192.83
417.972	206.33
418.432	217.23
418.893	260.13
419.353	221.13
419.814	172.43
420.274	154.73
420.734	156.53
421.195	172.03
421.655	173.63
422.115	171.43
422.576	173.33
423.036	174.13
423.496	180.43
423.956	192.63
424.416	203.03
424.876	230.83
425.336	231.63
425.797	235.03
426.257	228.23
426.717	205.63
427.177	199.13
427.637	200.93
428.097	201.53
428.556	212.73
429.016	240.33
429.476	232.43
429.936	236.93
430.396	249.63
430.856	258.43
431.315	275.13
431.775	301.23
432.235	329.73
432.694	306.83
433.154	316.33
433.614	325.23
434.073	285.63
434.533	245.63
434.993	238.13
435.452	246.73
435.912	258.13
436.371	250.73
436.83	238.93
437.29	235.73
437.749	216.03
438.209	213.73
438.668	235.33
439.127	243.03
439.587	224.43
440.046	210.93
440.505	221.93
440.964	235.43
441.424	267.43
441.883	258.53
442.342	222.03
442.801	197.33
443.26	195.43
443.719	193.73
444.178	197.63
444.637	180.43
445.096	195.23
445.555	188.73
446.014	199.63
446.473	201.73
446.932	204.63
447.391	196.13
447.849	201.13
448.308	197.43
448.767	195.63
449.226	211.83
449.685	208.83
450.143	220.43
450.602	216.83
451.061	201.23
451.519	207.93
451.978	199.33
452.436	207.93
452.895	206.53
453.353	226.33
453.812	218.23
454.27	212.33
454.729	215.63
455.187	207.73
455.646	217.73
456.104	220.93
456.562	222.33
457.021	227.43
457.479	223.03
457.937	226.43
458.395	225.43
458.854	211.63
459.312	223.13
459.77	225.03
460.228	224.33
460.686	204.83
461.144	216.83
461.602	212.13
462.06	216.43
462.518	221.53
462.976	218.33
463.434	233.03
463.892	240.83
464.35	242.73
464.808	252.83
465.266	234.53
465.724	239.43
466.181	238.53
466.639	239.93
467.097	254.73
467.555	256.53
468.012	261.23
468.47	272.93
468.928	280.13
469.385	299.53
469.843	301.63
470.3	294.53
470.758	313.33
471.215	326.43
471.673	348.73
472.13	341.53
472.588	352.73
473.045	322.83
473.503	330.83
473.96	348.33
474.417	356.43
474.875	383.13
475.332	407.53
475.789	397.23
476.246	400.83
476.704	425.33
477.161	440.63
477.618	449.43
478.075	494.33
478.532	533.13
478.989	593.63
479.446	682.63
479.903	666.33
480.36	711.83
480.817	759.43
481.274	856.23
481.731	949.73
482.188	1035.23
482.645	1151.23
483.102	1236.73
483.558	1361.63
484.015	1434.63
484.472	1406.03
484.929	1361.23
485.385	1318.33
485.842	1285.63
486.299	1214.23
486.755	1141.13
487.212	964.23
487.668	817.43
488.125	748.43
488.582	691.03
489.038	663.63
489.494	632.03
489.951	603.23
490.407	585.93
490.864	564.53
491.32	563.53
491.776	563.23
492.233	558.73
492.689	535.43
493.145	529.13
493.602	517.23
494.058	540.53
494.514	540.43
494.97	551.93
495.426	559.13
495.882	534.93
496.338	530.13
496.794	542.83
497.251	536.83
497.707	559.43
498.163	550.83
498.618	558.03
499.074	561.23
499.53	576.43
499.986	576.53
500.442	568.83
500.898	542.13
501.354	553.23
501.809	549.63
502.265	564.53
502.721	578.13
503.177	584.53
503.632	585.33
504.088	575.33
504.543	615.63
504.999	613.43
505.455	563.93
505.91	551.03
506.366	552.23
506.821	546.93
507.277	537.03
507.732	540.03
508.187	540.13
508.643	552.53
509.098	558.83
509.553	580.73
510.009	574.23
510.464	580.23
510.919	592.53
511.375	599.63
511.83	607.33
512.285	623.63
512.74	657.73
513.195	664.43
513.65	665.33
514.105	678.53
514.56	671.23
515.015	681.03
515.47	702.73
515.925	687.83
516.38	688.63
516.835	688.43
517.29	682.63
517.745	677.33
518.2	670.53
518.655	655.63
519.109	650.43
519.564	649.33
520.019	641.53
520.474	626.13
520.928	632.53
521.383	630.93
521.838	612.73
522.292	616.63
522.747	610.73
523.201	608.93
523.656	608.23
524.11	601.53
524.565	601.63
525.019	603.23
525.474	603.93
525.928	604.53
526.382	610.03
526.837	601.43
527.291	610.13
527.745	597.73
528.2	602.33
528.654	600.33
529.108	593.23
529.562	596.23
530.016	585.93
530.47	593.23
530.925	595.13
531.379	596.23
531.833	603.03
532.287	606.33
532.741	605.23
533.195	603.63
533.649	608.73
534.103	621.83
534.556	603.93
535.01	615.03
535.464	606.13
535.918	608.93
536.372	618.13
536.826	617.03
537.279	608.13
537.733	601.93
538.187	616.03
538.64	608.43
539.094	616.63
539.548	624.03
540.001	611.63
540.455	613.63
540.908	624.73
541.362	627.13
541.815	635.83
542.269	645.83
542.722	648.83
543.175	661.33
543.629	658.43
544.082	678.83
544.536	673.73
544.989	669.63
545.442	682.23
545.895	678.83
546.349	674.93
546.802	672.13
547.255	682.63
547.708	688.43
548.161	697.13
548.614	689.23
549.067	702.83
549.52	696.13
549.973	686.53
550.426	687.03
550.879	676.43
551.332	679.13
551.785	690.13
552.238	680.53
552.691	692.43
553.144	696.93
553.596	714.93
554.049	725.93
554.502	756.03
554.955	770.63
555.407	771.43
555.86	762.23
556.313	759.83
556.765	749.93
557.218	750.13
557.67	735.33
558.123	744.63
558.576	738.33
559.028	738.03
559.48	743.73
559.933	745.33
560.385	699.83
560.838	684.33
561.29	660.63
561.742	655.63
562.195	646.33
562.647	637.03
563.099	651.03
563.551	646.53
564.004	656.53
564.456	655.83
564.908	634.43
565.36	624.43
565.812	613.43
566.264	603.03
566.716	613.33
567.168	594.43
567.62	599.73
568.072	588.63
568.524	583.33
568.976	576.23
569.428	561.33
569.88	564.33
570.332	564.93
570.784	559.93
571.235	580.23
571.687	582.33
572.139	581.83
572.59	596.93
573.042	596.73
573.494	586.43
573.945	592.63
574.397	568.23
574.849	569.13
575.3	573.63
575.752	569.93
576.203	557.93
576.655	564.23
577.106	550.03
577.557	551.53
578.009	555.13
578.46	544.73
578.912	550.93
579.363	548.43
579.814	563.53
580.265	538.53
580.717	544.43
581.168	551.63
581.619	556.63
582.07	565.83
582.521	556.33
582.972	551.03
583.423	556.03
583.875	560.33
584.326	577.63
584.777	616.73
585.227	686.63
585.678	757.53
586.129	841.93
586.58	902.93
587.031	973.23
587.482	1127.33
587.933	1295.53
588.384	1107.33
588.834	816.43
589.285	655.13
589.736	641.83
590.186	635.03
590.637	624.83
591.088	615.33
591.538	596.13
591.989	597.03
592.439	592.43
592.89	585.53
593.34	577.23
593.791	577.63
594.241	573.23
594.692	577.63
595.142	570.83
595.593	564.63
596.043	573.73
596.493	591.63
596.943	580.43
597.394	584.33
597.844	580.23
598.294	601.83
598.744	603.13
599.195	638.53
599.645	656.83
600.095	688.93
600.545	738.83
600.995	776.83
601.445	827.43
601.895	883.03
602.345	932.53
602.795	905.73
603.245	862.23
603.695	826.23
604.145	776.93
604.594	738.13
605.044	702.43
605.494	645.03
605.944	608.83
606.393	596.63
606.843	573.53
607.293	588.93
607.743	587.93
608.192	602.23
608.642	609.33
609.091	613.93
609.541	622.13
609.99	616.23
610.44	614.73
610.889	577.03
611.339	562.93
611.788	558.03
612.238	555.03
612.687	581.63
613.136	585.73
613.586	586.13
614.035	604.83
614.484	605.63
614.933	609.93
615.383	604.83
615.832	592.73
616.281	570.93
616.73	556.23
617.179	537.23
617.628	523.53
618.077	506.13
618.526	494.83
618.975	482.63
619.424	483.73
619.873	489.23
620.322	496.03
620.771	480.63
621.22	472.43
621.669	473.53
622.118	468.93
622.567	460.63
623.015	454.23
623.464	450.33
623.913	446.53
624.361	431.73
624.81	441.73
625.259	442.43
625.707	445.43
626.156	439.83
626.604	448.23
627.053	446.93
627.501	436.73
627.95	441.93
628.398	455.03
628.847	450.93
629.295	455.03
629.744	456.13
630.192	448.13
630.64	447.23
631.089	442.33
631.537	454.53
631.985	455.73
632.433	470.93
632.881	478.13
633.33	511.53
633.778	493.63
634.226	446.73
634.674	445.83
635.122	453.53
635.57	464.13
636.018	486.63
636.466	457.73
636.914	440.13
637.362	457.53
637.81	452.63
638.258	458.03
638.705	453.33
639.153	480.03
639.601	483.83
640.049	502.83
640.497	519.93
640.944	551.33
641.392	508.63
641.84	482.83
642.287	459.23
642.735	442.03
643.182	451.03
643.63	443.93
644.078	453.53
644.525	466.33
644.973	472.53
645.42	475.73
645.867	488.13
646.315	496.83
646.762	514.73
647.21	535.63
647.657	560.43
648.104	588.13
648.551	601.43
648.999	655.73
649.446	713.93
649.893	770.93
650.34	896.83
650.787	1069.53
651.234	1326.23
651.682	1742.13
652.129	2383.33
652.576	3402.93
653.023	5058.53
653.47	7023.63
653.917	8880.43
654.363	10468.43
654.81	11838.43
655.257	11237.13
655.704	7269.33
656.151	4253.93
656.598	2728.83
657.044	1931.93
657.491	1462.93
657.938	1172.83
658.385	980.63
658.831	859.23
659.278	758.83
659.724	666.33
660.171	617.73
660.618	566.03
661.064	535.03
661.511	518.03
661.957	502.53
662.404	482.73
662.85	495.93
663.296	474.93
663.743	438.33
664.189	416.93
664.635	422.43
665.082	404.33
665.528	407.53
665.974	400.63
666.42	395.03
666.867	390.03
667.313	376.53
667.759	372.53
668.205	373.03
668.651	380.13
669.097	377.63
669.543	388.63
669.989	367.93
670.435	348.53
670.881	344.53
671.327	340.43
671.773	374.43
672.219	381.23
672.665	423.93
673.11	444.93
673.556	491.03
674.002	520.63
674.448	512.23
674.893	431.53
675.339	370.63
675.785	335.93
676.23	333.63
676.676	303.43
677.122	295.63
677.567	282.93
678.013	280.53
678.458	276.93
678.904	282.13
679.349	268.53
679.794	273.53
680.24	267.73
680.685	272.73
681.131	266.73
681.576	271.93
682.021	273.03
682.466	269.23
682.912	258.83
683.357	268.33
683.802	288.73
684.247	313.33
684.692	349.93
685.137	376.63
685.583	415.73
686.028	444.03
686.473	409.23
686.918	349.93
687.363	326.23
687.807	295.83
688.252	277.83
688.697	282.73
689.142	252.03
689.587	257.73
690.032	250.83
690.477	258.93
690.921	261.23
691.366	291.33
691.811	307.93
692.255	321.23
692.7	353.53
693.145	382.03
693.589	512.03
694.034	828.83
694.478	1176.73
694.923	1365.33
695.367	1812.93
695.812	934.33
696.256	381.93
696.701	271.93
697.145	256.73
697.59	247.73
698.034	245.83
698.478	247.03
698.922	251.33
699.367	249.73
699.811	262.23
700.255	271.93
700.699	293.93
701.143	313.93
701.588	359.83
702.032	399.93
702.476	392.33
702.92	373.13
703.364	377.83
703.808	474.13
704.252	761.33
704.696	1106.03
705.14	1315.73
705.584	1697.33
706.027	833.53
706.471	401.53
706.915	302.63
707.359	273.53
707.803	232.43
708.246	235.33
708.69	242.93
709.134	240.03
709.577	230.83
710.021	246.83
710.465	234.23
710.908	228.63
711.352	231.43
711.795	235.83
712.239	271.43
712.682	290.83
713.126	318.23
713.569	356.03
714.012	280.13
714.456	247.03
714.899	229.93
715.342	211.83
715.786	204.03
716.229	195.53
716.672	196.03
717.115	186.13
717.558	191.23
718.002	192.33
718.445	203.23
718.888	221.63
719.331	221.03
719.774	237.33
720.217	233.13
720.66	211.63
721.103	202.93
721.546	191.83
721.989	194.63
722.432	181.13
722.874	184.83
723.317	173.53
723.76	176.73
724.203	198.73
724.645	237.63
725.088	324.03
725.531	431.73
725.974	508.03
726.416	425.73
726.859	232.83
727.301	184.23
727.744	185.53
728.187	177.53
728.629	184.23
729.071	182.83
729.514	194.53
729.956	203.03
730.399	214.63
730.841	217.63
731.283	213.63
731.726	201.73
732.168	199.03
732.61	196.33
733.053	213.53
733.495	227.33
733.937	267.33
734.379	304.53
734.821	323.93
735.263	410.43
735.705	621.43
736.148	1160.13
736.59	1973.33
737.032	2419.63
737.474	1976.63
737.916	623.73
738.357	326.53
738.799	247.63
739.241	226.73
739.683	209.43
740.125	223.43
740.567	220.43
741.008	238.63
741.45	244.43
741.892	241.43
742.334	268.23
742.775	276.83
743.217	267.93
743.658	203.93
744.1	198.23
744.542	199.63
744.983	235.63
745.425	263.63
745.866	271.03
746.307	212.83
746.749	214.23
747.19	247.93
747.632	337.43
748.073	639.63
748.514	1377.13
748.956	2200.53
749.397	2735.43
749.838	2284.73
750.279	2355.03
750.72	1183.63
751.162	423.43
751.603	242.23
752.044	188.13
752.485	162.33
752.926	162.63
753.367	153.53
753.808	145.13
754.249	149.13
754.69	148.73
755.131	136.03
755.572	137.63
756.013	134.33
756.453	138.13
756.894	140.33
757.335	139.73
757.776	147.23
758.216	152.23
758.657	140.83
759.098	154.83
759.538	167.13
759.979	191.63
760.42	270.53
760.86	520.53
761.301	1338.13
761.741	3344.83
762.182	5229.93
762.622	3676.53
763.063	1020.13
763.503	421.73
763.943	267.93
764.384	263.43
764.824	322.73
765.264	351.63
765.705	244.73
766.145	160.73
766.585	138.93
767.025	135.33
767.465	142.73
767.906	184.93
768.346	253.13
768.786	274.33
769.226	202.83
769.666	228.43
770.106	452.63
770.546	1136.13
770.986	2069.23
771.426	1906.93
771.866	613.53
772.306	246.23
772.745	159.43
773.185	132.93
773.625	130.43
774.065	125.73
774.505	150.13
774.944	228.03
775.384	515.43
775.824	993.33
776.263	994.93
776.703	409.93
777.142	171.73
777.582	120.93
778.021	99.13
778.461	102.33
778.9	104.43
779.34	103.63
779.779	91.03
780.219	81.13
780.658	82.13
781.097	82.23
781.537	84.13
781.976	74.13
782.415	79.83
782.855	76.73
783.294	73.13
783.733	81.73
784.172	81.93
784.611	79.33
785.05	83.43
785.489	81.63
785.928	92.03
786.367	91.63
786.806	89.03
787.245	96.13
787.684	101.63
788.123	117.13
788.562	98.33
789.001	97.53
789.44	88.53
789.879	91.03
790.317	93.93
790.756	99.13
791.195	88.43
791.634	106.63
792.072	153.23
792.511	264.43
792.95	729.93
793.388	1666.13
793.827	1569.33
794.265	526.93
794.704	215.43
795.142	137.33
795.581	118.43
796.019	106.33
796.458	96.03
796.896	97.43
797.334	97.23
797.773	115.03
798.211	164.33
798.649	315.33
799.087	768.83
799.526	1220.03
799.964	1536.03
800.402	1632.93
800.84	588.93
801.278	225.03
801.716	144.63
802.154	116.03
802.592	117.33
803.03	103.43
803.468	89.63
803.906	108.53
804.344	117.83
804.782	106.73
805.22	103.83
805.658	92.63
806.096	113.03
806.533	116.13
806.971	132.43
807.409	161.33
807.847	237.93
808.284	486.53
808.722	1401.83
809.16	2605.93
809.597	2383.03
810.035	4267.73
810.472	4811.73
810.91	1684.63
811.347	619.13
811.785	308.93
812.222	201.93
812.66	153.43
813.097	127.63
813.535	107.43
813.972	107.13
814.409	86.63
814.846	81.43
815.284	87.43
815.721	74.13
816.158	84.03
816.595	88.63
817.032	141.33
817.47	163.13
817.907	134.83
818.344	121.33
818.781	92.83
819.218	74.03
819.655	91.73
820.092	148.83
820.529	165.13
820.966	140.43
821.403	104.33
821.839	84.13
822.276	81.33
822.713	89.63
823.15	100.93
823.587	93.93
824.023	112.93
824.46	218.83
824.897	675.83
825.333	1087.63
825.77	462.63
826.206	180.63
826.643	105.43
827.08	80.63
827.516	59.03
827.953	54.03
828.389	67.23
828.825	56.33
829.262	48.43
829.698	44.43
830.135	46.53
830.571	42.33
831.007	46.23
831.443	45.13
831.88	47.83
832.316	44.33
832.752	44.23
833.188	49.23
833.624	48.43
834.06	49.63
834.497	52.63
834.933	55.23
835.369	54.63
835.805	53.63
836.241	55.03
836.677	61.43
837.112	64.53
837.548	75.63
837.984	99.43
838.42	149.73
838.856	361.73
839.292	1161.03
839.727	1854.63
840.163	859.33
840.599	691.73
841.034	1577.63
841.47	1742.23
841.906	619.13
842.341	261.33
842.777	173.33
843.212	242.83
843.648	258.03
844.083	118.73
844.519	78.13
844.954	52.73
845.39	40.03
845.825	42.43
846.261	45.93
846.696	43.93
847.131	35.53
847.566	42.03
848.002	36.73
848.437	38.83
848.872	47.73
849.307	42.43
849.742	65.53
850.177	136.83
850.613	428.93
851.048	700.93
851.483	304.43
851.918	120.13
852.353	67.13
852.788	44.43
853.223	42.13
853.657	37.23
854.092	39.73
854.527	29.93
854.962	28.13
855.397	38.93
855.832	36.83
856.266	28.83
856.701	25.23
857.136	29.33
857.57	27.23
858.005	39.93
858.44	51.93
858.874	31.73
859.309	39.73
859.743	31.63
860.178	31.13
860.612	29.13
861.047	41.13
861.481	52.83
861.915	61.53
862.35	40.03
862.784	25.23
863.218	30.43
863.653	24.83
864.087	38.03
864.521	32.73
864.955	45.43
865.39	114.43
865.824	131.53
866.258	86.73
866.692	133.53
867.126	151.03
867.56	81.43
867.994	46.03
868.428	29.43
868.862	33.73
869.296	39.83
869.73	50.73
870.164	38.93
870.598	35.93
871.031	29.33
871.465	24.73
871.899	23.93
872.333	15.73
872.766	17.13
873.2	16.33
873.634	22.83
874.067	20.53
874.501	21.53
874.935	29.63
875.368	20.13
875.802	20.73
876.235	21.03
876.669	14.93
877.102	11.03
877.535	16.93
877.969	15.93
878.402	19.43
878.836	11.43
879.269	14.73
879.702	18.53
880.135	15.03
880.569	13.93
881.002	21.13
881.435	16.73
881.868	12.23
882.301	21.03
882.734	13.03
883.167	15.43
883.601	9.33
884.034	17.03
884.467	9.43
884.899	13.83
885.332	13.03
885.765	11.23
886.198	17.03
886.631	19.23
887.064	15.63
887.497	16.13
887.929	19.63
888.362	11.63
888.795	7.23
889.228	12.23
889.66	16.63
890.093	9.33
890.526	12.33
890.958	11.93
891.391	16.63
891.823	19.63
892.256	11.63
892.688	5.53
893.121	7.23
893.553	8.13
893.985	17.53
894.418	16.03
894.85	13.63
895.282	8.93
895.715	7.33
896.147	9.93
896.579	10.03
897.011	5.63
897.444	13.43
897.876	7.73
898.308	13.33
898.74	7.63
899.172	7.23
899.604	22.73
900.036	18.23
900.468	8.63
900.9	6.33
901.332	10.33
901.764	9.83
902.196	11.63
902.628	21.33
903.06	6.13
903.491	13.43
903.923	15.83
904.355	13.93
904.787	20.73
905.218	10.73
905.65	16.53
906.082	7.63
906.513	11.63
906.945	10.73
907.376	11.83
907.808	16.23
908.239	20.93
908.671	16.63
909.102	23.33
909.534	14.23
909.965	44.43
910.397	69.33
910.828	244.43
911.259	383.53
911.691	173.43
912.122	86.73
912.553	54.23
912.984	27.63
913.415	15.93
913.847	19.03
914.278	8.93
914.709	8.13
915.14	12.73
915.571	6.43
916.002	9.53
916.433	16.63
916.864	11.23
917.295	12.83
917.726	13.73
918.157	11.83
918.587	20.73
919.018	16.43
919.449	13.43
919.88	18.33
920.311	22.13
920.741	40.23
921.172	128.83
921.603	119.83
922.033	51.93
922.464	39.03
922.895	17.53
923.325	16.73
923.756	10.73
924.186	16.03
924.617	24.43
925.047	30.63
925.478	43.63
925.908	34.93
926.338	23.63
926.769	10.03
927.199	20.43
927.629	4.23
928.06	14.13
928.49	9.83
928.92	13.33
929.35	8.43
929.78	10.93
930.21	9.33
930.641	9.93
931.071	3.43
931.501	2.43
931.931	14.13
932.361	8.13
932.791	-1.17
933.221	8.23
933.651	-0.67
934.08	2.43
934.51	21.93
934.94	12.03
935.37	9.33
935.8	10.23
936.229	3.23
936.659	9.93
937.089	-0.87
937.519	14.93
937.948	15.33
938.378	12.13
938.807	3.63
939.237	1.63
939.666	5.93
940.096	-4.97
940.525	-0.77
940.955	2.33
941.384	-1.87
941.814	-4.27
942.243	2.03
942.672	0.13
943.102	1.73
943.531	-5.07
943.96	-1.37
944.39	8.73
944.819	-4.57
945.248	-1.07
945.677	0.73
946.106	3.83
946.535	10.73
946.964	0.83
947.393	5.63
947.822	4.73
948.251	-4.67
948.68	3.93
949.109	1.23
949.538	7.73
949.967	2.03
950.396	-1.27
950.825	-1.77
951.254	-2.17
951.682	-5.27
952.111	6.83
952.54	3.03
952.969	-8.87
953.397	-9.67
953.826	1.03
954.254	2.73
954.683	-1.77
955.112	-6.27
955.54	-2.87
955.969	1.63
956.397	-1.77
956.826	-4.97
957.254	-1.17
957.682	2.13
958.111	2.43
958.539	-3.37
958.967	-2.67
959.396	-0.17
959.824	2.33
960.252	-2.87
960.68	-1.27
961.109	-5.07
961.537	-4.47
961.965	4.03
962.393	-5.17
962.821	-4.87
963.249	-3.37
963.677	1.83
964.105	-1.47
964.533	34.53
964.961	25.13
965.389	13.63
965.817	5.33
966.245	-0.77
966.672	-3.17
967.1	-3.17
967.528	1.13
967.956	0.23
968.383	-3.37
968.811	-5.17
969.239	-1.27
969.666	-10.37
970.094	2.93
970.522	-5.27
970.949	3.73
971.377	0.43
971.804	4.43
972.232	-5.17
972.659	-6.77
973.087	-3.27
973.514	-5.97
973.941	-3.57
974.369	2.03
974.796	-0.47
975.223	-2.87
975.651	0.23
976.078	-1.67
976.505	-2.97
976.932	0.43
977.359	13.13
977.786	14.13
978.214	-1.27
978.641	-3.27
979.068	-6.17
979.495	-6.47
979.922	-2.77
980.349	-8.27
980.776	7.73
981.202	-3.37
981.629	6.13
982.056	0.63
982.483	-3.27
982.91	0.93
983.337	-10.67
983.763	-1.37
984.19	-3.67
984.617	-5.37
985.043	-10.27
985.47	-3.57
985.897	-6.37
986.323	-8.27
986.75	4.23
987.176	-0.57
987.603	-0.37
988.029	-0.57
988.456	0.13
988.882	1.73
989.308	-1.87
989.735	-5.47
990.161	-1.47
990.587	-7.17
991.014	-5.77
991.44	-1.37
991.866	0.33
992.292	-6.27
992.719	-8.77
993.145	-0.87
993.571	-7.57
993.997	-1.97
994.423	-4.77
994.849	-5.67
995.275	3.53
995.701	2.43
996.127	-6.87
996.553	-0.77
996.979	-8.07
997.405	-0.07
997.83	-6.37
998.256	-5.87
998.682	-8.47
999.108	-10.17
999.534	-4.07
999.959	-2.97
1000.385	-3.27
1000.811	1.73
1001.236	-12.27
1001.662	-6.47
1002.087	-5.67
1002.513	-9.67
1002.938	1.33
1003.364	-2.97
1003.789	-2.07
1004.215	1.93
1004.64	-2.17
1005.066	0.03
1005.491	2.13
1005.916	-2.17
1006.342	-5.07
1006.767	-9.27
1007.192	1.23
1007.617	-6.27
1008.042	-7.27
1008.468	-10.57
1008.893	-4.47
1009.318	-4.37
1009.743	-2.47
1010.168	0.53
1010.593	4.03
1011.018	-6.47
1011.443	-4.97
1011.868	-0.57
1012.293	1.33
1012.718	-9.97
1013.143	-1.87
1013.567	1.73
1013.992	-2.37
1014.417	-13.27
1014.842	3.53
1015.267	-7.37
1015.691	-4.37
1016.116	0.23
1016.541	-1.07
1016.965	-1.77
1017.39	-3.87
1017.814	-2.07
1018.239	-1.87
1018.663	-6.57
1019.088	-15.97
1019.512	1.13
1019.937	-3.67
1020.361	-1.57
1020.785	-7.07
1021.21	-4.37
1021.634	-6.07
1022.058	1.23
1022.483	0.23
1022.907	-3.17
1023.331	-1.67
1023.755	-0.97
1024.179	-4.07
1024.604	-3.07
1025.028	-4.07
1025.452	-5.47
1025.876	-4.77
1026.3	-2.17
1026.724	-7.47
1027.148	-10.07
1027.572	-9.07
1027.996	-5.57
1028.42	-2.37
1028.843	-4.97
1029.267	-6.47
1029.691	-8.27
1030.115	-3.67
1030.539	-6.97
1030.962	-7.37
1031.386	-12.57
1031.81	2.43
1032.233	1.83
1032.657	-3.97
1033.08	-7.97
1033.504	-9.67
1033.927	-3.47
1034.351	-5.37
1034.774	-7.47
1035.198	-6.67
1035.621	-1.97
1036.045	-7.67
1036.468	-4.37
1036.891	-14.47
1037.315	-5.57
1037.738	-5.17
1038.161	-2.37
1038.584	-8.47
1039.008	-1.87
1039.431	-6.37
1039.854	0.23
1040.277	-10.97
1040.7	-11.97
1041.123	2.03
1041.546	-6.77
1041.969	-2.97
1042.392	-6.17
1042.815	-4.87
1043.238	-3.07
1043.661	1.33
1044.084	-9.07
1044.507	-2.87
1044.93	-6.97
1045.352	-6.27
1045.775	-2.57
1046.198	-4.27
1046.621	-6.17
1047.043	-2.17
1047.466	5.83
1047.889	-5.87
1048.311	-6.77
1048.734	-1.07
1049.156	-1.37
1049.579	-7.27
1050.001	-4.07
1050.424	-2.27
1050.846	-4.67
1051.269	-0.77
1051.691	-0.87
1052.113	-7.07
1052.536	-9.87
1052.958	-7.47
1053.38	-6.77
1053.802	-7.37
1054.225	-2.57
1054.647	-8.07
1055.069	-4.77
1055.491	1.63
1055.913	-8.27
1056.335	-2.77
1056.757	-1.87
1057.179	-6.17
1057.601	-5.77
1058.023	-6.47
1058.445	-5.87
1058.867	-2.47
1059.289	-4.07
1059.711	-10.87
1060.133	-6.57
1060.555	-12.67
1060.976	-13.77
1061.398	-8.17
1061.82	-1.87
1062.241	-6.27
1062.663	-12.97
1063.085	-2.97
1063.506	1.43
1063.928	-6.07
1064.35	2.73
1064.771	-8.67
1065.193	-5.17
1065.614	-7.27
1066.035	0.03
1066.457	-2.67
1066.878	-0.87
1067.3	-5.37
1067.721	-5.67
1068.142	-7.27
1068.564	-2.17
1068.985	-4.27
1069.406	-5.87
1069.827	-0.77
1070.248	1.93
1070.67	-6.87
1071.091	-4.87
1071.512	-0.57
1071.933	-1.37
1072.354	-7.07
1072.775	-9.77
1073.196	-8.97
1073.617	-6.27
1074.038	-9.67
1074.459	-2.77
1074.88	-9.27
1075.3	2.23
1075.721	-9.87
1076.142	-2.17
1076.563	-1.37
1076.983	-8.47
1077.404	-7.07
1077.825	-11.87
1078.246	-2.37
1078.666	-11.17
1079.087	-8.17
1079.507	-5.47
1079.928	-1.57
1080.348	-2.67
1080.769	-7.77
1081.189	3.93
1081.61	2.13
1082.03	-7.97
1082.451	-3.77
1082.871	-1.47
1083.291	-11.77
1083.711	-9.37
1084.132	-4.37
1084.552	-7.37
1084.972	-3.77
1085.392	-5.47
1085.813	-7.17
1086.233	-11.77
1086.653	-7.67
1087.073	-0.37
1087.493	-5.97
1087.913	-7.97
1088.333	-1.97
1088.753	-0.57
1089.173	2.83
1089.593	-0.67
1090.013	1.03
1090.433	4.33
1090.852	-6.47
1091.272	-1.57
1091.692	-3.77
1092.112	-3.47
1092.531	-5.57
1092.951	-14.27
1093.371	-4.67
1093.79	4.93
1094.21	-6.87
1094.63	-4.37
1095.049	-6.97
1095.469	0.33
1095.888	0.53
1096.308	-0.07
1096.727	5.73
1097.146	-6.97
1097.566	-0.97
1097.985	-5.57
1098.405	-3.17
1098.824	-4.67
1099.243	-4.47
1099.662	-12.57
1100.082	-8.37
1100.501	-2.87
1100.92	-7.97
1101.339	-2.07
1101.758	-5.17
