Data from 20171114-ORNL-Ar_H_NY_Subt18_08-09-05-125.txt Node
Date: Tue Nov 14 08:09:05 EST 2017
User: Ender
Spectrometer: HR+D1039
Trigger mode: 0
Integration Time (sec): 2.730000E-2
Scans to average: 10
Electric dark correction enabled: true
Nonlinearity correction enabled: false
Boxcar width: 0
XAxis mode: Wavelengths
Number of Pixels in Spectrum: 2048
>>>>>Begin Spectral Data<<<<<
187.836	-2.77
188.309	-2.77
188.782	-2.77
189.255	5.52
189.728	0.12
190.201	6.02
190.674	-2.08
191.147	1.62
191.619	-13.18
192.092	4.02
192.565	1.82
193.038	-0.27
193.511	1.23
193.984	-0.77
194.456	-0.07
194.929	-0.38
195.402	-1.48
195.874	0.62
196.347	2.02
196.82	-13.08
197.292	8.92
197.765	-2.27
198.237	-1.88
198.71	5.02
199.182	-3.88
199.655	4.12
200.127	0.52
200.6	-1.27
201.072	-2.48
201.544	2.83
202.017	3.33
202.489	4.02
202.961	0.53
203.433	-5.27
203.906	-0.77
204.378	-7.17
204.85	-4.88
205.322	-4.68
205.794	1.02
206.266	-7.88
206.739	-12.17
207.211	-0.07
207.683	-7.38
208.155	-4.88
208.627	-7.48
209.099	-1.67
209.57	-8.67
210.042	-6.48
210.514	-5.67
210.986	0.73
211.458	-6.88
211.93	-5.98
212.402	5.73
212.873	-3.68
213.345	-7.88
213.817	-10.18
214.288	-1.48
214.76	-14.18
215.232	-2.57
215.703	-4.48
216.175	-3.27
216.646	1.73
217.118	-10.98
217.589	-1.88
218.061	-0.58
218.532	-5.77
219.004	-3.38
219.475	-0.48
219.946	-0.88
220.418	-4.77
220.889	3.92
221.36	-2.17
221.832	-3.38
222.303	-8.88
222.774	4.33
223.245	-7.38
223.717	-1.18
224.188	-6.17
224.659	-6.88
225.13	-10.67
225.601	-4.18
226.072	-0.27
226.543	-1.68
227.014	0.02
227.485	-3.27
227.956	-11.07
228.427	-4.77
228.898	-0.27
229.369	2.82
229.839	-3.77
230.31	-1.58
230.781	-0.58
231.252	-0.98
231.722	-7.98
232.193	-1.88
232.664	-6.48
233.135	-6.18
233.605	-1.27
234.076	-10.18
234.546	-0.48
235.017	-0.57
235.487	-6.27
235.958	-1.57
236.428	-8.48
236.899	-0.88
237.369	2.23
237.84	-10.88
238.31	-2.08
238.78	-3.57
239.251	-8.97
239.721	-2.48
240.191	-6.57
240.662	2.53
241.132	0.62
241.602	-4.18
242.072	-9.98
242.542	-2.77
243.013	-3.58
243.483	1.93
243.953	1.33
244.423	-2.07
244.893	-2.98
245.363	1.52
245.833	-3.38
246.303	-3.58
246.773	-1.17
247.243	-3.08
247.712	-5.68
248.182	2.52
248.652	2.82
249.122	-13.08
249.592	-1.58
250.061	3.52
250.531	9.03
251.001	-1.67
251.471	4.92
251.94	6.72
252.41	-3.97
252.879	-9.17
253.349	10.12
253.818	6.33
254.288	1.12
254.757	0.43
255.227	-8.88
255.696	-0.48
256.166	0.83
256.635	-1.38
257.105	0.62
257.574	1.62
258.043	-0.17
258.513	1.42
258.982	-0.77
259.451	-5.38
259.92	0.83
260.389	-4.17
260.859	8.52
261.328	-7.47
261.797	5.93
262.266	0.12
262.735	3.03
263.204	0.42
263.673	-3.27
264.142	3.23
264.611	-8.38
265.08	-0.18
265.549	-11.27
266.018	4.53
266.487	-10.08
266.955	-7.08
267.424	-2.98
267.893	-6.97
268.362	-4.97
268.83	-2.58
269.299	4.93
269.768	1.02
270.236	1.02
270.705	0.02
271.174	2.33
271.642	8.52
272.111	-2.67
272.579	-1.08
273.048	-3.78
273.516	-1.77
273.985	6.83
274.453	11.02
274.922	9.52
275.39	4.12
275.858	-0.77
276.327	4.12
276.795	8.52
277.263	-3.88
277.731	8.42
278.2	8.52
278.668	5.93
279.136	9.12
279.604	1.02
280.072	3.93
280.54	2.12
281.008	8.73
281.477	3.12
281.945	3.52
282.413	4.42
282.881	15.73
283.348	1.83
283.816	4.12
284.284	5.52
284.752	14.22
285.22	3.62
285.688	9.62
286.156	10.23
286.623	14.92
287.091	8.83
287.559	9.62
288.026	5.73
288.494	5.52
288.962	-2.77
289.429	4.92
289.897	10.03
290.364	13.23
290.832	11.33
291.3	7.83
291.767	6.23
292.234	12.23
292.702	4.62
293.169	9.62
293.637	16.33
294.104	7.02
294.571	5.72
295.039	-0.08
295.506	10.62
295.973	11.42
296.44	12.62
296.908	12.12
297.375	5.23
297.842	13.12
298.309	4.62
298.776	8.12
299.243	10.12
299.71	4.92
300.177	10.73
300.644	16.33
301.111	10.93
301.578	15.82
302.045	6.33
302.512	16.12
302.979	11.83
303.446	14.42
303.913	3.43
304.379	8.12
304.846	19.83
305.313	16.33
305.78	15.42
306.246	22.92
306.713	14.92
307.18	13.62
307.646	18.72
308.113	15.92
308.579	11.02
309.046	19.53
309.512	20.43
309.979	17.02
310.445	20.92
310.912	19.12
311.378	22.02
311.845	16.33
312.311	21.73
312.777	20.73
313.244	22.62
313.71	28.52
314.176	22.12
314.642	21.12
315.109	19.92
315.575	15.73
316.041	26.02
316.507	26.42
316.973	24.32
317.439	26.33
317.905	24.43
318.371	25.33
318.837	28.12
319.303	21.42
319.769	22.12
320.235	24.73
320.701	19.22
321.167	17.42
321.633	25.53
322.099	23.42
322.564	31.12
323.03	31.52
323.496	26.83
323.962	34.23
324.427	21.12
324.893	34.92
325.359	24.72
325.824	26.62
326.29	22.42
326.755	29.32
327.221	28.32
327.686	27.52
328.152	32.93
328.617	26.62
329.083	39.92
329.548	36.52
330.014	35.83
330.479	29.22
330.944	30.62
331.41	30.12
331.875	29.12
332.34	34.62
332.805	25.62
333.271	41.02
333.736	31.62
334.201	38.43
334.666	38.62
335.131	44.73
335.596	41.62
336.061	37.52
336.526	34.82
336.991	34.83
337.456	44.23
337.921	35.82
338.386	30.42
338.851	33.42
339.316	39.33
339.781	39.93
340.246	42.33
340.711	40.73
341.175	45.52
341.64	34.33
342.105	44.23
342.569	46.62
343.034	42.42
343.499	47.33
343.963	33.53
344.428	54.73
344.893	44.92
345.357	41.12
345.822	50.82
346.286	51.02
346.751	63.43
347.215	53.73
347.679	61.43
348.144	71.23
348.608	66.12
349.073	56.92
349.537	50.12
350.001	67.62
350.465	63.12
350.93	65.83
351.394	63.02
351.858	51.03
352.322	75.53
352.786	68.73
353.25	83.52
353.715	88.23
354.179	83.22
354.643	90.23
355.107	101.62
355.571	80.52
356.035	80.83
356.498	85.62
356.962	89.52
357.426	96.32
357.89	96.83
358.354	71.82
358.818	75.83
359.281	65.73
359.745	66.03
360.209	64.33
360.673	57.23
361.136	70.43
361.6	68.12
362.064	64.53
362.527	71.02
362.991	72.62
363.454	65.83
363.918	66.02
364.381	68.02
364.845	73.23
365.308	78.42
365.772	83.92
366.235	75.02
366.698	65.42
367.162	70.62
367.625	69.23
368.088	76.82
368.552	75.82
369.015	71.62
369.478	79.93
369.941	77.12
370.404	75.42
370.867	87.73
371.331	86.32
371.794	92.52
372.257	78.93
372.72	92.62
373.183	90.83
373.646	82.73
374.109	81.73
374.572	85.92
375.035	90.02
375.497	91.02
375.96	96.12
376.423	83.52
376.886	96.83
377.349	91.32
377.811	92.12
378.274	89.43
378.737	91.42
379.199	101.03
379.662	95.12
380.125	96.93
380.587	93.43
381.05	101.83
381.512	104.12
381.975	111.82
382.437	109.62
382.9	97.23
383.362	112.62
383.825	114.62
384.287	117.73
384.75	115.62
385.212	111.82
385.674	118.02
386.136	117.93
386.599	111.62
387.061	111.62
387.523	109.73
387.985	115.32
388.447	124.32
388.91	117.43
389.372	120.83
389.834	119.12
390.296	116.52
390.758	125.52
391.22	128.73
391.682	142.42
392.144	143.73
392.606	137.22
393.068	128.62
393.529	140.72
393.991	128.83
394.453	125.32
394.915	126.12
395.377	126.73
395.838	132.32
396.3	130.52
396.762	132.83
397.224	122.32
397.685	124.72
398.147	124.73
398.608	119.43
399.07	117.02
399.531	126.83
399.993	136.12
400.454	138.02
400.916	134.92
401.377	136.23
401.839	138.12
402.3	132.52
402.762	150.33
403.223	169.32
403.684	162.52
404.145	153.22
404.607	149.33
405.068	155.23
405.529	150.73
405.99	172.43
406.451	164.02
406.913	165.92
407.374	154.52
407.835	154.02
408.296	163.33
408.757	159.42
409.218	174.02
409.679	164.12
410.14	166.43
410.601	167.42
411.062	169.33
411.522	175.43
411.983	163.62
412.444	164.43
412.905	173.83
413.366	174.73
413.826	183.42
414.287	204.73
414.748	253.02
415.208	235.22
415.669	204.92
416.13	203.52
416.59	198.72
417.051	210.53
417.511	215.33
417.972	231.23
418.432	238.93
418.893	285.02
419.353	245.42
419.814	192.23
420.274	179.42
420.734	184.42
421.195	194.42
421.655	193.03
422.115	188.52
422.576	193.32
423.036	189.52
423.496	198.23
423.956	206.42
424.416	225.62
424.876	253.83
425.336	251.33
425.797	248.12
426.257	244.53
426.717	231.92
427.177	227.02
427.637	216.72
428.097	230.72
428.556	239.52
429.016	262.73
429.476	255.22
429.936	269.12
430.396	262.23
430.856	279.83
431.315	292.62
431.775	327.42
432.235	363.32
432.694	333.12
433.154	349.43
433.614	366.42
434.073	322.72
434.533	271.33
434.993	258.73
435.452	270.52
435.912	282.02
436.371	268.92
436.83	264.73
437.29	254.42
437.749	233.23
438.209	234.52
438.668	263.82
439.127	279.82
439.587	257.42
440.046	244.02
440.505	258.62
440.964	265.42
441.424	311.62
441.883	296.72
442.342	252.12
442.801	222.23
443.26	221.43
443.719	215.23
444.178	223.32
444.637	210.83
445.096	224.12
445.555	221.23
446.014	225.12
446.473	231.63
446.932	230.03
447.391	227.93
447.849	227.62
448.308	225.32
448.767	227.83
449.226	243.03
449.685	240.32
450.143	247.32
450.602	239.22
451.061	225.62
451.519	233.12
451.978	223.93
452.436	233.52
452.895	237.83
453.353	243.22
453.812	240.73
454.27	240.12
454.729	241.92
455.187	232.52
455.646	240.62
456.104	246.23
456.562	258.92
457.021	264.73
457.479	260.73
457.937	279.42
458.395	256.92
458.854	252.82
459.312	252.63
459.77	285.82
460.228	254.62
460.686	248.73
461.144	251.52
461.602	249.92
462.06	253.53
462.518	254.42
462.976	253.83
463.434	262.43
463.892	265.13
464.35	272.72
464.808	293.52
465.266	265.02
465.724	271.12
466.181	273.32
466.639	270.32
467.097	292.52
467.555	302.52
468.012	314.43
468.47	302.13
468.928	327.12
469.385	349.92
469.843	347.02
470.3	345.53
470.758	365.63
471.215	381.82
471.673	405.12
472.13	403.22
472.588	424.52
473.045	383.92
473.503	375.62
473.96	403.23
474.417	402.73
474.875	438.52
475.332	485.43
475.789	463.62
476.246	464.42
476.704	490.22
477.161	496.82
477.618	519.02
478.075	560.42
478.532	611.52
478.989	668.32
479.446	784.03
479.903	739.53
480.36	778.82
480.817	821.52
481.274	911.82
481.731	1002.53
482.188	1066.03
482.645	1182.22
483.102	1267.83
483.558	1386.12
484.015	1429.93
484.472	1408.62
484.929	1374.53
485.385	1327.02
485.842	1307.62
486.299	1263.62
486.755	1213.62
487.212	1035.33
487.668	885.83
488.125	823.93
488.582	759.53
489.038	723.23
489.494	702.92
489.951	669.43
490.407	655.92
490.864	646.12
491.32	638.63
491.776	640.73
492.233	636.72
492.689	609.82
493.145	592.72
493.602	603.23
494.058	603.82
494.514	606.42
494.97	631.23
495.426	644.82
495.882	622.43
496.338	618.13
496.794	616.82
497.251	608.52
497.707	631.23
498.163	626.73
498.618	634.52
499.074	641.93
499.53	663.62
499.986	674.72
500.442	644.33
500.898	629.42
501.354	606.33
501.809	624.83
502.265	630.43
502.721	635.12
503.177	649.03
503.632	643.43
504.088	653.33
504.543	670.72
504.999	702.23
505.455	661.52
505.91	640.82
506.366	644.82
506.821	636.33
507.277	638.62
507.732	633.42
508.187	641.82
508.643	646.93
509.098	657.32
509.553	671.92
510.009	682.83
510.464	682.02
510.919	697.43
511.375	698.62
511.83	714.92
512.285	732.42
512.74	764.02
513.195	798.52
513.65	784.73
514.105	783.62
514.56	780.22
515.015	790.12
515.47	803.93
515.925	783.23
516.38	790.52
516.835	797.32
517.29	790.62
517.745	791.92
518.2	770.22
518.655	752.52
519.109	748.53
519.564	738.03
520.019	739.02
520.474	734.12
520.928	738.83
521.383	722.52
521.838	708.02
522.292	716.82
522.747	717.43
523.201	720.33
523.656	710.73
524.11	705.03
524.565	697.73
525.019	701.62
525.474	708.52
525.928	703.12
526.382	705.82
526.837	710.02
527.291	707.43
527.745	709.22
528.2	711.62
528.654	705.52
529.108	703.02
529.562	705.73
530.016	706.33
530.47	696.52
530.925	700.52
531.379	703.63
531.833	716.53
532.287	696.42
532.741	702.53
533.195	713.03
533.649	716.93
534.103	710.63
534.556	710.02
535.01	717.12
535.464	704.93
535.918	718.73
536.372	726.72
536.826	727.62
537.279	716.33
537.733	730.43
538.187	736.23
538.64	724.42
539.094	730.63
539.548	750.92
540.001	737.22
540.455	734.33
540.908	740.62
541.362	752.32
541.815	758.82
542.269	771.52
542.722	765.62
543.175	781.93
543.629	783.62
544.082	797.93
544.536	807.23
544.989	801.03
545.442	807.82
545.895	811.22
546.349	807.03
546.802	806.92
547.255	808.12
547.708	816.73
548.161	825.52
548.614	833.62
549.067	844.13
549.52	834.73
549.973	826.23
550.426	821.12
550.879	817.62
551.332	817.12
551.785	821.12
552.238	830.73
552.691	832.92
553.144	847.42
553.596	865.92
554.049	886.43
554.502	906.82
554.955	929.22
555.407	936.52
555.86	913.73
556.313	922.23
556.765	894.92
557.218	897.03
557.67	908.02
558.123	891.22
558.576	887.82
559.028	896.53
559.48	909.83
559.933	894.13
560.385	859.62
560.838	831.52
561.29	814.23
561.742	802.12
562.195	787.13
562.647	791.53
563.099	799.12
563.551	795.32
564.004	809.12
564.456	789.83
564.908	774.12
565.36	761.52
565.812	741.12
566.264	743.53
566.716	739.92
567.168	726.42
567.62	726.33
568.072	706.93
568.524	710.83
568.976	715.42
569.428	695.82
569.88	694.93
570.332	703.83
570.784	700.62
571.235	706.12
571.687	716.43
572.139	724.72
572.59	734.83
573.042	726.92
573.494	731.53
573.945	719.52
574.397	707.82
574.849	714.23
575.3	707.43
575.752	712.32
576.203	693.92
576.655	708.62
577.106	692.43
577.557	681.03
578.009	681.23
578.46	681.42
578.912	686.83
579.363	684.73
579.814	686.72
580.265	697.03
580.717	684.93
581.168	680.73
581.619	689.53
582.07	696.92
582.521	699.83
582.972	683.53
583.423	701.92
583.875	697.13
584.326	700.42
584.777	720.12
585.227	747.43
585.678	758.02
586.129	771.92
586.58	798.62
587.031	832.02
587.482	872.33
587.933	905.82
588.384	871.62
588.834	822.13
589.285	802.22
589.736	794.02
590.186	805.12
590.637	781.12
591.088	769.83
591.538	749.13
591.989	749.73
592.439	758.42
592.89	738.52
593.34	723.52
593.791	716.62
594.241	712.92
594.692	718.82
595.142	715.93
595.593	717.02
596.043	721.33
596.493	724.63
596.943	722.33
597.394	752.82
597.844	742.02
598.294	762.42
598.744	770.93
599.195	804.73
599.645	840.82
600.095	884.92
600.545	950.03
600.995	1011.62
601.445	1052.92
601.895	1116.53
602.345	1172.43
602.795	1150.22
603.245	1104.62
603.695	1043.72
604.145	989.32
604.594	943.83
605.044	897.82
605.494	830.03
605.944	780.12
606.393	770.42
606.843	760.52
607.293	756.73
607.743	738.43
608.192	757.42
608.642	769.43
609.091	785.23
609.541	786.62
609.99	784.23
610.44	778.33
610.889	732.73
611.339	718.22
611.788	703.83
612.238	709.42
612.687	716.22
613.136	717.82
613.586	718.33
614.035	711.33
614.484	739.02
614.933	732.02
615.383	745.13
615.832	731.23
616.281	721.83
616.73	683.63
617.179	668.12
617.628	667.62
618.077	650.32
618.526	635.62
618.975	621.92
619.424	630.72
619.873	634.62
620.322	636.62
620.771	620.02
621.22	616.92
621.669	610.53
622.118	609.03
622.567	603.53
623.015	583.32
623.464	584.93
623.913	576.53
624.361	574.62
624.81	562.52
625.259	576.23
625.707	564.73
626.156	572.82
626.604	593.22
627.053	581.02
627.501	577.62
627.95	591.53
628.398	599.02
628.847	593.23
629.295	586.23
629.744	592.53
630.192	589.62
630.64	582.62
631.089	562.92
631.537	554.02
631.985	550.73
632.433	546.02
632.881	552.92
633.33	556.42
633.778	542.02
634.226	548.83
634.674	557.83
635.122	556.33
635.57	573.33
636.018	589.02
636.466	584.63
636.914	573.52
637.362	590.53
637.81	595.53
638.258	605.42
638.705	611.23
639.153	631.73
639.601	647.82
640.049	671.72
640.497	693.92
640.944	720.83
641.392	665.73
641.84	622.62
642.287	599.02
642.735	582.42
643.182	577.03
643.63	576.23
644.078	583.33
644.525	595.62
644.973	606.23
645.42	609.62
645.867	625.73
646.315	649.83
646.762	670.53
647.21	698.53
647.657	720.83
648.104	756.82
648.551	784.23
648.999	841.43
649.446	907.43
649.893	997.62
650.34	1147.22
650.787	1369.32
651.234	1682.03
651.682	2166.32
652.129	2946.62
652.576	4201.83
653.023	6123.43
653.47	8234.82
653.917	10151.02
654.363	11615.23
654.81	12715.02
655.257	12057.92
655.704	8031.53
656.151	4824.92
656.598	3156.62
657.044	2267.52
657.491	1771.12
657.938	1444.72
658.385	1203.83
658.831	1071.83
659.278	948.73
659.724	850.22
660.171	793.42
660.618	733.52
661.064	701.23
661.511	671.43
661.957	660.92
662.404	641.12
662.85	674.12
663.296	634.23
663.743	573.92
664.189	557.02
664.635	547.82
665.082	536.52
665.528	551.12
665.974	540.73
666.42	530.12
666.867	520.12
667.313	490.43
667.759	486.83
668.205	471.72
668.651	471.83
669.097	467.33
669.543	459.62
669.989	464.52
670.435	462.03
670.881	462.12
671.327	471.23
671.773	496.83
672.219	518.42
672.665	567.33
673.11	611.52
673.556	656.43
674.002	696.82
674.448	680.83
674.893	578.43
675.339	494.12
675.785	466.23
676.23	447.12
676.676	419.73
677.122	408.42
677.567	389.73
678.013	386.62
678.458	381.73
678.904	374.83
679.349	373.23
679.794	369.13
680.24	368.92
680.685	369.23
681.131	365.23
681.576	368.42
682.021	377.82
682.466	361.62
682.912	370.52
683.357	372.23
683.802	396.33
684.247	434.02
684.692	480.33
685.137	519.12
685.583	563.93
686.028	584.02
686.473	543.72
686.918	469.22
687.363	437.42
687.807	414.22
688.252	385.72
688.697	377.42
689.142	353.82
689.587	349.83
690.032	335.72
690.477	361.12
690.921	366.12
691.366	394.43
691.811	423.72
692.255	458.93
692.7	489.73
693.145	543.73
693.589	758.92
694.034	1226.53
694.478	1646.42
694.923	1816.53
695.367	2354.03
695.812	1266.12
696.256	531.83
696.701	394.53
697.145	356.52
697.59	344.72
698.034	331.02
698.478	347.62
698.922	339.73
699.367	340.63
699.811	347.43
700.255	371.92
700.699	399.82
701.143	446.33
701.588	499.03
702.032	539.63
702.476	542.83
702.92	529.73
703.364	530.52
703.808	701.72
704.252	1127.22
704.696	1563.23
705.14	1763.12
705.584	2235.03
706.027	1129.62
706.471	551.72
706.915	422.03
707.359	366.23
707.803	344.52
708.246	323.92
708.69	331.83
709.134	327.12
709.577	323.52
710.021	331.83
710.465	322.12
710.908	316.12
711.352	318.73
711.795	326.22
712.239	368.52
712.682	410.83
713.126	435.92
713.569	477.82
714.012	375.82
714.456	317.42
714.899	302.23
715.342	281.53
715.786	277.93
716.229	275.12
716.672	266.52
717.115	261.82
717.558	256.62
718.002	259.72
718.445	285.23
718.888	301.53
719.331	311.42
719.774	317.32
720.217	319.32
720.66	305.42
721.103	282.12
721.546	265.53
721.989	259.92
722.432	245.32
722.874	255.33
723.317	237.23
723.76	253.62
724.203	269.42
724.645	339.63
725.088	480.83
725.531	601.42
725.974	671.12
726.416	583.22
726.859	325.42
727.301	253.93
727.744	255.62
728.187	246.83
728.629	252.02
729.071	257.52
729.514	273.43
729.956	293.62
730.399	302.23
730.841	301.03
731.283	285.53
731.726	285.42
732.168	279.02
732.61	287.22
733.053	303.23
733.495	342.53
733.937	377.12
734.379	411.22
734.821	470.93
735.263	601.33
735.705	920.23
736.148	1758.83
736.59	2771.62
737.032	3182.02
737.474	2619.32
737.916	875.93
738.357	455.62
738.799	358.52
739.241	314.02
739.683	300.62
740.125	313.93
740.567	315.02
741.008	328.12
741.45	330.32
741.892	337.82
742.334	375.73
742.775	380.83
743.217	369.52
743.658	296.62
744.1	268.23
744.542	283.23
744.983	340.23
745.425	363.33
745.866	360.73
746.307	293.23
746.749	298.73
747.19	354.33
747.632	499.73
748.073	996.53
748.514	2050.23
748.956	3042.32
749.397	3852.62
749.838	3189.62
750.279	3102.82
750.72	1582.83
751.162	587.93
751.603	349.03
752.044	275.72
752.485	228.23
752.926	224.92
753.367	219.42
753.808	198.92
754.249	200.52
754.69	200.62
755.131	190.43
755.572	192.73
756.013	187.02
756.453	196.23
756.894	201.12
757.335	205.23
757.776	208.62
758.216	212.72
758.657	216.42
759.098	215.13
759.538	241.93
759.979	287.83
760.42	412.73
760.86	809.02
761.301	2070.92
761.741	4886.92
762.182	6694.33
762.622	4737.62
763.063	1405.03
763.503	571.83
763.943	349.92
764.384	298.12
764.824	266.42
765.264	263.52
765.705	230.03
766.145	198.43
766.585	186.32
767.025	174.72
767.465	175.12
767.906	194.23
768.346	218.92
768.786	221.72
769.226	238.32
769.666	340.83
770.106	701.83
770.546	1738.72
770.986	2796.93
771.426	2472.02
771.866	832.23
772.306	349.32
772.745	218.62
773.185	182.82
773.625	167.33
774.065	162.62
774.505	170.82
774.944	220.03
775.384	395.53
775.824	636.53
776.263	611.23
776.703	299.62
777.142	174.33
777.582	144.32
778.021	128.43
778.461	128.43
778.9	135.12
779.34	132.43
779.779	119.12
780.219	114.12
780.658	109.02
781.097	118.33
781.537	119.02
781.976	111.22
782.415	104.52
782.855	107.23
783.294	104.33
783.733	108.62
784.172	118.02
784.611	106.52
785.05	112.02
785.489	117.93
785.928	122.73
786.367	125.92
786.806	129.52
787.245	129.62
787.684	142.52
788.123	159.52
788.562	142.83
789.001	138.83
789.44	120.83
789.879	126.12
790.317	123.23
790.756	139.02
791.195	136.53
791.634	154.73
792.072	217.92
792.511	410.62
792.95	1128.03
793.388	2248.12
793.827	1980.62
794.265	710.82
794.704	294.32
795.142	196.33
795.581	158.82
796.019	145.62
796.458	142.33
796.896	134.73
797.334	137.33
797.773	162.62
798.211	243.93
798.649	495.22
799.087	1118.23
799.526	1727.62
799.964	2165.22
800.402	2089.62
800.84	808.52
801.278	322.32
801.716	202.12
802.154	163.92
802.592	154.03
803.03	153.03
803.468	145.83
803.906	154.83
804.344	153.23
804.782	149.83
805.22	146.62
805.658	144.82
806.096	156.12
806.533	171.42
806.971	186.02
807.409	233.33
807.847	349.92
808.284	750.03
808.722	2074.62
809.16	3514.63
809.597	3487.43
810.035	5853.02
810.472	6007.62
810.91	2218.93
811.347	860.12
811.785	440.12
812.222	285.33
812.66	206.92
813.097	171.52
813.535	157.22
813.972	136.83
814.409	127.33
814.846	116.43
815.284	115.42
815.721	105.32
816.158	105.33
816.595	113.53
817.032	160.62
817.47	190.82
817.907	135.83
818.344	107.62
818.781	105.23
819.218	101.12
819.655	126.62
820.092	202.62
820.529	232.92
820.966	186.12
821.403	134.23
821.839	106.52
822.276	103.02
822.713	129.92
823.15	144.93
823.587	130.02
824.023	156.23
824.46	346.73
824.897	982.73
825.333	1409.62
825.77	617.92
826.206	256.02
826.643	147.23
827.08	109.12
827.516	87.43
827.953	76.52
828.389	83.32
828.825	79.02
829.262	74.62
829.698	64.02
830.135	70.33
830.571	67.02
831.007	69.73
831.443	71.33
831.88	60.43
832.316	73.02
832.752	64.33
833.188	69.93
833.624	70.33
834.06	69.52
834.497	76.12
834.933	75.93
835.369	83.23
835.805	75.32
836.241	79.02
836.677	80.83
837.112	93.62
837.548	115.42
837.984	145.62
838.42	223.42
838.856	569.93
839.292	1659.53
839.727	2418.32
840.163	1129.72
840.599	1030.43
841.034	2206.43
841.47	2198.72
841.906	825.03
842.341	344.82
842.777	210.12
843.212	217.53
843.648	197.42
844.083	124.52
844.519	82.83
844.954	74.62
845.39	64.33
845.825	60.73
846.261	58.93
846.696	51.33
847.131	58.62
847.566	58.92
848.002	59.62
848.437	55.33
848.872	66.93
849.307	65.33
849.742	93.43
850.177	198.53
850.613	610.33
851.048	923.53
851.483	403.92
851.918	162.72
852.353	88.92
852.788	55.12
853.223	48.82
853.657	58.42
854.092	46.23
854.527	41.02
854.962	38.42
855.397	41.12
855.832	48.62
856.266	46.43
856.701	42.12
857.136	41.52
857.57	45.62
858.005	52.33
858.44	61.42
858.874	48.12
859.309	57.62
859.743	45.12
860.178	56.52
860.612	43.32
861.047	58.82
861.481	71.73
861.915	74.03
862.35	48.62
862.784	37.42
863.218	37.73
863.653	38.92
864.087	47.82
864.521	60.73
864.955	71.73
865.39	162.92
865.824	182.33
866.258	124.83
866.692	184.23
867.126	187.42
867.56	109.92
867.994	57.52
868.428	42.92
868.862	52.03
869.296	54.93
869.73	58.42
870.164	64.52
870.598	49.33
871.031	36.73
871.465	35.42
871.899	33.33
872.333	26.93
872.766	27.43
873.2	27.73
873.634	34.43
874.067	24.62
874.501	23.32
874.935	32.62
875.368	39.22
875.802	34.52
876.235	27.12
876.669	26.83
877.102	23.62
877.535	27.43
877.969	22.02
878.402	28.73
878.836	19.83
879.269	27.23
879.702	25.62
880.135	24.12
880.569	24.52
881.002	29.23
881.435	24.92
881.868	18.83
882.301	21.12
882.734	16.92
883.167	28.23
883.601	22.52
884.034	31.92
884.467	14.93
884.899	20.62
885.332	15.93
885.765	17.03
886.198	18.92
886.631	21.22
887.064	17.42
887.497	28.32
887.929	29.12
888.362	15.92
888.795	15.23
889.228	19.92
889.66	25.23
890.093	19.32
890.526	14.12
890.958	20.83
891.391	19.83
891.823	21.93
892.256	13.73
892.688	13.42
893.121	19.83
893.553	16.02
893.985	16.62
894.418	18.62
894.85	15.93
895.282	16.23
895.715	18.12
896.147	18.83
896.579	17.32
897.011	13.83
897.444	13.43
897.876	20.33
898.308	16.32
898.74	17.62
899.172	13.62
899.604	26.62
900.036	13.52
900.468	12.23
900.9	14.23
901.332	21.32
901.764	12.92
902.196	18.12
902.628	20.73
903.06	18.12
903.491	26.73
903.923	23.92
904.355	18.93
904.787	18.32
905.218	26.03
905.65	19.73
906.082	14.02
906.513	17.02
906.945	18.42
907.376	10.52
907.808	21.62
908.239	26.03
908.671	22.62
909.102	29.83
909.534	29.62
909.965	52.93
910.397	97.72
910.828	342.73
911.259	498.62
911.691	229.93
912.122	119.03
912.553	59.12
912.984	35.83
913.415	24.93
913.847	28.42
914.278	15.52
914.709	19.23
915.14	20.62
915.571	14.23
916.002	10.73
916.433	22.23
916.864	21.73
917.295	21.23
917.726	16.52
918.157	16.32
918.587	28.73
919.018	26.62
919.449	23.73
919.88	26.22
920.311	33.02
920.741	53.72
921.172	188.02
921.603	158.82
922.033	78.02
922.464	48.93
922.895	28.42
923.325	18.02
923.756	11.92
924.186	14.62
924.617	16.62
925.047	26.83
925.478	29.83
925.908	30.12
926.338	18.93
926.769	13.93
927.199	16.73
927.629	11.83
928.06	17.23
928.49	15.83
928.92	13.23
929.35	11.73
929.78	13.42
930.21	6.92
930.641	14.83
931.071	7.83
931.501	8.02
931.931	9.53
932.361	13.43
932.791	3.12
933.221	8.12
933.651	11.33
934.08	19.52
934.51	27.73
934.94	9.23
935.37	10.83
935.8	15.23
936.229	12.92
936.659	14.62
937.089	7.23
937.519	19.92
937.948	24.32
938.378	19.62
938.807	1.52
939.237	3.93
939.666	3.03
940.096	-8.27
940.525	2.42
940.955	8.43
941.384	9.62
941.814	-4.58
942.243	1.33
942.672	3.62
943.102	4.62
943.531	2.12
943.96	10.23
944.39	3.92
944.819	-3.08
945.248	5.83
945.677	1.83
946.106	5.33
946.535	2.92
946.964	2.52
947.393	3.52
947.822	10.03
948.251	-7.38
948.68	3.03
949.109	3.82
949.538	8.03
949.967	3.23
950.396	1.52
950.825	3.02
951.254	1.23
951.682	-1.18
952.111	3.93
952.54	6.73
952.969	-0.58
953.397	-0.58
953.826	0.92
954.254	-3.67
954.683	3.02
955.112	-2.38
955.54	0.83
955.969	-0.98
956.397	2.43
956.826	-3.48
957.254	4.12
957.682	5.02
958.111	5.52
958.539	-3.98
958.967	-0.27
959.396	0.32
959.824	1.12
960.252	2.12
960.68	-5.08
961.109	-1.88
961.537	-2.57
961.965	-2.08
962.393	1.83
962.821	-3.97
963.249	0.12
963.677	4.02
964.105	4.82
964.533	43.43
964.961	41.32
965.389	25.93
965.817	6.42
966.245	6.52
966.672	4.62
967.1	-5.67
967.528	2.82
967.956	-4.17
968.383	-0.68
968.811	-2.07
969.239	-1.48
969.666	-6.98
970.094	7.73
970.522	0.23
970.949	-0.98
971.377	-4.17
971.804	3.73
972.232	-0.17
972.659	-1.48
973.087	-0.08
973.514	-4.08
973.941	-5.38
974.369	6.12
974.796	4.23
975.223	1.32
975.651	-2.27
976.078	7.73
976.505	7.32
976.932	4.12
977.359	15.32
977.786	20.23
978.214	-0.58
978.641	-2.88
979.068	-6.27
979.495	-5.48
979.922	0.12
980.349	-4.48
980.776	5.82
981.202	2.73
981.629	4.02
982.056	3.82
982.483	6.52
982.91	3.73
983.337	-5.98
983.763	3.42
984.19	-3.48
984.617	-7.57
985.043	-7.38
985.47	-2.27
985.897	-6.67
986.323	-3.77
986.75	3.23
987.176	-4.88
987.603	-1.78
988.029	-1.38
988.456	-0.98
988.882	8.23
989.308	-4.58
989.735	-3.78
990.161	-1.48
990.587	-5.78
991.014	6.23
991.44	5.42
991.866	-2.57
992.292	-4.97
992.719	-4.68
993.145	9.02
993.571	-10.47
993.997	-7.17
994.423	-1.08
994.849	-6.58
995.275	-0.88
995.701	-4.77
996.127	-5.78
996.553	-8.07
996.979	-2.07
997.405	-4.27
997.83	-1.08
998.256	-3.48
998.682	-5.27
999.108	-8.78
999.534	0.52
999.959	2.83
1000.385	-2.67
1000.811	-0.68
1001.236	-8.78
1001.662	-3.98
1002.087	-9.17
1002.513	1.62
1002.938	-0.97
1003.364	-1.97
1003.789	2.02
1004.215	-0.98
1004.64	0.82
1005.066	4.62
1005.491	1.83
1005.916	-0.38
1006.342	0.33
1006.767	-9.07
1007.192	1.62
1007.617	-0.77
1008.042	-0.88
1008.468	-3.98
1008.893	-5.07
1009.318	1.12
1009.743	2.62
1010.168	4.02
1010.593	1.52
1011.018	-8.88
1011.443	-2.67
1011.868	0.33
1012.293	1.12
1012.718	-4.67
1013.143	5.12
1013.567	4.12
1013.992	-2.17
1014.417	-11.88
1014.842	2.62
1015.267	-1.27
1015.691	-3.88
1016.116	3.23
1016.541	-4.88
1016.965	1.92
1017.39	0.73
1017.814	0.53
1018.239	-0.98
1018.663	-8.38
1019.088	-12.98
1019.512	-2.88
1019.937	-2.77
1020.361	1.92
1020.785	-12.18
1021.21	-4.48
1021.634	3.93
1022.058	-6.58
1022.483	7.73
1022.907	-6.77
1023.331	-1.97
1023.755	-2.38
1024.179	-1.77
1024.604	-5.77
1025.028	-6.08
1025.452	-3.98
1025.876	-1.38
1026.3	1.42
1026.724	-9.18
1027.148	-2.38
1027.572	-6.27
1027.996	-4.67
1028.42	-0.68
1028.843	-7.08
1029.267	-0.27
1029.691	2.82
1030.115	-6.98
1030.539	-4.68
1030.962	-8.27
1031.386	-5.17
1031.81	0.33
1032.233	2.83
1032.657	-1.97
1033.08	-2.08
1033.504	1.02
1033.927	-4.47
1034.351	1.62
1034.774	-5.08
1035.198	-0.88
1035.621	-6.88
1036.045	-1.77
1036.468	-4.68
1036.891	-11.27
1037.315	-11.98
1037.738	-7.98
1038.161	5.92
1038.584	-1.27
1039.008	-3.17
1039.431	-4.58
1039.854	0.12
1040.277	-8.67
1040.7	-11.88
1041.123	1.42
1041.546	-4.77
1041.969	-8.98
1042.392	-7.98
1042.815	-2.08
1043.238	-6.48
1043.661	-1.18
1044.084	-12.17
1044.507	-7.77
1044.93	-8.48
1045.352	-7.18
1045.775	-2.88
1046.198	-0.67
1046.621	-2.27
1047.043	-5.47
1047.466	10.52
1047.889	0.73
1048.311	-4.88
1048.734	-3.27
1049.156	-1.48
1049.579	-0.88
1050.001	-2.57
1050.424	-0.28
1050.846	-3.27
1051.269	-2.77
1051.691	-7.97
1052.113	-4.08
1052.536	-6.38
1052.958	0.52
1053.38	-5.08
1053.802	-7.68
1054.225	-0.88
1054.647	-3.48
1055.069	-6.18
1055.491	-1.67
1055.913	-5.58
1056.335	1.92
1056.757	-2.38
1057.179	-4.58
1057.601	-2.98
1058.023	-4.27
1058.445	-4.78
1058.867	-1.98
1059.289	-3.68
1059.711	-4.17
1060.133	-5.27
1060.555	-0.77
1060.976	-8.58
1061.398	-2.58
1061.82	-6.58
1062.241	-6.88
1062.663	-6.38
1063.085	-9.77
1063.506	3.03
1063.928	-8.08
1064.35	3.12
1064.771	-15.58
1065.193	-2.08
1065.614	-6.67
1066.035	-5.77
1066.457	-2.88
1066.878	2.62
1067.3	-0.68
1067.721	-4.18
1068.142	-1.88
1068.564	-2.77
1068.985	-3.58
1069.406	-6.27
1069.827	-10.98
1070.248	-4.27
1070.67	-13.88
1071.091	-4.38
1071.512	-1.68
1071.933	-1.48
1072.354	-11.97
1072.775	0.73
1073.196	-8.98
1073.617	-0.68
1074.038	-2.77
1074.459	-3.47
1074.88	-10.38
1075.3	-3.77
1075.721	-2.48
1076.142	-5.47
1076.563	-2.28
1076.983	-6.48
1077.404	-7.17
1077.825	-12.27
1078.246	-7.98
1078.666	-11.68
1079.087	0.62
1079.507	-6.08
1079.928	1.02
1080.348	1.03
1080.769	-1.88
1081.189	-2.07
1081.61	-0.17
1082.03	-4.67
1082.451	-9.38
1082.871	-12.47
1083.291	-4.68
1083.711	-9.77
1084.132	-2.57
1084.552	-2.18
1084.972	1.43
1085.392	-12.98
1085.813	-11.67
1086.233	-6.27
1086.653	-2.57
1087.073	-2.67
1087.493	-11.68
1087.913	-8.28
1088.333	-8.77
1088.753	-2.27
1089.173	2.92
1089.593	-0.38
1090.013	4.73
1090.433	-0.77
1090.852	1.42
1091.272	2.73
1091.692	0.83
1092.112	-2.58
1092.531	-8.38
1092.951	-12.17
1093.371	-6.88
1093.79	0.12
1094.21	-3.77
1094.63	-8.17
1095.049	-6.17
1095.469	-4.38
1095.888	-9.48
1096.308	0.12
1096.727	1.62
1097.146	-2.77
1097.566	-1.77
1097.985	-7.88
1098.405	-1.17
1098.824	-6.27
1099.243	-4.98
1099.662	-7.98
1100.082	-5.27
1100.501	1.23
1100.92	-8.38
1101.339	-3.88
1101.758	-7.17
