Data from 20171114-ORNL-Ar_H_NY_Subt18_08-03-39-678.txt Node
Date: Tue Nov 14 08:03:39 EST 2017
User: Ender
Spectrometer: HR+D1039
Trigger mode: 0
Integration Time (sec): 2.730000E-2
Scans to average: 10
Electric dark correction enabled: true
Nonlinearity correction enabled: false
Boxcar width: 0
XAxis mode: Wavelengths
Number of Pixels in Spectrum: 2048
>>>>>Begin Spectral Data<<<<<
187.836	-5.67
188.309	-5.67
188.782	-5.67
189.255	2.03
189.728	-4.67
190.201	8.53
190.674	6.63
191.147	1.73
191.619	-8.87
192.092	-0.27
192.565	5.43
193.038	-4.97
193.511	2.23
193.984	0.93
194.456	-0.37
194.929	-0.47
195.402	0.43
195.874	-2.67
196.347	-1.77
196.82	-3.37
197.292	9.23
197.765	5.23
198.237	-2.77
198.71	9.63
199.182	-6.27
199.655	5.83
200.127	0.43
200.6	4.03
201.072	-4.67
201.544	-6.07
202.017	-3.67
202.489	3.83
202.961	-0.77
203.433	-4.17
203.906	-3.97
204.378	-3.07
204.85	-2.17
205.322	-8.87
205.794	0.03
206.266	-2.37
206.739	-5.57
207.211	3.33
207.683	-7.57
208.155	-0.87
208.627	-4.27
209.099	-1.87
209.57	-8.17
210.042	-4.87
210.514	3.63
210.986	-3.07
211.458	-8.27
211.93	-3.07
212.402	3.63
212.873	-4.57
213.345	-5.97
213.817	-6.57
214.288	-5.67
214.76	-9.27
215.232	0.13
215.703	-0.57
216.175	-1.57
216.646	-3.07
217.118	1.03
217.589	-5.07
218.061	-2.27
218.532	-4.57
219.004	0.13
219.475	-4.07
219.946	-0.97
220.418	-9.37
220.889	4.73
221.36	-1.27
221.832	-0.97
222.303	-5.57
222.774	3.53
223.245	-7.57
223.717	-7.67
224.188	-5.27
224.659	-6.07
225.13	-6.67
225.601	-9.27
226.072	1.13
226.543	-2.17
227.014	-5.07
227.485	-0.17
227.956	-3.87
228.427	1.13
228.898	-2.27
229.369	5.63
229.839	-1.87
230.31	-6.77
230.781	1.93
231.252	-0.57
231.722	-9.87
232.193	-2.77
232.664	2.53
233.135	-3.07
233.605	-3.77
234.076	-9.37
234.546	-2.27
235.017	1.03
235.487	-2.67
235.958	1.43
236.428	-11.67
236.899	-0.07
237.369	-0.57
237.84	-7.57
238.31	0.73
238.78	-6.47
239.251	-0.57
239.721	-1.27
240.191	-2.17
240.662	-0.57
241.132	0.53
241.602	-2.87
242.072	-4.57
242.542	5.63
243.013	-6.87
243.483	6.13
243.953	2.33
244.423	-3.77
244.893	-6.67
245.363	-0.17
245.833	-1.07
246.303	1.03
246.773	7.53
247.243	-0.57
247.712	-3.17
248.182	6.33
248.652	7.43
249.122	-7.17
249.592	0.53
250.061	1.63
250.531	11.43
251.001	-0.37
251.471	4.43
251.94	6.93
252.41	3.03
252.879	-3.47
253.349	5.93
253.818	7.43
254.288	-0.37
254.757	-2.47
255.227	-1.87
255.696	-1.67
256.166	0.53
256.635	1.43
257.105	1.13
257.574	2.33
258.043	2.43
258.513	1.23
258.982	-0.97
259.451	2.43
259.92	7.93
260.389	2.73
260.859	12.93
261.328	5.83
261.797	1.83
262.266	-2.27
262.735	7.23
263.204	0.33
263.673	0.23
264.142	2.83
264.611	-12.37
265.08	-4.27
265.549	1.33
266.018	7.53
266.487	-5.67
266.955	0.93
267.424	-1.57
267.893	5.13
268.362	-1.37
268.83	1.13
269.299	12.83
269.768	6.93
270.236	3.23
270.705	2.83
271.174	3.03
271.642	5.03
272.111	2.03
272.579	-1.07
273.048	3.43
273.516	3.23
273.985	4.53
274.453	14.73
274.922	11.33
275.39	9.33
275.858	0.53
276.327	7.93
276.795	11.03
277.263	0.73
277.731	12.53
278.2	4.73
278.668	5.03
279.136	8.63
279.604	3.33
280.072	9.23
280.54	2.63
281.008	5.23
281.477	9.93
281.945	12.13
282.413	7.23
282.881	7.93
283.348	8.53
283.816	11.23
284.284	13.13
284.752	15.33
285.22	6.03
285.688	11.53
286.156	9.63
286.623	15.53
287.091	8.73
287.559	5.63
288.026	17.23
288.494	13.83
288.962	3.23
289.429	7.13
289.897	12.33
290.364	8.53
290.832	10.13
291.3	13.23
291.767	12.33
292.234	14.23
292.702	7.73
293.169	11.63
293.637	16.63
294.104	15.83
294.571	3.63
295.039	10.43
295.506	10.33
295.973	11.03
296.44	14.03
296.908	11.83
297.375	10.63
297.842	10.83
298.309	9.83
298.776	7.13
299.243	14.43
299.71	11.93
300.177	16.03
300.644	21.03
301.111	18.33
301.578	15.23
302.045	7.13
302.512	17.33
302.979	20.83
303.446	15.73
303.913	12.33
304.379	10.73
304.846	29.33
305.313	23.63
305.78	22.03
306.246	22.03
306.713	21.23
307.18	21.83
307.646	17.43
308.113	16.93
308.579	9.53
309.046	22.03
309.512	18.73
309.979	17.73
310.445	21.43
310.912	19.53
311.378	35.03
311.845	26.53
312.311	30.93
312.777	27.53
313.244	30.13
313.71	32.53
314.176	29.53
314.642	28.73
315.109	21.73
315.575	28.73
316.041	31.23
316.507	23.83
316.973	29.53
317.439	26.03
317.905	29.03
318.371	40.03
318.837	29.33
319.303	32.53
319.769	29.23
320.235	28.93
320.701	37.13
321.167	34.63
321.633	29.03
322.099	40.83
322.564	35.23
323.03	32.33
323.496	33.93
323.962	42.63
324.427	34.33
324.893	35.63
325.359	32.93
325.824	33.13
326.29	30.93
326.755	37.03
327.221	37.63
327.686	41.03
328.152	42.43
328.617	38.53
329.083	47.73
329.548	50.83
330.014	44.53
330.479	36.03
330.944	46.13
331.41	36.83
331.875	43.33
332.34	50.63
332.805	42.33
333.271	43.73
333.736	39.43
334.201	48.03
334.666	49.23
335.131	51.13
335.596	50.53
336.061	50.23
336.526	42.13
336.991	49.03
337.456	43.03
337.921	45.03
338.386	47.63
338.851	45.13
339.316	46.63
339.781	51.93
340.246	57.23
340.711	52.53
341.175	53.43
341.64	52.33
342.105	56.93
342.569	60.93
343.034	63.13
343.499	53.33
343.963	63.03
344.428	67.83
344.893	66.93
345.357	65.63
345.822	68.83
346.286	66.73
346.751	70.53
347.215	67.13
347.679	74.23
348.144	84.63
348.608	80.43
349.073	72.23
349.537	82.83
350.001	78.23
350.465	88.43
350.93	83.83
351.394	84.63
351.858	75.03
352.322	88.43
352.786	86.73
353.25	98.13
353.715	105.13
354.179	104.33
354.643	110.73
355.107	120.73
355.571	108.33
356.035	99.13
356.498	111.33
356.962	116.43
357.426	125.53
357.89	112.23
358.354	97.33
358.818	92.43
359.281	83.93
359.745	91.63
360.209	85.33
360.673	90.93
361.136	93.93
361.6	94.83
362.064	99.33
362.527	96.73
362.991	102.83
363.454	94.43
363.918	91.73
364.381	91.73
364.845	99.73
365.308	98.73
365.772	103.23
366.235	103.13
366.698	96.93
367.162	98.93
367.625	98.33
368.088	102.23
368.552	104.03
369.015	97.33
369.478	109.03
369.941	110.13
370.404	103.83
370.867	117.63
371.331	113.03
371.794	124.43
372.257	110.43
372.72	125.03
373.183	124.73
373.646	111.13
374.109	106.93
374.572	125.23
375.035	118.43
375.497	117.03
375.96	118.73
376.423	127.23
376.886	131.53
377.349	127.53
377.811	122.03
378.274	127.93
378.737	129.33
379.199	131.73
379.662	132.33
380.125	133.63
380.587	132.23
381.05	132.73
381.512	134.83
381.975	149.43
382.437	140.53
382.9	142.63
383.362	145.53
383.825	159.53
384.287	148.93
384.75	141.43
385.212	155.13
385.674	159.53
386.136	157.43
386.599	152.93
387.061	151.33
387.523	151.13
387.985	152.63
388.447	162.53
388.91	154.33
389.372	160.23
389.834	155.03
390.296	158.23
390.758	157.23
391.22	164.73
391.682	171.23
392.144	175.23
392.606	173.33
393.068	171.53
393.529	187.33
393.991	180.73
394.453	169.83
394.915	162.03
395.377	164.93
395.838	164.03
396.3	171.43
396.762	174.33
397.224	165.63
397.685	175.43
398.147	166.83
398.608	171.03
399.07	166.53
399.531	180.83
399.993	185.13
400.454	200.63
400.916	183.23
401.377	180.83
401.839	188.13
402.3	186.13
402.762	213.73
403.223	224.33
403.684	215.33
404.145	207.13
404.607	203.93
405.068	207.13
405.529	212.53
405.99	216.63
406.451	214.23
406.913	214.43
407.374	208.23
407.835	209.83
408.296	210.23
408.757	210.93
409.218	224.63
409.679	221.33
410.14	221.63
410.601	220.73
411.062	220.93
411.522	226.03
411.983	220.93
412.444	215.73
412.905	231.23
413.366	235.93
413.826	241.53
414.287	286.23
414.748	349.43
415.208	330.53
415.669	275.63
416.13	265.13
416.59	262.33
417.051	278.43
417.511	288.53
417.972	317.13
418.432	327.53
418.893	378.93
419.353	336.43
419.814	271.33
420.274	246.23
420.734	234.83
421.195	252.03
421.655	243.73
422.115	245.63
422.576	248.43
423.036	257.73
423.496	260.83
423.956	280.23
424.416	296.13
424.876	331.73
425.336	325.23
425.797	327.03
426.257	318.23
426.717	305.43
427.177	289.43
427.637	276.63
428.097	288.33
428.556	299.13
429.016	321.63
429.476	321.13
429.936	327.13
430.396	326.13
430.856	343.73
431.315	369.03
431.775	405.13
432.235	434.33
432.694	415.13
433.154	416.63
433.614	453.53
434.073	394.73
434.533	339.13
434.993	315.53
435.452	331.53
435.912	339.83
436.371	330.93
436.83	327.43
437.29	315.93
437.749	295.83
438.209	293.13
438.668	323.43
439.127	327.13
439.587	313.33
440.046	294.33
440.505	296.63
440.964	319.03
441.424	354.73
441.883	345.23
442.342	314.73
442.801	276.53
443.26	287.13
443.719	283.73
444.178	280.13
444.637	275.63
445.096	272.43
445.555	278.83
446.014	279.03
446.473	290.53
446.932	296.83
447.391	287.13
447.849	288.23
448.308	278.23
448.767	276.23
449.226	291.03
449.685	300.63
450.143	305.53
450.602	299.63
451.061	290.43
451.519	292.83
451.978	286.93
452.436	297.23
452.895	292.33
453.353	297.43
453.812	291.33
454.27	297.63
454.729	294.53
455.187	293.23
455.646	295.93
456.104	300.23
456.562	309.53
457.021	320.13
457.479	307.03
457.937	325.23
458.395	321.23
458.854	302.33
459.312	312.73
459.77	320.23
460.228	304.03
460.686	301.63
461.144	309.53
461.602	301.13
462.06	297.33
462.518	316.43
462.976	318.43
463.434	310.43
463.892	311.33
464.35	324.03
464.808	343.53
465.266	330.33
465.724	337.63
466.181	340.43
466.639	331.33
467.097	356.43
467.555	361.13
468.012	359.93
468.47	370.33
468.928	386.43
469.385	396.63
469.843	407.53
470.3	403.83
470.758	417.93
471.215	433.03
471.673	445.43
472.13	460.03
472.588	477.93
473.045	444.13
473.503	457.23
473.96	459.43
474.417	473.73
474.875	503.93
475.332	533.13
475.789	527.43
476.246	532.13
476.704	557.33
477.161	573.83
477.618	591.03
478.075	622.63
478.532	670.63
478.989	725.53
479.446	824.13
479.903	801.83
480.36	846.63
480.817	886.63
481.274	970.23
481.731	1069.93
482.188	1121.83
482.645	1243.33
483.102	1319.53
483.558	1441.33
484.015	1495.53
484.472	1480.33
484.929	1432.83
485.385	1404.43
485.842	1371.93
486.299	1328.93
486.755	1282.63
487.212	1124.83
487.668	981.73
488.125	921.23
488.582	847.03
489.038	813.93
489.494	779.83
489.951	757.23
490.407	735.53
490.864	718.03
491.32	721.33
491.776	701.43
492.233	717.13
492.689	686.13
493.145	673.83
493.602	666.53
494.058	691.93
494.514	692.13
494.97	696.63
495.426	705.23
495.882	678.53
496.338	670.33
496.794	671.33
497.251	673.03
497.707	691.43
498.163	683.13
498.618	697.03
499.074	684.13
499.53	709.63
499.986	713.33
500.442	702.63
500.898	680.93
501.354	671.13
501.809	686.43
502.265	684.03
502.721	690.03
503.177	701.23
503.632	702.83
504.088	695.93
504.543	724.93
504.999	730.93
505.455	728.73
505.91	697.93
506.366	712.33
506.821	705.13
507.277	702.43
507.732	702.83
508.187	705.83
508.643	706.03
509.098	707.13
509.553	729.93
510.009	728.03
510.464	730.73
510.919	744.43
511.375	747.13
511.83	752.73
512.285	761.63
512.74	803.03
513.195	817.33
513.65	802.33
514.105	816.63
514.56	809.13
515.015	833.53
515.47	832.03
515.925	835.83
516.38	829.33
516.835	849.23
517.29	817.73
517.745	816.83
518.2	811.53
518.655	804.63
519.109	785.53
519.564	779.33
520.019	768.33
520.474	759.13
520.928	766.33
521.383	755.43
521.838	750.73
522.292	751.93
522.747	751.43
523.201	749.53
523.656	747.63
524.11	745.53
524.565	744.13
525.019	731.13
525.474	733.93
525.928	739.13
526.382	733.93
526.837	736.83
527.291	729.93
527.745	722.33
528.2	720.63
528.654	714.53
529.108	708.33
529.562	718.33
530.016	706.93
530.47	714.33
530.925	713.83
531.379	717.43
531.833	726.13
532.287	715.03
532.741	707.23
533.195	709.93
533.649	721.73
534.103	722.13
534.556	717.93
535.01	711.33
535.464	718.83
535.918	726.43
536.372	723.33
536.826	720.93
537.279	709.93
537.733	714.43
538.187	717.43
538.64	711.93
539.094	719.93
539.548	732.63
540.001	732.73
540.455	721.93
540.908	734.03
541.362	750.53
541.815	754.03
542.269	762.73
542.722	756.83
543.175	770.03
543.629	773.73
544.082	780.93
544.536	787.83
544.989	782.63
545.442	798.43
545.895	797.23
546.349	798.83
546.802	787.13
547.255	799.33
547.708	799.23
548.161	806.43
548.614	805.03
549.067	811.93
549.52	800.53
549.973	803.13
550.426	792.13
550.879	786.33
551.332	790.43
551.785	788.13
552.238	782.53
552.691	795.23
553.144	813.83
553.596	828.53
554.049	832.43
554.502	859.43
554.955	873.33
555.407	878.83
555.86	860.43
556.313	851.33
556.765	842.23
557.218	845.33
557.67	836.73
558.123	838.63
558.576	833.43
559.028	843.13
559.48	833.73
559.933	836.03
560.385	809.03
560.838	786.13
561.29	759.63
561.742	750.23
562.195	740.23
562.647	734.73
563.099	739.03
563.551	734.83
564.004	761.83
564.456	743.83
564.908	715.33
565.36	688.43
565.812	693.13
566.264	682.83
566.716	666.43
567.168	673.13
567.62	676.73
568.072	666.73
568.524	655.43
568.976	652.63
569.428	638.53
569.88	640.43
570.332	647.03
570.784	638.33
571.235	652.63
571.687	648.93
572.139	664.03
572.59	662.63
573.042	654.43
573.494	653.73
573.945	660.03
574.397	625.93
574.849	645.83
575.3	646.83
575.752	633.23
576.203	628.63
576.655	641.83
577.106	615.53
577.557	617.63
578.009	618.53
578.46	616.13
578.912	603.93
579.363	614.63
579.814	608.83
580.265	615.23
580.717	608.43
581.168	615.13
581.619	621.73
582.07	615.43
582.521	614.93
582.972	602.23
583.423	613.13
583.875	612.93
584.326	633.53
584.777	632.83
585.227	656.83
585.678	676.33
586.129	691.13
586.58	713.43
587.031	742.53
587.482	779.93
587.933	800.43
588.384	776.13
588.834	724.83
589.285	708.83
589.736	699.63
590.186	697.63
590.637	697.13
591.088	672.13
591.538	663.83
591.989	650.03
592.439	648.23
592.89	647.33
593.34	622.23
593.791	624.83
594.241	624.13
594.692	617.93
595.142	621.43
595.593	619.13
596.043	622.73
596.493	631.63
596.943	624.23
597.394	629.53
597.844	624.83
598.294	654.13
598.744	673.23
599.195	686.93
599.645	716.13
600.095	738.13
600.545	791.73
600.995	823.43
601.445	878.13
601.895	925.93
602.345	973.63
602.795	951.23
603.245	929.33
603.695	884.03
604.145	841.83
604.594	797.53
605.044	753.03
605.494	698.73
605.944	647.33
606.393	651.63
606.843	634.33
607.293	629.53
607.743	628.83
608.192	634.33
608.642	651.33
609.091	658.53
609.541	643.93
609.99	641.43
610.44	640.13
610.889	614.43
611.339	596.23
611.788	590.23
612.238	592.43
612.687	603.43
613.136	596.33
613.586	618.13
614.035	601.13
614.484	614.03
614.933	613.53
615.383	612.83
615.832	596.33
616.281	592.73
616.73	571.23
617.179	561.43
617.628	548.23
618.077	532.03
618.526	524.83
618.975	526.63
619.424	521.73
619.873	511.13
620.322	524.43
620.771	510.63
621.22	506.63
621.669	497.53
622.118	498.03
622.567	486.63
623.015	476.93
623.464	486.53
623.913	477.83
624.361	466.93
624.81	468.43
625.259	469.03
625.707	473.43
626.156	465.23
626.604	485.03
627.053	477.43
627.501	474.53
627.95	477.43
628.398	483.73
628.847	470.23
629.295	480.13
629.744	481.53
630.192	463.73
630.64	469.73
631.089	461.33
631.537	455.23
631.985	433.53
632.433	437.93
632.881	437.43
633.33	439.73
633.778	429.73
634.226	435.23
634.674	448.93
635.122	444.93
635.57	456.03
636.018	463.23
636.466	464.03
636.914	448.93
637.362	466.43
637.81	481.53
638.258	479.53
638.705	482.33
639.153	503.43
639.601	502.43
640.049	530.23
640.497	545.73
640.944	587.83
641.392	526.53
641.84	516.83
642.287	482.13
642.735	460.43
643.182	469.73
643.63	470.93
644.078	457.53
644.525	471.13
644.973	473.23
645.42	472.83
645.867	496.73
646.315	507.03
646.762	513.53
647.21	548.23
647.657	551.93
648.104	576.13
648.551	596.73
648.999	632.43
649.446	674.83
649.893	731.13
650.34	827.73
650.787	964.03
651.234	1164.73
651.682	1468.13
652.129	1943.73
652.576	2701.43
653.023	3898.23
653.47	5380.63
653.917	6757.23
654.363	7922.53
654.81	8959.93
655.257	8497.03
655.704	5730.13
656.151	3432.43
656.598	2283.83
657.044	1648.43
657.491	1284.23
657.938	1045.33
658.385	892.33
658.831	779.53
659.278	701.03
659.724	625.93
660.171	585.53
660.618	542.73
661.064	516.63
661.511	498.13
661.957	478.83
662.404	474.23
662.85	478.83
663.296	472.33
663.743	441.13
664.189	422.93
664.635	419.33
665.082	422.33
665.528	416.33
665.974	411.53
666.42	405.53
666.867	390.33
667.313	377.23
667.759	370.03
668.205	359.33
668.651	362.13
669.097	358.43
669.543	354.13
669.989	358.63
670.435	361.03
670.881	360.53
671.327	361.93
671.773	383.03
672.219	394.93
672.665	431.33
673.11	455.33
673.556	508.63
674.002	539.93
674.448	530.03
674.893	449.03
675.339	390.83
675.785	362.53
676.23	343.13
676.676	316.83
677.122	316.53
677.567	306.83
678.013	299.93
678.458	294.73
678.904	291.33
679.349	273.93
679.794	286.93
680.24	282.03
680.685	279.53
681.131	276.73
681.576	277.33
682.021	286.43
682.466	277.83
682.912	272.13
683.357	278.03
683.802	298.63
684.247	327.73
684.692	359.93
685.137	393.23
685.583	437.03
686.028	447.63
686.473	420.73
686.918	360.63
687.363	335.13
687.807	315.43
688.252	291.33
688.697	287.93
689.142	271.93
689.587	266.63
690.032	266.13
690.477	279.43
690.921	280.83
691.366	304.13
691.811	317.43
692.255	338.83
692.7	359.73
693.145	391.23
693.589	526.53
694.034	853.53
694.478	1207.73
694.923	1403.23
695.367	1884.63
695.812	998.93
696.256	406.43
696.701	298.43
697.145	282.03
697.59	266.33
698.034	252.73
698.478	261.83
698.922	259.73
699.367	258.13
699.811	267.83
700.255	276.33
700.699	296.23
701.143	330.13
701.588	376.23
702.032	410.23
702.476	411.53
702.92	395.33
703.364	391.73
703.808	488.53
704.252	783.23
704.696	1119.53
705.14	1363.13
705.584	1757.73
706.027	877.13
706.471	423.03
706.915	319.73
707.359	280.73
707.803	259.93
708.246	246.63
708.69	249.93
709.134	253.83
709.577	253.63
710.021	250.43
710.465	242.13
710.908	234.33
711.352	238.33
711.795	243.53
712.239	272.23
712.682	296.83
713.126	331.23
713.569	369.93
714.012	286.93
714.456	238.93
714.899	233.23
715.342	217.33
715.786	198.93
716.229	208.13
716.672	211.03
717.115	195.33
717.558	197.43
718.002	202.53
718.445	208.43
718.888	227.23
719.331	234.13
719.774	248.23
720.217	238.83
720.66	225.03
721.103	218.63
721.546	205.83
721.989	200.03
722.432	187.03
722.874	182.73
723.317	178.73
723.76	189.33
724.203	197.83
724.645	244.13
725.088	335.03
725.531	449.03
725.974	512.33
726.416	446.43
726.859	236.43
727.301	200.33
727.744	190.23
728.187	191.83
728.629	186.43
729.071	190.73
729.514	200.23
729.956	209.63
730.399	216.63
730.841	227.63
731.283	214.73
731.726	207.23
732.168	204.33
732.61	209.53
733.053	226.83
733.495	239.33
733.937	272.13
734.379	311.83
734.821	343.63
735.263	409.33
735.705	620.23
736.148	1163.73
736.59	1996.73
737.032	2518.23
737.474	2084.13
737.916	667.13
738.357	340.23
738.799	259.13
739.241	236.53
739.683	224.63
740.125	234.43
740.567	245.73
741.008	256.63
741.45	263.23
741.892	256.93
742.334	288.23
742.775	300.53
743.217	298.23
743.658	224.03
744.1	215.83
744.542	216.33
744.983	268.13
745.425	304.03
745.866	306.23
746.307	231.63
746.749	219.33
747.19	244.33
747.632	345.23
748.073	637.93
748.514	1390.03
748.956	2259.73
749.397	2831.33
749.838	2359.43
750.279	2451.03
750.72	1249.73
751.162	445.93
751.603	259.13
752.044	209.33
752.485	168.33
752.926	166.13
753.367	159.83
753.808	156.73
754.249	155.03
754.69	151.53
755.131	152.33
755.572	139.53
756.013	136.53
756.453	148.53
756.894	144.73
757.335	142.23
757.776	146.83
758.216	158.33
758.657	156.33
759.098	164.83
759.538	175.63
759.979	207.63
760.42	286.23
760.86	524.53
761.301	1344.23
761.741	3392.93
762.182	5382.63
762.622	3886.43
763.063	1091.13
763.503	441.53
763.943	262.23
764.384	224.03
764.824	205.23
765.264	203.13
765.705	175.43
766.145	142.63
766.585	140.93
767.025	134.53
767.465	131.33
767.906	147.03
768.346	161.23
768.786	171.03
769.226	169.23
769.666	233.73
770.106	448.03
770.546	1143.13
770.986	2107.53
771.426	1981.93
771.866	653.63
772.306	264.83
772.745	161.43
773.185	136.93
773.625	134.43
774.065	117.93
774.505	123.83
774.944	170.43
775.384	316.43
775.824	560.93
776.263	563.53
776.703	261.63
777.142	141.83
777.582	115.83
778.021	101.33
778.461	95.33
778.9	106.93
779.34	100.93
779.779	88.63
780.219	87.23
780.658	79.13
781.097	79.83
781.537	89.63
781.976	83.23
782.415	78.63
782.855	75.13
783.294	76.93
783.733	86.83
784.172	84.93
784.611	79.63
785.05	84.63
785.489	91.13
785.928	91.83
786.367	91.73
786.806	90.43
787.245	100.63
787.684	105.43
788.123	119.73
788.562	111.23
789.001	102.93
789.44	95.93
789.879	90.93
790.317	95.63
790.756	101.93
791.195	107.73
791.634	114.83
792.072	167.83
792.511	272.13
792.95	734.83
793.388	1673.03
793.827	1617.83
794.265	554.03
794.704	229.63
795.142	147.13
795.581	122.13
796.019	117.53
796.458	102.53
796.896	91.83
797.334	104.43
797.773	120.33
798.211	162.23
798.649	328.83
799.087	777.03
799.526	1250.43
799.964	1582.53
800.402	1679.23
800.84	635.13
801.278	251.03
801.716	154.63
802.154	119.33
802.592	114.33
803.03	110.83
803.468	104.43
803.906	115.73
804.344	117.03
804.782	107.93
805.22	109.23
805.658	104.03
806.096	121.33
806.533	127.93
806.971	139.23
807.409	172.13
807.847	246.53
808.284	497.33
808.722	1421.13
809.16	2677.73
809.597	2477.73
810.035	4350.03
810.472	4990.93
810.91	1785.53
811.347	663.63
811.785	337.33
812.222	218.43
812.66	161.03
813.097	134.93
813.535	113.93
813.972	103.83
814.409	97.13
814.846	93.43
815.284	87.53
815.721	84.23
816.158	84.43
816.595	92.13
817.032	135.03
817.47	169.13
817.907	121.63
818.344	85.23
818.781	86.33
819.218	75.73
819.655	99.23
820.092	174.63
820.529	211.63
820.966	155.43
821.403	113.33
821.839	80.93
822.276	75.63
822.713	107.93
823.15	119.13
823.587	99.73
824.023	111.83
824.46	226.03
824.897	670.83
825.333	1104.23
825.77	485.93
826.206	188.73
826.643	102.03
827.08	78.53
827.516	68.23
827.953	65.03
828.389	69.93
828.825	56.73
829.262	52.73
829.698	45.53
830.135	50.73
830.571	45.63
831.007	50.83
831.443	53.63
831.88	44.53
832.316	45.83
832.752	50.53
833.188	46.33
833.624	54.23
834.06	51.83
834.497	52.83
834.933	61.33
835.369	55.53
835.805	50.23
836.241	59.63
836.677	62.73
837.112	70.93
837.548	79.23
837.984	106.53
838.42	157.13
838.856	371.03
839.292	1181.23
839.727	1918.93
840.163	902.43
840.599	712.53
841.034	1616.13
841.47	1808.43
841.906	656.13
842.341	268.83
842.777	167.63
843.212	177.23
843.648	175.03
844.083	96.73
844.519	62.63
844.954	60.23
845.39	49.23
845.825	44.43
846.261	42.23
846.696	40.73
847.131	46.13
847.566	45.03
848.002	40.53
848.437	40.63
848.872	48.63
849.307	49.23
849.742	68.93
850.177	137.83
850.613	424.03
851.048	719.23
851.483	323.43
851.918	123.53
852.353	71.83
852.788	39.33
853.223	36.13
853.657	45.13
854.092	40.43
854.527	36.53
854.962	31.93
855.397	33.73
855.832	40.43
856.266	36.63
856.701	33.13
857.136	32.23
857.57	38.73
858.005	45.93
858.44	50.63
858.874	38.73
859.309	42.23
859.743	27.23
860.178	37.53
860.612	34.13
861.047	47.43
861.481	61.13
861.915	68.63
862.35	46.13
862.784	32.93
863.218	33.83
863.653	26.73
864.087	36.73
864.521	55.13
864.955	52.53
865.39	121.03
865.824	145.43
866.258	100.93
866.692	162.43
867.126	184.03
867.56	118.03
867.994	56.03
868.428	33.53
868.862	32.03
869.296	53.63
869.73	52.53
870.164	50.83
870.598	46.53
871.031	39.03
871.465	26.93
871.899	29.93
872.333	15.53
872.766	19.13
873.2	24.03
873.634	23.43
874.067	24.43
874.501	21.53
874.935	26.33
875.368	26.23
875.802	17.53
876.235	23.23
876.669	21.43
877.102	14.13
877.535	20.33
877.969	23.13
878.402	24.83
878.836	14.73
879.269	26.63
879.702	25.03
880.135	20.63
880.569	18.13
881.002	22.23
881.435	19.73
881.868	10.83
882.301	17.13
882.734	13.03
883.167	18.93
883.601	9.23
884.034	16.63
884.467	13.53
884.899	16.63
885.332	10.53
885.765	13.23
886.198	13.23
886.631	14.33
887.064	13.43
887.497	15.53
887.929	22.53
888.362	16.33
888.795	8.83
889.228	9.93
889.66	15.83
890.093	12.23
890.526	9.83
890.958	11.53
891.391	13.53
891.823	22.03
892.256	8.03
892.688	5.33
893.121	13.63
893.553	15.83
893.985	18.93
894.418	18.53
894.85	6.03
895.282	12.53
895.715	14.43
896.147	17.83
896.579	14.23
897.011	14.63
897.444	12.43
897.876	11.43
898.308	15.73
898.74	13.03
899.172	11.03
899.604	13.53
900.036	19.43
900.468	12.53
900.9	12.43
901.332	15.53
901.764	9.63
902.196	14.93
902.628	14.63
903.06	18.43
903.491	31.93
903.923	22.03
904.355	15.23
904.787	22.13
905.218	19.53
905.65	14.03
906.082	7.93
906.513	10.23
906.945	11.93
907.376	7.83
907.808	15.73
908.239	13.03
908.671	13.73
909.102	16.23
909.534	21.23
909.965	42.93
910.397	77.43
910.828	251.53
911.259	397.43
911.691	187.33
912.122	92.53
912.553	42.43
912.984	27.03
913.415	17.43
913.847	17.83
914.278	10.83
914.709	9.63
915.14	14.63
915.571	16.23
916.002	6.83
916.433	18.23
916.864	20.43
917.295	7.73
917.726	18.43
918.157	10.23
918.587	25.23
919.018	19.23
919.449	8.93
919.88	21.53
920.311	27.83
920.741	36.03
921.172	123.63
921.603	128.73
922.033	48.13
922.464	41.93
922.895	16.23
923.325	21.13
923.756	13.53
924.186	10.13
924.617	16.83
925.047	20.43
925.478	22.23
925.908	15.93
926.338	14.13
926.769	9.53
927.199	14.73
927.629	2.73
928.06	16.13
928.49	16.33
928.92	12.63
929.35	9.63
929.78	11.73
930.21	8.33
930.641	3.83
931.071	5.43
931.501	6.63
931.931	3.53
932.361	8.83
932.791	0.43
933.221	6.63
933.651	1.63
934.08	7.43
934.51	21.53
934.94	10.73
935.37	12.13
935.8	8.63
936.229	9.33
936.659	9.63
937.089	9.03
937.519	16.03
937.948	24.03
938.378	16.33
938.807	6.23
939.237	5.83
939.666	9.63
940.096	-3.57
940.525	-2.77
940.955	3.43
941.384	2.23
941.814	-5.27
942.243	-0.47
942.672	6.83
943.102	1.73
943.531	3.63
943.96	6.93
944.39	4.03
944.819	6.53
945.248	0.73
945.677	9.23
946.106	3.53
946.535	7.13
946.964	-2.07
947.393	4.43
947.822	1.33
948.251	-2.67
948.68	6.93
949.109	8.93
949.538	6.73
949.967	-3.37
950.396	5.63
950.825	-2.57
951.254	-0.37
951.682	-5.27
952.111	6.73
952.54	2.03
952.969	-2.17
953.397	-6.87
953.826	1.63
954.254	-0.57
954.683	5.43
955.112	1.53
955.54	2.53
955.969	-0.07
956.397	5.53
956.826	-3.27
957.254	3.53
957.682	9.03
958.111	3.73
958.539	0.93
958.967	2.43
959.396	-5.37
959.824	6.33
960.252	-1.37
960.68	-6.27
961.109	2.63
961.537	-5.97
961.965	0.83
962.393	4.03
962.821	-5.67
963.249	2.03
963.677	5.53
964.105	5.83
964.533	38.23
964.961	39.33
965.389	17.73
965.817	8.93
966.245	1.33
966.672	-1.17
967.1	-6.97
967.528	-0.67
967.956	1.63
968.383	-0.67
968.811	0.23
969.239	-0.87
969.666	-2.77
970.094	0.73
970.522	2.13
970.949	-6.87
971.377	-6.27
971.804	3.03
972.232	3.63
972.659	0.43
973.087	-1.47
973.514	0.33
973.941	-4.77
974.369	8.93
974.796	7.43
975.223	-0.87
975.651	0.23
976.078	0.63
976.505	3.33
976.932	-5.67
977.359	11.43
977.786	11.33
978.214	-2.07
978.641	-6.17
979.068	1.73
979.495	-3.57
979.922	3.63
980.349	-1.87
980.776	3.33
981.202	1.43
981.629	3.03
982.056	3.63
982.483	0.73
982.91	4.93
983.337	-2.47
983.763	6.33
984.19	-3.97
984.617	-4.17
985.043	-5.57
985.47	4.53
985.897	4.73
986.323	-4.67
986.75	4.03
987.176	1.03
987.603	4.93
988.029	1.53
988.456	-2.87
988.882	2.73
989.308	-2.37
989.735	-3.47
990.161	3.23
990.587	0.73
991.014	-4.37
991.44	13.03
991.866	-1.97
992.292	-4.57
992.719	4.23
993.145	-0.77
993.571	-6.57
993.997	-7.27
994.423	2.13
994.849	-2.17
995.275	-2.27
995.701	0.83
996.127	-0.07
996.553	-3.87
996.979	2.73
997.405	-2.87
997.83	-7.27
998.256	-8.27
998.682	-4.47
999.108	-10.37
999.534	-1.37
999.959	2.43
1000.385	-6.57
1000.811	0.93
1001.236	-9.77
1001.662	-4.27
1002.087	-6.77
1002.513	3.03
1002.938	0.53
1003.364	0.63
1003.789	3.13
1004.215	8.93
1004.64	-1.67
1005.066	6.43
1005.491	0.43
1005.916	-2.57
1006.342	-3.87
1006.767	-4.77
1007.192	6.03
1007.617	-2.87
1008.042	-4.17
1008.468	-2.67
1008.893	-3.57
1009.318	-7.37
1009.743	-2.37
1010.168	0.23
1010.593	-2.67
1011.018	-9.27
1011.443	1.53
1011.868	7.63
1012.293	-1.67
1012.718	-7.07
1013.143	-3.27
1013.567	3.13
1013.992	-1.37
1014.417	-10.27
1014.842	4.13
1015.267	-1.77
1015.691	-5.57
1016.116	8.33
1016.541	-0.67
1016.965	1.03
1017.39	5.83
1017.814	2.53
1018.239	-1.77
1018.663	-1.97
1019.088	-11.37
1019.512	-1.17
1019.937	4.33
1020.361	-1.87
1020.785	-6.47
1021.21	0.63
1021.634	-5.27
1022.058	0.43
1022.483	5.23
1022.907	-2.67
1023.331	-0.87
1023.755	-0.17
1024.179	-0.07
1024.604	6.13
1025.028	-1.67
1025.452	0.13
1025.876	-1.47
1026.3	0.93
1026.724	-2.17
1027.148	-6.07
1027.572	-5.27
1027.996	2.83
1028.42	-3.47
1028.843	2.13
1029.267	-3.97
1029.691	-0.87
1030.115	-0.97
1030.539	-3.97
1030.962	-1.37
1031.386	-5.57
1031.81	1.73
1032.233	1.73
1032.657	-1.77
1033.08	-6.67
1033.504	-3.77
1033.927	-3.07
1034.351	3.23
1034.774	-0.17
1035.198	2.73
1035.621	-2.27
1036.045	-2.57
1036.468	3.03
1036.891	-9.27
1037.315	-2.57
1037.738	-9.87
1038.161	2.13
1038.584	-2.97
1039.008	3.33
1039.431	0.43
1039.854	-1.27
1040.277	-12.57
1040.7	-10.37
1041.123	-1.57
1041.546	-11.37
1041.969	-4.67
1042.392	-3.67
1042.815	-1.17
1043.238	3.43
1043.661	9.53
1044.084	0.13
1044.507	-6.67
1044.93	-7.77
1045.352	-10.67
1045.775	1.03
1046.198	-6.97
1046.621	3.83
1047.043	-2.47
1047.466	6.83
1047.889	-2.27
1048.311	-2.37
1048.734	-4.27
1049.156	-0.37
1049.579	2.13
1050.001	2.93
1050.424	1.63
1050.846	-3.67
1051.269	3.83
1051.691	-1.77
1052.113	3.53
1052.536	3.03
1052.958	-2.27
1053.38	0.83
1053.802	-7.27
1054.225	0.33
1054.647	-5.87
1055.069	-0.47
1055.491	2.73
1055.913	-2.17
1056.335	-2.57
1056.757	-6.87
1057.179	-2.57
1057.601	-0.57
1058.023	-0.37
1058.445	-2.97
1058.867	-3.67
1059.289	1.23
1059.711	-4.47
1060.133	2.33
1060.555	0.03
1060.976	-5.67
1061.398	-3.67
1061.82	-4.17
1062.241	-4.47
1062.663	-9.87
1063.085	-6.97
1063.506	2.33
1063.928	-3.47
1064.35	2.43
1064.771	-14.47
1065.193	-4.37
1065.614	-5.37
1066.035	2.93
1066.457	-1.57
1066.878	7.23
1067.3	-4.07
1067.721	-1.77
1068.142	-7.77
1068.564	-0.77
1068.985	-8.67
1069.406	-4.17
1069.827	-5.47
1070.248	4.73
1070.67	-7.07
1071.091	-2.67
1071.512	-1.87
1071.933	-0.67
1072.354	-7.87
1072.775	1.33
1073.196	-0.77
1073.617	-4.07
1074.038	-3.27
1074.459	-2.37
1074.88	-3.07
1075.3	4.93
1075.721	-3.77
1076.142	-3.37
1076.563	0.33
1076.983	-5.57
1077.404	-3.67
1077.825	-9.67
1078.246	-10.07
1078.666	-10.37
1079.087	-5.77
1079.507	-3.47
1079.928	-2.97
1080.348	-2.77
1080.769	-3.67
1081.189	2.63
1081.61	0.73
1082.03	-2.67
1082.451	-7.77
1082.871	-2.67
1083.291	-6.47
1083.711	-5.67
1084.132	-0.47
1084.552	-3.57
1084.972	3.43
1085.392	-3.67
1085.813	-9.17
1086.233	-8.47
1086.653	-3.47
1087.073	-1.87
1087.493	-11.67
1087.913	-0.37
1088.333	-2.77
1088.753	1.23
1089.173	5.33
1089.593	-0.57
1090.013	5.93
1090.433	-2.87
1090.852	-4.57
1091.272	-1.17
1091.692	0.13
1092.112	0.83
1092.531	-5.57
1092.951	-11.17
1093.371	-0.97
1093.79	6.33
1094.21	-2.57
1094.63	-1.07
1095.049	-3.77
1095.469	1.83
1095.888	-4.57
1096.308	4.63
1096.727	4.73
1097.146	-1.47
1097.566	3.93
1097.985	-1.47
1098.405	-0.37
1098.824	-3.07
1099.243	-3.47
1099.662	-5.17
1100.082	-2.07
1100.501	4.23
1100.92	-1.17
1101.339	-0.87
1101.758	-6.17
