Data from 20171114-ORNL-Ar_H_NY_Subt18_08-05-39-515.txt Node
Date: Tue Nov 14 08:05:39 EST 2017
User: Ender
Spectrometer: HR+D1039
Trigger mode: 0
Integration Time (sec): 2.730000E-2
Scans to average: 10
Electric dark correction enabled: true
Nonlinearity correction enabled: false
Boxcar width: 0
XAxis mode: Wavelengths
Number of Pixels in Spectrum: 2048
>>>>>Begin Spectral Data<<<<<
187.836	-2.21
188.309	-2.21
188.782	-2.21
189.255	0.79
189.728	-0.21
190.201	0.89
190.674	1.39
191.147	5.59
191.619	-7.61
192.092	1.19
192.565	8.69
193.038	2.79
193.511	-0.81
193.984	-0.41
194.456	-6.41
194.929	-0.21
195.402	-1.81
195.874	-1.71
196.347	0.19
196.82	-5.71
197.292	8.29
197.765	1.59
198.237	-0.51
198.71	3.59
199.182	-3.21
199.655	4.49
200.127	1.19
200.6	-1.01
201.072	-3.81
201.544	-0.71
202.017	-6.71
202.489	7.09
202.961	-2.31
203.433	-1.61
203.906	-5.01
204.378	-7.11
204.85	-3.31
205.322	-6.51
205.794	-0.81
206.266	1.79
206.739	-7.41
207.211	0.59
207.683	-8.11
208.155	-2.21
208.627	-4.21
209.099	-0.61
209.57	-5.31
210.042	-6.11
210.514	-6.71
210.986	-1.11
211.458	-10.01
211.93	-0.51
212.402	-2.21
212.873	-7.41
213.345	-9.11
213.817	-13.31
214.288	-8.91
214.76	-12.51
215.232	-3.11
215.703	-0.31
216.175	-2.11
216.646	-2.11
217.118	-4.81
217.589	-4.21
218.061	-7.21
218.532	-4.41
219.004	1.49
219.475	-6.21
219.946	-5.31
220.418	-5.01
220.889	-2.21
221.36	2.29
221.832	-4.41
222.303	-0.31
222.774	-2.51
223.245	-9.51
223.717	-9.31
224.188	-9.31
224.659	-7.41
225.13	-7.01
225.601	-7.21
226.072	3.89
226.543	2.39
227.014	-3.01
227.485	0.19
227.956	-9.81
228.427	-2.11
228.898	1.49
229.369	3.29
229.839	-6.11
230.31	-9.21
230.781	-2.91
231.252	-5.11
231.722	-7.51
232.193	2.19
232.664	-1.21
233.135	3.99
233.605	-0.31
234.076	-5.11
234.546	-7.11
235.017	5.99
235.487	0.59
235.958	1.69
236.428	-3.31
236.899	4.99
237.369	3.39
237.84	-1.41
238.31	6.79
238.78	4.19
239.251	0.19
239.721	0.69
240.191	1.69
240.662	-0.01
241.132	4.99
241.602	-0.51
242.072	-0.81
242.542	9.69
243.013	-7.91
243.483	6.09
243.953	0.29
244.423	-1.31
244.893	-5.61
245.363	8.09
245.833	1.39
246.303	-1.51
246.773	5.99
247.243	1.99
247.712	-2.91
248.182	11.99
248.652	5.09
249.122	-1.91
249.592	11.59
250.061	18.29
250.531	33.29
251.001	17.39
251.471	18.49
251.94	18.39
252.41	4.79
252.879	1.79
253.349	12.49
253.818	3.59
254.288	5.99
254.757	1.89
255.227	4.19
255.696	0.29
256.166	12.49
256.635	7.19
257.105	5.89
257.574	5.09
258.043	-0.51
258.513	16.09
258.982	14.09
259.451	5.79
259.92	11.39
260.389	11.09
260.859	13.89
261.328	13.09
261.797	19.09
262.266	10.29
262.735	13.89
263.204	1.69
263.673	4.09
264.142	1.79
264.611	-4.51
265.08	4.89
265.549	7.39
266.018	9.29
266.487	-2.81
266.955	-0.61
267.424	-1.91
267.893	6.59
268.362	4.39
268.83	1.29
269.299	7.79
269.768	8.49
270.236	11.69
270.705	3.29
271.174	9.89
271.642	6.89
272.111	7.69
272.579	13.29
273.048	19.79
273.516	31.99
273.985	30.49
274.453	22.09
274.922	22.59
275.39	15.19
275.858	1.09
276.327	15.69
276.795	27.59
277.263	11.59
277.731	33.39
278.2	61.29
278.668	68.39
279.136	54.49
279.604	15.69
280.072	15.79
280.54	17.89
281.008	11.49
281.477	17.59
281.945	13.49
282.413	10.49
282.881	17.99
283.348	12.99
283.816	15.89
284.284	16.19
284.752	19.99
285.22	12.39
285.688	17.39
286.156	16.09
286.623	46.19
287.091	48.49
287.559	27.19
288.026	26.19
288.494	19.29
288.962	11.69
289.429	12.59
289.897	16.19
290.364	13.69
290.832	23.29
291.3	14.29
291.767	17.49
292.234	21.59
292.702	12.29
293.169	15.19
293.637	28.69
294.104	21.19
294.571	11.99
295.039	15.99
295.506	18.09
295.973	13.09
296.44	13.19
296.908	22.99
297.375	17.89
297.842	19.19
298.309	14.09
298.776	11.29
299.243	17.99
299.71	13.49
300.177	23.59
300.644	19.79
301.111	28.09
301.578	23.59
302.045	19.49
302.512	24.89
302.979	25.09
303.446	24.19
303.913	22.29
304.379	21.79
304.846	26.59
305.313	22.69
305.78	23.29
306.246	28.69
306.713	26.49
307.18	17.69
307.646	28.89
308.113	36.69
308.579	25.39
309.046	30.79
309.512	32.79
309.979	22.89
310.445	29.89
310.912	27.49
311.378	29.59
311.845	27.69
312.311	31.79
312.777	35.49
313.244	35.39
313.71	36.39
314.176	26.49
314.642	33.89
315.109	29.69
315.575	35.29
316.041	40.39
316.507	38.19
316.973	37.29
317.439	33.49
317.905	36.49
318.371	35.59
318.837	41.09
319.303	39.69
319.769	34.99
320.235	43.19
320.701	34.09
321.167	38.59
321.633	38.59
322.099	39.09
322.564	47.99
323.03	41.39
323.496	39.99
323.962	41.79
324.427	40.79
324.893	44.19
325.359	37.69
325.824	37.99
326.29	39.19
326.755	44.89
327.221	37.09
327.686	37.29
328.152	45.99
328.617	46.99
329.083	49.89
329.548	51.09
330.014	54.39
330.479	38.09
330.944	40.89
331.41	41.89
331.875	42.99
332.34	45.59
332.805	49.49
333.271	47.39
333.736	51.09
334.201	58.29
334.666	49.89
335.131	48.19
335.596	49.59
336.061	53.69
336.526	41.59
336.991	48.09
337.456	51.39
337.921	56.59
338.386	41.19
338.851	47.79
339.316	50.89
339.781	46.89
340.246	54.19
340.711	43.79
341.175	54.09
341.64	46.49
342.105	53.39
342.569	57.09
343.034	58.79
343.499	56.79
343.963	52.79
344.428	67.39
344.893	60.19
345.357	61.29
345.822	63.19
346.286	66.59
346.751	76.89
347.215	66.29
347.679	74.89
348.144	98.29
348.608	89.69
349.073	74.09
349.537	74.99
350.001	81.69
350.465	90.59
350.93	85.39
351.394	86.19
351.858	72.59
352.322	82.69
352.786	80.69
353.25	98.69
353.715	116.79
354.179	100.69
354.643	122.09
355.107	130.19
355.571	111.69
356.035	101.49
356.498	115.99
356.962	127.59
357.426	127.29
357.89	120.69
358.354	89.99
358.818	85.39
359.281	80.89
359.745	79.89
360.209	80.99
360.673	71.79
361.136	84.59
361.6	86.29
362.064	88.39
362.527	81.09
362.991	93.59
363.454	79.49
363.918	82.69
364.381	84.69
364.845	81.09
365.308	86.19
365.772	91.39
366.235	89.29
366.698	87.99
367.162	92.29
367.625	84.29
368.088	86.29
368.552	85.19
369.015	91.79
369.478	104.09
369.941	102.09
370.404	93.39
370.867	106.99
371.331	107.19
371.794	111.09
372.257	115.49
372.72	115.99
373.183	115.99
373.646	107.29
374.109	101.29
374.572	105.69
375.035	107.29
375.497	109.09
375.96	104.49
376.423	111.99
376.886	122.39
377.349	112.49
377.811	97.99
378.274	105.69
378.737	113.79
379.199	111.39
379.662	112.19
380.125	115.49
380.587	121.99
381.05	118.59
381.512	128.39
381.975	128.89
382.437	130.39
382.9	126.89
383.362	133.69
383.825	156.29
384.287	149.39
384.75	137.59
385.212	140.99
385.674	143.29
386.136	137.29
386.599	125.09
387.061	132.79
387.523	125.49
387.985	133.59
388.447	145.39
388.91	145.79
389.372	162.99
389.834	156.69
390.296	149.89
390.758	153.99
391.22	169.99
391.682	206.79
392.144	300.49
392.606	231.19
393.068	169.59
393.529	166.19
393.991	154.99
394.453	144.89
394.915	155.59
395.377	187.69
395.838	206.79
396.3	153.39
396.762	143.69
397.224	131.59
397.685	123.79
398.147	127.99
398.608	130.09
399.07	128.99
399.531	136.79
399.993	140.99
400.454	148.19
400.916	146.39
401.377	145.39
401.839	151.79
402.3	156.79
402.762	164.79
403.223	184.79
403.684	172.29
404.145	166.89
404.607	160.99
405.068	171.29
405.529	168.49
405.99	185.49
406.451	178.79
406.913	171.49
407.374	171.19
407.835	160.09
408.296	166.79
408.757	180.29
409.218	187.89
409.679	186.09
410.14	174.09
410.601	181.09
411.062	180.49
411.522	189.69
411.983	187.59
412.444	173.29
412.905	180.89
413.366	188.89
413.826	194.79
414.287	218.09
414.748	258.99
415.208	246.39
415.669	211.99
416.13	210.59
416.59	205.79
417.051	212.29
417.511	221.59
417.972	233.09
418.432	244.29
418.893	285.09
419.353	243.89
419.814	200.29
420.274	182.79
420.734	183.99
421.195	194.29
421.655	202.99
422.115	196.19
422.576	189.89
423.036	192.69
423.496	211.19
423.956	218.49
424.416	241.09
424.876	264.49
425.336	254.89
425.797	264.69
426.257	258.79
426.717	247.59
427.177	231.99
427.637	224.59
428.097	235.99
428.556	246.49
429.016	274.89
429.476	262.39
429.936	277.09
430.396	276.89
430.856	291.59
431.315	319.59
431.775	354.19
432.235	386.49
432.694	356.29
433.154	369.89
433.614	395.89
434.073	334.99
434.533	282.69
434.993	275.09
435.452	289.99
435.912	291.49
436.371	294.99
436.83	287.99
437.29	275.69
437.749	252.79
438.209	247.39
438.668	270.19
439.127	286.99
439.587	271.19
440.046	251.49
440.505	258.39
440.964	284.49
441.424	333.29
441.883	312.29
442.342	264.59
442.801	222.99
443.26	219.09
443.719	225.09
444.178	221.69
444.637	215.19
445.096	221.09
445.555	229.29
446.014	226.59
446.473	228.79
446.932	231.89
447.391	224.29
447.849	229.59
448.308	217.89
448.767	222.59
449.226	236.49
449.685	232.29
450.143	246.59
450.602	233.99
451.061	222.79
451.519	237.79
451.978	231.39
452.436	238.29
452.895	240.79
453.353	249.79
453.812	242.69
454.27	237.19
454.729	234.09
455.187	247.69
455.646	245.89
456.104	245.49
456.562	261.99
457.021	266.49
457.479	261.89
457.937	271.19
458.395	263.69
458.854	243.99
459.312	258.59
459.77	277.49
460.228	260.39
460.686	246.99
461.144	248.19
461.602	241.59
462.06	243.79
462.518	257.49
462.976	257.59
463.434	253.99
463.892	272.59
464.35	277.49
464.808	298.39
465.266	268.89
465.724	271.99
466.181	278.39
466.639	276.79
467.097	288.69
467.555	302.39
468.012	304.49
468.47	316.09
468.928	330.29
469.385	343.29
469.843	344.29
470.3	349.09
470.758	363.69
471.215	386.69
471.673	418.59
472.13	412.19
472.588	423.19
473.045	366.29
473.503	379.49
473.96	397.69
474.417	409.39
474.875	432.29
475.332	473.79
475.789	460.49
476.246	469.09
476.704	482.79
477.161	505.19
477.618	534.09
478.075	562.79
478.532	624.79
478.989	697.79
479.446	812.39
479.903	787.89
480.36	824.79
480.817	882.19
481.274	982.29
481.731	1089.99
482.188	1185.79
482.645	1312.59
483.102	1434.59
483.558	1559.49
484.015	1627.89
484.472	1592.99
484.929	1541.69
485.385	1503.59
485.842	1461.79
486.299	1387.39
486.755	1308.99
487.212	1104.89
487.668	924.89
488.125	856.19
488.582	784.69
489.038	760.89
489.494	720.79
489.951	692.39
490.407	674.59
490.864	647.69
491.32	647.39
491.776	645.09
492.233	654.49
492.689	625.09
493.145	602.99
493.602	605.89
494.058	630.39
494.514	627.69
494.97	632.49
495.426	657.59
495.882	632.39
496.338	611.29
496.794	627.49
497.251	635.89
497.707	650.59
498.163	646.89
498.618	657.69
499.074	656.89
499.53	684.19
499.986	688.49
500.442	666.89
500.898	635.39
501.354	636.09
501.809	634.49
502.265	660.89
502.721	658.89
503.177	677.39
503.632	670.69
504.088	680.99
504.543	717.09
504.999	720.59
505.455	654.69
505.91	637.69
506.366	636.29
506.821	630.09
507.277	625.19
507.732	624.69
508.187	628.19
508.643	642.69
509.098	639.29
509.553	660.29
510.009	666.39
510.464	676.89
510.919	698.69
511.375	703.69
511.83	719.59
512.285	734.29
512.74	767.39
513.195	794.49
513.65	775.59
514.105	772.19
514.56	771.39
515.015	794.69
515.47	813.79
515.925	800.59
516.38	796.09
516.835	803.09
517.29	787.59
517.745	791.09
518.2	754.59
518.655	760.69
519.109	745.49
519.564	737.89
520.019	727.39
520.474	742.19
520.928	737.89
521.383	725.09
521.838	714.99
522.292	714.79
522.747	716.79
523.201	710.09
523.656	698.69
524.11	697.89
524.565	690.39
525.019	683.89
525.474	712.09
525.928	698.39
526.382	702.49
526.837	703.89
527.291	708.49
527.745	710.79
528.2	709.69
528.654	707.19
529.108	694.79
529.562	700.99
530.016	683.09
530.47	695.89
530.925	700.59
531.379	708.89
531.833	709.09
532.287	705.19
532.741	710.39
533.195	712.09
533.649	723.09
534.103	722.19
534.556	709.79
535.01	718.59
535.464	724.79
535.918	720.39
536.372	729.99
536.826	724.59
537.279	713.19
537.733	711.59
538.187	713.39
538.64	726.59
539.094	721.99
539.548	745.09
540.001	719.49
540.455	723.89
540.908	731.89
541.362	743.59
541.815	742.29
542.269	765.39
542.722	761.69
543.175	784.09
543.629	774.59
544.082	800.09
544.536	782.09
544.989	792.89
545.442	804.79
545.895	789.19
546.349	795.89
546.802	800.29
547.255	806.69
547.708	798.89
548.161	822.09
548.614	827.09
549.067	834.89
549.52	821.29
549.973	822.89
550.426	808.89
550.879	804.69
551.332	801.69
551.785	811.39
552.238	812.89
552.691	811.59
553.144	834.69
553.596	847.49
554.049	868.79
554.502	898.99
554.955	904.49
555.407	915.59
555.86	905.59
556.313	899.29
556.765	884.39
557.218	888.79
557.67	881.19
558.123	889.09
558.576	872.99
559.028	885.69
559.48	879.39
559.933	876.19
560.385	839.19
560.838	808.79
561.29	788.89
561.742	783.59
562.195	772.29
562.647	763.79
563.099	778.59
563.551	777.69
564.004	777.29
564.456	780.09
564.908	759.89
565.36	751.49
565.812	737.19
566.264	729.79
566.716	719.29
567.168	714.99
567.62	721.89
568.072	699.79
568.524	697.69
568.976	693.89
569.428	672.49
569.88	673.39
570.332	682.49
570.784	672.99
571.235	691.69
571.687	695.49
572.139	699.49
572.59	702.09
573.042	705.59
573.494	709.99
573.945	709.59
574.397	690.19
574.849	698.09
575.3	691.09
575.752	682.89
576.203	670.19
576.655	689.99
577.106	663.69
577.557	660.49
578.009	668.29
578.46	665.19
578.912	656.49
579.363	663.49
579.814	660.29
580.265	666.19
580.717	668.59
581.168	664.99
581.619	685.19
582.07	681.99
582.521	660.49
582.972	663.89
583.423	677.69
583.875	686.29
584.326	692.39
584.777	734.79
585.227	826.19
585.678	917.19
586.129	997.59
586.58	1059.59
587.031	1146.69
587.482	1320.29
587.933	1493.79
588.384	1290.69
588.834	956.49
589.285	798.29
589.736	774.19
590.186	767.99
590.637	753.59
591.088	744.59
591.538	735.59
591.989	724.59
592.439	723.19
592.89	713.69
593.34	704.79
593.791	706.19
594.241	700.29
594.692	702.89
595.142	698.19
595.593	692.59
596.043	696.29
596.493	702.09
596.943	705.19
597.394	716.29
597.844	709.39
598.294	725.99
598.744	747.39
599.195	770.89
599.645	806.89
600.095	834.19
600.545	906.19
600.995	949.99
601.445	1014.29
601.895	1077.09
602.345	1123.49
602.795	1102.29
603.245	1046.59
603.695	997.39
604.145	944.89
604.594	912.29
605.044	838.19
605.494	786.59
605.944	744.49
606.393	728.59
606.843	711.69
607.293	722.09
607.743	720.69
608.192	730.09
608.642	744.39
609.091	746.09
609.541	763.59
609.99	754.99
610.44	757.19
610.889	714.19
611.339	688.29
611.788	671.79
612.238	689.09
612.687	703.99
613.136	708.59
613.586	721.59
614.035	728.69
614.484	745.09
614.933	737.69
615.383	736.89
615.832	727.39
616.281	716.89
616.73	681.19
617.179	669.99
617.628	634.89
618.077	625.69
618.526	615.19
618.975	602.09
619.424	613.49
619.873	600.39
620.322	613.99
620.771	596.79
621.22	598.59
621.669	584.19
622.118	572.69
622.567	569.09
623.015	558.39
623.464	569.09
623.913	552.09
624.361	546.99
624.81	544.69
625.259	542.99
625.707	549.29
626.156	544.29
626.604	560.59
627.053	559.99
627.501	552.59
627.95	560.09
628.398	573.39
628.847	558.49
629.295	562.99
629.744	561.79
630.192	552.49
630.64	558.69
631.089	553.49
631.537	559.09
631.985	561.69
632.433	575.19
632.881	594.39
633.33	642.99
633.778	623.69
634.226	550.79
634.674	558.89
635.122	561.69
635.57	583.69
636.018	607.09
636.466	571.19
636.914	547.19
637.362	552.29
637.81	564.99
638.258	561.79
638.705	562.59
639.153	589.29
639.601	599.89
640.049	623.99
640.497	658.89
640.944	673.79
641.392	623.39
641.84	599.09
642.287	578.19
642.735	561.99
643.182	550.39
643.63	564.29
644.078	558.89
644.525	578.19
644.973	587.69
645.42	587.49
645.867	612.29
646.315	627.89
646.762	652.49
647.21	676.59
647.657	693.49
648.104	742.29
648.551	762.99
648.999	807.79
649.446	891.49
649.893	979.49
650.34	1134.59
650.787	1352.39
651.234	1677.89
651.682	2178.59
652.129	3004.89
652.576	4322.69
653.023	6394.09
653.47	8844.99
653.917	11037.99
654.363	12826.59
654.81	14215.69
655.257	13603.29
655.704	8857.99
656.151	5235.89
656.598	3380.49
657.044	2405.09
657.491	1836.49
657.938	1458.19
658.385	1224.79
658.831	1061.59
659.278	944.49
659.724	837.49
660.171	777.39
660.618	704.89
661.064	664.59
661.511	646.09
661.957	634.69
662.404	624.19
662.85	644.19
663.296	613.09
663.743	553.29
664.189	520.79
664.635	522.19
665.082	517.89
665.528	510.49
665.974	496.69
666.42	500.69
666.867	490.29
667.313	478.29
667.759	461.99
668.205	457.09
668.651	472.59
669.097	468.09
669.543	492.29
669.989	456.29
670.435	446.09
670.881	429.09
671.327	435.09
671.773	448.59
672.219	468.79
672.665	519.69
673.11	558.69
673.556	613.89
674.002	647.69
674.448	627.19
674.893	532.29
675.339	458.79
675.785	426.69
676.23	406.69
676.676	376.99
677.122	369.19
677.567	361.89
678.013	356.59
678.458	348.59
678.904	350.39
679.349	326.49
679.794	341.79
680.24	339.39
680.685	344.59
681.131	340.69
681.576	336.79
682.021	354.29
682.466	336.29
682.912	330.79
683.357	340.79
683.802	366.79
684.247	395.79
684.692	444.79
685.137	477.49
685.583	521.79
686.028	543.99
686.473	507.49
686.918	428.29
687.363	400.19
687.807	379.09
688.252	347.39
688.697	337.59
689.142	327.59
689.587	319.89
690.032	304.89
690.477	328.79
690.921	341.19
691.366	365.19
691.811	387.49
692.255	420.89
692.7	442.59
693.145	473.29
693.589	651.49
694.034	1054.89
694.478	1476.39
694.923	1670.59
695.367	2199.79
695.812	1155.69
696.256	483.49
696.701	360.39
697.145	335.99
697.59	315.09
698.034	306.89
698.478	313.39
698.922	304.39
699.367	319.19
699.811	324.29
700.255	342.59
700.699	365.59
701.143	400.69
701.588	453.89
702.032	503.89
702.476	493.19
702.92	471.49
703.364	465.69
703.808	603.29
704.252	968.49
704.696	1385.69
705.14	1611.39
705.584	2051.69
706.027	1026.69
706.471	501.99
706.915	385.49
707.359	334.99
707.803	305.99
708.246	296.49
708.69	304.49
709.134	295.99
709.577	296.99
710.021	305.49
710.465	297.59
710.908	286.39
711.352	283.69
711.795	295.39
712.239	336.89
712.682	360.39
713.126	398.19
713.569	437.39
714.012	361.59
714.456	314.19
714.899	284.29
715.342	258.69
715.786	252.19
716.229	245.89
716.672	247.99
717.115	239.89
717.558	240.59
718.002	238.49
718.445	255.59
718.888	275.29
719.331	282.39
719.774	298.89
720.217	288.39
720.66	279.19
721.103	252.59
721.546	243.79
721.989	244.29
722.432	223.39
722.874	225.09
723.317	218.99
723.76	226.69
724.203	241.99
724.645	302.79
725.088	426.39
725.531	544.89
725.974	615.79
726.416	518.09
726.859	288.99
727.301	234.29
727.744	227.89
728.187	219.49
728.629	220.49
729.071	233.19
729.514	253.19
729.956	257.19
730.399	270.49
730.841	276.19
731.283	260.69
731.726	255.39
732.168	240.09
732.61	257.29
733.053	268.59
733.495	301.69
733.937	337.89
734.379	379.29
734.821	404.29
735.263	508.69
735.705	783.69
736.148	1477.29
736.59	2439.69
737.032	2961.09
737.474	2413.69
737.916	777.49
738.357	406.69
738.799	310.29
739.241	279.49
739.683	270.79
740.125	278.89
740.567	288.39
741.008	298.39
741.45	299.09
741.892	306.09
742.334	337.29
742.775	337.69
743.217	331.39
743.658	260.89
744.1	242.39
744.542	243.59
744.983	287.89
745.425	332.59
745.866	319.29
746.307	268.39
746.749	267.29
747.19	302.29
747.632	423.19
748.073	819.89
748.514	1732.99
748.956	2705.49
749.397	3425.19
749.838	2818.89
750.279	2851.19
750.72	1427.89
751.162	522.49
751.603	312.39
752.044	245.69
752.485	198.69
752.926	201.79
753.367	204.19
753.808	198.19
754.249	180.39
754.69	178.19
755.131	174.69
755.572	175.79
756.013	174.79
756.453	172.59
756.894	178.09
757.335	178.89
757.776	190.69
758.216	187.09
758.657	191.69
759.098	189.99
759.538	213.29
759.979	257.69
760.42	351.29
760.86	650.09
761.301	1683.09
761.741	4149.89
762.182	6196.19
762.622	4369.49
763.063	1246.49
763.503	505.29
763.943	327.29
764.384	322.09
764.824	396.49
765.264	433.79
765.705	299.09
766.145	195.09
766.585	177.89
767.025	174.19
767.465	174.79
767.906	232.39
768.346	301.69
768.786	336.49
769.226	242.69
769.666	291.89
770.106	573.49
770.546	1462.19
770.986	2531.49
771.426	2287.99
771.866	755.39
772.306	306.39
772.745	197.79
773.185	162.49
773.625	161.89
774.065	163.89
774.505	187.29
774.944	284.39
775.384	637.39
775.824	1182.49
776.263	1173.59
776.703	489.79
777.142	214.29
777.582	149.79
778.021	127.29
778.461	130.19
778.9	137.09
779.34	132.69
779.779	117.99
780.219	105.39
780.658	105.39
781.097	102.99
781.537	115.39
781.976	102.69
782.415	98.59
782.855	101.29
783.294	95.89
783.733	97.39
784.172	106.39
784.611	102.09
785.05	101.39
785.489	104.29
785.928	117.19
786.367	114.29
786.806	110.59
787.245	121.39
787.684	134.19
788.123	141.19
788.562	126.79
789.001	120.79
789.44	119.59
789.879	114.89
790.317	115.49
790.756	127.99
791.195	119.19
791.634	138.69
792.072	188.59
792.511	342.39
792.95	927.89
793.388	2039.39
793.827	1876.19
794.265	653.69
794.704	269.89
795.142	175.89
795.581	142.49
796.019	131.89
796.458	125.09
796.896	111.79
797.334	117.99
797.773	134.19
798.211	202.29
798.649	403.69
799.087	959.89
799.526	1512.59
799.964	1895.59
800.402	1922.99
800.84	718.99
801.278	285.19
801.716	179.49
802.154	147.59
802.592	144.89
803.03	131.29
803.468	133.39
803.906	131.59
804.344	146.09
804.782	132.89
805.22	119.49
805.658	123.49
806.096	132.89
806.533	147.59
806.971	166.49
807.409	199.09
807.847	290.89
808.284	614.19
808.722	1742.69
809.16	3128.19
809.597	2933.49
810.035	5106.79
810.472	5594.29
810.91	2004.89
811.347	750.59
811.785	388.79
812.222	246.59
812.66	186.79
813.097	158.49
813.535	128.99
813.972	122.09
814.409	111.19
814.846	102.09
815.284	107.69
815.721	94.19
816.158	101.79
816.595	111.69
817.032	169.89
817.47	181.79
817.907	167.79
818.344	144.29
818.781	106.79
819.218	96.49
819.655	114.19
820.092	182.49
820.529	210.89
820.966	175.39
821.403	132.59
821.839	99.49
822.276	96.49
822.713	112.59
823.15	130.69
823.587	117.69
824.023	140.09
824.46	277.79
824.897	837.89
825.333	1297.59
825.77	554.39
826.206	224.99
826.643	128.39
827.08	93.49
827.516	79.99
827.953	71.99
828.389	77.79
828.825	69.19
829.262	64.49
829.698	61.89
830.135	65.19
830.571	63.49
831.007	60.39
831.443	61.89
831.88	54.39
832.316	60.29
832.752	63.99
833.188	61.59
833.624	61.69
834.06	68.39
834.497	66.79
834.933	64.29
835.369	73.59
835.805	64.59
836.241	73.39
836.677	78.49
837.112	92.09
837.548	99.99
837.984	123.29
838.42	187.89
838.856	456.49
839.292	1415.29
839.727	2210.29
840.163	1023.39
840.599	865.39
841.034	1910.39
841.47	2050.19
841.906	739.19
842.341	319.59
842.777	216.79
843.212	305.79
843.648	300.79
844.083	144.19
844.519	94.29
844.954	69.99
845.39	55.79
845.825	52.09
846.261	59.39
846.696	49.69
847.131	51.39
847.566	55.09
848.002	55.29
848.437	55.59
848.872	59.09
849.307	55.49
849.742	84.59
850.177	162.59
850.613	519.19
851.048	843.19
851.483	360.99
851.918	145.29
852.353	82.69
852.788	59.99
853.223	51.49
853.657	45.49
854.092	45.79
854.527	40.29
854.962	44.39
855.397	42.29
855.832	48.29
856.266	38.59
856.701	36.89
857.136	33.39
857.57	32.29
858.005	46.29
858.44	50.59
858.874	40.09
859.309	49.39
859.743	39.89
860.178	43.49
860.612	38.29
861.047	53.19
861.481	64.69
861.915	65.29
862.35	47.29
862.784	31.99
863.218	33.49
863.653	32.29
864.087	46.09
864.521	46.09
864.955	73.09
865.39	151.39
865.824	166.79
866.258	100.69
866.692	150.89
867.126	167.89
867.56	95.89
867.994	52.39
868.428	30.29
868.862	45.09
869.296	52.39
869.73	54.29
870.164	49.39
870.598	48.39
871.031	35.89
871.465	29.29
871.899	27.89
872.333	20.09
872.766	20.69
873.2	18.99
873.634	27.29
874.067	26.19
874.501	23.49
874.935	32.49
875.368	26.59
875.802	21.69
876.235	22.69
876.669	24.89
877.102	17.89
877.535	21.69
877.969	18.79
878.402	22.49
878.836	15.19
879.269	18.79
879.702	27.39
880.135	16.99
880.569	16.99
881.002	29.69
881.435	19.79
881.868	15.79
882.301	23.89
882.734	15.39
883.167	18.29
883.601	17.89
884.034	24.59
884.467	10.89
884.899	15.49
885.332	14.19
885.765	11.19
886.198	13.59
886.631	15.69
887.064	14.39
887.497	24.19
887.929	26.89
888.362	17.39
888.795	14.99
889.228	18.49
889.66	19.39
890.093	13.59
890.526	14.69
890.958	16.29
891.391	10.59
891.823	11.29
892.256	24.19
892.688	11.99
893.121	9.49
893.553	15.09
893.985	20.89
894.418	14.39
894.85	9.69
895.282	13.89
895.715	16.99
896.147	13.79
896.579	17.99
897.011	8.99
897.444	13.09
897.876	18.39
898.308	20.19
898.74	12.99
899.172	15.99
899.604	22.59
900.036	15.69
900.468	10.19
900.9	12.09
901.332	20.39
901.764	13.19
902.196	14.89
902.628	12.59
903.06	11.19
903.491	30.19
903.923	18.49
904.355	16.89
904.787	25.59
905.218	21.39
905.65	15.69
906.082	16.29
906.513	14.49
906.945	15.09
907.376	10.99
907.808	14.79
908.239	13.69
908.671	19.89
909.102	15.19
909.534	22.99
909.965	45.79
910.397	84.49
910.828	301.19
911.259	451.29
911.691	210.49
912.122	98.19
912.553	51.49
912.984	27.59
913.415	19.39
913.847	21.69
914.278	16.69
914.709	11.79
915.14	17.99
915.571	16.59
916.002	13.19
916.433	19.89
916.864	12.09
917.295	12.69
917.726	24.99
918.157	15.29
918.587	26.09
919.018	19.59
919.449	22.79
919.88	27.99
920.311	26.49
920.741	43.29
921.172	159.69
921.603	144.19
922.033	67.69
922.464	42.29
922.895	20.99
923.325	14.09
923.756	8.09
924.186	21.19
924.617	26.89
925.047	46.09
925.478	49.59
925.908	42.89
926.338	22.89
926.769	19.59
927.199	13.49
927.629	5.49
928.06	16.59
928.49	8.59
928.92	10.29
929.35	6.79
929.78	6.09
930.21	6.39
930.641	9.39
931.071	8.89
931.501	3.49
931.931	4.29
932.361	7.79
932.791	1.09
933.221	5.49
933.651	4.39
934.08	14.09
934.51	26.79
934.94	4.59
935.37	6.49
935.8	12.29
936.229	6.09
936.659	4.09
937.089	2.99
937.519	12.39
937.948	19.19
938.378	17.69
938.807	3.99
939.237	3.19
939.666	7.59
940.096	-7.71
940.525	2.79
940.955	-0.31
941.384	2.19
941.814	-5.01
942.243	4.59
942.672	6.09
943.102	0.69
943.531	-3.51
943.96	-0.31
944.39	2.09
944.819	1.89
945.248	0.29
945.677	1.39
946.106	5.69
946.535	6.49
946.964	-1.21
947.393	1.49
947.822	1.79
948.251	-6.51
948.68	-0.91
949.109	3.89
949.538	1.99
949.967	3.99
950.396	1.79
950.825	-3.41
951.254	0.99
951.682	-5.01
952.111	-0.21
952.54	9.49
952.969	-2.31
953.397	-11.71
953.826	3.59
954.254	-8.21
954.683	5.09
955.112	-1.71
955.54	6.99
955.969	2.39
956.397	-2.71
956.826	0.19
957.254	4.09
957.682	-1.71
958.111	7.59
958.539	0.69
958.967	-0.11
959.396	-0.41
959.824	-0.21
960.252	7.99
960.68	-13.01
961.109	-1.91
961.537	-5.31
961.965	-0.81
962.393	5.49
962.821	-2.81
963.249	0.39
963.677	-2.71
964.105	-0.41
964.533	38.79
964.961	36.39
965.389	20.99
965.817	6.49
966.245	-0.41
966.672	1.89
967.1	0.99
967.528	2.09
967.956	-7.01
968.383	3.29
968.811	-2.11
969.239	-2.21
969.666	-5.91
970.094	-0.41
970.522	-2.41
970.949	-1.31
971.377	-4.51
971.804	-6.31
972.232	-6.01
972.659	-3.41
973.087	-3.81
973.514	-5.21
973.941	-2.21
974.369	3.79
974.796	1.99
975.223	-2.11
975.651	0.29
976.078	2.89
976.505	-2.21
976.932	2.99
977.359	14.19
977.786	17.39
978.214	1.09
978.641	-6.51
979.068	-3.01
979.495	-6.01
979.922	-2.81
980.349	-4.81
980.776	3.09
981.202	0.89
981.629	7.59
982.056	-2.01
982.483	1.39
982.91	2.79
983.337	-6.91
983.763	-0.71
984.19	-3.21
984.617	0.29
985.043	-2.51
985.47	-8.41
985.897	-6.61
986.323	-8.21
986.75	-0.21
987.176	-0.61
987.603	-5.71
988.029	-2.41
988.456	-3.71
988.882	3.39
989.308	0.89
989.735	-4.41
990.161	-0.11
990.587	2.59
991.014	0.09
991.44	3.79
991.866	2.69
992.292	-3.51
992.719	-5.21
993.145	1.99
993.571	-11.21
993.997	-4.51
994.423	-1.51
994.849	-1.31
995.275	-1.01
995.701	-2.81
996.127	1.39
996.553	-1.91
996.979	-3.81
997.405	-2.01
997.83	-3.41
998.256	-9.01
998.682	-5.81
999.108	-8.71
999.534	-2.41
999.959	-2.81
1000.385	-7.61
1000.811	-2.31
1001.236	-10.21
1001.662	-10.21
1002.087	-12.21
1002.513	-2.51
1002.938	-0.21
1003.364	-3.41
1003.789	1.89
1004.215	1.39
1004.64	-3.31
1005.066	-0.21
1005.491	0.89
1005.916	0.39
1006.342	-4.11
1006.767	-9.61
1007.192	9.09
1007.617	-4.31
1008.042	-4.11
1008.468	-3.61
1008.893	-5.71
1009.318	-2.71
1009.743	-3.51
1010.168	0.59
1010.593	4.29
1011.018	-6.21
1011.443	0.19
1011.868	5.09
1012.293	-2.11
1012.718	-10.11
1013.143	0.09
1013.567	-2.51
1013.992	-4.41
1014.417	-6.91
1014.842	4.09
1015.267	-0.01
1015.691	-5.71
1016.116	6.79
1016.541	-0.41
1016.965	7.49
1017.39	-0.71
1017.814	-1.71
1018.239	-2.41
1018.663	-4.51
1019.088	-11.81
1019.512	-0.91
1019.937	-2.61
1020.361	-4.71
1020.785	-9.31
1021.21	-8.71
1021.634	-2.41
1022.058	-4.81
1022.483	2.49
1022.907	1.69
1023.331	-3.01
1023.755	-1.41
1024.179	-1.81
1024.604	-2.51
1025.028	-11.41
1025.452	-5.81
1025.876	-2.91
1026.3	1.39
1026.724	-8.81
1027.148	-2.21
1027.572	-11.21
1027.996	-3.21
1028.42	1.49
1028.843	-6.11
1029.267	-4.41
1029.691	-2.21
1030.115	-9.81
1030.539	-9.41
1030.962	-3.41
1031.386	-12.31
1031.81	-4.11
1032.233	1.09
1032.657	-1.21
1033.08	-0.11
1033.504	-7.11
1033.927	-8.21
1034.351	-4.11
1034.774	-5.31
1035.198	-1.61
1035.621	-8.21
1036.045	-6.41
1036.468	-0.91
1036.891	-14.51
1037.315	-13.01
1037.738	-10.81
1038.161	-0.51
1038.584	-1.91
1039.008	-2.71
1039.431	-1.81
1039.854	-4.11
1040.277	-14.21
1040.7	-12.21
1041.123	-3.61
1041.546	-8.71
1041.969	-6.61
1042.392	-1.91
1042.815	-6.71
1043.238	-6.41
1043.661	-3.51
1044.084	-7.21
1044.507	-1.71
1044.93	-4.01
1045.352	-8.51
1045.775	-1.51
1046.198	-6.91
1046.621	-3.11
1047.043	-4.51
1047.466	4.79
1047.889	-1.21
1048.311	0.39
1048.734	-3.71
1049.156	-0.01
1049.579	-2.21
1050.001	-6.51
1050.424	-5.41
1050.846	-1.31
1051.269	0.29
1051.691	-8.71
1052.113	-1.81
1052.536	0.99
1052.958	-2.21
1053.38	-7.81
1053.802	-7.61
1054.225	1.49
1054.647	-8.91
1055.069	-7.91
1055.491	-0.81
1055.913	-13.21
1056.335	-4.71
1056.757	-1.41
1057.179	-8.11
1057.601	-10.11
1058.023	-4.61
1058.445	-11.51
1058.867	-2.41
1059.289	-9.21
1059.711	-4.61
1060.133	-1.91
1060.555	-11.11
1060.976	-11.21
1061.398	-4.51
1061.82	-3.81
1062.241	-9.01
1062.663	-7.91
1063.085	-6.81
1063.506	-1.81
1063.928	0.49
1064.35	3.79
1064.771	-18.01
1065.193	-5.51
1065.614	-10.51
1066.035	-7.21
1066.457	-6.81
1066.878	-0.91
1067.3	-5.31
1067.721	-2.11
1068.142	-3.71
1068.564	-4.61
1068.985	-1.41
1069.406	-3.11
1069.827	-0.41
1070.248	-3.61
1070.67	-6.51
1071.091	-5.11
1071.512	-9.21
1071.933	-4.01
1072.354	-13.21
1072.775	-8.41
1073.196	-10.61
1073.617	-4.21
1074.038	-10.11
1074.459	-4.21
1074.88	-9.71
1075.3	-1.21
1075.721	-9.51
1076.142	-7.81
1076.563	-4.31
1076.983	-14.71
1077.404	-8.81
1077.825	-7.41
1078.246	-6.41
1078.666	-10.41
1079.087	-5.61
1079.507	-6.81
1079.928	1.99
1080.348	-2.91
1080.769	-8.61
1081.189	-4.61
1081.61	-4.91
1082.03	-7.61
1082.451	-5.61
1082.871	-4.51
1083.291	-4.71
1083.711	-9.61
1084.132	-5.71
1084.552	-8.41
1084.972	-6.71
1085.392	-9.21
1085.813	-12.41
1086.233	-9.61
1086.653	-6.11
1087.073	-7.21
1087.493	-9.51
1087.913	-4.71
1088.333	-6.31
1088.753	-2.81
1089.173	1.79
1089.593	-5.21
1090.013	1.49
1090.433	-7.61
1090.852	1.39
1091.272	-7.01
1091.692	-5.41
1092.112	-4.21
1092.531	-3.41
1092.951	-16.21
1093.371	-3.81
1093.79	-4.61
1094.21	-7.31
1094.63	-5.81
1095.049	-1.01
1095.469	-3.11
1095.888	-9.71
1096.308	-6.01
1096.727	2.89
1097.146	-4.91
1097.566	-4.71
1097.985	-7.51
1098.405	-1.71
1098.824	-7.31
1099.243	-8.71
1099.662	-9.91
1100.082	-8.21
1100.501	0.99
1100.92	-7.31
1101.339	-2.71
1101.758	-1.21
