Data from 20171114-ORNL-Ar_H_NY_Subt18_08-08-57-208.txt Node
Date: Tue Nov 14 08:08:57 EST 2017
User: Ender
Spectrometer: HR+D1039
Trigger mode: 0
Integration Time (sec): 2.730000E-2
Scans to average: 10
Electric dark correction enabled: true
Nonlinearity correction enabled: false
Boxcar width: 0
XAxis mode: Wavelengths
Number of Pixels in Spectrum: 2048
>>>>>Begin Spectral Data<<<<<
187.836	-3.03
188.309	-3.03
188.782	-3.03
189.255	-0.73
189.728	-4.03
190.201	6.07
190.674	0.47
191.147	4.37
191.619	-8.03
192.092	-2.23
192.565	5.67
193.038	2.57
193.511	0.67
193.984	1.77
194.456	-6.43
194.929	2.37
195.402	-2.53
195.874	3.07
196.347	1.67
196.82	-1.63
197.292	8.27
197.765	2.27
198.237	-9.13
198.71	3.57
199.182	2.37
199.655	3.37
200.127	2.07
200.6	-3.43
201.072	-5.73
201.544	-2.43
202.017	-0.23
202.489	4.97
202.961	1.57
203.433	-6.03
203.906	-6.73
204.378	-3.03
204.85	-1.83
205.322	-8.43
205.794	0.77
206.266	-1.53
206.739	-11.03
207.211	1.57
207.683	-12.63
208.155	-0.33
208.627	-4.73
209.099	-5.13
209.57	-6.23
210.042	-2.73
210.514	-2.93
210.986	-2.03
211.458	-15.43
211.93	-8.03
212.402	1.47
212.873	-4.83
213.345	-10.73
213.817	-7.23
214.288	-6.53
214.76	-4.13
215.232	-3.43
215.703	-4.03
216.175	-5.03
216.646	-4.43
217.118	-1.53
217.589	-3.53
218.061	0.37
218.532	-3.13
219.004	-1.43
219.475	-8.13
219.946	-5.93
220.418	-10.03
220.889	7.77
221.36	0.17
221.832	-2.43
222.303	-6.03
222.774	-2.53
223.245	-6.73
223.717	-5.73
224.188	-0.23
224.659	-1.83
225.13	-7.63
225.601	-5.23
226.072	-2.93
226.543	0.77
227.014	6.37
227.485	-3.03
227.956	-6.53
228.427	-0.33
228.898	1.57
229.369	5.27
229.839	-1.73
230.31	-9.43
230.781	0.07
231.252	-2.83
231.722	-5.73
232.193	-1.43
232.664	-2.53
233.135	-3.03
233.605	4.97
234.076	-6.83
234.546	1.37
235.017	-0.13
235.487	3.27
235.958	-1.93
236.428	-0.13
236.899	3.77
237.369	4.57
237.84	-4.63
238.31	2.57
238.78	-0.43
239.251	3.17
239.721	-1.83
240.191	-1.63
240.662	-5.43
241.132	-6.53
241.602	-2.33
242.072	3.77
242.542	1.17
243.013	-0.73
243.483	3.37
243.953	-3.63
244.423	-0.43
244.893	-6.93
245.363	4.07
245.833	3.57
246.303	-8.33
246.773	9.77
247.243	3.77
247.712	6.37
248.182	5.87
248.652	1.07
249.122	-1.63
249.592	10.47
250.061	18.27
250.531	24.87
251.001	14.07
251.471	8.57
251.94	14.77
252.41	7.37
252.879	-4.63
253.349	10.57
253.818	1.27
254.288	0.97
254.757	-3.53
255.227	-0.23
255.696	-0.03
256.166	-2.53
256.635	4.67
257.105	6.27
257.574	2.77
258.043	6.17
258.513	4.77
258.982	9.07
259.451	3.47
259.92	11.07
260.389	4.57
260.859	11.87
261.328	12.57
261.797	7.97
262.266	1.37
262.735	4.77
263.204	8.47
263.673	-5.63
264.142	1.67
264.611	-2.73
265.08	-1.73
265.549	2.07
266.018	4.27
266.487	-5.33
266.955	-7.83
267.424	-5.63
267.893	3.67
268.362	-2.83
268.83	-2.23
269.299	3.17
269.768	6.37
270.236	-5.03
270.705	-0.53
271.174	1.27
271.642	1.97
272.111	4.37
272.579	10.07
273.048	14.47
273.516	19.67
273.985	17.97
274.453	18.27
274.922	6.27
275.39	2.47
275.858	-9.33
276.327	5.27
276.795	17.37
277.263	7.97
277.731	23.27
278.2	37.87
278.668	34.97
279.136	32.97
279.604	8.27
280.072	11.67
280.54	5.47
281.008	4.57
281.477	6.67
281.945	9.47
282.413	7.67
282.881	9.47
283.348	4.67
283.816	3.87
284.284	12.77
284.752	18.07
285.22	7.77
285.688	11.47
286.156	8.97
286.623	31.57
287.091	37.97
287.559	17.87
288.026	6.47
288.494	12.37
288.962	-4.53
289.429	0.87
289.897	12.77
290.364	14.27
290.832	8.07
291.3	4.27
291.767	10.37
292.234	10.17
292.702	5.77
293.169	10.07
293.637	17.67
294.104	13.37
294.571	2.77
295.039	6.27
295.506	10.67
295.973	9.07
296.44	11.27
296.908	15.17
297.375	10.97
297.842	12.27
298.309	7.17
298.776	6.87
299.243	13.17
299.71	1.27
300.177	14.47
300.644	14.17
301.111	12.17
301.578	15.07
302.045	11.47
302.512	13.67
302.979	18.47
303.446	13.17
303.913	13.07
304.379	11.67
304.846	23.77
305.313	15.97
305.78	19.87
306.246	22.77
306.713	21.47
307.18	13.67
307.646	17.77
308.113	19.97
308.579	13.17
309.046	20.37
309.512	16.07
309.979	10.77
310.445	16.17
310.912	24.37
311.378	24.57
311.845	22.77
312.311	19.17
312.777	22.37
313.244	21.47
313.71	32.07
314.176	23.97
314.642	24.47
315.109	25.37
315.575	26.67
316.041	29.17
316.507	18.37
316.973	25.07
317.439	24.87
317.905	32.37
318.371	20.27
318.837	30.77
319.303	25.77
319.769	23.47
320.235	21.57
320.701	27.47
321.167	29.77
321.633	16.17
322.099	30.47
322.564	30.37
323.03	29.27
323.496	32.97
323.962	33.67
324.427	29.17
324.893	30.07
325.359	25.97
325.824	26.37
326.29	30.87
326.755	31.27
327.221	29.67
327.686	27.97
328.152	33.07
328.617	37.37
329.083	39.57
329.548	41.67
330.014	34.47
330.479	32.37
330.944	35.87
331.41	32.97
331.875	35.97
332.34	29.77
332.805	36.07
333.271	32.87
333.736	36.57
334.201	37.47
334.666	39.77
335.131	40.07
335.596	33.47
336.061	38.87
336.526	28.57
336.991	38.47
337.456	45.47
337.921	44.27
338.386	35.57
338.851	33.17
339.316	35.17
339.781	37.17
340.246	41.47
340.711	34.97
341.175	43.37
341.64	33.57
342.105	40.17
342.569	40.87
343.034	41.27
343.499	49.37
343.963	37.07
344.428	52.07
344.893	49.57
345.357	49.57
345.822	57.17
346.286	59.97
346.751	61.67
347.215	53.87
347.679	59.97
348.144	72.27
348.608	67.37
349.073	46.27
349.537	58.87
350.001	62.87
350.465	66.77
350.93	64.47
351.394	70.47
351.858	61.17
352.322	73.67
352.786	70.17
353.25	76.57
353.715	85.67
354.179	77.37
354.643	98.27
355.107	94.17
355.571	85.07
356.035	84.37
356.498	92.27
356.962	93.27
357.426	105.67
357.89	90.17
358.354	72.07
358.818	67.27
359.281	67.17
359.745	65.67
360.209	71.67
360.673	62.27
361.136	71.57
361.6	69.77
362.064	69.37
362.527	70.77
362.991	76.17
363.454	69.17
363.918	62.27
364.381	64.07
364.845	68.57
365.308	69.47
365.772	69.27
366.235	72.47
366.698	71.67
367.162	72.07
367.625	67.87
368.088	81.47
368.552	79.57
369.015	75.47
369.478	80.17
369.941	83.07
370.404	80.67
370.867	82.57
371.331	90.47
371.794	95.17
372.257	91.27
372.72	104.67
373.183	97.97
373.646	85.37
374.109	88.67
374.572	86.57
375.035	92.47
375.497	99.17
375.96	97.17
376.423	87.07
376.886	98.47
377.349	96.57
377.811	90.27
378.274	96.17
378.737	94.07
379.199	97.07
379.662	103.37
380.125	103.17
380.587	99.87
381.05	109.67
381.512	111.07
381.975	118.27
382.437	113.37
382.9	112.47
383.362	123.07
383.825	127.07
384.287	130.37
384.75	129.37
385.212	128.97
385.674	128.37
386.136	119.97
386.599	114.47
387.061	123.27
387.523	112.17
387.985	126.37
388.447	133.17
388.91	129.77
389.372	144.07
389.834	132.07
390.296	128.87
390.758	138.67
391.22	152.27
391.682	181.27
392.144	258.87
392.606	204.37
393.068	149.37
393.529	151.67
393.991	132.07
394.453	127.17
394.915	142.87
395.377	175.07
395.838	183.37
396.3	139.87
396.762	127.47
397.224	123.07
397.685	118.57
398.147	114.17
398.608	109.47
399.07	120.37
399.531	125.97
399.993	130.17
400.454	143.27
400.916	134.87
401.377	128.37
401.839	136.37
402.3	137.87
402.762	151.07
403.223	166.87
403.684	157.67
404.145	147.57
404.607	143.67
405.068	148.87
405.529	152.87
405.99	175.77
406.451	163.67
406.913	165.27
407.374	153.37
407.835	153.07
408.296	158.17
408.757	161.77
409.218	176.67
409.679	173.57
410.14	167.77
410.601	164.97
411.062	167.47
411.522	181.17
411.983	180.57
412.444	168.07
412.905	170.27
413.366	170.77
413.826	186.17
414.287	199.37
414.748	245.47
415.208	231.47
415.669	195.47
416.13	192.17
416.59	186.67
417.051	201.77
417.511	209.47
417.972	226.57
418.432	228.47
418.893	269.27
419.353	240.47
419.814	190.17
420.274	179.37
420.734	175.47
421.195	188.07
421.655	190.97
422.115	186.37
422.576	181.57
423.036	189.07
423.496	191.37
423.956	207.17
424.416	220.17
424.876	253.87
425.336	243.07
425.797	245.07
426.257	250.77
426.717	233.27
427.177	221.47
427.637	215.47
428.097	221.17
428.556	235.07
429.016	254.27
429.476	250.27
429.936	262.77
430.396	272.27
430.856	274.77
431.315	302.77
431.775	331.17
432.235	354.17
432.694	325.57
433.154	350.07
433.614	372.47
434.073	314.77
434.533	267.07
434.993	253.97
435.452	270.37
435.912	275.27
436.371	275.97
436.83	268.57
437.29	253.47
437.749	236.17
438.209	230.37
438.668	260.57
439.127	265.17
439.587	244.27
440.046	241.17
440.505	243.77
440.964	260.17
441.424	306.17
441.883	295.97
442.342	247.47
442.801	219.47
443.26	216.67
443.719	213.27
444.178	215.77
444.637	204.57
445.096	210.47
445.555	214.57
446.014	216.37
446.473	221.57
446.932	224.57
447.391	218.27
447.849	220.17
448.308	210.17
448.767	218.47
449.226	232.37
449.685	228.87
450.143	238.17
450.602	230.87
451.061	222.87
451.519	218.77
451.978	223.17
452.436	226.07
452.895	232.87
453.353	237.17
453.812	232.27
454.27	227.97
454.729	236.97
455.187	230.57
455.646	237.57
456.104	235.37
456.562	248.67
457.021	262.57
457.479	251.17
457.937	255.67
458.395	251.57
458.854	241.37
459.312	249.77
459.77	258.07
460.228	242.87
460.686	237.77
461.144	242.47
461.602	238.17
462.06	237.27
462.518	245.17
462.976	246.57
463.434	247.47
463.892	250.67
464.35	268.07
464.808	276.37
465.266	251.77
465.724	258.17
466.181	266.67
466.639	259.27
467.097	278.77
467.555	286.87
468.012	291.67
468.47	298.07
468.928	314.87
469.385	322.37
469.843	332.27
470.3	341.67
470.758	343.37
471.215	366.27
471.673	388.47
472.13	391.17
472.588	404.27
473.045	363.37
473.503	374.07
473.96	386.57
474.417	378.97
474.875	412.97
475.332	457.77
475.789	447.47
476.246	450.47
476.704	468.37
477.161	486.77
477.618	499.27
478.075	542.17
478.532	587.57
478.989	655.57
479.446	770.37
479.903	738.17
480.36	772.67
480.817	824.97
481.274	923.77
481.731	1016.67
482.188	1099.67
482.645	1218.67
483.102	1315.37
483.558	1439.27
484.015	1486.17
484.472	1458.77
484.929	1428.87
485.385	1382.07
485.842	1349.67
486.299	1296.87
486.755	1226.67
487.212	1036.37
487.668	888.07
488.125	812.67
488.582	742.67
489.038	707.97
489.494	680.07
489.951	656.47
490.407	632.27
490.864	612.57
491.32	616.87
491.776	616.37
492.233	626.47
492.689	583.87
493.145	571.77
493.602	571.17
494.058	588.17
494.514	581.67
494.97	612.07
495.426	620.47
495.882	594.17
496.338	579.27
496.794	598.87
497.251	596.37
497.707	611.87
498.163	602.17
498.618	608.07
499.074	616.77
499.53	648.77
499.986	650.07
500.442	622.77
500.898	604.47
501.354	600.67
501.809	605.97
502.265	612.07
502.721	637.87
503.177	649.57
503.632	647.67
504.088	656.87
504.543	688.77
504.999	681.57
505.455	632.77
505.91	605.07
506.366	602.67
506.821	604.87
507.277	607.77
507.732	605.57
508.187	611.07
508.643	611.97
509.098	607.17
509.553	639.17
510.009	643.97
510.464	657.17
510.919	666.47
511.375	667.97
511.83	685.57
512.285	702.37
512.74	734.77
513.195	750.77
513.65	746.17
514.105	742.77
514.56	741.47
515.015	757.77
515.47	773.57
515.925	760.17
516.38	752.87
516.835	763.47
517.29	750.57
517.745	743.27
518.2	742.97
518.655	718.67
519.109	728.17
519.564	713.47
520.019	699.77
520.474	701.97
520.928	700.97
521.383	692.07
521.838	686.97
522.292	683.67
522.747	684.97
523.201	680.77
523.656	683.47
524.11	671.67
524.565	676.57
525.019	665.87
525.474	679.67
525.928	669.77
526.382	672.57
526.837	668.07
527.291	683.97
527.745	665.37
528.2	677.97
528.654	662.37
529.108	666.97
529.562	666.97
530.016	663.37
530.47	679.87
530.925	663.17
531.379	687.17
531.833	673.17
532.287	675.37
532.741	676.97
533.195	674.97
533.649	689.17
534.103	689.27
534.556	684.07
535.01	685.17
535.464	677.57
535.918	690.07
536.372	683.77
536.826	692.37
537.279	687.97
537.733	685.77
538.187	699.97
538.64	694.57
539.094	700.37
539.548	707.67
540.001	695.47
540.455	704.77
540.908	712.87
541.362	717.47
541.815	726.77
542.269	737.17
542.722	736.27
543.175	746.57
543.629	738.17
544.082	769.87
544.536	770.37
544.989	759.57
545.442	776.17
545.895	759.97
546.349	762.77
546.802	775.17
547.255	772.87
547.708	787.67
548.161	801.47
548.614	789.17
549.067	809.47
549.52	799.27
549.973	782.97
550.426	783.67
550.879	776.77
551.332	788.27
551.785	786.87
552.238	788.27
552.691	796.77
553.144	811.07
553.596	826.97
554.049	843.07
554.502	877.97
554.955	895.17
555.407	886.87
555.86	879.97
556.313	873.87
556.765	854.07
557.218	860.47
557.67	859.67
558.123	849.47
558.576	856.27
559.028	855.17
559.48	857.77
559.933	854.17
560.385	817.67
560.838	784.87
561.29	777.47
561.742	758.37
562.195	749.67
562.647	755.37
563.099	754.17
563.551	756.77
564.004	765.87
564.456	762.17
564.908	749.37
565.36	735.07
565.812	719.87
566.264	706.77
566.716	698.07
567.168	692.97
567.62	704.87
568.072	697.77
568.524	685.27
568.976	681.67
569.428	668.47
569.88	674.37
570.332	666.57
570.784	678.67
571.235	676.27
571.687	683.97
572.139	686.27
572.59	697.07
573.042	684.87
573.494	700.57
573.945	692.27
574.397	672.47
574.849	676.57
575.3	675.37
575.752	668.47
576.203	658.47
576.655	674.97
577.106	639.67
577.557	658.37
578.009	651.17
578.46	650.17
578.912	648.97
579.363	643.57
579.814	652.47
580.265	652.77
580.717	662.97
581.168	658.17
581.619	669.97
582.07	672.97
582.521	659.27
582.972	657.87
583.423	670.67
583.875	665.37
584.326	689.07
584.777	736.47
585.227	812.27
585.678	893.17
586.129	962.57
586.58	1020.07
587.031	1093.87
587.482	1232.07
587.933	1385.47
588.384	1218.87
588.834	931.37
589.285	792.87
589.736	765.37
590.186	763.57
590.637	759.17
591.088	738.77
591.538	730.67
591.989	723.57
592.439	709.27
592.89	706.07
593.34	696.67
593.791	698.87
594.241	687.47
594.692	692.47
595.142	687.47
595.593	691.97
596.043	699.37
596.493	699.57
596.943	707.77
597.394	715.37
597.844	722.37
598.294	723.87
598.744	736.87
599.195	772.57
599.645	807.37
600.095	842.27
600.545	898.07
600.995	956.07
601.445	1018.67
601.895	1082.97
602.345	1121.17
602.795	1101.87
603.245	1052.77
603.695	996.17
604.145	944.27
604.594	895.27
605.044	841.67
605.494	787.97
605.944	749.87
606.393	726.37
606.843	719.97
607.293	729.87
607.743	728.17
608.192	737.27
608.642	752.27
609.091	757.47
609.541	759.67
609.99	756.87
610.44	755.87
610.889	717.17
611.339	698.37
611.788	675.77
612.238	699.77
612.687	701.97
613.136	709.07
613.586	727.37
614.035	715.27
614.484	737.37
614.933	748.77
615.383	733.97
615.832	719.47
616.281	702.77
616.73	673.37
617.179	660.47
617.628	641.47
618.077	627.47
618.526	617.57
618.975	609.27
619.424	613.27
619.873	600.47
620.322	612.57
620.771	607.07
621.22	600.57
621.669	578.97
622.118	584.47
622.567	575.37
623.015	564.57
623.464	567.97
623.913	557.67
624.361	551.97
624.81	546.87
625.259	551.47
625.707	548.27
626.156	554.07
626.604	556.27
627.053	561.47
627.501	561.37
627.95	557.27
628.398	570.77
628.847	558.87
629.295	575.27
629.744	571.57
630.192	558.97
630.64	555.97
631.089	557.07
631.537	568.87
631.985	584.67
632.433	594.47
632.881	600.17
633.33	643.97
633.778	632.27
634.226	556.67
634.674	565.27
635.122	574.17
635.57	590.57
636.018	616.77
636.466	576.87
636.914	551.27
637.362	565.87
637.81	577.17
638.258	581.07
638.705	574.37
639.153	608.37
639.601	610.77
640.049	644.17
640.497	675.47
640.944	687.17
641.392	633.17
641.84	608.67
642.287	582.27
642.735	566.17
643.182	565.47
643.63	574.97
644.078	567.97
644.525	572.87
644.973	589.07
645.42	594.77
645.867	628.07
646.315	630.07
646.762	648.97
647.21	683.57
647.657	711.57
648.104	742.17
648.551	760.17
648.999	834.17
649.446	906.07
649.893	994.27
650.34	1154.37
650.787	1381.57
651.234	1720.17
651.682	2236.77
652.129	3068.47
652.576	4435.17
653.023	6489.47
653.47	8862.07
653.917	10919.17
654.363	12534.67
654.81	13696.57
655.257	13035.67
655.704	8535.87
656.151	5069.07
656.598	3290.97
657.044	2338.67
657.491	1811.77
657.938	1447.27
658.385	1217.07
658.831	1048.47
659.278	944.77
659.724	843.27
660.171	781.67
660.618	703.97
661.064	676.47
661.511	651.57
661.957	649.07
662.404	637.57
662.85	641.97
663.296	619.47
663.743	559.87
664.189	540.67
664.635	529.57
665.082	527.87
665.528	529.07
665.974	507.67
666.42	507.17
666.867	510.97
667.313	496.67
667.759	476.77
668.205	480.87
668.651	475.67
669.097	480.67
669.543	487.47
669.989	464.97
670.435	443.57
670.881	442.97
671.327	456.57
671.773	475.37
672.219	497.07
672.665	558.97
673.11	593.87
673.556	626.67
674.002	667.97
674.448	660.67
674.893	537.57
675.339	479.07
675.785	439.27
676.23	421.77
676.676	392.87
677.122	386.67
677.567	374.97
678.013	369.57
678.458	360.17
678.904	359.97
679.349	341.77
679.794	354.67
680.24	358.57
680.685	347.27
681.131	345.97
681.576	345.87
682.021	348.37
682.466	346.37
682.912	342.07
683.357	358.47
683.802	379.87
684.247	413.27
684.692	457.47
685.137	495.77
685.583	532.67
686.028	567.27
686.473	516.87
686.918	440.97
687.363	417.87
687.807	399.67
688.252	363.67
688.697	356.37
689.142	342.77
689.587	336.07
690.032	328.57
690.477	339.27
690.921	350.47
691.366	386.97
691.811	397.97
692.255	427.47
692.7	467.77
693.145	512.37
693.589	733.97
694.034	1169.77
694.478	1561.27
694.923	1737.87
695.367	2222.87
695.812	1203.37
696.256	500.27
696.701	364.17
697.145	343.37
697.59	338.47
698.034	322.87
698.478	324.17
698.922	321.67
699.367	330.07
699.811	341.97
700.255	352.87
700.699	386.57
701.143	443.87
701.588	487.77
702.032	512.17
702.476	518.57
702.92	488.57
703.364	499.17
703.808	656.87
704.252	1085.97
704.696	1488.77
705.14	1671.87
705.584	2092.87
706.027	1071.27
706.471	519.37
706.915	396.97
707.359	345.37
707.803	315.47
708.246	306.97
708.69	310.37
709.134	318.17
709.577	313.67
710.021	313.07
710.465	312.07
710.908	300.77
711.352	297.47
711.795	317.17
712.239	355.57
712.682	383.17
713.126	415.07
713.569	456.47
714.012	362.97
714.456	312.77
714.899	294.37
715.342	279.57
715.786	263.67
716.229	257.17
716.672	258.37
717.115	248.77
717.558	250.77
718.002	250.67
718.445	267.17
718.888	291.37
719.331	297.87
719.774	302.17
720.217	307.07
720.66	282.97
721.103	269.97
721.546	258.47
721.989	246.67
722.432	230.57
722.874	241.47
723.317	236.47
723.76	242.07
724.203	257.77
724.645	330.07
725.088	456.57
725.531	585.97
725.974	638.57
726.416	538.37
726.859	306.37
727.301	246.57
727.744	236.87
728.187	235.27
728.629	240.27
729.071	245.87
729.514	263.67
729.956	273.27
730.399	288.57
730.841	290.47
731.283	275.47
731.726	269.97
732.168	269.87
732.61	275.27
733.053	290.77
733.495	318.37
733.937	355.37
734.379	394.57
734.821	438.97
735.263	557.57
735.705	865.47
736.148	1659.37
736.59	2636.97
737.032	3021.37
737.474	2462.87
737.916	815.67
738.357	437.27
738.799	327.07
739.241	300.27
739.683	285.77
740.125	287.17
740.567	297.47
741.008	315.37
741.45	321.87
741.892	317.57
742.334	354.07
742.775	357.87
743.217	340.57
743.658	278.77
744.1	261.37
744.542	273.57
744.983	319.47
745.425	347.77
745.866	344.67
746.307	285.37
746.749	289.07
747.19	329.07
747.632	478.77
748.073	944.67
748.514	1959.07
748.956	2883.07
749.397	3612.47
749.838	2988.07
750.279	2926.47
750.72	1492.77
751.162	551.87
751.603	334.17
752.044	249.37
752.485	222.77
752.926	212.07
753.367	206.47
753.808	198.47
754.249	192.07
754.69	185.67
755.131	181.07
755.572	180.77
756.013	181.57
756.453	181.87
756.894	184.67
757.335	196.37
757.776	197.97
758.216	192.67
758.657	202.47
759.098	204.07
759.538	230.97
759.979	272.87
760.42	381.57
760.86	751.87
761.301	1965.27
761.741	4600.27
762.182	6361.67
762.622	4456.37
763.063	1340.57
763.503	552.67
763.943	345.67
764.384	336.47
764.824	377.07
765.264	405.27
765.705	290.57
766.145	200.77
766.585	184.57
767.025	175.97
767.465	189.57
767.906	231.97
768.346	295.47
768.786	320.67
769.226	263.77
769.666	332.87
770.106	662.37
770.546	1636.67
770.986	2640.27
771.426	2334.47
771.866	789.37
772.306	329.87
772.745	210.37
773.185	171.57
773.625	172.57
774.065	164.57
774.505	192.67
774.944	298.47
775.384	635.67
775.824	1084.77
776.263	1025.97
776.703	455.17
777.142	210.77
777.582	154.77
778.021	139.67
778.461	138.97
778.9	136.47
779.34	136.97
779.779	117.37
780.219	107.17
780.658	113.07
781.097	108.87
781.537	113.17
781.976	115.87
782.415	110.67
782.855	108.47
783.294	98.37
783.733	108.27
784.172	113.47
784.611	104.47
785.05	109.07
785.489	114.57
785.928	115.17
786.367	117.77
786.806	115.17
787.245	130.77
787.684	142.87
788.123	147.77
788.562	135.67
789.001	131.77
789.44	116.37
789.879	121.97
790.317	121.47
790.756	130.57
791.195	137.27
791.634	151.97
792.072	216.37
792.511	392.57
792.95	1078.57
793.388	2155.37
793.827	1894.07
794.265	666.17
794.704	281.77
795.142	180.87
795.581	156.27
796.019	132.17
796.458	139.17
796.896	128.37
797.334	138.87
797.773	158.77
798.211	223.77
798.649	466.17
799.087	1037.57
799.526	1622.47
799.964	2059.67
800.402	1985.37
800.84	762.87
801.278	305.37
801.716	196.27
802.154	158.47
802.592	149.47
803.03	141.07
803.468	135.37
803.906	142.77
804.344	153.17
804.782	142.47
805.22	133.57
805.658	133.37
806.096	144.87
806.533	161.67
806.971	170.37
807.409	221.57
807.847	338.77
808.284	708.47
808.722	1971.07
809.16	3317.77
809.597	3253.47
810.035	5543.87
810.472	5641.47
810.91	2082.77
811.347	806.67
811.785	417.07
812.222	259.27
812.66	198.17
813.097	160.37
813.535	148.77
813.972	131.77
814.409	115.57
814.846	111.97
815.284	110.17
815.721	110.97
816.158	110.57
816.595	122.27
817.032	173.97
817.47	195.87
817.907	151.57
818.344	144.07
818.781	111.97
819.218	99.77
819.655	124.87
820.092	191.47
820.529	203.67
820.966	174.47
821.403	134.47
821.839	109.47
822.276	105.07
822.713	124.17
823.15	135.17
823.587	115.97
824.023	151.27
824.46	321.67
824.897	928.67
825.333	1347.77
825.77	583.07
826.206	231.47
826.643	136.27
827.08	107.57
827.516	87.27
827.953	86.67
828.389	82.57
828.825	78.57
829.262	67.67
829.698	65.17
830.135	68.77
830.571	66.77
831.007	66.77
831.443	67.07
831.88	59.57
832.316	66.87
832.752	65.57
833.188	61.57
833.624	64.87
834.06	62.57
834.497	66.97
834.933	68.47
835.369	75.37
835.805	73.27
836.241	78.97
836.677	80.87
837.112	86.87
837.548	111.97
837.984	138.07
838.42	211.37
838.856	539.17
839.292	1579.67
839.727	2274.77
840.163	1067.17
840.599	979.27
841.034	2087.97
841.47	2079.97
841.906	781.07
842.341	340.77
842.777	231.47
843.212	292.97
843.648	286.17
844.083	144.87
844.519	97.67
844.954	81.67
845.39	56.77
845.825	54.37
846.261	60.37
846.696	53.07
847.131	55.27
847.566	59.87
848.002	52.07
848.437	52.57
848.872	56.67
849.307	63.17
849.742	90.17
850.177	191.77
850.613	582.77
851.048	875.97
851.483	376.07
851.918	153.37
852.353	88.57
852.788	61.67
853.223	64.67
853.657	55.27
854.092	47.57
854.527	41.67
854.962	36.87
855.397	45.27
855.832	51.47
856.266	40.97
856.701	39.27
857.136	35.67
857.57	46.97
858.005	50.97
858.44	56.37
858.874	45.27
859.309	57.77
859.743	39.37
860.178	47.67
860.612	40.97
861.047	50.07
861.481	71.37
861.915	71.97
862.35	46.37
862.784	34.97
863.218	41.17
863.653	33.07
864.087	48.67
864.521	50.87
864.955	77.67
865.39	162.57
865.824	169.97
866.258	116.37
866.692	166.77
867.126	178.47
867.56	107.67
867.994	52.67
868.428	39.97
868.862	49.17
869.296	55.97
869.73	59.47
870.164	53.37
870.598	50.47
871.031	34.17
871.465	35.67
871.899	37.47
872.333	20.87
872.766	23.67
873.2	21.47
873.634	30.97
874.067	30.47
874.501	22.77
874.935	35.47
875.368	26.47
875.802	27.97
876.235	24.77
876.669	25.87
877.102	28.37
877.535	24.77
877.969	23.57
878.402	26.47
878.836	17.87
879.269	17.57
879.702	26.57
880.135	19.77
880.569	26.77
881.002	26.37
881.435	20.37
881.868	22.67
882.301	20.87
882.734	16.17
883.167	19.87
883.601	21.87
884.034	25.47
884.467	18.67
884.899	17.87
885.332	14.37
885.765	11.77
886.198	17.77
886.631	23.17
887.064	21.17
887.497	24.67
887.929	20.77
888.362	14.47
888.795	15.57
889.228	16.57
889.66	20.27
890.093	16.57
890.526	20.77
890.958	18.37
891.391	15.07
891.823	30.37
892.256	16.07
892.688	13.77
893.121	13.47
893.553	12.77
893.985	27.57
894.418	21.07
894.85	12.07
895.282	16.37
895.715	18.97
896.147	17.27
896.579	17.67
897.011	15.47
897.444	19.17
897.876	13.27
898.308	20.27
898.74	13.67
899.172	16.37
899.604	26.17
900.036	23.87
900.468	17.37
900.9	14.57
901.332	18.67
901.764	15.57
902.196	22.87
902.628	13.27
903.06	19.57
903.491	26.07
903.923	20.07
904.355	19.57
904.787	22.97
905.218	17.67
905.65	23.87
906.082	11.97
906.513	18.37
906.945	12.07
907.376	17.57
907.808	22.47
908.239	24.27
908.671	18.37
909.102	22.17
909.534	27.37
909.965	46.17
910.397	94.67
910.828	329.27
911.259	467.87
911.691	219.87
912.122	109.37
912.553	53.17
912.984	38.37
913.415	26.57
913.847	30.17
914.278	12.37
914.709	18.27
915.14	15.97
915.571	22.47
916.002	13.37
916.433	18.67
916.864	16.97
917.295	16.57
917.726	19.57
918.157	16.77
918.587	30.87
919.018	27.47
919.449	20.87
919.88	25.17
920.311	30.37
920.741	49.67
921.172	172.37
921.603	153.97
922.033	70.17
922.464	49.97
922.895	20.97
923.325	20.97
923.756	19.77
924.186	9.37
924.617	22.27
925.047	35.17
925.478	44.07
925.908	36.97
926.338	25.17
926.769	10.37
927.199	20.77
927.629	10.47
928.06	17.17
928.49	19.37
928.92	14.97
929.35	10.67
929.78	13.17
930.21	7.77
930.641	9.17
931.071	10.17
931.501	1.07
931.931	9.87
932.361	8.97
932.791	6.07
933.221	5.87
933.651	5.37
934.08	23.57
934.51	31.47
934.94	10.97
935.37	7.47
935.8	15.07
936.229	8.67
936.659	12.77
937.089	-0.13
937.519	8.87
937.948	25.37
938.378	18.27
938.807	5.57
939.237	3.57
939.666	3.87
940.096	-1.03
940.525	1.07
940.955	4.67
941.384	3.37
941.814	-3.33
942.243	-1.13
942.672	3.17
943.102	-2.63
943.531	-0.93
943.96	7.07
944.39	2.27
944.819	6.97
945.248	5.97
945.677	4.17
946.106	6.57
946.535	3.47
946.964	0.37
947.393	10.37
947.822	2.57
948.251	-0.83
948.68	7.97
949.109	4.97
949.538	5.07
949.967	-1.13
950.396	3.27
950.825	2.27
951.254	3.57
951.682	-6.03
952.111	-1.73
952.54	3.17
952.969	-4.43
953.397	-2.73
953.826	0.07
954.254	-8.03
954.683	-0.73
955.112	-5.83
955.54	-3.83
955.969	2.27
956.397	3.67
956.826	2.67
957.254	6.37
957.682	-0.13
958.111	4.57
958.539	-1.53
958.967	-1.23
959.396	-2.13
959.824	3.27
960.252	6.57
960.68	-4.43
961.109	-3.63
961.537	-8.23
961.965	-0.73
962.393	-5.53
962.821	-5.13
963.249	-0.83
963.677	4.57
964.105	7.97
964.533	45.97
964.961	44.17
965.389	22.27
965.817	9.27
966.245	4.87
966.672	1.57
967.1	-5.83
967.528	-2.43
967.956	-2.33
968.383	0.97
968.811	-2.23
969.239	-0.33
969.666	-8.93
970.094	-5.93
970.522	2.97
970.949	1.17
971.377	-4.33
971.804	-3.43
972.232	-4.23
972.659	-1.03
973.087	-4.73
973.514	-3.73
973.941	-7.13
974.369	6.67
974.796	-1.43
975.223	2.07
975.651	-1.13
976.078	0.57
976.505	-2.73
976.932	6.37
977.359	14.77
977.786	15.47
978.214	2.07
978.641	-7.93
979.068	-3.93
979.495	0.07
979.922	3.67
980.349	-2.43
980.776	3.97
981.202	-6.83
981.629	1.87
982.056	7.57
982.483	-1.53
982.91	0.67
983.337	-6.03
983.763	3.47
984.19	-3.73
984.617	-3.43
985.043	-3.83
985.47	-5.43
985.897	-0.93
986.323	-5.23
986.75	4.37
987.176	4.27
987.603	-3.83
988.029	-1.73
988.456	2.07
988.882	2.07
989.308	-3.53
989.735	-1.93
990.161	1.27
990.587	-4.43
991.014	2.57
991.44	4.37
991.866	-1.63
992.292	-5.53
992.719	-1.03
993.145	2.27
993.571	-6.13
993.997	-8.33
994.423	-3.23
994.849	0.37
995.275	1.77
995.701	-2.33
996.127	-5.63
996.553	-1.63
996.979	-1.83
997.405	-1.93
997.83	-3.63
998.256	-1.73
998.682	-0.53
999.108	-9.43
999.534	-1.83
999.959	-2.03
1000.385	-2.23
1000.811	-4.13
1001.236	-10.13
1001.662	-9.33
1002.087	-10.03
1002.513	5.07
1002.938	0.37
1003.364	-1.73
1003.789	-1.33
1004.215	3.17
1004.64	-3.63
1005.066	4.27
1005.491	4.37
1005.916	1.47
1006.342	-6.53
1006.767	-6.83
1007.192	-0.03
1007.617	-4.13
1008.042	-2.13
1008.468	-3.53
1008.893	-3.33
1009.318	-5.63
1009.743	-4.93
1010.168	6.17
1010.593	-1.43
1011.018	-5.83
1011.443	-0.13
1011.868	-2.73
1012.293	-2.23
1012.718	-4.23
1013.143	-1.73
1013.567	-0.93
1013.992	-1.83
1014.417	-9.03
1014.842	1.07
1015.267	-6.53
1015.691	0.07
1016.116	7.47
1016.541	0.67
1016.965	1.57
1017.39	-0.13
1017.814	1.87
1018.239	-1.13
1018.663	-12.73
1019.088	-9.23
1019.512	0.97
1019.937	-3.63
1020.361	-4.33
1020.785	-11.03
1021.21	-5.63
1021.634	-0.13
1022.058	-6.53
1022.483	5.27
1022.907	0.37
1023.331	-1.33
1023.755	-0.33
1024.179	-1.83
1024.604	-6.53
1025.028	-2.73
1025.452	-0.23
1025.876	-2.03
1026.3	2.57
1026.724	-11.03
1027.148	-4.03
1027.572	-10.73
1027.996	0.17
1028.42	1.17
1028.843	-2.63
1029.267	-4.73
1029.691	1.07
1030.115	-3.63
1030.539	-9.83
1030.962	-7.13
1031.386	-10.63
1031.81	1.07
1032.233	-4.03
1032.657	2.07
1033.08	-7.03
1033.504	-3.33
1033.927	-8.63
1034.351	-2.53
1034.774	-3.13
1035.198	-4.73
1035.621	-9.13
1036.045	-8.03
1036.468	0.17
1036.891	-9.73
1037.315	-9.03
1037.738	-10.83
1038.161	1.97
1038.584	-5.73
1039.008	-6.53
1039.431	-1.73
1039.854	-0.13
1040.277	-8.93
1040.7	-15.23
1041.123	-4.73
1041.546	-7.33
1041.969	-8.83
1042.392	-4.13
1042.815	-2.53
1043.238	-0.63
1043.661	-5.63
1044.084	-6.53
1044.507	-2.13
1044.93	-2.43
1045.352	-8.73
1045.775	-4.43
1046.198	5.87
1046.621	0.17
1047.043	8.37
1047.466	9.37
1047.889	-1.73
1048.311	-4.13
1048.734	-2.33
1049.156	-1.63
1049.579	-7.13
1050.001	-7.53
1050.424	-0.13
1050.846	-2.03
1051.269	-1.33
1051.691	-3.23
1052.113	-9.63
1052.536	-4.93
1052.958	3.37
1053.38	-4.13
1053.802	-4.73
1054.225	2.37
1054.647	-6.43
1055.069	-2.33
1055.491	3.17
1055.913	-8.23
1056.335	2.77
1056.757	-8.03
1057.179	-6.53
1057.601	-2.53
1058.023	-7.43
1058.445	-3.13
1058.867	-7.43
1059.289	-4.33
1059.711	-6.23
1060.133	-4.43
1060.555	-1.63
1060.976	-4.63
1061.398	2.17
1061.82	-11.63
1062.241	-9.43
1062.663	-15.73
1063.085	-3.13
1063.506	-1.33
1063.928	-4.63
1064.35	-7.93
1064.771	-10.63
1065.193	-4.83
1065.614	-7.63
1066.035	-7.23
1066.457	0.47
1066.878	1.17
1067.3	-12.13
1067.721	-1.13
1068.142	-5.63
1068.564	-10.43
1068.985	1.47
1069.406	-6.63
1069.827	-2.43
1070.248	2.87
1070.67	-0.63
1071.091	-4.53
1071.512	-5.83
1071.933	-7.43
1072.354	-6.23
1072.775	-7.03
1073.196	-10.23
1073.617	-5.93
1074.038	-4.03
1074.459	-3.63
1074.88	-7.33
1075.3	-1.93
1075.721	-9.53
1076.142	-0.83
1076.563	2.07
1076.983	-11.33
1077.404	-3.63
1077.825	-10.43
1078.246	-5.23
1078.666	-12.33
1079.087	-8.03
1079.507	-10.43
1079.928	1.27
1080.348	-6.03
1080.769	-6.73
1081.189	3.27
1081.61	-5.13
1082.03	-4.93
1082.451	-4.63
1082.871	0.17
1083.291	-2.03
1083.711	-11.03
1084.132	-4.93
1084.552	1.77
1084.972	4.67
1085.392	-11.33
1085.813	-10.83
1086.233	-4.83
1086.653	-1.63
1087.073	5.97
1087.493	-9.73
1087.913	-9.13
1088.333	-3.93
1088.753	-4.13
1089.173	-1.13
1089.593	0.47
1090.013	-3.43
1090.433	-3.83
1090.852	-0.73
1091.272	-4.53
1091.692	-2.63
1092.112	-2.03
1092.531	-9.23
1092.951	-9.33
1093.371	-3.33
1093.79	0.57
1094.21	-0.63
1094.63	-4.53
1095.049	-1.33
1095.469	-4.83
1095.888	-7.03
1096.308	3.07
1096.727	3.17
1097.146	-5.83
1097.566	-0.53
1097.985	-3.43
1098.405	0.07
1098.824	-6.03
1099.243	-2.83
1099.662	-11.53
1100.082	-3.43
1100.501	-6.33
1100.92	-14.13
1101.339	-3.83
1101.758	-8.93
