Data from 20171114-ORNL-Ar_H_NY_Subt18_08-04-52-836.txt Node
Date: Tue Nov 14 08:04:52 EST 2017
User: Ender
Spectrometer: HR+D1039
Trigger mode: 0
Integration Time (sec): 2.730000E-2
Scans to average: 10
Electric dark correction enabled: true
Nonlinearity correction enabled: false
Boxcar width: 0
XAxis mode: Wavelengths
Number of Pixels in Spectrum: 2048
>>>>>Begin Spectral Data<<<<<
187.836	-3.02
188.309	-3.02
188.782	-3.02
189.255	8.98
189.728	1.38
190.201	3.88
190.674	-0.92
191.147	4.28
191.619	-8.82
192.092	0.98
192.565	7.88
193.038	-4.22
193.511	-1.02
193.984	-4.42
194.456	-4.32
194.929	-0.62
195.402	-2.32
195.874	2.28
196.347	-1.32
196.82	-6.82
197.292	7.78
197.765	-5.42
198.237	-6.22
198.71	3.38
199.182	-0.72
199.655	7.28
200.127	5.18
200.6	1.58
201.072	-1.82
201.544	-7.02
202.017	-4.72
202.489	-3.12
202.961	-5.82
203.433	-1.02
203.906	-10.72
204.378	-5.42
204.85	-2.02
205.322	-4.72
205.794	-2.12
206.266	0.88
206.739	-9.52
207.211	8.28
207.683	-5.42
208.155	-3.12
208.627	-4.82
209.099	-3.92
209.57	-9.92
210.042	-6.12
210.514	-4.82
210.986	-1.92
211.458	-11.72
211.93	0.98
212.402	6.98
212.873	-5.42
213.345	-9.12
213.817	-8.22
214.288	-2.52
214.76	-8.22
215.232	-1.82
215.703	-2.62
216.175	-1.92
216.646	-3.62
217.118	-7.72
217.589	-6.42
218.061	-2.92
218.532	-7.92
219.004	-1.02
219.475	-7.42
219.946	-8.02
220.418	-7.02
220.889	3.48
221.36	2.98
221.832	2.68
222.303	1.98
222.774	1.58
223.245	-12.92
223.717	-5.12
224.188	-7.42
224.659	-8.42
225.13	-3.12
225.601	3.28
226.072	0.68
226.543	1.28
227.014	-0.62
227.485	0.68
227.956	-6.82
228.427	1.28
228.898	-0.42
229.369	3.38
229.839	-0.62
230.31	-11.52
230.781	0.18
231.252	-4.22
231.722	-1.72
232.193	-3.92
232.664	1.18
233.135	1.18
233.605	-0.22
234.076	-5.52
234.546	2.58
235.017	6.68
235.487	3.88
235.958	2.78
236.428	5.08
236.899	4.48
237.369	6.78
237.84	-0.72
238.31	6.28
238.78	4.58
239.251	2.48
239.721	6.58
240.191	4.28
240.662	2.78
241.132	2.28
241.602	-1.12
242.072	3.48
242.542	7.68
243.013	-2.02
243.483	15.08
243.953	4.58
244.423	4.08
244.893	-6.52
245.363	3.48
245.833	6.28
246.303	4.08
246.773	10.78
247.243	9.68
247.712	7.68
248.182	9.88
248.652	3.58
249.122	4.78
249.592	12.88
250.061	26.78
250.531	34.08
251.001	19.88
251.471	24.38
251.94	21.88
252.41	8.98
252.879	6.98
253.349	17.78
253.818	11.38
254.288	11.28
254.757	2.18
255.227	-0.02
255.696	1.98
256.166	9.28
256.635	7.38
257.105	9.08
257.574	10.68
258.043	8.48
258.513	12.38
258.982	16.88
259.451	7.28
259.92	14.78
260.389	9.58
260.859	18.48
261.328	15.58
261.797	18.98
262.266	12.88
262.735	13.18
263.204	5.28
263.673	1.28
264.142	3.68
264.611	0.58
265.08	6.18
265.549	6.88
266.018	16.08
266.487	4.98
266.955	-2.32
267.424	2.48
267.893	10.38
268.362	3.68
268.83	10.08
269.299	13.38
269.768	12.88
270.236	12.28
270.705	7.58
271.174	6.98
271.642	11.68
272.111	12.08
272.579	21.48
273.048	28.28
273.516	28.08
273.985	29.48
274.453	27.88
274.922	22.08
275.39	12.38
275.858	6.38
276.327	18.58
276.795	21.08
277.263	15.58
277.731	36.18
278.2	58.68
278.668	66.48
279.136	52.58
279.604	26.28
280.072	22.18
280.54	17.98
281.008	14.58
281.477	15.08
281.945	20.98
282.413	13.78
282.881	16.38
283.348	13.18
283.816	13.18
284.284	9.88
284.752	19.88
285.22	14.88
285.688	22.58
286.156	17.58
286.623	43.68
287.091	52.38
287.559	34.88
288.026	18.98
288.494	24.28
288.962	1.58
289.429	12.48
289.897	23.08
290.364	13.68
290.832	23.88
291.3	18.58
291.767	19.78
292.234	20.58
292.702	21.88
293.169	15.28
293.637	24.78
294.104	19.68
294.571	14.18
295.039	13.38
295.506	12.28
295.973	25.08
296.44	11.38
296.908	21.98
297.375	17.08
297.842	20.58
298.309	16.18
298.776	9.98
299.243	25.88
299.71	14.98
300.177	25.48
300.644	24.28
301.111	24.88
301.578	21.98
302.045	16.28
302.512	25.18
302.979	26.38
303.446	22.48
303.913	21.88
304.379	19.28
304.846	31.38
305.313	36.68
305.78	24.98
306.246	32.48
306.713	26.48
307.18	27.38
307.646	31.08
308.113	31.38
308.579	25.98
309.046	25.98
309.512	29.88
309.979	21.08
310.445	39.08
310.912	30.78
311.378	34.68
311.845	31.48
312.311	37.08
312.777	33.08
313.244	29.28
313.71	36.48
314.176	29.88
314.642	29.48
315.109	35.88
315.575	39.58
316.041	42.08
316.507	37.38
316.973	39.58
317.439	36.48
317.905	37.18
318.371	40.38
318.837	42.08
319.303	37.28
319.769	35.38
320.235	37.98
320.701	36.58
321.167	41.38
321.633	37.58
322.099	43.98
322.564	41.68
323.03	49.28
323.496	35.78
323.962	44.38
324.427	36.98
324.893	40.48
325.359	36.48
325.824	37.68
326.29	40.48
326.755	43.78
327.221	45.48
327.686	41.48
328.152	44.28
328.617	44.28
329.083	51.68
329.548	49.68
330.014	49.58
330.479	42.48
330.944	45.28
331.41	49.88
331.875	49.08
332.34	44.98
332.805	50.48
333.271	47.48
333.736	48.48
334.201	53.28
334.666	50.68
335.131	54.58
335.596	51.98
336.061	51.28
336.526	46.68
336.991	46.88
337.456	52.58
337.921	52.68
338.386	44.98
338.851	54.28
339.316	50.98
339.781	50.48
340.246	58.98
340.711	55.18
341.175	56.58
341.64	44.08
342.105	53.78
342.569	53.18
343.034	59.88
343.499	60.78
343.963	52.08
344.428	67.58
344.893	58.98
345.357	61.28
345.822	59.88
346.286	70.98
346.751	72.98
347.215	79.68
347.679	74.68
348.144	110.68
348.608	84.78
349.073	68.68
349.537	74.88
350.001	79.58
350.465	90.38
350.93	81.98
351.394	82.88
351.858	76.08
352.322	94.68
352.786	80.68
353.25	101.58
353.715	109.98
354.179	100.18
354.643	123.88
355.107	130.28
355.571	109.38
356.035	105.98
356.498	119.08
356.962	118.38
357.426	133.58
357.89	114.28
358.354	93.48
358.818	81.88
359.281	78.68
359.745	77.48
360.209	77.58
360.673	75.28
361.136	84.08
361.6	86.18
362.064	78.78
362.527	87.98
362.991	94.28
363.454	83.08
363.918	81.28
364.381	78.98
364.845	80.98
365.308	89.68
365.772	95.98
366.235	90.98
366.698	85.88
367.162	86.18
367.625	93.28
368.088	88.58
368.552	91.28
369.015	92.98
369.478	93.98
369.941	103.28
370.404	92.18
370.867	105.28
371.331	97.98
371.794	118.78
372.257	114.38
372.72	116.88
373.183	110.68
373.646	100.48
374.109	104.68
374.572	105.88
375.035	104.68
375.497	106.88
375.96	109.78
376.423	111.48
376.886	112.98
377.349	106.48
377.811	101.68
378.274	109.08
378.737	105.98
379.199	109.08
379.662	110.28
380.125	111.68
380.587	115.08
381.05	122.28
381.512	134.98
381.975	134.08
382.437	136.08
382.9	123.48
383.362	129.98
383.825	144.38
384.287	148.88
384.75	137.38
385.212	142.38
385.674	132.38
386.136	133.78
386.599	120.28
387.061	128.18
387.523	131.18
387.985	134.38
388.447	148.38
388.91	139.68
389.372	155.78
389.834	152.88
390.296	136.08
390.758	152.68
391.22	158.28
391.682	205.98
392.144	281.78
392.606	229.08
393.068	172.48
393.529	164.58
393.991	150.88
394.453	144.88
394.915	151.68
395.377	186.38
395.838	212.38
396.3	153.28
396.762	139.68
397.224	129.38
397.685	135.38
398.147	124.18
398.608	127.08
399.07	124.58
399.531	133.58
399.993	138.88
400.454	151.38
400.916	139.48
401.377	142.58
401.839	154.38
402.3	148.18
402.762	161.38
403.223	178.98
403.684	160.98
404.145	154.38
404.607	156.08
405.068	163.28
405.529	169.48
405.99	185.78
406.451	174.48
406.913	172.98
407.374	157.48
407.835	155.48
408.296	157.98
408.757	164.98
409.218	177.68
409.679	175.68
410.14	173.78
410.601	176.18
411.062	177.08
411.522	182.58
411.983	190.48
412.444	181.38
412.905	174.68
413.366	179.38
413.826	194.38
414.287	209.28
414.748	252.98
415.208	239.28
415.669	205.68
416.13	200.78
416.59	193.38
417.051	206.78
417.511	217.88
417.972	228.38
418.432	242.48
418.893	279.48
419.353	253.38
419.814	196.78
420.274	176.78
420.734	179.38
421.195	192.48
421.655	190.28
422.115	187.18
422.576	192.38
423.036	186.48
423.496	205.68
423.956	210.98
424.416	226.08
424.876	255.68
425.336	259.88
425.797	263.68
426.257	252.78
426.717	231.58
427.177	228.18
427.637	221.38
428.097	228.08
428.556	230.78
429.016	262.38
429.476	248.28
429.936	269.38
430.396	269.58
430.856	282.98
431.315	310.38
431.775	342.68
432.235	369.58
432.694	343.18
433.154	354.58
433.614	371.68
434.073	328.38
434.533	274.08
434.993	262.48
435.452	278.18
435.912	299.48
436.371	285.18
436.83	276.98
437.29	263.88
437.749	246.08
438.209	236.18
438.668	259.08
439.127	273.78
439.587	254.48
440.046	246.38
440.505	259.58
440.964	270.98
441.424	312.68
441.883	301.08
442.342	247.48
442.801	221.28
443.26	219.98
443.719	213.08
444.178	212.58
444.637	205.48
445.096	217.68
445.555	215.58
446.014	219.68
446.473	218.78
446.932	226.78
447.391	216.18
447.849	217.28
448.308	212.48
448.767	216.68
449.226	228.18
449.685	231.48
450.143	241.38
450.602	234.08
451.061	218.18
451.519	228.08
451.978	223.88
452.436	227.78
452.895	235.08
453.353	245.68
453.812	237.88
454.27	237.08
454.729	232.98
455.187	237.58
455.646	240.28
456.104	242.68
456.562	249.38
457.021	258.58
457.479	254.78
457.937	267.38
458.395	251.88
458.854	243.98
459.312	249.58
459.77	271.28
460.228	254.08
460.686	241.68
461.144	243.58
461.602	229.38
462.06	232.28
462.518	245.68
462.976	246.68
463.434	251.58
463.892	258.08
464.35	269.48
464.808	278.38
465.266	256.58
465.724	258.38
466.181	265.88
466.639	259.88
467.097	281.18
467.555	284.38
468.012	296.48
468.47	305.08
468.928	316.88
469.385	324.48
469.843	335.38
470.3	343.38
470.758	349.18
471.215	372.08
471.673	391.08
472.13	398.18
472.588	403.18
473.045	358.68
473.503	364.88
473.96	380.88
474.417	390.28
474.875	418.48
475.332	453.88
475.789	453.28
476.246	446.58
476.704	472.58
477.161	493.38
477.618	511.98
478.075	547.88
478.532	594.28
478.989	675.68
479.446	777.48
479.903	746.28
480.36	782.68
480.817	831.68
481.274	938.18
481.731	1040.28
482.188	1126.38
482.645	1258.98
483.102	1366.88
483.558	1509.38
484.015	1551.98
484.472	1540.88
484.929	1484.08
485.385	1440.08
485.842	1390.18
486.299	1337.78
486.755	1266.08
487.212	1067.38
487.668	895.48
488.125	815.18
488.582	760.48
489.038	718.38
489.494	692.68
489.951	673.08
490.407	645.58
490.864	636.08
491.32	620.38
491.776	609.98
492.233	618.98
492.689	585.58
493.145	583.08
493.602	574.08
494.058	591.68
494.514	596.98
494.97	616.08
495.426	638.28
495.882	596.68
496.338	589.58
496.794	596.98
497.251	589.98
497.707	621.08
498.163	616.98
498.618	631.58
499.074	637.88
499.53	655.98
499.986	656.88
500.442	631.38
500.898	606.18
501.354	607.58
501.809	610.98
502.265	618.18
502.721	629.38
503.177	644.58
503.632	631.08
504.088	651.38
504.543	683.38
504.999	688.58
505.455	640.68
505.91	615.28
506.366	618.88
506.821	600.48
507.277	604.68
507.732	600.98
508.187	598.28
508.643	611.58
509.098	610.68
509.553	635.28
510.009	633.18
510.464	637.68
510.919	653.28
511.375	662.58
511.83	677.98
512.285	697.58
512.74	730.18
513.195	753.98
513.65	752.88
514.105	739.98
514.56	742.58
515.015	771.08
515.47	783.58
515.925	770.28
516.38	768.58
516.835	762.18
517.29	750.48
517.745	746.48
518.2	732.48
518.655	727.88
519.109	717.88
519.564	718.18
520.019	708.28
520.474	697.58
520.928	703.48
521.383	692.88
521.838	686.08
522.292	681.98
522.747	679.98
523.201	673.08
523.656	671.78
524.11	661.38
524.565	668.78
525.019	671.48
525.474	665.58
525.928	675.28
526.382	674.18
526.837	674.18
527.291	681.18
527.745	671.78
528.2	677.68
528.654	664.08
529.108	657.28
529.562	668.88
530.016	664.98
530.47	661.48
530.925	656.58
531.379	661.68
531.833	670.98
532.287	677.18
532.741	676.18
533.195	666.18
533.649	685.48
534.103	689.38
534.556	680.78
535.01	679.48
535.464	675.88
535.918	691.48
536.372	693.68
536.826	682.68
537.279	681.48
537.733	682.78
538.187	681.98
538.64	689.48
539.094	695.98
539.548	705.38
540.001	684.98
540.455	685.48
540.908	694.18
541.362	703.98
541.815	706.58
542.269	721.38
542.722	718.68
543.175	733.98
543.629	726.38
544.082	749.18
544.536	752.08
544.989	744.88
545.442	754.78
545.895	753.28
546.349	754.28
546.802	751.18
547.255	762.98
547.708	757.18
548.161	777.78
548.614	785.68
549.067	790.18
549.52	784.38
549.973	768.18
550.426	770.58
550.879	754.18
551.332	774.38
551.785	761.08
552.238	769.58
552.691	766.28
553.144	785.48
553.596	806.78
554.049	815.38
554.502	838.28
554.955	867.58
555.407	865.38
555.86	858.98
556.313	858.48
556.765	843.58
557.218	835.68
557.67	830.48
558.123	822.18
558.576	825.78
559.028	835.68
559.48	838.28
559.933	821.08
560.385	798.68
560.838	767.88
561.29	741.18
561.742	738.48
562.195	723.18
562.647	727.18
563.099	717.88
563.551	722.88
564.004	731.18
564.456	716.28
564.908	717.28
565.36	702.78
565.812	699.58
566.264	678.28
566.716	681.48
567.168	674.18
567.62	683.28
568.072	658.28
568.524	652.58
568.976	650.98
569.428	633.28
569.88	640.08
570.332	641.48
570.784	639.88
571.235	646.98
571.687	655.58
572.139	666.48
572.59	661.08
573.042	670.48
573.494	668.98
573.945	665.38
574.397	649.38
574.849	651.88
575.3	639.78
575.752	639.38
576.203	642.18
576.655	643.68
577.106	633.68
577.557	627.88
578.009	624.98
578.46	623.18
578.912	614.28
579.363	618.88
579.814	618.48
580.265	621.38
580.717	625.18
581.168	626.28
581.619	626.38
582.07	633.98
582.521	628.28
582.972	619.98
583.423	632.68
583.875	641.58
584.326	649.68
584.777	685.98
585.227	763.18
585.678	852.98
586.129	937.48
586.58	1009.38
587.031	1082.28
587.482	1229.48
587.933	1410.88
588.384	1224.98
588.834	910.98
589.285	740.48
589.736	723.38
590.186	709.08
590.637	711.08
591.088	687.58
591.538	680.78
591.989	673.58
592.439	672.88
592.89	657.28
593.34	659.98
593.791	656.88
594.241	647.48
594.692	652.58
595.142	650.58
595.593	637.88
596.043	651.58
596.493	652.58
596.943	662.18
597.394	665.58
597.844	663.98
598.294	673.98
598.744	694.38
599.195	701.48
599.645	744.28
600.095	784.38
600.545	827.38
600.995	887.88
601.445	940.18
601.895	993.58
602.345	1051.38
602.795	1025.88
603.245	986.88
603.695	934.08
604.145	881.18
604.594	843.58
605.044	802.68
605.494	734.28
605.944	693.08
606.393	679.38
606.843	662.38
607.293	667.88
607.743	670.08
608.192	677.38
608.642	697.38
609.091	700.08
609.541	705.98
609.99	713.18
610.44	701.98
610.889	670.28
611.339	644.48
611.788	628.18
612.238	634.38
612.687	661.98
613.136	653.38
613.586	672.78
614.035	670.38
614.484	692.78
614.933	699.58
615.383	682.38
615.832	674.78
616.281	662.08
616.73	620.88
617.179	620.88
617.628	603.58
618.077	579.58
618.526	556.48
618.975	565.38
619.424	564.98
619.873	552.18
620.322	566.08
620.771	556.28
621.22	549.08
621.669	544.28
622.118	532.28
622.567	530.88
623.015	516.08
623.464	517.58
623.913	510.98
624.361	505.28
624.81	499.28
625.259	500.28
625.707	507.98
626.156	511.48
626.604	522.28
627.053	512.38
627.501	508.48
627.95	501.78
628.398	527.98
628.847	513.78
629.295	519.48
629.744	522.28
630.192	511.88
630.64	517.58
631.089	507.08
631.537	516.28
631.985	529.18
632.433	533.18
632.881	545.28
633.33	601.08
633.778	575.28
634.226	509.78
634.674	517.48
635.122	517.98
635.57	539.18
636.018	557.78
636.466	531.58
636.914	500.88
637.362	520.68
637.81	521.08
638.258	529.88
638.705	524.88
639.153	546.28
639.601	552.18
640.049	573.68
640.497	600.08
640.944	615.28
641.392	572.58
641.84	550.48
642.287	524.98
642.735	520.38
643.182	519.88
643.63	514.78
644.078	518.88
644.525	524.68
644.973	532.68
645.42	533.38
645.867	556.48
646.315	572.98
646.762	601.48
647.21	624.88
647.657	643.88
648.104	674.18
648.551	696.68
648.999	746.68
649.446	819.78
649.893	894.58
650.34	1023.08
650.787	1235.58
651.234	1536.58
651.682	1986.78
652.129	2715.18
652.576	3889.48
653.023	5819.38
653.47	8000.98
653.917	10059.48
654.363	11774.48
654.81	13153.58
655.257	12522.98
655.704	8099.78
656.151	4778.38
656.598	3100.48
657.044	2197.48
657.491	1678.58
657.938	1344.48
658.385	1118.78
658.831	980.48
659.278	871.78
659.724	764.68
660.171	709.28
660.618	648.38
661.064	610.58
661.511	593.58
661.957	582.68
662.404	567.58
662.85	576.28
663.296	554.08
663.743	496.98
664.189	473.08
664.635	473.18
665.082	479.08
665.528	466.38
665.974	461.98
666.42	447.58
666.867	444.18
667.313	431.58
667.759	427.58
668.205	431.08
668.651	438.08
669.097	439.18
669.543	443.08
669.989	419.68
670.435	392.88
670.881	395.78
671.327	398.28
671.773	416.38
672.219	427.08
672.665	476.08
673.11	506.38
673.556	551.28
674.002	590.48
674.448	580.28
674.893	485.98
675.339	423.58
675.785	390.38
676.23	367.28
676.676	340.98
677.122	331.98
677.567	328.98
678.013	316.68
678.458	314.88
678.904	319.08
679.349	304.48
679.794	306.88
680.24	307.98
680.685	305.68
681.131	303.28
681.576	308.88
682.021	315.88
682.466	309.38
682.912	309.78
683.357	311.48
683.802	333.58
684.247	354.28
684.692	395.88
685.137	430.28
685.583	472.28
686.028	493.18
686.473	460.78
686.918	391.88
687.363	368.58
687.807	340.38
688.252	323.08
688.697	311.28
689.142	297.98
689.587	292.88
690.032	288.88
690.477	298.08
690.921	302.98
691.366	330.58
691.811	357.98
692.255	378.88
692.7	402.38
693.145	435.18
693.589	595.18
694.034	969.28
694.478	1344.18
694.923	1538.58
695.367	2034.28
695.812	1061.48
696.256	445.68
696.701	324.18
697.145	304.68
697.59	291.58
698.034	283.28
698.478	291.18
698.922	290.88
699.367	280.28
699.811	297.78
700.255	309.18
700.699	336.68
701.143	366.78
701.588	418.48
702.032	452.58
702.476	445.08
702.92	435.48
703.364	435.28
703.808	538.28
704.252	883.68
704.696	1252.18
705.14	1486.08
705.584	1901.38
706.027	936.78
706.471	455.78
706.915	353.98
707.359	308.48
707.803	278.28
708.246	267.28
708.69	275.98
709.134	279.88
709.577	274.88
710.021	283.18
710.465	263.78
710.908	269.48
711.352	260.28
711.795	271.38
712.239	303.98
712.682	331.58
713.126	365.08
713.569	411.18
714.012	334.08
714.456	285.58
714.899	261.68
715.342	240.98
715.786	235.38
716.229	229.38
716.672	218.68
717.115	219.38
717.558	217.78
718.002	221.18
718.445	224.48
718.888	250.28
719.331	260.18
719.774	265.68
720.217	262.78
720.66	250.28
721.103	237.38
721.546	215.68
721.989	221.48
722.432	198.68
722.874	208.78
723.317	200.08
723.76	209.98
724.203	228.48
724.645	274.08
725.088	386.58
725.531	495.08
725.974	569.08
726.416	484.88
726.859	269.98
727.301	219.08
727.744	209.08
728.187	198.88
728.629	208.38
729.071	210.38
729.514	226.58
729.956	238.08
730.399	244.78
730.841	252.58
731.283	240.88
731.726	228.78
732.168	225.78
732.61	228.38
733.053	247.98
733.495	278.38
733.937	301.88
734.379	345.98
734.821	374.28
735.263	454.58
735.705	710.28
736.148	1334.78
736.59	2229.08
737.032	2730.28
737.474	2209.88
737.916	707.98
738.357	372.18
738.799	290.18
739.241	261.48
739.683	250.48
740.125	255.98
740.567	263.98
741.008	275.18
741.45	275.08
741.892	275.08
742.334	300.68
742.775	317.28
743.217	296.38
743.658	234.38
744.1	222.18
744.542	223.58
744.983	274.18
745.425	298.08
745.866	304.28
746.307	241.68
746.749	241.88
747.19	277.38
747.632	384.98
748.073	750.98
748.514	1570.28
748.956	2482.98
749.397	3103.48
749.838	2602.68
750.279	2644.38
750.72	1328.18
751.162	478.48
751.603	282.38
752.044	217.28
752.485	182.18
752.926	183.28
753.367	172.38
753.808	170.68
754.249	167.08
754.69	157.88
755.131	159.08
755.572	159.78
756.013	157.68
756.453	157.88
756.894	167.18
757.335	166.98
757.776	172.78
758.216	169.38
758.657	174.78
759.098	174.58
759.538	192.98
759.979	226.98
760.42	307.08
760.86	588.48
761.301	1516.48
761.741	3784.88
762.182	5759.08
762.622	4029.08
763.063	1145.88
763.503	474.58
763.943	301.18
764.384	296.58
764.824	356.58
765.264	399.38
765.705	269.58
766.145	181.68
766.585	166.08
767.025	153.78
767.465	158.08
767.906	210.48
768.346	290.08
768.786	305.58
769.226	232.68
769.666	271.68
770.106	518.38
770.546	1309.58
770.986	2330.08
771.426	2121.28
771.866	701.38
772.306	283.18
772.745	174.78
773.185	152.28
773.625	151.38
774.065	137.28
774.505	165.38
774.944	254.18
775.384	579.88
775.824	1079.38
776.263	1065.78
776.703	446.98
777.142	194.88
777.582	137.68
778.021	122.78
778.461	121.28
778.9	124.38
779.34	119.88
779.779	101.48
780.219	95.38
780.658	89.98
781.097	94.58
781.537	96.38
781.976	102.38
782.415	90.28
782.855	92.58
783.294	87.98
783.733	88.38
784.172	96.58
784.611	87.58
785.05	97.28
785.489	99.38
785.928	98.38
786.367	102.78
786.806	103.88
787.245	120.58
787.684	113.88
788.123	126.48
788.562	120.18
789.001	106.58
789.44	101.88
789.879	106.58
790.317	104.88
790.756	113.48
791.195	108.58
791.634	124.68
792.072	173.18
792.511	297.08
792.95	836.68
793.388	1880.68
793.827	1753.68
794.265	593.68
794.704	240.18
795.142	157.58
795.581	131.68
796.019	116.58
796.458	107.58
796.896	105.38
797.334	110.28
797.773	135.58
798.211	181.18
798.649	362.88
799.087	877.68
799.526	1373.48
799.964	1748.98
800.402	1802.38
800.84	671.28
801.278	263.08
801.716	164.38
802.154	133.58
802.592	126.78
803.03	122.68
803.468	117.18
803.906	126.88
804.344	124.98
804.782	123.08
805.22	114.48
805.658	114.48
806.096	133.18
806.533	136.78
806.971	152.78
807.409	188.48
807.847	272.98
808.284	555.08
808.722	1585.68
809.16	2911.98
809.597	2689.38
810.035	4729.98
810.472	5236.98
810.91	1864.78
811.347	696.38
811.785	346.58
812.222	225.88
812.66	170.98
813.097	144.38
813.535	123.68
813.972	118.28
814.409	102.08
814.846	95.38
815.284	98.08
815.721	93.18
816.158	95.08
816.595	104.28
817.032	150.48
817.47	172.88
817.907	141.58
818.344	134.88
818.781	99.28
819.218	82.98
819.655	106.28
820.092	157.18
820.529	190.68
820.966	158.98
821.403	121.48
821.839	89.68
822.276	90.48
822.713	102.08
823.15	112.48
823.587	103.18
824.023	122.58
824.46	248.28
824.897	770.18
825.333	1214.28
825.77	513.68
826.206	203.18
826.643	112.88
827.08	83.08
827.516	69.58
827.953	66.28
828.389	72.68
828.825	58.18
829.262	63.48
829.698	54.88
830.135	52.68
830.571	55.38
831.007	56.18
831.443	57.98
831.88	54.68
832.316	58.58
832.752	59.68
833.188	52.38
833.624	56.68
834.06	58.78
834.497	66.08
834.933	58.58
835.369	60.38
835.805	53.08
836.241	63.08
836.677	67.18
837.112	74.78
837.548	90.78
837.984	110.18
838.42	164.18
838.856	422.98
839.292	1304.48
839.727	2042.78
840.163	948.18
840.599	783.58
841.034	1758.78
841.47	1913.18
841.906	689.58
842.341	289.08
842.777	198.98
843.212	277.68
843.648	280.88
844.083	135.28
844.519	85.58
844.954	67.28
845.39	49.08
845.825	47.58
846.261	54.68
846.696	47.48
847.131	51.58
847.566	53.48
848.002	41.78
848.437	48.78
848.872	49.78
849.307	50.58
849.742	71.58
850.177	154.08
850.613	478.68
851.048	785.58
851.483	337.88
851.918	132.18
852.353	71.58
852.788	56.18
853.223	50.48
853.657	51.28
854.092	45.58
854.527	41.38
854.962	36.18
855.397	36.38
855.832	42.98
856.266	37.68
856.701	40.88
857.136	31.88
857.57	36.98
858.005	39.58
858.44	53.78
858.874	35.28
859.309	47.78
859.743	35.48
860.178	43.98
860.612	41.08
861.047	43.58
861.481	62.28
861.915	62.18
862.35	42.38
862.784	26.78
863.218	30.48
863.653	31.48
864.087	36.08
864.521	47.98
864.955	53.88
865.39	140.78
865.824	149.28
866.258	99.98
866.692	142.78
867.126	155.98
867.56	97.38
867.994	46.68
868.428	37.18
868.862	43.18
869.296	45.48
869.73	51.78
870.164	50.08
870.598	39.48
871.031	36.18
871.465	32.98
871.899	26.18
872.333	20.38
872.766	24.58
873.2	18.98
873.634	28.68
874.067	21.08
874.501	22.38
874.935	29.38
875.368	26.08
875.802	18.38
876.235	19.58
876.669	20.78
877.102	27.18
877.535	22.68
877.969	21.18
878.402	19.98
878.836	20.08
879.269	28.68
879.702	19.48
880.135	15.78
880.569	19.78
881.002	23.68
881.435	17.28
881.868	19.18
882.301	18.98
882.734	9.78
883.167	25.88
883.601	16.78
884.034	15.28
884.467	18.38
884.899	15.78
885.332	9.68
885.765	16.38
886.198	15.48
886.631	17.58
887.064	16.28
887.497	23.58
887.929	22.08
888.362	11.08
888.795	5.28
889.228	13.28
889.66	17.18
890.093	13.18
890.526	15.28
890.958	19.88
891.391	11.18
891.823	15.78
892.256	15.08
892.688	14.88
893.121	11.58
893.553	10.08
893.985	16.88
894.418	13.58
894.85	7.28
895.282	9.18
895.715	13.68
896.147	16.58
896.579	15.08
897.011	11.48
897.444	16.18
897.876	12.08
898.308	12.68
898.74	9.18
899.172	12.08
899.604	16.78
900.036	18.08
900.468	13.58
900.9	16.28
901.332	18.68
901.764	6.68
902.196	12.18
902.628	15.28
903.06	11.18
903.491	19.78
903.923	15.68
904.355	18.68
904.787	18.98
905.218	19.48
905.65	12.58
906.082	14.48
906.513	14.58
906.945	13.58
907.376	9.48
907.808	16.38
908.239	20.88
908.671	12.98
909.102	21.48
909.534	21.98
909.965	38.68
910.397	85.48
910.828	275.08
911.259	432.98
911.691	193.38
912.122	93.58
912.553	42.88
912.984	30.88
913.415	24.08
913.847	19.18
914.278	16.28
914.709	9.18
915.14	16.68
915.571	11.98
916.002	11.58
916.433	17.58
916.864	15.48
917.295	8.48
917.726	21.38
918.157	12.88
918.587	23.58
919.018	15.08
919.449	19.38
919.88	21.88
920.311	30.48
920.741	36.28
921.172	151.18
921.603	132.18
922.033	60.88
922.464	43.68
922.895	22.98
923.325	18.88
923.756	17.88
924.186	17.98
924.617	26.38
925.047	35.18
925.478	42.08
925.908	40.28
926.338	22.88
926.769	19.48
927.199	17.88
927.629	4.38
928.06	17.58
928.49	11.58
928.92	9.08
929.35	9.98
929.78	13.38
930.21	12.28
930.641	9.88
931.071	8.58
931.501	-0.22
931.931	7.38
932.361	7.88
932.791	1.88
933.221	1.98
933.651	0.08
934.08	16.78
934.51	23.48
934.94	6.98
935.37	5.88
935.8	7.18
936.229	4.48
936.659	5.48
937.089	7.88
937.519	10.28
937.948	17.98
938.378	12.18
938.807	2.48
939.237	5.28
939.666	2.28
940.096	-1.12
940.525	-2.22
940.955	0.58
941.384	1.38
941.814	-4.62
942.243	-2.32
942.672	3.28
943.102	-4.52
943.531	6.58
943.96	5.58
944.39	6.68
944.819	-0.22
945.248	6.78
945.677	5.18
946.106	7.28
946.535	4.48
946.964	-0.82
947.393	1.88
947.822	3.78
948.251	-2.22
948.68	10.08
949.109	3.68
949.538	4.78
949.967	-3.62
950.396	6.88
950.825	2.18
951.254	1.68
951.682	-6.12
952.111	8.18
952.54	4.58
952.969	-4.82
953.397	-3.92
953.826	-3.52
954.254	-5.72
954.683	2.08
955.112	-4.42
955.54	0.38
955.969	-0.72
956.397	2.18
956.826	-5.52
957.254	1.18
957.682	4.98
958.111	4.88
958.539	4.58
958.967	2.68
959.396	2.38
959.824	-1.72
960.252	4.98
960.68	-10.42
961.109	-3.42
961.537	-9.82
961.965	-1.02
962.393	-0.92
962.821	-4.12
963.249	-1.22
963.677	6.68
964.105	4.48
964.533	37.28
964.961	41.98
965.389	20.18
965.817	8.88
966.245	-1.12
966.672	4.28
967.1	-10.62
967.528	-0.42
967.956	-1.12
968.383	1.38
968.811	-1.72
969.239	-5.22
969.666	-6.52
970.094	1.68
970.522	-3.32
970.949	-0.72
971.377	-4.02
971.804	-3.12
972.232	-1.52
972.659	-3.72
973.087	-5.22
973.514	-5.52
973.941	-5.42
974.369	4.48
974.796	2.88
975.223	5.98
975.651	0.48
976.078	1.18
976.505	-5.22
976.932	0.88
977.359	14.18
977.786	13.88
978.214	-2.42
978.641	-7.12
979.068	-1.72
979.495	0.08
979.922	-3.02
980.349	-0.32
980.776	1.68
981.202	-6.12
981.629	4.48
982.056	6.78
982.483	-1.92
982.91	0.48
983.337	-5.82
983.763	5.28
984.19	-2.72
984.617	-2.82
985.043	-3.12
985.47	-1.72
985.897	-7.12
986.323	-4.52
986.75	4.78
987.176	-3.12
987.603	1.28
988.029	0.98
988.456	-4.52
988.882	1.18
989.308	-7.22
989.735	-3.82
990.161	1.68
990.587	-3.72
991.014	4.78
991.44	7.28
991.866	-1.62
992.292	-6.02
992.719	2.18
993.145	-2.02
993.571	-16.22
993.997	-2.92
994.423	-1.52
994.849	-5.52
995.275	1.88
995.701	1.58
996.127	-2.32
996.553	0.88
996.979	-1.12
997.405	6.28
997.83	-5.02
998.256	-5.32
998.682	-9.12
999.108	-3.62
999.534	-0.62
999.959	-2.12
1000.385	-5.72
1000.811	3.28
1001.236	-1.92
1001.662	-2.22
1002.087	-7.92
1002.513	-3.32
1002.938	1.68
1003.364	-2.02
1003.789	-3.52
1004.215	2.98
1004.64	-2.92
1005.066	1.18
1005.491	-0.62
1005.916	-2.62
1006.342	-1.42
1006.767	-5.12
1007.192	1.48
1007.617	-0.42
1008.042	-6.82
1008.468	-3.22
1008.893	-1.72
1009.318	-7.42
1009.743	0.58
1010.168	2.68
1010.593	1.88
1011.018	-3.52
1011.443	-4.02
1011.868	3.58
1012.293	-2.62
1012.718	-7.42
1013.143	0.08
1013.567	-0.12
1013.992	-3.72
1014.417	-11.52
1014.842	4.98
1015.267	-4.22
1015.691	-1.82
1016.116	3.68
1016.541	-6.22
1016.965	1.68
1017.39	7.48
1017.814	-0.72
1018.239	-3.42
1018.663	-9.22
1019.088	-5.32
1019.512	0.48
1019.937	-0.82
1020.361	1.08
1020.785	-8.32
1021.21	-3.72
1021.634	-1.42
1022.058	-3.02
1022.483	-0.32
1022.907	-4.82
1023.331	-8.12
1023.755	2.98
1024.179	0.78
1024.604	-6.92
1025.028	-3.42
1025.452	-4.22
1025.876	-0.22
1026.3	-0.02
1026.724	-9.02
1027.148	-2.52
1027.572	-7.32
1027.996	-3.72
1028.42	-2.42
1028.843	-6.22
1029.267	-4.32
1029.691	-5.12
1030.115	-8.62
1030.539	-5.42
1030.962	-10.12
1031.386	-8.42
1031.81	-2.62
1032.233	5.18
1032.657	0.28
1033.08	-1.02
1033.504	-3.22
1033.927	-6.52
1034.351	0.18
1034.774	-2.52
1035.198	-2.52
1035.621	-3.32
1036.045	-9.62
1036.468	5.78
1036.891	-9.82
1037.315	-5.62
1037.738	-9.62
1038.161	-3.02
1038.584	-9.72
1039.008	-8.32
1039.431	-5.32
1039.854	0.48
1040.277	-4.82
1040.7	-6.62
1041.123	-0.62
1041.546	-3.42
1041.969	-0.12
1042.392	-3.22
1042.815	-3.02
1043.238	0.18
1043.661	4.18
1044.084	-4.82
1044.507	-7.42
1044.93	-2.72
1045.352	-7.52
1045.775	-0.32
1046.198	0.58
1046.621	-5.32
1047.043	-0.12
1047.466	12.28
1047.889	-7.22
1048.311	-0.52
1048.734	-6.02
1049.156	-1.12
1049.579	-5.82
1050.001	-3.72
1050.424	2.88
1050.846	-4.72
1051.269	-1.12
1051.691	-7.82
1052.113	-6.22
1052.536	-0.32
1052.958	-1.52
1053.38	-5.12
1053.802	-9.92
1054.225	-4.12
1054.647	-10.52
1055.069	-5.12
1055.491	2.88
1055.913	-3.22
1056.335	3.18
1056.757	-3.62
1057.179	-2.72
1057.601	-11.42
1058.023	-5.12
1058.445	-6.42
1058.867	-6.72
1059.289	1.58
1059.711	-6.32
1060.133	-2.12
1060.555	-4.92
1060.976	-3.72
1061.398	-8.92
1061.82	-3.82
1062.241	-1.92
1062.663	-9.02
1063.085	-2.32
1063.506	-3.72
1063.928	-4.82
1064.35	-2.12
1064.771	-9.72
1065.193	-3.52
1065.614	-9.02
1066.035	-3.82
1066.457	-7.22
1066.878	0.08
1067.3	-8.72
1067.721	-1.02
1068.142	-1.02
1068.564	-2.22
1068.985	-7.32
1069.406	-6.92
1069.827	-3.82
1070.248	4.28
1070.67	-4.82
1071.091	-0.52
1071.512	-7.92
1071.933	-4.52
1072.354	-5.72
1072.775	-12.12
1073.196	-6.82
1073.617	-5.72
1074.038	-1.92
1074.459	0.48
1074.88	-4.52
1075.3	1.98
1075.721	-7.52
1076.142	-4.02
1076.563	-3.92
1076.983	-10.92
1077.404	-5.02
1077.825	-10.82
1078.246	-5.22
1078.666	-11.02
1079.087	-4.72
1079.507	-4.82
1079.928	5.98
1080.348	-0.32
1080.769	-8.22
1081.189	-0.32
1081.61	0.78
1082.03	-9.22
1082.451	-7.62
1082.871	-2.32
1083.291	-8.72
1083.711	-7.22
1084.132	1.98
1084.552	-4.72
1084.972	-0.42
1085.392	-4.92
1085.813	-8.82
1086.233	-3.72
1086.653	-6.62
1087.073	0.68
1087.493	-5.02
1087.913	-4.92
1088.333	-4.72
1088.753	-3.82
1089.173	3.98
1089.593	-1.22
1090.013	5.28
1090.433	4.38
1090.852	-1.22
1091.272	-3.42
1091.692	-4.32
1092.112	-5.92
1092.531	-12.62
1092.951	-13.92
1093.371	-5.12
1093.79	7.28
1094.21	-5.22
1094.63	-3.42
1095.049	-8.02
1095.469	-0.42
1095.888	2.48
1096.308	3.58
1096.727	3.88
1097.146	-7.12
1097.566	2.08
1097.985	-7.32
1098.405	0.48
1098.824	-5.92
1099.243	-0.12
1099.662	-5.92
1100.082	2.58
1100.501	-1.92
1100.92	-8.32
1101.339	-2.62
1101.758	-6.82
