Data from 20171114-ORNL-Ar_H_NY_Subt18_08-05-55-893.txt Node
Date: Tue Nov 14 08:05:55 EST 2017
User: Ender
Spectrometer: HR+D1039
Trigger mode: 0
Integration Time (sec): 2.730000E-2
Scans to average: 10
Electric dark correction enabled: true
Nonlinearity correction enabled: false
Boxcar width: 0
XAxis mode: Wavelengths
Number of Pixels in Spectrum: 2048
>>>>>Begin Spectral Data<<<<<
187.836	-2.43
188.309	-2.43
188.782	-2.43
189.255	0.47
189.728	3.57
190.201	4.87
190.674	2.17
191.147	-0.63
191.619	-6.83
192.092	0.57
192.565	2.07
193.038	-1.03
193.511	-3.33
193.984	1.27
194.456	-0.03
194.929	0.57
195.402	-1.13
195.874	-0.13
196.347	-2.93
196.82	-5.43
197.292	4.07
197.765	-6.13
198.237	-8.93
198.71	1.87
199.182	-3.93
199.655	-2.13
200.127	-6.33
200.6	-0.63
201.072	-3.93
201.544	-5.53
202.017	-2.13
202.489	3.07
202.961	-2.13
203.433	0.67
203.906	-3.73
204.378	-5.13
204.85	-5.83
205.322	-4.03
205.794	-2.03
206.266	-2.53
206.739	-10.93
207.211	-2.03
207.683	-10.33
208.155	-6.43
208.627	-9.23
209.099	-5.43
209.57	-8.63
210.042	-8.03
210.514	-3.73
210.986	1.27
211.458	-7.13
211.93	-5.23
212.402	-0.13
212.873	-8.33
213.345	-12.93
213.817	-13.83
214.288	-6.63
214.76	-10.83
215.232	-8.43
215.703	-1.63
216.175	0.47
216.646	-2.63
217.118	-10.63
217.589	-1.73
218.061	-1.53
218.532	-7.53
219.004	-3.53
219.475	-11.03
219.946	-2.23
220.418	-4.73
220.889	1.87
221.36	1.27
221.832	-7.23
222.303	-9.13
222.774	-6.83
223.245	-11.73
223.717	-8.33
224.188	-4.43
224.659	-6.33
225.13	-4.93
225.601	0.17
226.072	3.17
226.543	-3.43
227.014	-0.63
227.485	-2.63
227.956	-6.63
228.427	-9.13
228.898	-0.93
229.369	3.17
229.839	-5.83
230.31	-16.73
230.781	0.47
231.252	-6.23
231.722	-8.53
232.193	-1.33
232.664	-5.73
233.135	2.67
233.605	-6.13
234.076	-2.53
234.546	-1.13
235.017	2.87
235.487	-0.73
235.958	-3.03
236.428	-4.13
236.899	3.57
237.369	4.37
237.84	0.07
238.31	5.57
238.78	-2.63
239.251	-1.33
239.721	0.07
240.191	-0.23
240.662	-2.43
241.132	0.97
241.602	-2.43
242.072	-0.63
242.542	10.17
243.013	-5.33
243.483	4.87
243.953	-2.63
244.423	-6.93
244.893	-5.43
245.363	-0.13
245.833	5.07
246.303	-4.03
246.773	7.47
247.243	1.27
247.712	4.57
248.182	6.17
248.652	7.67
249.122	4.27
249.592	10.27
250.061	15.27
250.531	30.47
251.001	12.47
251.471	27.57
251.94	18.87
252.41	3.67
252.879	0.37
253.349	7.97
253.818	6.37
254.288	3.57
254.757	0.17
255.227	-1.93
255.696	6.37
256.166	1.57
256.635	5.57
257.105	8.77
257.574	9.37
258.043	7.67
258.513	9.77
258.982	15.87
259.451	9.87
259.92	8.57
260.389	12.67
260.859	12.07
261.328	4.47
261.797	22.67
262.266	14.67
262.735	13.97
263.204	5.47
263.673	2.97
264.142	4.67
264.611	0.67
265.08	-0.63
265.549	4.67
266.018	4.47
266.487	-0.23
266.955	-2.93
267.424	3.27
267.893	11.97
268.362	3.07
268.83	2.87
269.299	10.57
269.768	3.77
270.236	5.77
270.705	2.67
271.174	8.17
271.642	9.07
272.111	11.67
272.579	21.97
273.048	22.17
273.516	35.47
273.985	32.97
274.453	21.07
274.922	18.37
275.39	11.47
275.858	3.67
276.327	9.17
276.795	20.57
277.263	12.87
277.731	27.77
278.2	54.27
278.668	58.47
279.136	51.97
279.604	19.87
280.072	23.97
280.54	14.87
281.008	7.97
281.477	15.67
281.945	8.27
282.413	13.87
282.881	15.07
283.348	5.67
283.816	17.17
284.284	9.67
284.752	24.77
285.22	9.67
285.688	14.17
286.156	16.27
286.623	45.47
287.091	50.57
287.559	32.87
288.026	22.57
288.494	16.97
288.962	5.17
289.429	16.27
289.897	18.37
290.364	14.97
290.832	14.37
291.3	13.07
291.767	18.07
292.234	18.97
292.702	17.77
293.169	20.87
293.637	23.37
294.104	23.47
294.571	15.47
295.039	15.37
295.506	15.47
295.973	16.87
296.44	16.67
296.908	16.17
297.375	15.27
297.842	20.67
298.309	21.47
298.776	18.27
299.243	19.77
299.71	15.97
300.177	19.97
300.644	23.27
301.111	19.17
301.578	25.47
302.045	14.77
302.512	22.37
302.979	24.77
303.446	25.47
303.913	18.27
304.379	18.07
304.846	26.67
305.313	28.77
305.78	25.87
306.246	24.27
306.713	31.27
307.18	29.27
307.646	33.57
308.113	30.47
308.579	25.07
309.046	32.07
309.512	30.87
309.979	19.17
310.445	30.67
310.912	32.67
311.378	31.27
311.845	34.37
312.311	28.87
312.777	31.27
313.244	30.97
313.71	39.57
314.176	29.17
314.642	31.97
315.109	33.47
315.575	32.27
316.041	41.17
316.507	34.47
316.973	38.67
317.439	32.37
317.905	41.37
318.371	38.07
318.837	32.27
319.303	40.57
319.769	36.97
320.235	37.67
320.701	37.77
321.167	38.27
321.633	35.17
322.099	39.87
322.564	45.77
323.03	40.57
323.496	41.07
323.962	41.27
324.427	38.37
324.893	44.77
325.359	41.17
325.824	35.07
326.29	40.27
326.755	45.07
327.221	40.77
327.686	36.37
328.152	41.97
328.617	46.77
329.083	48.97
329.548	50.87
330.014	46.27
330.479	33.77
330.944	45.47
331.41	47.67
331.875	48.27
332.34	41.57
332.805	42.97
333.271	50.17
333.736	41.77
334.201	52.77
334.666	53.17
335.131	54.37
335.596	50.47
336.061	48.67
336.526	41.97
336.991	52.67
337.456	56.97
337.921	47.87
338.386	45.47
338.851	46.87
339.316	51.67
339.781	48.47
340.246	56.77
340.711	52.27
341.175	50.07
341.64	51.47
342.105	51.87
342.569	59.07
343.034	64.07
343.499	55.27
343.963	57.97
344.428	65.07
344.893	58.77
345.357	62.77
345.822	62.17
346.286	69.47
346.751	75.27
347.215	62.17
347.679	78.97
348.144	99.37
348.608	86.27
349.073	65.17
349.537	75.87
350.001	80.17
350.465	93.47
350.93	79.87
351.394	75.47
351.858	72.57
352.322	85.37
352.786	82.17
353.25	107.27
353.715	117.07
354.179	104.87
354.643	115.57
355.107	127.87
355.571	104.57
356.035	106.67
356.498	122.87
356.962	124.27
357.426	130.17
357.89	115.27
358.354	96.17
358.818	84.47
359.281	83.37
359.745	77.57
360.209	80.77
360.673	77.37
361.136	86.67
361.6	82.07
362.064	82.07
362.527	89.17
362.991	98.37
363.454	80.17
363.918	81.87
364.381	75.07
364.845	86.77
365.308	87.77
365.772	84.57
366.235	89.47
366.698	80.17
367.162	87.47
367.625	87.87
368.088	90.67
368.552	91.07
369.015	97.57
369.478	93.37
369.941	103.27
370.404	95.67
370.867	103.97
371.331	108.17
371.794	113.67
372.257	110.97
372.72	120.77
373.183	110.67
373.646	99.77
374.109	97.67
374.572	101.87
375.035	102.77
375.497	109.07
375.96	104.87
376.423	100.97
376.886	121.07
377.349	112.17
377.811	100.07
378.274	108.47
378.737	108.77
379.199	115.37
379.662	112.07
380.125	115.57
380.587	117.47
381.05	122.37
381.512	131.27
381.975	138.47
382.437	132.07
382.9	129.47
383.362	134.07
383.825	138.27
384.287	146.57
384.75	138.77
385.212	139.17
385.674	136.67
386.136	132.57
386.599	119.77
387.061	126.37
387.523	128.97
387.985	135.07
388.447	145.27
388.91	146.77
389.372	160.27
389.834	152.57
390.296	152.27
390.758	157.87
391.22	166.17
391.682	204.17
392.144	300.27
392.606	229.27
393.068	165.17
393.529	165.67
393.991	150.97
394.453	148.67
394.915	155.07
395.377	195.47
395.838	213.27
396.3	155.57
396.762	148.37
397.224	132.67
397.685	128.47
398.147	127.97
398.608	128.57
399.07	124.67
399.531	140.57
399.993	144.27
400.454	155.17
400.916	145.57
401.377	144.17
401.839	160.47
402.3	155.27
402.762	166.97
403.223	188.57
403.684	174.37
404.145	148.17
404.607	162.77
405.068	166.57
405.529	176.97
405.99	196.17
406.451	175.27
406.913	173.17
407.374	170.37
407.835	160.27
408.296	166.07
408.757	175.17
409.218	185.77
409.679	181.37
410.14	170.97
410.601	178.97
411.062	179.87
411.522	192.67
411.983	189.97
412.444	173.57
412.905	176.67
413.366	180.47
413.826	188.67
414.287	218.57
414.748	263.07
415.208	244.27
415.669	213.97
416.13	209.67
416.59	201.77
417.051	213.87
417.511	219.67
417.972	232.57
418.432	247.07
418.893	291.87
419.353	246.67
419.814	196.77
420.274	187.37
420.734	184.47
421.195	196.67
421.655	196.87
422.115	191.97
422.576	192.77
423.036	194.77
423.496	207.67
423.956	214.57
424.416	226.57
424.876	272.07
425.336	259.47
425.797	259.97
426.257	263.57
426.717	236.57
427.177	230.97
427.637	229.07
428.097	241.77
428.556	250.37
429.016	269.87
429.476	259.17
429.936	281.77
430.396	276.47
430.856	288.97
431.315	313.87
431.775	350.37
432.235	382.37
432.694	352.07
433.154	367.77
433.614	400.17
434.073	335.67
434.533	282.57
434.993	269.17
435.452	285.57
435.912	292.87
436.371	287.37
436.83	290.07
437.29	270.87
437.749	248.37
438.209	248.07
438.668	272.07
439.127	285.87
439.587	263.07
440.046	243.67
440.505	264.07
440.964	270.27
441.424	324.77
441.883	313.17
442.342	263.57
442.801	221.57
443.26	224.67
443.719	223.77
444.178	225.97
444.637	215.17
445.096	223.37
445.555	215.77
446.014	221.97
446.473	224.47
446.932	233.17
447.391	228.77
447.849	231.37
448.308	218.77
448.767	225.07
449.226	237.87
449.685	238.97
450.143	250.87
450.602	238.67
451.061	224.27
451.519	240.47
451.978	234.97
452.436	230.17
452.895	240.77
453.353	254.77
453.812	240.77
454.27	237.87
454.729	238.67
455.187	235.87
455.646	249.37
456.104	240.07
456.562	271.87
457.021	272.47
457.479	262.07
457.937	274.97
458.395	260.77
458.854	249.47
459.312	259.37
459.77	272.77
460.228	264.67
460.686	244.47
461.144	250.27
461.602	247.67
462.06	246.97
462.518	258.67
462.976	263.17
463.434	262.87
463.892	261.47
464.35	270.87
464.808	289.97
465.266	270.27
465.724	270.57
466.181	270.57
466.639	277.97
467.097	292.67
467.555	300.47
468.012	304.37
468.47	318.67
468.928	321.67
469.385	343.77
469.843	343.67
470.3	352.17
470.758	359.67
471.215	382.17
471.673	408.37
472.13	411.17
472.588	418.47
473.045	374.77
473.503	380.27
473.96	398.47
474.417	405.47
474.875	439.07
475.332	485.27
475.789	472.47
476.246	465.77
476.704	487.27
477.161	510.87
477.618	524.37
478.075	564.17
478.532	619.47
478.989	683.07
479.446	824.27
479.903	778.87
480.36	816.47
480.817	866.37
481.274	972.57
481.731	1079.27
482.188	1171.77
482.645	1305.07
483.102	1421.77
483.558	1560.77
484.015	1604.17
484.472	1583.67
484.929	1538.47
485.385	1493.17
485.842	1465.27
486.299	1376.27
486.755	1312.77
487.212	1117.07
487.668	927.57
488.125	862.77
488.582	787.87
489.038	743.67
489.494	719.57
489.951	694.47
490.407	675.57
490.864	653.47
491.32	641.97
491.776	641.67
492.233	650.27
492.689	612.17
493.145	618.57
493.602	608.47
494.058	613.07
494.514	623.47
494.97	633.97
495.426	653.17
495.882	637.87
496.338	623.37
496.794	623.97
497.251	623.27
497.707	644.27
498.163	648.17
498.618	634.07
499.074	646.67
499.53	677.77
499.986	678.87
500.442	658.77
500.898	645.27
501.354	627.17
501.809	637.17
502.265	645.47
502.721	666.47
503.177	679.97
503.632	672.07
504.088	680.57
504.543	711.37
504.999	706.47
505.455	660.17
505.91	630.87
506.366	631.27
506.821	636.37
507.277	627.07
507.732	622.97
508.187	626.47
508.643	643.67
509.098	631.27
509.553	651.97
510.009	667.07
510.464	668.07
510.919	703.67
511.375	695.47
511.83	709.27
512.285	735.47
512.74	769.57
513.195	796.47
513.65	775.27
514.105	776.87
514.56	779.47
515.015	790.77
515.47	814.47
515.925	784.67
516.38	794.57
516.835	810.87
517.29	793.47
517.745	775.37
518.2	766.87
518.655	757.57
519.109	745.77
519.564	740.67
520.019	745.67
520.474	731.57
520.928	732.07
521.383	723.27
521.838	720.47
522.292	718.27
522.747	721.37
523.201	698.97
523.656	699.17
524.11	693.17
524.565	696.57
525.019	701.57
525.474	706.07
525.928	700.97
526.382	703.07
526.837	698.27
527.291	706.97
527.745	703.97
528.2	706.67
528.654	694.27
529.108	694.67
529.562	690.97
530.016	691.47
530.47	692.57
530.925	689.37
531.379	696.77
531.833	702.37
532.287	705.07
532.741	711.27
533.195	714.97
533.649	718.37
534.103	735.37
534.556	711.17
535.01	715.87
535.464	709.57
535.918	715.67
536.372	725.77
536.826	718.17
537.279	713.87
537.733	720.37
538.187	718.57
538.64	706.17
539.094	724.57
539.548	736.87
540.001	720.47
540.455	718.27
540.908	739.87
541.362	736.57
541.815	750.57
542.269	767.27
542.722	764.37
543.175	770.67
543.629	770.47
544.082	786.77
544.536	788.57
544.989	793.47
545.442	796.87
545.895	789.27
546.349	786.97
546.802	792.57
547.255	793.47
547.708	810.17
548.161	814.37
548.614	825.47
549.067	830.47
549.52	825.77
549.973	810.67
550.426	806.37
550.879	794.17
551.332	811.27
551.785	803.77
552.238	802.47
552.691	813.27
553.144	830.27
553.596	851.47
554.049	861.57
554.502	901.57
554.955	909.47
555.407	912.57
555.86	911.47
556.313	895.37
556.765	885.37
557.218	887.57
557.67	886.67
558.123	880.97
558.576	877.77
559.028	873.77
559.48	884.47
559.933	875.57
560.385	843.37
560.838	802.77
561.29	780.17
561.742	779.77
562.195	767.77
562.647	771.77
563.099	783.87
563.551	783.87
564.004	781.77
564.456	777.27
564.908	773.07
565.36	745.17
565.812	742.57
566.264	724.07
566.716	722.57
567.168	714.17
567.62	725.87
568.072	717.47
568.524	701.47
568.976	689.67
569.428	670.97
569.88	671.97
570.332	688.47
570.784	678.57
571.235	689.67
571.687	681.47
572.139	696.57
572.59	712.37
573.042	712.37
573.494	699.27
573.945	708.17
574.397	680.07
574.849	683.97
575.3	693.17
575.752	685.27
576.203	676.67
576.655	683.07
577.106	673.27
577.557	663.17
578.009	666.87
578.46	665.07
578.912	654.17
579.363	658.97
579.814	671.77
580.265	656.67
580.717	663.87
581.168	673.87
581.619	680.17
582.07	681.27
582.521	676.67
582.972	675.27
583.423	673.97
583.875	684.97
584.326	703.27
584.777	741.17
585.227	822.77
585.678	913.87
586.129	1003.27
586.58	1070.67
587.031	1150.87
587.482	1309.67
587.933	1486.47
588.384	1294.67
588.834	964.77
589.285	793.97
589.736	771.27
590.186	769.07
590.637	761.77
591.088	739.17
591.538	726.47
591.989	731.97
592.439	719.67
592.89	722.97
593.34	710.07
593.791	706.57
594.241	702.77
594.692	703.37
595.142	694.37
595.593	684.97
596.043	710.17
596.493	704.57
596.943	721.87
597.394	720.47
597.844	715.37
598.294	730.87
598.744	744.97
599.195	769.67
599.645	812.77
600.095	854.77
600.545	905.37
600.995	950.87
601.445	1018.97
601.895	1084.57
602.345	1125.77
602.795	1112.87
603.245	1065.77
603.695	1004.97
604.145	956.57
604.594	911.97
605.044	853.27
605.494	786.07
605.944	747.37
606.393	735.07
606.843	726.47
607.293	724.87
607.743	722.87
608.192	740.57
608.642	751.27
609.091	752.47
609.541	768.17
609.99	767.87
610.44	768.47
610.889	715.27
611.339	695.27
611.788	682.07
612.238	700.87
612.687	708.57
613.136	706.97
613.586	729.87
614.035	721.07
614.484	747.87
614.933	750.07
615.383	756.07
615.832	735.47
616.281	727.87
616.73	683.97
617.179	657.27
617.628	648.97
618.077	624.87
618.526	614.87
618.975	616.77
619.424	618.97
619.873	605.87
620.322	604.37
620.771	603.17
621.22	598.27
621.669	584.67
622.118	577.87
622.567	578.17
623.015	571.77
623.464	570.17
623.913	549.87
624.361	544.07
624.81	542.67
625.259	547.67
625.707	547.57
626.156	550.77
626.604	566.17
627.053	554.57
627.501	555.97
627.95	563.17
628.398	578.37
628.847	564.67
629.295	554.47
629.744	564.97
630.192	565.07
630.64	554.87
631.089	555.87
631.537	563.37
631.985	577.07
632.433	598.77
632.881	594.37
633.33	644.27
633.778	625.97
634.226	558.07
634.674	557.37
635.122	563.37
635.57	582.77
636.018	623.97
636.466	573.17
636.914	545.07
637.362	564.37
637.81	562.97
638.258	572.57
638.705	565.17
639.153	594.87
639.601	608.57
640.049	626.67
640.497	658.97
640.944	686.77
641.392	626.97
641.84	612.47
642.287	575.57
642.735	549.47
643.182	561.57
643.63	568.77
644.078	561.47
644.525	580.07
644.973	580.27
645.42	593.07
645.867	609.97
646.315	621.17
646.762	659.07
647.21	681.37
647.657	707.37
648.104	748.67
648.551	754.87
648.999	826.77
649.446	899.67
649.893	990.27
650.34	1140.07
650.787	1374.77
651.234	1691.67
651.682	2189.17
652.129	3046.57
652.576	4383.37
653.023	6442.17
653.47	8872.77
653.917	11107.07
654.363	12841.97
654.81	14252.07
655.257	13564.47
655.704	8886.57
656.151	5260.37
656.598	3386.67
657.044	2396.37
657.491	1839.47
657.938	1464.97
658.385	1231.37
658.831	1066.77
659.278	958.17
659.724	839.37
660.171	775.47
660.618	715.17
661.064	668.97
661.511	660.67
661.957	642.17
662.404	632.37
662.85	643.27
663.296	622.87
663.743	549.87
664.189	526.17
664.635	522.87
665.082	514.47
665.528	522.97
665.974	508.47
666.42	499.67
666.867	501.87
667.313	484.67
667.759	468.67
668.205	469.17
668.651	473.67
669.097	478.77
669.543	489.57
669.989	461.57
670.435	442.27
670.881	433.57
671.327	441.07
671.773	468.37
672.219	481.17
672.665	521.07
673.11	561.67
673.556	609.87
674.002	663.17
674.448	639.37
674.893	532.87
675.339	453.27
675.785	417.17
676.23	405.97
676.676	385.87
677.122	378.07
677.567	366.47
678.013	356.27
678.458	348.97
678.904	358.07
679.349	338.67
679.794	342.77
680.24	343.87
680.685	340.47
681.131	341.97
681.576	340.77
682.021	345.77
682.466	337.67
682.912	334.97
683.357	339.97
683.802	369.87
684.247	396.67
684.692	443.47
685.137	483.27
685.583	520.17
686.028	550.87
686.473	507.57
686.918	437.17
687.363	402.07
687.807	388.07
688.252	360.67
688.697	344.37
689.142	328.07
689.587	324.07
690.032	314.77
690.477	334.37
690.921	339.57
691.366	369.47
691.811	390.17
692.255	418.47
692.7	440.07
693.145	483.67
693.589	666.87
694.034	1086.17
694.478	1484.77
694.923	1685.97
695.367	2216.57
695.812	1164.57
696.256	478.07
696.701	360.17
697.145	340.77
697.59	326.97
698.034	310.67
698.478	319.07
698.922	321.87
699.367	318.07
699.811	327.17
700.255	348.17
700.699	366.87
701.143	416.77
701.588	460.57
702.032	496.07
702.476	491.37
702.92	466.97
703.364	479.97
703.808	613.17
704.252	990.47
704.696	1399.67
705.14	1631.37
705.584	2074.87
706.027	1034.37
706.471	508.97
706.915	390.37
707.359	338.17
707.803	314.97
708.246	300.07
708.69	306.37
709.134	308.77
709.577	296.17
710.021	308.57
710.465	301.47
710.908	295.77
711.352	288.37
711.795	299.27
712.239	340.47
712.682	368.77
713.126	410.47
713.569	452.87
714.012	366.47
714.456	316.07
714.899	288.47
715.342	268.47
715.786	253.77
716.229	243.57
716.672	243.17
717.115	243.67
717.558	239.97
718.002	246.07
718.445	258.37
718.888	275.37
719.331	283.87
719.774	295.87
720.217	297.07
720.66	276.37
721.103	257.77
721.546	249.67
721.989	246.17
722.432	221.27
722.874	226.77
723.317	220.97
723.76	226.17
724.203	249.77
724.645	301.97
725.088	428.37
725.531	553.77
725.974	628.07
726.416	522.17
726.859	304.77
727.301	237.07
727.744	224.17
728.187	221.67
728.629	235.97
729.071	227.27
729.514	253.87
729.956	266.67
730.399	281.07
730.841	277.67
731.283	259.27
731.726	260.67
732.168	253.17
732.61	249.17
733.053	276.47
733.495	299.77
733.937	338.27
734.379	382.47
734.821	420.97
735.263	510.47
735.705	800.97
736.148	1500.87
736.59	2479.67
737.032	2966.57
737.474	2415.37
737.916	781.17
738.357	412.87
738.799	312.27
739.241	289.47
739.683	270.07
740.125	279.57
740.567	284.27
741.008	305.77
741.45	299.77
741.892	311.97
742.334	334.67
742.775	345.67
743.217	324.77
743.658	255.77
744.1	242.57
744.542	249.77
744.983	298.77
745.425	330.77
745.866	335.17
746.307	274.27
746.749	276.77
747.19	318.57
747.632	437.97
748.073	829.87
748.514	1766.77
748.956	2752.17
749.397	3452.57
749.838	2868.57
750.279	2875.37
750.72	1441.17
751.162	529.97
751.603	307.47
752.044	247.77
752.485	204.27
752.926	203.87
753.367	195.27
753.808	187.47
754.249	185.07
754.69	183.87
755.131	176.07
755.572	176.77
756.013	175.07
756.453	179.27
756.894	184.97
757.335	192.17
757.776	190.77
758.216	186.37
758.657	190.27
759.098	196.47
759.538	209.57
759.979	253.67
760.42	356.97
760.86	662.57
761.301	1712.47
761.741	4214.47
762.182	6227.67
762.622	4386.87
763.063	1266.27
763.503	522.77
763.943	333.77
764.384	339.27
764.824	393.97
765.264	427.37
765.705	302.87
766.145	199.77
766.585	182.27
767.025	174.67
767.465	177.17
767.906	238.27
768.346	311.67
768.786	334.07
769.226	256.07
769.666	311.17
770.106	580.37
770.546	1463.07
770.986	2566.87
771.426	2295.97
771.866	763.87
772.306	313.17
772.745	201.77
773.185	170.47
773.625	167.97
774.065	157.47
774.505	183.67
774.944	295.07
775.384	651.97
775.824	1192.27
776.263	1171.47
776.703	490.47
777.142	214.27
777.582	154.17
778.021	126.87
778.461	134.47
778.9	138.37
779.34	132.17
779.779	113.87
780.219	107.27
780.658	102.67
781.097	108.27
781.537	109.87
781.976	102.27
782.415	99.07
782.855	98.37
783.294	95.27
783.733	100.77
784.172	104.57
784.611	93.07
785.05	104.17
785.489	110.77
785.928	118.37
786.367	115.37
786.806	111.67
787.245	129.07
787.684	132.87
788.123	141.07
788.562	126.77
789.001	122.47
789.44	122.67
789.879	111.67
790.317	108.37
790.756	120.17
791.195	122.97
791.634	140.37
792.072	194.47
792.511	348.97
792.95	950.67
793.388	2062.57
793.827	1894.07
794.265	654.47
794.704	270.87
795.142	181.87
795.581	146.27
796.019	129.87
796.458	122.77
796.896	121.77
797.334	129.67
797.773	150.37
798.211	203.47
798.649	413.17
799.087	970.77
799.526	1532.87
799.964	1938.27
800.402	1959.37
800.84	722.07
801.278	294.37
801.716	181.87
802.154	149.97
802.592	145.17
803.03	130.37
803.468	129.07
803.906	137.67
804.344	146.57
804.782	144.67
805.22	129.17
805.658	118.37
806.096	147.47
806.533	148.97
806.971	169.97
807.409	207.17
807.847	300.77
808.284	620.47
808.722	1760.27
809.16	3169.17
809.597	2980.97
810.035	5165.47
810.472	5599.07
810.91	2017.27
811.347	765.77
811.785	387.47
812.222	243.37
812.66	184.27
813.097	155.77
813.535	136.87
813.972	127.07
814.409	116.07
814.846	104.37
815.284	110.97
815.721	101.17
816.158	106.87
816.595	115.37
817.032	167.47
817.47	198.77
817.907	172.77
818.344	147.57
818.781	112.87
819.218	97.77
819.655	118.97
820.092	173.57
820.529	202.87
820.966	169.27
821.403	126.57
821.839	102.77
822.276	102.07
822.713	118.07
823.15	128.37
823.587	109.37
824.023	133.77
824.46	273.27
824.897	852.97
825.333	1307.67
825.77	564.07
826.206	222.17
826.643	137.67
827.08	100.27
827.516	74.07
827.953	73.47
828.389	76.17
828.825	67.27
829.262	56.37
829.698	62.27
830.135	62.67
830.571	57.87
831.007	60.77
831.443	65.67
831.88	56.27
832.316	60.87
832.752	59.77
833.188	64.37
833.624	58.47
834.06	63.37
834.497	66.47
834.933	67.27
835.369	73.27
835.805	66.47
836.241	75.87
836.677	75.77
837.112	83.97
837.548	101.97
837.984	128.57
838.42	194.47
838.856	466.97
839.292	1437.67
839.727	2234.37
840.163	1027.07
840.599	883.67
841.034	1941.57
841.47	2051.37
841.906	750.17
842.341	317.37
842.777	222.37
843.212	305.87
843.648	302.77
844.083	147.37
844.519	91.67
844.954	77.17
845.39	60.57
845.825	54.97
846.261	50.17
846.696	48.87
847.131	52.67
847.566	55.97
848.002	52.57
848.437	47.77
848.872	58.07
849.307	53.97
849.742	75.87
850.177	171.57
850.613	523.87
851.048	851.27
851.483	362.57
851.918	147.97
852.353	80.57
852.788	55.27
853.223	52.37
853.657	51.57
854.092	45.97
854.527	43.87
854.962	40.97
855.397	44.67
855.832	48.07
856.266	40.97
856.701	39.27
857.136	31.97
857.57	44.17
858.005	41.17
858.44	55.37
858.874	40.87
859.309	54.67
859.743	38.17
860.178	49.47
860.612	40.07
861.047	47.07
861.481	59.97
861.915	68.57
862.35	39.87
862.784	31.17
863.218	36.87
863.653	33.47
864.087	47.97
864.521	50.97
864.955	64.97
865.39	151.87
865.824	169.77
866.258	102.77
866.692	159.97
867.126	166.27
867.56	102.37
867.994	46.27
868.428	33.97
868.862	40.77
869.296	51.57
869.73	56.47
870.164	50.47
870.598	38.47
871.031	36.97
871.465	29.27
871.899	20.67
872.333	19.57
872.766	21.57
873.2	25.57
873.634	28.77
874.067	24.47
874.501	21.07
874.935	28.57
875.368	31.87
875.802	23.07
876.235	23.97
876.669	21.87
877.102	18.97
877.535	27.87
877.969	22.57
878.402	26.57
878.836	21.47
879.269	25.57
879.702	23.37
880.135	23.27
880.569	24.17
881.002	23.47
881.435	20.47
881.868	15.47
882.301	17.27
882.734	16.27
883.167	20.77
883.601	17.27
884.034	19.97
884.467	14.97
884.899	19.37
885.332	13.87
885.765	14.87
886.198	16.27
886.631	15.77
887.064	18.47
887.497	15.67
887.929	24.77
888.362	10.87
888.795	9.97
889.228	15.87
889.66	24.37
890.093	18.97
890.526	14.57
890.958	16.47
891.391	20.57
891.823	17.07
892.256	20.17
892.688	11.77
893.121	13.27
893.553	14.77
893.985	23.57
894.418	20.67
894.85	10.87
895.282	14.97
895.715	17.37
896.147	16.77
896.579	19.27
897.011	15.97
897.444	22.57
897.876	11.57
898.308	16.67
898.74	17.17
899.172	12.77
899.604	26.87
900.036	18.87
900.468	20.67
900.9	15.87
901.332	11.87
901.764	11.77
902.196	16.57
902.628	14.27
903.06	16.97
903.491	30.57
903.923	24.17
904.355	21.77
904.787	25.77
905.218	23.47
905.65	12.07
906.082	11.37
906.513	14.47
906.945	15.27
907.376	12.67
907.808	14.37
908.239	21.07
908.671	19.27
909.102	25.97
909.534	21.37
909.965	40.17
910.397	89.07
910.828	297.27
911.259	455.67
911.691	214.37
912.122	102.07
912.553	43.87
912.984	25.67
913.415	24.77
913.847	21.47
914.278	20.57
914.709	15.87
915.14	22.27
915.571	16.97
916.002	13.07
916.433	20.77
916.864	18.47
917.295	7.47
917.726	22.47
918.157	12.97
918.587	25.57
919.018	15.97
919.449	23.47
919.88	17.77
920.311	31.17
920.741	48.27
921.172	160.97
921.603	145.97
922.033	71.17
922.464	46.27
922.895	20.67
923.325	19.17
923.756	11.07
924.186	16.37
924.617	24.97
925.047	41.47
925.478	55.07
925.908	41.17
926.338	29.77
926.769	18.57
927.199	18.47
927.629	8.97
928.06	10.27
928.49	7.57
928.92	13.47
929.35	13.27
929.78	9.37
930.21	7.87
930.641	10.47
931.071	6.97
931.501	4.77
931.931	8.57
932.361	8.87
932.791	2.67
933.221	3.27
933.651	2.47
934.08	10.57
934.51	26.87
934.94	4.67
935.37	7.77
935.8	8.07
936.229	10.57
936.659	10.27
937.089	-0.33
937.519	18.97
937.948	26.37
938.378	16.17
938.807	2.97
939.237	5.77
939.666	10.37
940.096	-2.63
940.525	-0.43
940.955	-0.93
941.384	1.27
941.814	-1.93
942.243	4.37
942.672	7.37
943.102	-1.43
943.531	3.07
943.96	6.77
944.39	1.37
944.819	5.37
945.248	2.57
945.677	-2.03
946.106	2.67
946.535	4.77
946.964	-1.73
947.393	9.17
947.822	2.17
948.251	-7.83
948.68	-0.23
949.109	6.17
949.538	11.07
949.967	1.17
950.396	-0.13
950.825	0.37
951.254	-6.13
951.682	-4.03
952.111	3.17
952.54	8.77
952.969	-12.43
953.397	-6.43
953.826	3.07
954.254	-7.03
954.683	-2.83
955.112	-3.03
955.54	-0.63
955.969	-2.03
956.397	1.57
956.826	-1.53
957.254	-0.73
957.682	4.07
958.111	6.67
958.539	-0.23
958.967	1.77
959.396	-4.13
959.824	-1.23
960.252	2.57
960.68	-5.63
961.109	-2.33
961.537	4.57
961.965	4.87
962.393	-2.43
962.821	-5.33
963.249	6.77
963.677	0.07
964.105	4.67
964.533	44.37
964.961	41.37
965.389	16.87
965.817	0.37
966.245	2.27
966.672	-2.83
967.1	-8.73
967.528	2.27
967.956	-0.83
968.383	-2.93
968.811	-7.63
969.239	-3.33
969.666	-3.93
970.094	-2.03
970.522	-2.03
970.949	-0.73
971.377	-5.73
971.804	-1.53
972.232	-2.83
972.659	-3.73
973.087	-3.93
973.514	-5.63
973.941	-4.63
974.369	2.87
974.796	3.57
975.223	-2.53
975.651	-2.03
976.078	3.47
976.505	-4.13
976.932	1.67
977.359	11.67
977.786	13.37
978.214	-3.33
978.641	-2.43
979.068	-2.63
979.495	-4.73
979.922	-5.93
980.349	-3.83
980.776	2.07
981.202	-5.33
981.629	-0.33
982.056	1.87
982.483	-7.73
982.91	-0.33
983.337	-6.03
983.763	-2.13
984.19	-4.83
984.617	-6.63
985.043	-11.83
985.47	0.27
985.897	-3.43
986.323	-5.93
986.75	0.07
987.176	1.57
987.603	-0.83
988.029	-4.13
988.456	-7.73
988.882	2.07
989.308	-9.23
989.735	-6.73
990.161	-0.73
990.587	-2.73
991.014	5.67
991.44	6.77
991.866	-2.43
992.292	-4.23
992.719	-7.13
993.145	3.17
993.571	-4.73
993.997	-1.33
994.423	-0.23
994.849	-0.23
995.275	3.27
995.701	-0.53
996.127	-3.33
996.553	1.07
996.979	-3.33
997.405	-6.23
997.83	-1.13
998.256	-7.23
998.682	-3.83
999.108	-9.93
999.534	-3.93
999.959	-1.73
1000.385	-2.53
1000.811	-1.23
1001.236	-11.83
1001.662	-12.03
1002.087	-10.43
1002.513	-1.23
1002.938	1.27
1003.364	-2.33
1003.789	-2.93
1004.215	3.27
1004.64	-5.23
1005.066	0.87
1005.491	0.07
1005.916	1.97
1006.342	-5.93
1006.767	-2.93
1007.192	1.87
1007.617	-0.53
1008.042	0.27
1008.468	-0.73
1008.893	-6.53
1009.318	-6.53
1009.743	-5.63
1010.168	1.17
1010.593	1.77
1011.018	-4.33
1011.443	-2.53
1011.868	-0.93
1012.293	-6.03
1012.718	-12.03
1013.143	-2.33
1013.567	3.77
1013.992	-4.53
1014.417	-8.13
1014.842	-0.73
1015.267	-3.03
1015.691	-2.23
1016.116	5.87
1016.541	2.67
1016.965	-0.03
1017.39	6.27
1017.814	-0.53
1018.239	0.07
1018.663	-9.33
1019.088	-13.23
1019.512	-3.53
1019.937	-3.63
1020.361	-5.93
1020.785	-11.63
1021.21	-7.93
1021.634	-5.23
1022.058	1.87
1022.483	-2.63
1022.907	-1.73
1023.331	-0.53
1023.755	-8.43
1024.179	-0.63
1024.604	-7.43
1025.028	-8.53
1025.452	-5.23
1025.876	-7.13
1026.3	-0.33
1026.724	-9.03
1027.148	-9.33
1027.572	-9.23
1027.996	2.57
1028.42	-0.83
1028.843	-5.63
1029.267	-9.33
1029.691	-5.93
1030.115	-4.03
1030.539	-12.83
1030.962	-4.23
1031.386	-6.83
1031.81	0.37
1032.233	-5.13
1032.657	-3.63
1033.08	-4.33
1033.504	-7.73
1033.927	1.67
1034.351	0.27
1034.774	-3.63
1035.198	-5.83
1035.621	-6.43
1036.045	-6.23
1036.468	-2.83
1036.891	-12.13
1037.315	-9.23
1037.738	-5.63
1038.161	-2.23
1038.584	-9.43
1039.008	-8.53
1039.431	-6.73
1039.854	-0.33
1040.277	-6.63
1040.7	-14.73
1041.123	-1.73
1041.546	-6.23
1041.969	-6.63
1042.392	-5.53
1042.815	-1.13
1043.238	0.67
1043.661	-10.33
1044.084	-9.23
1044.507	-9.23
1044.93	-1.53
1045.352	-8.83
1045.775	-2.43
1046.198	-1.23
1046.621	-1.23
1047.043	-6.03
1047.466	5.27
1047.889	-2.03
1048.311	0.57
1048.734	-3.83
1049.156	-5.43
1049.579	-1.13
1050.001	-10.13
1050.424	-2.13
1050.846	-2.83
1051.269	-7.13
1051.691	-13.33
1052.113	-8.83
1052.536	0.07
1052.958	-4.23
1053.38	-0.23
1053.802	-11.53
1054.225	5.97
1054.647	-8.13
1055.069	-12.63
1055.491	-3.73
1055.913	-14.43
1056.335	-3.03
1056.757	-4.43
1057.179	-6.43
1057.601	-8.63
1058.023	-8.03
1058.445	-8.73
1058.867	-2.93
1059.289	-4.83
1059.711	-5.83
1060.133	-6.43
1060.555	-8.03
1060.976	-3.83
1061.398	-10.23
1061.82	-6.73
1062.241	-4.63
1062.663	-5.23
1063.085	-2.63
1063.506	-2.23
1063.928	-4.53
1064.35	-3.53
1064.771	-19.43
1065.193	-5.43
1065.614	-12.63
1066.035	-4.83
1066.457	-5.13
1066.878	0.67
1067.3	-11.03
1067.721	-0.93
1068.142	-5.93
1068.564	-7.03
1068.985	-8.33
1069.406	-3.43
1069.827	-3.43
1070.248	-3.73
1070.67	-6.13
1071.091	-4.53
1071.512	-1.23
1071.933	-8.03
1072.354	-6.03
1072.775	-5.83
1073.196	-11.53
1073.617	-0.63
1074.038	-12.23
1074.459	-7.73
1074.88	-11.73
1075.3	-0.53
1075.721	-2.33
1076.142	-2.83
1076.563	-2.53
1076.983	-8.23
1077.404	-10.03
1077.825	-14.13
1078.246	-3.23
1078.666	-14.93
1079.087	-0.33
1079.507	-6.23
1079.928	-0.03
1080.348	-2.63
1080.769	-6.53
1081.189	-1.33
1081.61	-8.63
1082.03	-6.93
1082.451	-5.93
1082.871	-0.53
1083.291	-6.63
1083.711	-12.53
1084.132	-2.73
1084.552	-6.83
1084.972	-2.33
1085.392	-11.43
1085.813	-8.13
1086.233	-8.43
1086.653	-7.33
1087.073	-5.63
1087.493	-9.83
1087.913	-8.43
1088.333	-11.13
1088.753	-1.23
1089.173	2.47
1089.593	-8.33
1090.013	-1.13
1090.433	0.67
1090.852	-5.83
1091.272	-7.63
1091.692	-6.33
1092.112	-9.03
1092.531	-9.03
1092.951	-12.33
1093.371	-3.63
1093.79	-4.43
1094.21	-9.23
1094.63	-5.13
1095.049	-2.83
1095.469	-1.13
1095.888	-7.53
1096.308	3.57
1096.727	0.67
1097.146	-7.83
1097.566	-2.63
1097.985	-11.73
1098.405	-1.73
1098.824	-5.03
1099.243	-8.03
1099.662	-10.23
1100.082	-0.43
1100.501	-2.83
1100.92	-9.03
1101.339	-7.13
1101.758	-9.13
