Data from 20171114-ORNL-Ar_H_NY_Subt18_08-09-09-219.txt Node
Date: Tue Nov 14 08:09:09 EST 2017
User: Ender
Spectrometer: HR+D1039
Trigger mode: 0
Integration Time (sec): 2.730000E-2
Scans to average: 10
Electric dark correction enabled: true
Nonlinearity correction enabled: false
Boxcar width: 0
XAxis mode: Wavelengths
Number of Pixels in Spectrum: 2048
>>>>>Begin Spectral Data<<<<<
187.836	-2.33
188.309	-2.33
188.782	-2.33
189.255	0.07
189.728	4.57
190.201	1.57
190.674	-0.63
191.147	2.27
191.619	-4.43
192.092	3.47
192.565	5.57
193.038	5.87
193.511	-0.33
193.984	-2.13
194.456	-3.13
194.929	-3.43
195.402	-4.63
195.874	-2.43
196.347	4.27
196.82	-10.93
197.292	1.57
197.765	-1.53
198.237	-0.53
198.71	1.87
199.182	5.27
199.655	-2.73
200.127	2.67
200.6	-4.33
201.072	1.37
201.544	-0.23
202.017	2.17
202.489	-0.33
202.961	0.67
203.433	-1.53
203.906	-2.83
204.378	-2.83
204.85	-0.13
205.322	-3.63
205.794	-6.53
206.266	-5.43
206.739	-5.23
207.211	7.87
207.683	-6.73
208.155	-9.03
208.627	-10.63
209.099	-0.43
209.57	-7.13
210.042	-6.13
210.514	-3.83
210.986	-7.33
211.458	-9.53
211.93	-5.23
212.402	3.87
212.873	-6.43
213.345	-5.83
213.817	-12.33
214.288	-7.43
214.76	-10.63
215.232	-1.83
215.703	-2.53
216.175	-0.23
216.646	-3.43
217.118	-9.13
217.589	-3.23
218.061	-3.13
218.532	-5.93
219.004	0.77
219.475	-9.73
219.946	-6.43
220.418	-2.73
220.889	-3.13
221.36	1.37
221.832	-6.53
222.303	-5.73
222.774	-3.83
223.245	-4.73
223.717	-5.33
224.188	-9.43
224.659	-9.03
225.13	-2.73
225.601	3.07
226.072	0.57
226.543	-0.93
227.014	-1.43
227.485	-3.83
227.956	-7.93
228.427	2.37
228.898	1.07
229.369	0.87
229.839	-8.93
230.31	-7.53
230.781	0.97
231.252	-3.83
231.722	-10.83
232.193	-9.63
232.664	-6.23
233.135	-2.33
233.605	-2.03
234.076	-14.03
234.546	-2.93
235.017	1.77
235.487	1.27
235.958	-10.23
236.428	-9.13
236.899	-4.13
237.369	-5.53
237.84	-4.83
238.31	-1.23
238.78	-2.43
239.251	-4.53
239.721	-4.93
240.191	-1.03
240.662	-1.13
241.132	-4.43
241.602	-3.03
242.072	-2.93
242.542	4.47
243.013	-5.03
243.483	0.57
243.953	-4.23
244.423	-5.43
244.893	-5.13
245.363	-0.23
245.833	-2.63
246.303	-6.63
246.773	1.17
247.243	-0.43
247.712	-0.93
248.182	0.87
248.652	0.07
249.122	-5.13
249.592	2.47
250.061	2.07
250.531	10.57
251.001	-8.53
251.471	-2.93
251.94	8.37
252.41	-2.13
252.879	-8.23
253.349	4.67
253.818	-2.13
254.288	4.17
254.757	-0.23
255.227	-7.83
255.696	-4.03
256.166	0.47
256.635	3.67
257.105	5.07
257.574	3.77
258.043	1.47
258.513	1.37
258.982	4.27
259.451	-2.93
259.92	0.67
260.389	-1.63
260.859	1.47
261.328	2.27
261.797	0.87
262.266	-4.63
262.735	6.27
263.204	3.87
263.673	-6.03
264.142	3.67
264.611	-6.43
265.08	-3.73
265.549	-5.93
266.018	3.97
266.487	-5.83
266.955	-2.73
267.424	-0.23
267.893	0.77
268.362	-1.33
268.83	-1.03
269.299	5.67
269.768	-0.23
270.236	-0.33
270.705	2.87
271.174	-1.53
271.642	0.17
272.111	-2.43
272.579	-1.23
273.048	-1.13
273.516	-5.63
273.985	4.37
274.453	5.17
274.922	7.67
275.39	5.87
275.858	-3.63
276.327	4.17
276.795	11.77
277.263	-0.83
277.731	14.17
278.2	5.87
278.668	5.37
279.136	11.37
279.604	-2.83
280.072	1.37
280.54	6.87
281.008	5.67
281.477	10.97
281.945	8.27
282.413	10.57
282.881	7.47
283.348	4.57
283.816	7.57
284.284	4.07
284.752	13.97
285.22	9.77
285.688	9.07
286.156	4.37
286.623	15.27
287.091	7.27
287.559	11.47
288.026	6.97
288.494	3.57
288.962	1.77
289.429	0.37
289.897	13.17
290.364	6.57
290.832	13.27
291.3	11.57
291.767	10.97
292.234	10.37
292.702	6.97
293.169	14.57
293.637	15.27
294.104	19.37
294.571	0.27
295.039	10.97
295.506	2.27
295.973	11.67
296.44	8.87
296.908	4.57
297.375	9.37
297.842	12.27
298.309	8.47
298.776	0.87
299.243	17.17
299.71	0.47
300.177	17.47
300.644	17.07
301.111	13.07
301.578	13.87
302.045	6.37
302.512	16.07
302.979	16.07
303.446	18.97
303.913	15.37
304.379	13.97
304.846	20.17
305.313	10.87
305.78	15.27
306.246	14.07
306.713	15.87
307.18	18.97
307.646	17.97
308.113	17.47
308.579	16.17
309.046	14.07
309.512	17.57
309.979	12.77
310.445	20.57
310.912	22.57
311.378	24.67
311.845	21.67
312.311	19.77
312.777	24.47
313.244	21.57
313.71	31.77
314.176	24.87
314.642	18.07
315.109	21.57
315.575	23.77
316.041	29.27
316.507	21.37
316.973	24.87
317.439	20.97
317.905	27.27
318.371	31.57
318.837	26.47
319.303	27.67
319.769	25.67
320.235	21.07
320.701	23.87
321.167	26.27
321.633	20.47
322.099	26.17
322.564	30.77
323.03	25.27
323.496	23.57
323.962	26.77
324.427	22.77
324.893	28.67
325.359	25.77
325.824	29.37
326.29	26.27
326.755	25.77
327.221	29.77
327.686	31.17
328.152	39.27
328.617	32.17
329.083	37.97
329.548	36.97
330.014	33.17
330.479	28.77
330.944	32.97
331.41	35.37
331.875	34.37
332.34	32.67
332.805	33.17
333.271	39.37
333.736	26.37
334.201	36.57
334.666	36.27
335.131	41.77
335.596	35.57
336.061	40.37
336.526	26.57
336.991	36.47
337.456	45.77
337.921	44.77
338.386	33.37
338.851	34.47
339.316	41.57
339.781	34.07
340.246	39.57
340.711	36.07
341.175	38.97
341.64	32.07
342.105	44.47
342.569	44.87
343.034	41.87
343.499	44.27
343.963	41.77
344.428	49.77
344.893	50.07
345.357	47.07
345.822	44.57
346.286	60.07
346.751	57.07
347.215	53.57
347.679	56.67
348.144	69.37
348.608	66.47
349.073	49.47
349.537	62.07
350.001	62.97
350.465	69.67
350.93	62.37
351.394	63.67
351.858	59.17
352.322	68.87
352.786	64.37
353.25	75.87
353.715	83.37
354.179	80.77
354.643	93.07
355.107	93.37
355.571	85.87
356.035	76.87
356.498	86.27
356.962	92.37
357.426	93.27
357.89	92.57
358.354	70.97
358.818	65.27
359.281	67.27
359.745	67.87
360.209	60.07
360.673	59.47
361.136	71.67
361.6	77.27
362.064	63.77
362.527	70.07
362.991	74.97
363.454	67.07
363.918	63.57
364.381	69.47
364.845	67.87
365.308	68.47
365.772	72.97
366.235	71.87
366.698	62.07
367.162	71.17
367.625	75.57
368.088	68.47
368.552	75.67
369.015	73.57
369.478	86.57
369.941	82.57
370.404	78.87
370.867	89.77
371.331	84.77
371.794	89.27
372.257	82.57
372.72	90.87
373.183	82.97
373.646	84.07
374.109	82.17
374.572	92.97
375.035	85.77
375.497	84.27
375.96	90.77
376.423	86.47
376.886	94.07
377.349	98.57
377.811	86.37
378.274	93.47
378.737	90.67
379.199	89.37
379.662	96.27
380.125	93.37
380.587	90.87
381.05	101.67
381.512	99.47
381.975	115.97
382.437	107.27
382.9	103.87
383.362	108.17
383.825	114.37
384.287	108.77
384.75	103.37
385.212	121.17
385.674	118.07
386.136	115.97
386.599	105.47
387.061	114.37
387.523	111.17
387.985	111.87
388.447	116.97
388.91	112.47
389.372	113.97
389.834	114.97
390.296	115.07
390.758	121.57
391.22	126.77
391.682	134.97
392.144	145.57
392.606	133.17
393.068	128.87
393.529	140.37
393.991	122.87
394.453	122.17
394.915	128.27
395.377	120.47
395.838	125.47
396.3	123.77
396.762	130.47
397.224	126.67
397.685	122.47
398.147	123.77
398.608	120.77
399.07	115.17
399.531	130.17
399.993	136.17
400.454	147.77
400.916	142.27
401.377	141.47
401.839	144.77
402.3	137.57
402.762	155.07
403.223	165.87
403.684	157.07
404.145	149.57
404.607	149.47
405.068	150.17
405.529	154.87
405.99	165.17
406.451	160.57
406.913	163.87
407.374	156.97
407.835	160.87
408.296	156.27
408.757	163.07
409.218	172.97
409.679	168.07
410.14	162.57
410.601	161.77
411.062	165.97
411.522	170.97
411.983	171.77
412.444	165.47
412.905	180.17
413.366	182.17
413.826	188.97
414.287	215.07
414.748	248.57
415.208	241.77
415.669	205.47
416.13	200.17
416.59	190.47
417.051	206.37
417.511	209.87
417.972	233.07
418.432	238.87
418.893	277.07
419.353	239.27
419.814	192.37
420.274	186.87
420.734	174.57
421.195	192.17
421.655	188.87
422.115	186.67
422.576	188.47
423.036	193.07
423.496	199.87
423.956	209.97
424.416	221.87
424.876	257.97
425.336	248.57
425.797	251.17
426.257	239.97
426.717	229.27
427.177	228.57
427.637	220.77
428.097	231.87
428.556	235.97
429.016	253.37
429.476	250.37
429.936	260.87
430.396	258.17
430.856	276.87
431.315	300.47
431.775	336.27
432.235	362.47
432.694	331.77
433.154	339.77
433.614	365.47
434.073	319.57
434.533	271.47
434.993	258.97
435.452	268.37
435.912	275.67
436.371	280.87
436.83	261.57
437.29	247.57
437.749	237.07
438.209	238.47
438.668	260.87
439.127	264.87
439.587	247.97
440.046	242.37
440.505	251.07
440.964	271.27
441.424	307.37
441.883	298.67
442.342	254.57
442.801	223.97
443.26	221.07
443.719	220.27
444.178	214.47
444.637	210.67
445.096	213.97
445.555	217.37
446.014	224.17
446.473	226.97
446.932	235.37
447.391	225.97
447.849	231.87
448.308	225.77
448.767	222.97
449.226	232.37
449.685	235.17
450.143	251.27
450.602	234.37
451.061	227.87
451.519	233.77
451.978	232.97
452.436	232.87
452.895	239.07
453.353	247.17
453.812	238.37
454.27	239.87
454.729	242.07
455.187	243.37
455.646	244.77
456.104	246.47
456.562	262.07
457.021	266.67
457.479	259.17
457.937	273.67
458.395	266.37
458.854	253.07
459.312	262.77
459.77	270.77
460.228	265.67
460.686	241.07
461.144	253.67
461.602	238.87
462.06	244.37
462.518	260.37
462.976	259.17
463.434	262.97
463.892	263.37
464.35	281.87
464.808	290.17
465.266	270.87
465.724	266.27
466.181	275.47
466.639	269.77
467.097	281.47
467.555	301.87
468.012	309.97
468.47	309.67
468.928	328.77
469.385	345.37
469.843	349.97
470.3	342.07
470.758	355.77
471.215	378.27
471.673	404.57
472.13	393.87
472.588	424.47
473.045	382.17
473.503	382.87
473.96	399.57
474.417	405.37
474.875	433.27
475.332	471.17
475.789	453.27
476.246	461.37
476.704	482.77
477.161	502.37
477.618	511.47
478.075	554.57
478.532	598.17
478.989	670.97
479.446	764.47
479.903	736.07
480.36	766.97
480.817	819.37
481.274	913.87
481.731	990.97
482.188	1061.17
482.645	1174.07
483.102	1263.47
483.558	1388.27
484.015	1433.17
484.472	1403.87
484.929	1357.27
485.385	1317.37
485.842	1287.67
486.299	1230.07
486.755	1202.37
487.212	1036.17
487.668	886.97
488.125	822.97
488.582	750.17
489.038	729.87
489.494	694.97
489.951	673.67
490.407	652.67
490.864	632.27
491.32	621.47
491.776	633.67
492.233	646.27
492.689	604.77
493.145	598.57
493.602	591.97
494.058	606.97
494.514	614.07
494.97	631.57
495.426	643.07
495.882	622.37
496.338	610.67
496.794	612.57
497.251	613.27
497.707	624.47
498.163	626.77
498.618	627.77
499.074	631.57
499.53	658.67
499.986	667.97
500.442	638.27
500.898	618.87
501.354	614.67
501.809	629.27
502.265	626.87
502.721	642.67
503.177	643.37
503.632	645.37
504.088	641.67
504.543	663.17
504.999	682.97
505.455	652.37
505.91	629.97
506.366	627.87
506.821	634.77
507.277	633.17
507.732	632.47
508.187	635.67
508.643	650.17
509.098	640.77
509.553	654.47
510.009	675.07
510.464	675.17
510.919	701.37
511.375	695.07
511.83	711.77
512.285	732.67
512.74	756.47
513.195	781.87
513.65	767.37
514.105	769.77
514.56	765.37
515.015	781.37
515.47	801.37
515.925	785.37
516.38	786.67
516.835	789.27
517.29	779.27
517.745	777.07
518.2	767.87
518.655	765.47
519.109	756.17
519.564	746.17
520.019	724.97
520.474	720.07
520.928	726.47
521.383	722.67
521.838	718.07
522.292	714.67
522.747	710.47
523.201	710.47
523.656	701.17
524.11	711.07
524.565	695.87
525.019	690.77
525.474	706.37
525.928	697.47
526.382	698.67
526.837	699.57
527.291	708.67
527.745	694.07
528.2	704.37
528.654	703.17
529.108	691.27
529.562	693.07
530.016	701.57
530.47	699.97
530.925	691.47
531.379	692.07
531.833	697.37
532.287	698.77
532.741	705.07
533.195	706.17
533.649	711.87
534.103	716.57
534.556	712.47
535.01	716.07
535.464	709.17
535.918	727.97
536.372	719.47
536.826	714.77
537.279	713.77
537.733	720.87
538.187	719.27
538.64	721.87
539.094	724.77
539.548	732.97
540.001	723.47
540.455	728.47
540.908	732.87
541.362	754.37
541.815	755.77
542.269	774.97
542.722	766.67
543.175	777.57
543.629	774.87
544.082	794.87
544.536	797.57
544.989	796.87
545.442	803.37
545.895	809.07
546.349	801.77
546.802	801.07
547.255	806.67
547.708	827.17
548.161	826.87
548.614	827.77
549.067	846.87
549.52	823.37
549.973	815.87
550.426	825.87
550.879	803.97
551.332	812.77
551.785	817.77
552.238	825.27
552.691	838.27
553.144	845.27
553.596	860.27
554.049	882.57
554.502	914.27
554.955	923.87
555.407	922.97
555.86	911.47
556.313	902.57
556.765	886.67
557.218	893.17
557.67	885.07
558.123	880.47
558.576	875.57
559.028	899.87
559.48	902.07
559.933	889.17
560.385	861.27
560.838	828.17
561.29	805.07
561.742	798.57
562.195	783.87
562.647	770.97
563.099	796.37
563.551	788.77
564.004	786.57
564.456	782.87
564.908	771.17
565.36	754.57
565.812	738.77
566.264	726.87
566.716	734.37
567.168	706.87
567.62	732.27
568.072	707.07
568.524	703.47
568.976	712.07
569.428	690.87
569.88	701.57
570.332	692.07
570.784	700.47
571.235	692.67
571.687	707.37
572.139	719.77
572.59	725.57
573.042	724.47
573.494	725.67
573.945	719.27
574.397	698.77
574.849	716.57
575.3	696.37
575.752	700.27
576.203	695.67
576.655	702.07
577.106	677.17
577.557	675.87
578.009	685.47
578.46	680.77
578.912	675.17
579.363	686.07
579.814	677.97
580.265	675.47
580.717	679.57
581.168	685.67
581.619	693.57
582.07	699.77
582.521	681.37
582.972	688.57
583.423	693.07
583.875	691.17
584.326	705.17
584.777	718.97
585.227	718.77
585.678	744.07
586.129	768.77
586.58	807.07
587.031	820.27
587.482	841.17
587.933	894.47
588.384	855.17
588.834	808.77
589.285	795.47
589.736	795.77
590.186	786.97
590.637	789.27
591.088	764.67
591.538	754.57
591.989	746.67
592.439	737.77
592.89	727.17
593.34	726.87
593.791	729.47
594.241	704.37
594.692	713.47
595.142	713.77
595.593	707.27
596.043	713.37
596.493	719.57
596.943	723.07
597.394	743.67
597.844	730.07
598.294	752.37
598.744	772.67
599.195	801.57
599.645	847.77
600.095	895.97
600.545	942.38
600.995	995.88
601.445	1052.77
601.895	1106.77
602.345	1155.47
602.795	1150.38
603.245	1094.67
603.695	1044.27
604.145	979.67
604.594	930.77
605.044	876.07
605.494	828.07
605.944	778.97
606.393	754.77
606.843	738.57
607.293	748.37
607.743	745.97
608.192	760.47
608.642	763.87
609.091	768.37
609.541	785.47
609.99	782.97
610.44	780.87
610.889	734.37
611.339	718.57
611.788	695.17
612.238	702.97
612.687	713.17
613.136	709.77
613.586	729.07
614.035	706.87
614.484	726.27
614.933	730.37
615.383	720.87
615.832	727.97
616.281	713.07
616.73	693.87
617.179	672.57
617.628	663.97
618.077	645.47
618.526	639.97
618.975	621.77
619.424	631.37
619.873	626.17
620.322	634.47
620.771	622.77
621.22	613.17
621.669	599.27
622.118	595.27
622.567	591.67
623.015	583.87
623.464	581.67
623.913	576.77
624.361	563.47
624.81	559.77
625.259	571.57
625.707	565.97
626.156	565.47
626.604	581.37
627.053	574.87
627.501	573.07
627.95	588.97
628.398	591.07
628.847	585.67
629.295	577.97
629.744	592.37
630.192	579.37
630.64	573.17
631.089	569.07
631.537	553.77
631.985	539.57
632.433	544.37
632.881	539.87
633.33	544.27
633.778	549.17
634.226	533.17
634.674	548.17
635.122	556.77
635.57	567.87
636.018	579.17
636.466	573.27
636.914	576.37
637.362	585.17
637.81	595.57
638.258	595.67
638.705	600.87
639.153	627.27
639.601	639.57
640.049	658.77
640.497	693.87
640.944	705.47
641.392	664.67
641.84	633.27
642.287	590.67
642.735	580.37
643.182	574.07
643.63	573.87
644.078	569.47
644.525	587.57
644.973	592.07
645.42	605.67
645.867	629.37
646.315	644.07
646.762	672.47
647.21	698.27
647.657	712.87
648.104	747.27
648.551	770.07
648.999	833.27
649.446	904.07
649.893	990.97
650.34	1129.88
650.787	1348.07
651.234	1664.57
651.682	2165.77
652.129	2937.67
652.576	4155.88
653.023	6056.47
653.47	8197.27
653.917	10073.88
654.363	11526.18
654.81	12588.18
655.257	11945.78
655.704	7935.58
656.151	4779.77
656.598	3126.67
657.044	2262.88
657.491	1747.17
657.938	1406.77
658.385	1181.58
658.831	1039.97
659.278	940.07
659.724	844.07
660.171	777.97
660.618	722.47
661.064	690.97
661.511	666.77
661.957	658.47
662.404	648.27
662.85	655.07
663.296	625.87
663.743	564.87
664.189	550.97
664.635	556.97
665.082	529.97
665.528	533.07
665.974	537.67
666.42	520.67
666.867	518.77
667.313	498.87
667.759	482.27
668.205	470.37
668.651	463.17
669.097	466.77
669.543	452.87
669.989	467.77
670.435	453.37
670.881	460.87
671.327	460.07
671.773	494.47
672.219	510.97
672.665	570.87
673.11	612.47
673.556	657.67
674.002	697.47
674.448	677.37
674.893	560.17
675.339	490.27
675.785	455.67
676.23	425.67
676.676	407.67
677.122	402.87
677.567	385.77
678.013	386.57
678.458	376.57
678.904	379.47
679.349	363.77
679.794	371.17
680.24	363.67
680.685	361.37
681.131	365.07
681.576	361.37
682.021	373.77
682.466	362.07
682.912	363.77
683.357	380.47
683.802	407.77
684.247	425.97
684.692	474.17
685.137	515.07
685.583	552.57
686.028	578.67
686.473	540.37
686.918	467.57
687.363	441.97
687.807	413.97
688.252	377.27
688.697	372.67
689.142	356.57
689.587	352.57
690.032	340.47
690.477	359.37
690.921	371.37
691.366	408.67
691.811	424.17
692.255	450.47
692.7	479.97
693.145	534.57
693.589	749.27
694.034	1227.57
694.478	1646.27
694.923	1808.27
695.367	2352.47
695.812	1252.07
696.256	526.77
696.701	392.27
697.145	359.87
697.59	343.87
698.034	327.07
698.478	338.17
698.922	332.57
699.367	340.37
699.811	349.87
700.255	368.97
700.699	400.87
701.143	449.17
701.588	497.87
702.032	538.57
702.476	544.17
702.92	504.47
703.364	523.87
703.808	701.57
704.252	1134.97
704.696	1567.17
705.14	1748.57
705.584	2215.57
706.027	1115.47
706.471	548.67
706.915	417.57
707.359	367.87
707.803	336.07
708.246	329.97
708.69	322.87
709.134	330.17
709.577	318.77
710.021	332.97
710.465	318.37
710.908	309.87
711.352	317.27
711.795	330.47
712.239	374.07
712.682	407.37
713.126	427.57
713.569	483.37
714.012	370.47
714.456	322.37
714.899	304.17
715.342	292.37
715.786	268.17
716.229	268.37
716.672	270.07
717.115	261.77
717.558	261.47
718.002	260.97
718.445	277.87
718.888	298.37
719.331	306.97
719.774	324.17
720.217	314.37
720.66	299.57
721.103	275.17
721.546	264.07
721.989	259.27
722.432	238.17
722.874	241.17
723.317	235.47
723.76	240.97
724.203	264.27
724.645	340.37
725.088	484.37
725.531	600.57
725.974	662.37
726.416	574.77
726.859	320.57
727.301	259.07
727.744	251.87
728.187	248.77
728.629	249.57
729.071	251.77
729.514	272.67
729.956	281.67
730.399	291.17
730.841	298.47
731.283	285.87
731.726	282.87
732.168	276.07
732.61	279.37
733.053	301.07
733.495	336.27
733.937	375.97
734.379	426.57
734.821	459.77
735.263	579.27
735.705	920.97
736.148	1741.88
736.59	2765.38
737.032	3166.67
737.474	2588.57
737.916	864.27
738.357	447.17
738.799	351.27
739.241	317.47
739.683	306.17
740.125	306.07
740.567	313.67
741.008	322.47
741.45	331.77
741.892	333.17
742.334	374.17
742.775	369.47
743.217	360.07
743.658	287.67
744.1	269.17
744.542	286.17
744.983	334.37
745.425	351.57
745.866	354.97
746.307	301.07
746.749	298.47
747.19	347.07
747.632	503.27
748.073	990.67
748.514	2050.18
748.956	3025.57
749.397	3821.28
749.838	3141.97
750.279	3055.87
750.72	1574.77
751.162	586.67
751.603	342.47
752.044	271.57
752.485	228.37
752.926	215.07
753.367	210.17
753.808	207.17
754.249	205.87
754.69	195.27
755.131	191.87
755.572	197.67
756.013	184.37
756.453	192.27
756.894	191.57
757.335	203.67
757.776	204.07
758.216	214.67
758.657	209.77
759.098	213.27
759.538	234.97
759.979	288.87
760.42	413.47
760.86	796.97
761.301	2071.67
761.741	4857.77
762.182	6682.48
762.622	4706.18
763.063	1401.97
763.503	566.77
763.943	342.57
764.384	288.47
764.824	267.07
765.264	249.37
765.705	223.27
766.145	191.87
766.585	175.07
767.025	176.07
767.465	176.37
767.906	193.97
768.346	209.77
768.786	216.77
769.226	231.87
769.666	334.87
770.106	692.67
770.546	1733.88
770.986	2767.07
771.426	2442.47
771.866	833.97
772.306	344.47
772.745	210.77
773.185	178.97
773.625	165.27
774.065	152.67
774.505	177.17
774.944	217.37
775.384	393.77
775.824	625.57
776.263	601.67
776.703	289.37
777.142	169.87
777.582	138.57
778.021	128.17
778.461	130.77
778.9	131.97
779.34	130.37
779.779	121.17
780.219	118.37
780.658	118.07
781.097	118.47
781.537	116.97
781.976	109.27
782.415	111.07
782.855	112.67
783.294	109.97
783.733	108.87
784.172	115.07
784.611	105.17
785.05	113.17
785.489	112.97
785.928	126.97
786.367	122.07
786.806	118.67
787.245	137.07
787.684	140.07
788.123	154.87
788.562	143.27
789.001	135.17
789.44	123.97
789.879	120.87
790.317	125.97
790.756	133.47
791.195	131.47
791.634	155.37
792.072	220.07
792.511	403.17
792.95	1117.38
793.388	2242.17
793.827	1974.87
794.265	704.27
794.704	290.67
795.142	192.57
795.581	160.77
796.019	145.87
796.458	137.67
796.896	128.77
797.334	141.47
797.773	165.17
798.211	241.97
798.649	495.77
799.087	1102.97
799.526	1720.67
799.964	2167.37
800.402	2072.27
800.84	797.17
801.278	328.17
801.716	202.27
802.154	168.77
802.592	156.07
803.03	144.67
803.468	143.27
803.906	158.77
804.344	161.17
804.782	150.97
805.22	144.17
805.658	142.67
806.096	154.17
806.533	164.27
806.971	186.77
807.409	234.07
807.847	350.67
808.284	749.37
808.722	2052.47
809.16	3479.88
809.597	3436.38
810.035	5824.47
810.472	5938.88
810.91	2203.17
811.347	860.17
811.785	432.47
812.222	273.87
812.66	208.87
813.097	173.37
813.535	156.17
813.972	135.27
814.409	128.17
814.846	115.77
815.284	118.47
815.721	110.97
816.158	106.07
816.595	120.87
817.032	159.07
817.47	187.27
817.907	132.27
818.344	104.57
818.781	102.97
819.218	97.37
819.655	139.87
820.092	199.07
820.529	224.07
820.966	179.87
821.403	138.07
821.839	103.47
822.276	99.87
822.713	128.37
823.15	141.47
823.587	125.17
824.023	165.47
824.46	349.27
824.897	988.48
825.333	1426.88
825.77	609.47
826.206	248.17
826.643	144.87
827.08	112.07
827.516	90.37
827.953	83.37
828.389	79.87
828.825	74.97
829.262	70.17
829.698	65.87
830.135	69.77
830.571	60.17
831.007	64.37
831.443	66.67
831.88	64.27
832.316	66.17
832.752	72.17
833.188	69.07
833.624	63.17
834.06	73.57
834.497	67.37
834.933	77.07
835.369	76.67
835.805	73.57
836.241	81.87
836.677	79.57
837.112	96.87
837.548	112.17
837.984	148.27
838.42	220.57
838.856	562.77
839.292	1659.67
839.727	2399.77
840.163	1138.47
840.599	1027.57
841.034	2184.27
841.47	2197.97
841.906	812.57
842.341	351.67
842.777	214.07
843.212	223.27
843.648	194.17
844.083	114.57
844.519	86.67
844.954	73.37
845.39	57.27
845.825	59.97
846.261	58.07
846.696	61.77
847.131	48.47
847.566	59.27
848.002	53.27
848.437	55.47
848.872	65.77
849.307	66.07
849.742	95.57
850.177	205.87
850.613	613.67
851.048	907.57
851.483	396.37
851.918	168.47
852.353	97.97
852.788	58.77
853.223	52.07
853.657	57.07
854.092	43.67
854.527	49.57
854.962	43.37
855.397	48.67
855.832	51.97
856.266	41.27
856.701	40.17
857.136	39.77
857.57	48.67
858.005	56.07
858.44	61.47
858.874	45.57
859.309	58.37
859.743	41.97
860.178	48.47
860.612	44.57
861.047	52.07
861.481	74.27
861.915	71.47
862.35	58.17
862.784	40.97
863.218	43.07
863.653	32.87
864.087	49.77
864.521	57.67
864.955	75.87
865.39	165.37
865.824	185.97
866.258	123.57
866.692	183.47
867.126	194.57
867.56	115.67
867.994	59.37
868.428	45.87
868.862	50.37
869.296	61.17
869.73	64.07
870.164	59.27
870.598	48.27
871.031	39.37
871.465	32.07
871.899	36.07
872.333	25.97
872.766	23.67
873.2	31.17
873.634	35.57
874.067	25.77
874.501	29.87
874.935	30.77
875.368	33.07
875.802	29.27
876.235	24.37
876.669	28.97
877.102	31.27
877.535	33.17
877.969	29.27
878.402	27.37
878.836	21.47
879.269	25.47
879.702	29.27
880.135	30.67
880.569	19.77
881.002	23.67
881.435	20.97
881.868	19.77
882.301	27.77
882.734	23.37
883.167	30.57
883.601	15.87
884.034	24.27
884.467	14.67
884.899	23.57
885.332	20.67
885.765	18.27
886.198	21.97
886.631	17.37
887.064	17.67
887.497	17.27
887.929	28.07
888.362	15.37
888.795	13.57
889.228	19.17
889.66	20.67
890.093	19.87
890.526	15.77
890.958	17.27
891.391	18.37
891.823	20.67
892.256	18.27
892.688	17.07
893.121	15.27
893.553	21.07
893.985	17.87
894.418	20.47
894.85	18.37
895.282	17.57
895.715	14.27
896.147	14.17
896.579	20.37
897.011	16.77
897.444	14.07
897.876	13.57
898.308	19.17
898.74	17.17
899.172	16.67
899.604	24.37
900.036	28.27
900.468	15.27
900.9	16.37
901.332	21.47
901.764	17.27
902.196	19.07
902.628	17.67
903.06	22.27
903.491	31.37
903.923	24.67
904.355	25.57
904.787	25.67
905.218	25.47
905.65	22.57
906.082	13.27
906.513	17.67
906.945	19.17
907.376	17.97
907.808	19.47
908.239	16.97
908.671	21.77
909.102	22.67
909.534	30.27
909.965	52.37
910.397	99.37
910.828	342.77
911.259	491.87
911.691	228.97
912.122	113.27
912.553	55.97
912.984	33.47
913.415	32.67
913.847	29.37
914.278	19.27
914.709	19.67
915.14	22.37
915.571	17.77
916.002	13.87
916.433	21.07
916.864	26.07
917.295	15.57
917.726	21.17
918.157	15.77
918.587	33.67
919.018	23.27
919.449	22.97
919.88	30.97
920.311	35.57
920.741	54.17
921.172	178.77
921.603	164.57
922.033	79.57
922.464	55.77
922.895	26.37
923.325	22.77
923.756	11.27
924.186	13.97
924.617	21.27
925.047	25.87
925.478	31.07
925.908	17.17
926.338	20.17
926.769	5.37
927.199	21.27
927.629	14.87
928.06	18.57
928.49	15.57
928.92	15.17
929.35	14.37
929.78	9.97
930.21	12.87
930.641	8.77
931.071	8.07
931.501	8.77
931.931	8.07
932.361	8.27
932.791	3.77
933.221	5.77
933.651	4.57
934.08	18.57
934.51	25.77
934.94	12.97
935.37	8.77
935.8	14.17
936.229	3.67
936.659	8.27
937.089	0.37
937.519	17.67
937.948	25.17
938.378	22.27
938.807	9.77
939.237	5.57
939.666	8.57
940.096	-1.63
940.525	9.07
940.955	6.87
941.384	2.57
941.814	-8.23
942.243	-4.83
942.672	9.77
943.102	-2.63
943.531	-1.33
943.96	9.07
944.39	5.27
944.819	8.17
945.248	2.47
945.677	5.07
946.106	6.87
946.535	8.07
946.964	1.47
947.393	3.27
947.822	2.27
948.251	-4.73
948.68	2.27
949.109	8.27
949.538	7.37
949.967	0.17
950.396	3.07
950.825	5.37
951.254	2.37
951.682	-9.03
952.111	7.07
952.54	4.37
952.969	-1.43
953.397	-3.33
953.826	-0.63
954.254	-3.43
954.683	4.07
955.112	-2.63
955.54	1.67
955.969	-4.53
956.397	0.57
956.826	-3.23
957.254	-1.13
957.682	1.67
958.111	4.27
958.539	3.37
958.967	1.77
959.396	-3.73
959.824	-1.33
960.252	5.77
960.68	-5.93
961.109	-1.03
961.537	-0.13
961.965	2.47
962.393	-4.23
962.821	-6.13
963.249	4.07
963.677	8.07
964.105	9.87
964.533	51.57
964.961	44.57
965.389	25.27
965.817	9.07
966.245	1.97
966.672	3.27
967.1	-1.73
967.528	-1.53
967.956	-1.13
968.383	-1.73
968.811	-0.13
969.239	-3.33
969.666	-7.93
970.094	1.87
970.522	2.17
970.949	-1.53
971.377	-4.63
971.804	-1.43
972.232	-3.63
972.659	-3.73
973.087	-1.63
973.514	-1.03
973.941	-0.93
974.369	2.57
974.796	6.07
975.223	3.27
975.651	-3.73
976.078	-0.93
976.505	-0.03
976.932	-0.63
977.359	15.77
977.786	13.57
978.214	3.57
978.641	-5.53
979.068	-2.83
979.495	-1.33
979.922	-2.03
980.349	-5.33
980.776	5.07
981.202	-2.63
981.629	6.77
982.056	3.87
982.483	-0.73
982.91	4.47
983.337	-1.53
983.763	2.77
984.19	-7.93
984.617	-1.23
985.043	-3.33
985.47	0.37
985.897	0.97
986.323	-3.43
986.75	1.77
987.176	-1.43
987.603	-2.03
988.029	2.57
988.456	-2.63
988.882	0.67
989.308	-4.53
989.735	-0.83
990.161	-1.93
990.587	-5.73
991.014	8.97
991.44	8.47
991.866	-2.63
992.292	-4.73
992.719	-1.53
993.145	2.27
993.571	-9.63
993.997	-0.63
994.423	5.87
994.849	3.57
995.275	2.87
995.701	2.17
996.127	-4.63
996.553	-1.63
996.979	-2.03
997.405	-2.03
997.83	-3.03
998.256	-6.93
998.682	-8.03
999.108	-8.63
999.534	-0.73
999.959	0.47
1000.385	-4.83
1000.811	-3.13
1001.236	-4.93
1001.662	-6.13
1002.087	-6.13
1002.513	2.77
1002.938	0.47
1003.364	0.17
1003.789	-3.03
1004.215	3.57
1004.64	0.47
1005.066	-0.93
1005.491	1.37
1005.916	-1.33
1006.342	1.87
1006.767	-10.03
1007.192	2.67
1007.617	-4.73
1008.042	-3.73
1008.468	-3.63
1008.893	1.37
1009.318	-3.33
1009.743	0.57
1010.168	1.57
1010.593	4.67
1011.018	-7.43
1011.443	1.97
1011.868	-0.43
1012.293	-0.43
1012.718	-7.43
1013.143	0.27
1013.567	8.67
1013.992	-5.23
1014.417	-11.73
1014.842	9.57
1015.267	-9.63
1015.691	-1.03
1016.116	1.47
1016.541	2.97
1016.965	4.17
1017.39	2.17
1017.814	2.27
1018.239	-2.03
1018.663	0.37
1019.088	-12.63
1019.512	-0.53
1019.937	-3.43
1020.361	-5.03
1020.785	-7.13
1021.21	-1.13
1021.634	-0.83
1022.058	-2.33
1022.483	-1.93
1022.907	-6.43
1023.331	-0.83
1023.755	0.67
1024.179	3.87
1024.604	-1.93
1025.028	-3.53
1025.452	-0.43
1025.876	-7.83
1026.3	-2.83
1026.724	-9.93
1027.148	-0.43
1027.572	-8.83
1027.996	-13.03
1028.42	-4.63
1028.843	-6.33
1029.267	-3.43
1029.691	-4.23
1030.115	-10.93
1030.539	-9.73
1030.962	-4.83
1031.386	-3.13
1031.81	-0.03
1032.233	-0.43
1032.657	-4.03
1033.08	-5.03
1033.504	-4.03
1033.927	-4.73
1034.351	-0.63
1034.774	-3.63
1035.198	-2.83
1035.621	-7.23
1036.045	-7.83
1036.468	-3.23
1036.891	-7.43
1037.315	-4.63
1037.738	-6.13
1038.161	-0.53
1038.584	-7.43
1039.008	-8.23
1039.431	-0.13
1039.854	-3.63
1040.277	-1.23
1040.7	-8.73
1041.123	-4.13
1041.546	-4.53
1041.969	-5.83
1042.392	-1.23
1042.815	-1.53
1043.238	0.07
1043.661	1.67
1044.084	-6.33
1044.507	-3.93
1044.93	-5.93
1045.352	-6.13
1045.775	2.47
1046.198	-2.23
1046.621	-2.63
1047.043	6.47
1047.466	1.77
1047.889	-5.23
1048.311	-8.73
1048.734	-8.13
1049.156	1.67
1049.579	-2.63
1050.001	-3.13
1050.424	-0.33
1050.846	-1.13
1051.269	-4.83
1051.691	-7.93
1052.113	-3.83
1052.536	-4.03
1052.958	0.27
1053.38	-5.53
1053.802	-4.13
1054.225	3.97
1054.647	-9.63
1055.069	-2.73
1055.491	2.57
1055.913	-8.53
1056.335	2.77
1056.757	0.97
1057.179	-1.23
1057.601	-3.73
1058.023	-4.93
1058.445	-8.73
1058.867	-5.53
1059.289	-1.23
1059.711	-10.43
1060.133	-4.93
1060.555	-2.53
1060.976	-7.33
1061.398	-3.43
1061.82	-4.73
1062.241	-1.83
1062.663	-5.93
1063.085	-8.13
1063.506	-4.73
1063.928	-2.53
1064.35	-1.33
1064.771	-11.53
1065.193	-6.93
1065.614	-8.63
1066.035	-4.43
1066.457	0.87
1066.878	5.87
1067.3	-3.13
1067.721	-3.53
1068.142	-6.63
1068.564	-4.43
1068.985	4.77
1069.406	-1.83
1069.827	-1.23
1070.248	-2.03
1070.67	-2.83
1071.091	0.47
1071.512	-2.63
1071.933	-5.83
1072.354	-9.03
1072.775	-5.13
1073.196	-8.73
1073.617	-4.63
1074.038	-10.33
1074.459	-5.03
1074.88	-7.83
1075.3	2.47
1075.721	-5.43
1076.142	-2.23
1076.563	-1.03
1076.983	-7.93
1077.404	-8.63
1077.825	-5.53
1078.246	0.67
1078.666	-11.93
1079.087	-10.13
1079.507	-6.33
1079.928	-2.63
1080.348	0.27
1080.769	-8.53
1081.189	0.97
1081.61	-4.93
1082.03	-4.43
1082.451	-8.33
1082.871	-4.03
1083.291	-8.63
1083.711	-10.03
1084.132	-0.13
1084.552	-7.93
1084.972	2.17
1085.392	-5.23
1085.813	-11.53
1086.233	-9.83
1086.653	-6.03
1087.073	-1.23
1087.493	-7.23
1087.913	-4.63
1088.333	-1.23
1088.753	-1.13
1089.173	2.97
1089.593	-2.73
1090.013	-0.33
1090.433	2.17
1090.852	-3.13
1091.272	-0.53
1091.692	-0.93
1092.112	-1.73
1092.531	-7.73
1092.951	-10.33
1093.371	-5.83
1093.79	-3.43
1094.21	-4.73
1094.63	2.57
1095.049	-1.33
1095.469	-2.73
1095.888	-1.73
1096.308	2.07
1096.727	1.97
1097.146	-8.93
1097.566	-1.83
1097.985	1.47
1098.405	-6.33
1098.824	-6.43
1099.243	-8.53
1099.662	-12.53
1100.082	-4.73
1100.501	-9.23
1100.92	-4.83
1101.339	-8.33
1101.758	-5.03
