Data from 20171114-ORNL-Ar_H_NY_Subt18_08-08-45-439.txt Node
Date: Tue Nov 14 08:08:45 EST 2017
User: Ender
Spectrometer: HR+D1039
Trigger mode: 0
Integration Time (sec): 2.730000E-2
Scans to average: 10
Electric dark correction enabled: true
Nonlinearity correction enabled: false
Boxcar width: 0
XAxis mode: Wavelengths
Number of Pixels in Spectrum: 2048
>>>>>Begin Spectral Data<<<<<
187.836	-3.31
188.309	-3.31
188.782	-3.31
189.255	-1.51
189.728	0.59
190.201	6.19
190.674	1.49
191.147	2.59
191.619	-8.71
192.092	2.09
192.565	4.89
193.038	2.39
193.511	-1.11
193.984	3.29
194.456	-1.91
194.929	-3.91
195.402	-4.11
195.874	0.99
196.347	-7.71
196.82	-4.01
197.292	6.49
197.765	-0.11
198.237	-3.21
198.71	0.39
199.182	-2.81
199.655	0.59
200.127	1.39
200.6	-2.21
201.072	-4.11
201.544	-1.91
202.017	0.89
202.489	2.49
202.961	-2.41
203.433	3.29
203.906	0.89
204.378	-3.11
204.85	-2.51
205.322	-11.41
205.794	-6.01
206.266	-3.31
206.739	-7.41
207.211	-2.11
207.683	-6.61
208.155	-6.31
208.627	-4.11
209.099	-4.21
209.57	-11.51
210.042	-8.41
210.514	-5.31
210.986	-2.21
211.458	-6.61
211.93	-3.01
212.402	0.89
212.873	-4.71
213.345	-11.31
213.817	-16.21
214.288	-0.41
214.76	-10.81
215.232	-10.91
215.703	-2.71
216.175	2.19
216.646	-10.81
217.118	-11.91
217.589	-7.11
218.061	-7.61
218.532	-1.41
219.004	-0.01
219.475	-10.31
219.946	-5.91
220.418	-10.91
220.889	2.39
221.36	-3.41
221.832	-5.91
222.303	-5.01
222.774	2.79
223.245	-3.61
223.717	-5.71
224.188	-6.31
224.659	-8.01
225.13	-8.11
225.601	3.79
226.072	1.89
226.543	1.89
227.014	-1.61
227.485	-0.21
227.956	-9.31
228.427	-0.21
228.898	-2.31
229.369	1.19
229.839	-4.91
230.31	-4.41
230.781	-3.61
231.252	-3.71
231.722	-10.71
232.193	-7.01
232.664	-5.61
233.135	-4.61
233.605	0.19
234.076	-9.71
234.546	-0.41
235.017	4.89
235.487	-4.81
235.958	-7.21
236.428	-3.61
236.899	-0.11
237.369	4.29
237.84	-4.11
238.31	-0.91
238.78	-4.71
239.251	-3.61
239.721	-4.71
240.191	3.19
240.662	-6.21
241.132	-2.01
241.602	-7.01
242.072	1.69
242.542	5.09
243.013	-3.71
243.483	3.69
243.953	3.29
244.423	0.39
244.893	-4.31
245.363	2.29
245.833	-0.11
246.303	-6.01
246.773	2.49
247.243	-4.51
247.712	-3.21
248.182	3.29
248.652	4.49
249.122	-7.11
249.592	-3.31
250.061	6.39
250.531	12.39
251.001	-1.11
251.471	4.59
251.94	4.49
252.41	-2.41
252.879	-1.41
253.349	6.59
253.818	1.79
254.288	-5.21
254.757	2.19
255.227	-4.91
255.696	-4.61
256.166	-0.51
256.635	1.69
257.105	4.49
257.574	-1.21
258.043	-1.21
258.513	2.29
258.982	3.09
259.451	-2.41
259.92	0.49
260.389	2.39
260.859	8.99
261.328	4.19
261.797	8.89
262.266	-1.21
262.735	7.59
263.204	0.09
263.673	-2.71
264.142	0.89
264.611	-2.51
265.08	5.29
265.549	-8.21
266.018	5.29
266.487	-2.31
266.955	-8.01
267.424	-3.21
267.893	1.99
268.362	-2.91
268.83	0.59
269.299	4.39
269.768	-3.21
270.236	-1.11
270.705	0.49
271.174	4.39
271.642	1.29
272.111	1.99
272.579	4.99
273.048	3.49
273.516	8.79
273.985	6.19
274.453	10.39
274.922	7.99
275.39	4.69
275.858	-2.91
276.327	6.29
276.795	10.49
277.263	3.19
277.731	14.39
278.2	14.59
278.668	12.09
279.136	13.99
279.604	8.89
280.072	9.09
280.54	9.09
281.008	3.89
281.477	8.49
281.945	7.09
282.413	6.49
282.881	13.59
283.348	3.79
283.816	7.19
284.284	10.29
284.752	12.09
285.22	10.89
285.688	9.39
286.156	2.39
286.623	19.89
287.091	12.09
287.559	11.59
288.026	8.79
288.494	7.19
288.962	4.89
289.429	8.19
289.897	18.49
290.364	7.49
290.832	9.29
291.3	5.79
291.767	14.99
292.234	17.19
292.702	4.79
293.169	12.39
293.637	14.69
294.104	13.89
294.571	6.09
295.039	9.69
295.506	10.49
295.973	13.79
296.44	6.79
296.908	10.09
297.375	10.89
297.842	10.99
298.309	13.39
298.776	6.89
299.243	9.89
299.71	8.29
300.177	9.39
300.644	18.29
301.111	9.49
301.578	16.39
302.045	7.09
302.512	15.89
302.979	23.19
303.446	18.69
303.913	12.19
304.379	8.49
304.846	15.69
305.313	16.39
305.78	16.09
306.246	17.09
306.713	15.99
307.18	18.89
307.646	21.99
308.113	20.59
308.579	16.89
309.046	18.59
309.512	19.59
309.979	14.69
310.445	17.79
310.912	22.29
311.378	22.89
311.845	21.29
312.311	21.09
312.777	19.49
313.244	22.79
313.71	28.79
314.176	22.09
314.642	24.29
315.109	22.89
315.575	27.39
316.041	29.19
316.507	24.89
316.973	20.29
317.439	28.99
317.905	29.29
318.371	33.59
318.837	23.49
319.303	26.19
319.769	23.89
320.235	29.09
320.701	28.69
321.167	30.09
321.633	26.69
322.099	30.39
322.564	34.79
323.03	35.19
323.496	29.89
323.962	31.89
324.427	28.29
324.893	34.89
325.359	27.59
325.824	30.89
326.29	28.39
326.755	30.39
327.221	34.99
327.686	36.29
328.152	37.69
328.617	33.69
329.083	37.79
329.548	38.79
330.014	42.49
330.479	33.89
330.944	39.59
331.41	35.99
331.875	34.39
332.34	35.69
332.805	41.29
333.271	37.69
333.736	34.09
334.201	49.79
334.666	39.99
335.131	45.19
335.596	48.19
336.061	40.09
336.526	30.89
336.991	35.99
337.456	49.49
337.921	44.59
338.386	42.69
338.851	40.49
339.316	42.59
339.781	38.49
340.246	43.99
340.711	38.19
341.175	47.19
341.64	38.19
342.105	45.59
342.569	47.09
343.034	51.39
343.499	45.79
343.963	45.19
344.428	56.89
344.893	54.29
345.357	49.99
345.822	52.19
346.286	58.39
346.751	56.69
347.215	55.79
347.679	57.19
348.144	74.89
348.608	67.39
349.073	59.99
349.537	63.79
350.001	64.69
350.465	73.39
350.93	71.29
351.394	71.39
351.858	61.09
352.322	73.89
352.786	73.49
353.25	81.49
353.715	92.09
354.179	83.19
354.643	99.89
355.107	108.29
355.571	87.19
356.035	82.89
356.498	99.09
356.962	97.99
357.426	103.59
357.89	93.99
358.354	80.79
358.818	75.39
359.281	77.19
359.745	68.39
360.209	68.59
360.673	66.69
361.136	68.79
361.6	69.19
362.064	74.79
362.527	69.59
362.991	77.69
363.454	70.19
363.918	68.49
364.381	71.59
364.845	74.39
365.308	80.39
365.772	78.29
366.235	76.99
366.698	73.69
367.162	75.99
367.625	77.69
368.088	79.69
368.552	84.89
369.015	82.89
369.478	86.29
369.941	88.69
370.404	84.49
370.867	90.49
371.331	94.39
371.794	102.49
372.257	92.79
372.72	98.19
373.183	93.99
373.646	86.29
374.109	93.79
374.572	94.79
375.035	96.89
375.497	91.59
375.96	98.29
376.423	94.89
376.886	103.19
377.349	98.49
377.811	97.29
378.274	105.39
378.737	94.69
379.199	99.49
379.662	102.89
380.125	98.09
380.587	105.79
381.05	105.99
381.512	107.49
381.975	119.79
382.437	107.29
382.9	106.59
383.362	120.99
383.825	122.79
384.287	118.79
384.75	112.39
385.212	113.69
385.674	129.79
386.136	123.89
386.599	118.49
387.061	115.89
387.523	121.59
387.985	121.69
388.447	128.89
388.91	124.39
389.372	131.69
389.834	123.19
390.296	122.69
390.758	124.99
391.22	137.59
391.682	155.49
392.144	178.49
392.606	163.09
393.068	138.19
393.529	144.19
393.991	144.19
394.453	128.49
394.915	133.79
395.377	140.69
395.838	150.39
396.3	133.59
396.762	134.99
397.224	130.79
397.685	127.09
398.147	129.69
398.608	123.59
399.07	124.19
399.531	129.09
399.993	141.29
400.454	149.79
400.916	138.29
401.377	138.49
401.839	144.89
402.3	152.99
402.762	160.89
403.223	167.99
403.684	161.49
404.145	157.69
404.607	150.39
405.068	151.99
405.529	160.59
405.99	175.89
406.451	171.69
406.913	171.49
407.374	165.79
407.835	157.29
408.296	158.79
408.757	168.69
409.218	176.29
409.679	172.99
410.14	172.29
410.601	172.59
411.062	173.59
411.522	179.09
411.983	177.59
412.444	168.69
412.905	181.59
413.366	181.69
413.826	191.89
414.287	216.89
414.748	265.79
415.208	251.89
415.669	211.39
416.13	203.99
416.59	198.59
417.051	217.29
417.511	219.09
417.972	236.99
418.432	250.69
418.893	286.59
419.353	251.59
419.814	191.59
420.274	185.19
420.734	186.49
421.195	202.99
421.655	194.89
422.115	192.49
422.576	192.19
423.036	187.99
423.496	208.69
423.956	218.19
424.416	230.99
424.876	262.19
425.336	254.99
425.797	259.69
426.257	254.99
426.717	229.59
427.177	234.29
427.637	218.19
428.097	226.29
428.556	239.79
429.016	268.69
429.476	260.89
429.936	269.09
430.396	273.49
430.856	288.19
431.315	305.99
431.775	341.39
432.235	368.19
432.694	345.39
433.154	349.29
433.614	377.49
434.073	328.59
434.533	278.89
434.993	259.49
435.452	265.99
435.912	283.49
436.371	275.69
436.83	277.89
437.29	266.49
437.749	251.19
438.209	246.99
438.668	269.79
439.127	284.59
439.587	254.09
440.046	245.89
440.505	259.69
440.964	279.69
441.424	320.49
441.883	307.69
442.342	265.29
442.801	228.29
443.26	221.39
443.719	227.69
444.178	226.79
444.637	212.29
445.096	219.19
445.555	223.59
446.014	231.39
446.473	229.19
446.932	238.59
447.391	228.39
447.849	233.79
448.308	220.79
448.767	227.19
449.226	239.29
449.685	237.09
450.143	246.79
450.602	243.39
451.061	234.49
451.519	236.09
451.978	230.39
452.436	232.29
452.895	238.79
453.353	259.69
453.812	245.59
454.27	247.89
454.729	241.69
455.187	250.49
455.646	247.39
456.104	246.49
456.562	263.79
457.021	272.29
457.479	269.39
457.937	271.19
458.395	266.89
458.854	253.59
459.312	255.89
459.77	275.29
460.228	263.19
460.686	251.09
461.144	259.89
461.602	246.89
462.06	252.79
462.518	260.79
462.976	260.89
463.434	259.79
463.892	260.59
464.35	282.59
464.808	286.69
465.266	274.69
465.724	272.59
466.181	277.09
466.639	273.09
467.097	295.29
467.555	302.49
468.012	303.69
468.47	312.39
468.928	329.89
469.385	353.29
469.843	346.79
470.3	360.49
470.758	376.19
471.215	393.99
471.673	408.89
472.13	403.49
472.588	426.59
473.045	380.09
473.503	381.09
473.96	402.69
474.417	409.79
474.875	442.59
475.332	493.29
475.789	465.29
476.246	470.59
476.704	491.39
477.161	510.79
477.618	534.19
478.075	570.59
478.532	614.19
478.989	683.99
479.446	803.09
479.903	762.29
480.36	795.69
480.817	831.19
481.274	923.59
481.731	1009.49
482.188	1087.59
482.645	1212.19
483.102	1312.79
483.558	1415.89
484.015	1456.79
484.472	1439.69
484.929	1389.39
485.385	1356.09
485.842	1331.39
486.299	1265.29
486.755	1231.09
487.212	1047.49
487.668	899.59
488.125	824.49
488.582	776.59
489.038	739.69
489.494	704.29
489.951	687.09
490.407	663.79
490.864	638.39
491.32	640.19
491.776	646.29
492.233	647.79
492.689	614.39
493.145	605.59
493.602	609.59
494.058	614.89
494.514	622.19
494.97	646.19
495.426	652.59
495.882	622.19
496.338	615.19
496.794	627.69
497.251	619.79
497.707	639.39
498.163	639.39
498.618	645.09
499.074	647.09
499.53	668.79
499.986	666.19
500.442	651.19
500.898	623.09
501.354	626.99
501.809	632.19
502.265	633.39
502.721	643.89
503.177	645.59
503.632	646.39
504.088	658.09
504.543	687.49
504.999	698.19
505.455	661.59
505.91	638.49
506.366	653.89
506.821	654.19
507.277	633.19
507.732	636.99
508.187	634.29
508.643	644.39
509.098	650.79
509.553	671.09
510.009	671.39
510.464	687.29
510.919	701.29
511.375	705.29
511.83	717.29
512.285	733.79
512.74	762.29
513.195	786.29
513.65	784.09
514.105	774.79
514.56	768.79
515.015	797.79
515.47	798.69
515.925	785.99
516.38	799.69
516.835	801.29
517.29	786.39
517.745	784.89
518.2	770.79
518.655	753.49
519.109	753.19
519.564	748.19
520.019	743.69
520.474	738.59
520.928	727.89
521.383	736.89
521.838	725.89
522.292	723.99
522.747	722.39
523.201	722.39
523.656	709.99
524.11	705.09
524.565	714.49
525.019	699.09
525.474	718.19
525.928	706.59
526.382	708.29
526.837	721.69
527.291	720.89
527.745	702.89
528.2	696.99
528.654	706.89
529.108	694.49
529.562	695.89
530.016	703.59
530.47	702.09
530.925	697.99
531.379	706.99
531.833	709.89
532.287	703.69
532.741	706.69
533.195	715.49
533.649	725.49
534.103	738.59
534.556	719.09
535.01	714.89
535.464	716.89
535.918	724.09
536.372	723.69
536.826	729.89
537.279	721.59
537.733	718.09
538.187	726.09
538.64	724.99
539.094	734.49
539.548	733.29
540.001	745.79
540.455	738.29
540.908	751.49
541.362	744.89
541.815	761.89
542.269	759.99
542.722	772.89
543.175	779.39
543.629	777.49
544.082	801.69
544.536	808.49
544.989	799.29
545.442	811.79
545.895	806.69
546.349	808.69
546.802	816.89
547.255	815.29
547.708	832.59
548.161	830.69
548.614	834.49
549.067	852.49
549.52	831.19
549.973	828.69
550.426	819.89
550.879	809.99
551.332	820.99
551.785	837.29
552.238	821.69
552.691	835.49
553.144	856.79
553.596	869.89
554.049	886.49
554.502	916.69
554.955	923.99
555.407	916.89
555.86	931.29
556.313	914.09
556.765	897.39
557.218	904.09
557.67	911.19
558.123	894.39
558.576	884.19
559.028	895.29
559.48	902.79
559.933	891.29
560.385	856.99
560.838	833.49
561.29	810.79
561.742	805.99
562.195	791.89
562.647	793.89
563.099	791.29
563.551	794.49
564.004	799.19
564.456	788.19
564.908	774.09
565.36	761.79
565.812	748.69
566.264	734.69
566.716	729.29
567.168	725.49
567.62	719.39
568.072	716.89
568.524	713.79
568.976	711.99
569.428	710.19
569.88	695.09
570.332	704.69
570.784	702.89
571.235	704.99
571.687	720.99
572.139	720.59
572.59	718.79
573.042	736.19
573.494	730.19
573.945	715.09
574.397	701.39
574.849	700.39
575.3	718.59
575.752	699.79
576.203	697.79
576.655	702.59
577.106	693.99
577.557	683.29
578.009	687.29
578.46	679.49
578.912	686.29
579.363	686.49
579.814	677.39
580.265	681.69
580.717	684.49
581.168	692.39
581.619	699.09
582.07	701.19
582.521	698.39
582.972	681.69
583.423	690.29
583.875	699.19
584.326	711.29
584.777	726.09
585.227	762.19
585.678	796.59
586.129	820.89
586.58	855.29
587.031	890.99
587.482	942.19
587.933	1004.19
588.384	947.39
588.834	848.49
589.285	789.69
589.736	796.89
590.186	788.09
590.637	783.89
591.088	769.79
591.538	758.69
591.989	747.09
592.439	749.89
592.89	733.39
593.34	734.29
593.791	724.69
594.241	720.59
594.692	722.99
595.142	711.69
595.593	710.09
596.043	717.19
596.493	731.09
596.943	729.59
597.394	734.29
597.844	735.89
598.294	751.09
598.744	767.59
599.195	805.39
599.645	845.29
600.095	889.39
600.545	949.79
600.995	985.59
601.445	1049.39
601.895	1106.99
602.345	1172.89
602.795	1142.89
603.245	1092.89
603.695	1039.79
604.145	983.09
604.594	940.19
605.044	897.49
605.494	828.99
605.944	772.89
606.393	770.69
606.843	747.39
607.293	734.49
607.743	746.59
608.192	768.29
608.642	770.39
609.091	780.89
609.541	791.99
609.99	786.29
610.44	775.49
610.889	752.39
611.339	718.39
611.788	703.59
612.238	711.39
612.687	722.19
613.136	726.59
613.586	728.99
614.035	722.99
614.484	732.89
614.933	737.69
615.383	733.99
615.832	732.99
616.281	729.49
616.73	689.09
617.179	685.09
617.628	658.69
618.077	639.49
618.526	640.59
618.975	632.49
619.424	641.59
619.873	637.39
620.322	638.29
620.771	622.29
621.22	619.39
621.669	613.89
622.118	612.59
622.567	603.39
623.015	586.49
623.464	582.39
623.913	581.09
624.361	564.89
624.81	570.59
625.259	568.59
625.707	576.39
626.156	577.99
626.604	591.79
627.053	581.89
627.501	568.59
627.95	573.99
628.398	600.09
628.847	588.09
629.295	586.99
629.744	589.29
630.192	588.19
630.64	574.19
631.089	568.19
631.537	559.39
631.985	561.89
632.433	566.49
632.881	568.59
633.33	576.09
633.778	567.19
634.226	548.89
634.674	552.59
635.122	568.89
635.57	578.49
636.018	580.29
636.466	579.59
636.914	566.89
637.362	587.39
637.81	601.59
638.258	599.59
638.705	598.79
639.153	622.49
639.601	638.49
640.049	671.99
640.497	695.49
640.944	713.69
641.392	657.19
641.84	623.99
642.287	594.49
642.735	589.29
643.182	585.99
643.63	581.49
644.078	580.59
644.525	588.19
644.973	598.09
645.42	612.79
645.867	630.09
646.315	650.99
646.762	671.19
647.21	707.99
647.657	723.39
648.104	749.29
648.551	775.69
648.999	850.09
649.446	916.49
649.893	1003.39
650.34	1142.99
650.787	1366.39
651.234	1693.19
651.682	2177.69
652.129	2983.69
652.576	4227.89
653.023	6164.49
653.47	8332.69
653.917	10297.49
654.363	11747.79
654.81	12873.69
655.257	12192.89
655.704	8128.59
656.151	4877.29
656.598	3191.69
657.044	2299.49
657.491	1779.69
657.938	1440.29
658.385	1221.29
658.831	1059.29
659.278	950.39
659.724	852.89
660.171	784.59
660.618	730.69
661.064	692.89
661.511	675.19
661.957	663.99
662.404	655.79
662.85	670.49
663.296	633.79
663.743	568.89
664.189	558.69
664.635	547.69
665.082	536.59
665.528	546.39
665.974	535.09
666.42	530.09
666.867	518.69
667.313	500.09
667.759	474.89
668.205	468.99
668.651	472.69
669.097	463.79
669.543	455.29
669.989	461.09
670.435	460.49
670.881	456.89
671.327	460.49
671.773	484.09
672.219	517.89
672.665	570.59
673.11	611.89
673.556	646.29
674.002	691.19
674.448	688.09
674.893	577.59
675.339	494.89
675.785	456.19
676.23	437.89
676.676	411.89
677.122	395.89
677.567	389.89
678.013	373.89
678.458	368.59
678.904	371.29
679.349	371.99
679.794	366.89
680.24	362.29
680.685	363.89
681.131	352.39
681.576	358.79
682.021	374.09
682.466	358.29
682.912	361.69
683.357	361.99
683.802	391.79
684.247	434.99
684.692	485.79
685.137	518.59
685.583	555.99
686.028	593.29
686.473	543.99
686.918	458.59
687.363	432.39
687.807	414.39
688.252	383.49
688.697	369.89
689.142	357.09
689.587	341.79
690.032	337.79
690.477	355.19
690.921	363.79
691.366	402.79
691.811	420.49
692.255	447.59
692.7	478.59
693.145	534.69
693.589	759.29
694.034	1213.89
694.478	1640.29
694.923	1811.29
695.367	2340.09
695.812	1254.49
696.256	522.59
696.701	392.59
697.145	363.69
697.59	337.49
698.034	337.99
698.478	342.89
698.922	334.59
699.367	330.59
699.811	356.09
700.255	370.39
700.699	395.59
701.143	440.79
701.588	496.69
702.032	529.59
702.476	533.09
702.92	512.59
703.364	519.09
703.808	695.99
704.252	1110.59
704.696	1553.89
705.14	1735.79
705.584	2214.79
706.027	1122.89
706.471	542.29
706.915	408.39
707.359	373.89
707.803	344.19
708.246	330.19
708.69	327.39
709.134	332.39
709.577	327.19
710.021	334.49
710.465	326.19
710.908	317.99
711.352	315.79
711.795	323.79
712.239	373.39
712.682	401.39
713.126	428.89
713.569	471.99
714.012	373.79
714.456	325.89
714.899	299.39
715.342	285.79
715.786	271.89
716.229	272.19
716.672	267.79
717.115	269.69
717.558	269.69
718.002	272.39
718.445	270.39
718.888	295.39
719.331	309.79
719.774	319.49
720.217	321.39
720.66	303.99
721.103	280.19
721.546	272.89
721.989	255.29
722.432	242.29
722.874	248.29
723.317	239.29
723.76	251.39
724.203	268.09
724.645	327.19
725.088	471.39
725.531	596.89
725.974	667.69
726.416	579.59
726.859	317.89
727.301	258.49
727.744	247.59
728.187	239.49
728.629	251.89
729.071	249.49
729.514	269.89
729.956	285.69
730.399	297.89
730.841	299.39
731.283	284.69
731.726	274.89
732.168	282.19
732.61	280.79
733.053	307.99
733.495	339.79
733.937	371.29
734.379	430.29
734.821	459.09
735.263	580.19
735.705	916.09
736.148	1722.19
736.59	2757.59
737.032	3160.29
737.474	2568.89
737.916	857.79
738.357	457.89
738.799	343.59
739.241	316.29
739.683	298.59
740.125	309.79
740.567	308.79
741.008	334.79
741.45	333.09
741.892	334.69
742.334	373.89
742.775	372.89
743.217	359.89
743.658	286.39
744.1	272.59
744.542	280.39
744.983	336.29
745.425	363.99
745.866	351.69
746.307	292.99
746.749	297.69
747.19	340.79
747.632	490.69
748.073	990.99
748.514	2032.39
748.956	3006.09
749.397	3802.59
749.838	3132.79
750.279	3071.39
750.72	1566.09
751.162	588.69
751.603	332.79
752.044	265.89
752.485	229.59
752.926	219.29
753.367	210.69
753.808	205.09
754.249	204.19
754.69	194.19
755.131	194.19
755.572	188.19
756.013	190.89
756.453	192.09
756.894	199.39
757.335	205.59
757.776	202.29
758.216	206.19
758.657	207.69
759.098	216.99
759.538	235.49
759.979	287.09
760.42	406.19
760.86	785.89
761.301	2021.99
761.741	4764.79
762.182	6632.89
762.622	4691.99
763.063	1391.49
763.503	570.19
763.943	350.99
764.384	303.79
764.824	294.69
765.264	286.19
765.705	240.69
766.145	194.19
766.585	184.69
767.025	179.99
767.465	177.49
767.906	207.79
768.346	227.39
768.786	245.99
769.226	241.39
769.666	325.99
770.106	685.69
770.546	1705.99
770.986	2761.19
771.426	2447.49
771.866	830.29
772.306	343.69
772.745	219.89
773.185	176.29
773.625	170.89
774.065	158.09
774.505	175.99
774.944	236.99
775.384	437.49
775.824	702.79
776.263	679.59
776.703	331.29
777.142	176.69
777.582	139.49
778.021	128.39
778.461	133.59
778.9	135.29
779.34	136.69
779.779	115.79
780.219	112.19
780.658	109.99
781.097	112.99
781.537	120.29
781.976	111.09
782.415	107.49
782.855	112.99
783.294	101.59
783.733	110.99
784.172	113.79
784.611	109.09
785.05	112.29
785.489	115.49
785.928	121.09
786.367	125.59
786.806	122.19
787.245	139.39
787.684	144.89
788.123	147.19
788.562	147.29
789.001	135.49
789.44	131.59
789.879	132.59
790.317	125.19
790.756	134.59
791.195	139.49
791.634	160.59
792.072	220.89
792.511	393.19
792.95	1102.49
793.388	2214.69
793.827	1967.79
794.265	701.39
794.704	300.59
795.142	193.79
795.581	159.19
796.019	146.99
796.458	138.49
796.896	133.79
797.334	144.29
797.773	170.99
798.211	239.09
798.649	492.59
799.087	1102.69
799.526	1713.09
799.964	2142.79
800.402	2090.09
800.84	794.99
801.278	328.79
801.716	204.69
802.154	164.79
802.592	153.19
803.03	145.69
803.468	141.79
803.906	150.79
804.344	157.69
804.782	146.59
805.22	141.79
805.658	135.79
806.096	159.69
806.533	165.19
806.971	186.29
807.409	237.09
807.847	349.89
808.284	738.49
808.722	2036.29
809.16	3468.39
809.597	3401.99
810.035	5789.19
810.472	5923.99
810.91	2205.49
811.347	852.49
811.785	428.99
812.222	275.99
812.66	213.69
813.097	173.09
813.535	150.49
813.972	133.19
814.409	132.29
814.846	115.49
815.284	116.99
815.721	106.69
816.158	108.79
816.595	117.59
817.032	169.79
817.47	186.69
817.907	133.39
818.344	113.99
818.781	103.79
819.218	109.69
819.655	133.69
820.092	200.69
820.529	225.99
820.966	177.39
821.403	127.09
821.839	103.79
822.276	107.59
822.713	132.29
823.15	145.69
823.587	127.19
824.023	164.99
824.46	336.89
824.897	976.69
825.333	1399.69
825.77	622.49
826.206	241.99
826.643	150.09
827.08	104.59
827.516	86.19
827.953	76.99
828.389	79.69
828.825	70.89
829.262	71.59
829.698	61.49
830.135	65.29
830.571	63.59
831.007	69.99
831.443	65.99
831.88	62.79
832.316	70.19
832.752	63.29
833.188	66.69
833.624	62.89
834.06	70.09
834.497	72.49
834.933	77.09
835.369	78.29
835.805	70.69
836.241	79.89
836.677	84.69
837.112	99.79
837.548	114.39
837.984	142.39
838.42	220.39
838.856	553.79
839.292	1636.49
839.727	2391.69
840.163	1129.79
840.599	1012.29
841.034	2164.99
841.47	2187.89
841.906	807.59
842.341	355.29
842.777	221.89
843.212	228.19
843.648	214.09
844.083	121.39
844.519	90.09
844.954	79.99
845.39	58.69
845.825	56.59
846.261	54.99
846.696	50.99
847.131	53.19
847.566	56.89
848.002	59.69
848.437	55.89
848.872	60.49
849.307	64.59
849.742	90.79
850.177	197.99
850.613	606.39
851.048	921.99
851.483	397.69
851.918	168.29
852.353	92.99
852.788	52.59
853.223	55.89
853.657	53.89
854.092	50.79
854.527	44.29
854.962	42.99
855.397	51.79
855.832	52.39
856.266	48.29
856.701	43.59
857.136	40.69
857.57	47.39
858.005	48.09
858.44	60.79
858.874	39.39
859.309	53.59
859.743	44.29
860.178	47.19
860.612	47.99
861.047	57.09
861.481	70.19
861.915	71.39
862.35	55.69
862.784	34.99
863.218	45.19
863.653	38.09
864.087	51.59
864.521	55.39
864.955	72.59
865.39	168.19
865.824	183.39
866.258	123.39
866.692	174.39
867.126	189.79
867.56	109.29
867.994	57.59
868.428	39.89
868.862	49.49
869.296	60.19
869.73	56.19
870.164	56.09
870.598	45.29
871.031	41.09
871.465	31.19
871.899	31.09
872.333	28.19
872.766	24.99
873.2	23.39
873.634	32.69
874.067	23.19
874.501	24.19
874.935	35.09
875.368	33.99
875.802	28.99
876.235	28.39
876.669	24.19
877.102	19.89
877.535	27.39
877.969	20.89
878.402	28.59
878.836	17.99
879.269	26.89
879.702	25.89
880.135	20.49
880.569	24.49
881.002	23.69
881.435	25.29
881.868	18.49
882.301	27.29
882.734	15.29
883.167	21.69
883.601	23.39
884.034	22.69
884.467	11.19
884.899	23.19
885.332	20.49
885.765	16.69
886.198	19.19
886.631	20.29
887.064	18.79
887.497	19.09
887.929	26.19
888.362	15.49
888.795	14.89
889.228	26.99
889.66	22.19
890.093	26.89
890.526	19.39
890.958	12.29
891.391	19.09
891.823	24.29
892.256	19.59
892.688	15.89
893.121	21.09
893.553	7.49
893.985	25.19
894.418	19.69
894.85	18.99
895.282	14.19
895.715	15.49
896.147	13.99
896.579	19.29
897.011	16.99
897.444	22.99
897.876	14.69
898.308	15.99
898.74	12.39
899.172	13.89
899.604	23.49
900.036	21.09
900.468	13.09
900.9	18.79
901.332	18.59
901.764	12.79
902.196	15.79
902.628	21.59
903.06	13.09
903.491	32.69
903.923	23.19
904.355	25.19
904.787	30.89
905.218	22.79
905.65	20.59
906.082	6.79
906.513	17.99
906.945	15.19
907.376	14.89
907.808	20.19
908.239	16.59
908.671	22.09
909.102	26.19
909.534	22.69
909.965	44.59
910.397	100.69
910.828	329.89
911.259	493.39
911.691	231.49
912.122	118.59
912.553	59.99
912.984	29.99
913.415	26.19
913.847	29.09
914.278	19.09
914.709	8.99
915.14	17.89
915.571	15.29
916.002	14.39
916.433	21.09
916.864	21.19
917.295	15.09
917.726	21.89
918.157	22.69
918.587	30.69
919.018	21.29
919.449	21.79
919.88	24.99
920.311	35.19
920.741	52.49
921.172	169.69
921.603	161.49
922.033	73.99
922.464	51.89
922.895	28.09
923.325	23.59
923.756	21.29
924.186	13.99
924.617	22.69
925.047	27.09
925.478	29.39
925.908	20.89
926.338	12.39
926.769	12.79
927.199	18.19
927.629	7.69
928.06	13.79
928.49	9.19
928.92	17.29
929.35	15.29
929.78	11.89
930.21	8.59
930.641	10.29
931.071	9.79
931.501	6.09
931.931	10.29
932.361	6.69
932.791	1.49
933.221	4.99
933.651	5.49
934.08	21.39
934.51	31.29
934.94	10.29
935.37	9.89
935.8	11.09
936.229	6.99
936.659	8.39
937.089	7.19
937.519	13.59
937.948	19.79
938.378	15.19
938.807	5.99
939.237	0.39
939.666	11.09
940.096	-0.01
940.525	1.69
940.955	3.19
941.384	1.29
941.814	-3.61
942.243	-3.01
942.672	3.29
943.102	-1.01
943.531	6.29
943.96	0.89
944.39	4.19
944.819	0.69
945.248	9.79
945.677	2.09
946.106	3.89
946.535	4.69
946.964	4.59
947.393	9.49
947.822	7.49
948.251	-3.71
948.68	2.09
949.109	3.79
949.538	2.09
949.967	3.29
950.396	1.09
950.825	-1.01
951.254	4.29
951.682	-4.61
952.111	6.49
952.54	1.29
952.969	-6.41
953.397	-1.21
953.826	0.39
954.254	-3.31
954.683	4.09
955.112	-2.51
955.54	7.09
955.969	2.19
956.397	1.39
956.826	-4.81
957.254	7.89
957.682	0.89
958.111	9.39
958.539	1.79
958.967	4.89
959.396	-0.61
959.824	-0.41
960.252	-5.51
960.68	2.59
961.109	-7.11
961.537	-7.01
961.965	-3.61
962.393	4.79
962.821	-4.01
963.249	-0.01
963.677	6.99
964.105	7.89
964.533	43.49
964.961	42.49
965.389	23.79
965.817	4.69
966.245	-0.01
966.672	3.39
967.1	-6.71
967.528	0.69
967.956	-3.91
968.383	-4.61
968.811	-2.31
969.239	-5.21
969.666	-3.31
970.094	1.59
970.522	-0.61
970.949	-2.61
971.377	-3.71
971.804	0.49
972.232	1.39
972.659	-3.81
973.087	-6.21
973.514	-2.51
973.941	-10.31
974.369	1.09
974.796	-2.61
975.223	2.69
975.651	-5.51
976.078	5.29
976.505	0.49
976.932	4.49
977.359	13.29
977.786	18.29
978.214	1.69
978.641	-3.01
979.068	0.09
979.495	-0.81
979.922	-0.51
980.349	-2.21
980.776	0.59
981.202	0.29
981.629	6.89
982.056	4.99
982.483	-0.71
982.91	-2.61
983.337	-9.51
983.763	0.09
984.19	-7.81
984.617	-0.01
985.043	-7.71
985.47	0.89
985.897	-2.21
986.323	-10.81
986.75	3.89
987.176	1.09
987.603	0.29
988.029	-0.21
988.456	0.19
988.882	-0.61
989.308	-4.11
989.735	-2.11
990.161	-2.21
990.587	-1.31
991.014	2.69
991.44	7.59
991.866	-2.01
992.292	-2.71
992.719	-3.91
993.145	0.29
993.571	-6.01
993.997	-8.71
994.423	-6.71
994.849	1.59
995.275	-1.71
995.701	-0.71
996.127	1.99
996.553	0.59
996.979	-1.41
997.405	3.79
997.83	-7.61
998.256	-6.51
998.682	-6.81
999.108	-9.71
999.534	2.89
999.959	3.59
1000.385	-3.81
1000.811	0.79
1001.236	-8.71
1001.662	-10.91
1002.087	-12.21
1002.513	-1.91
1002.938	-1.51
1003.364	-7.11
1003.789	-2.41
1004.215	-0.71
1004.64	-3.21
1005.066	1.89
1005.491	-4.31
1005.916	-2.71
1006.342	-8.91
1006.767	-7.91
1007.192	1.99
1007.617	-6.31
1008.042	-1.61
1008.468	-10.71
1008.893	-3.51
1009.318	-4.71
1009.743	-3.91
1010.168	3.69
1010.593	5.69
1011.018	-12.01
1011.443	-0.91
1011.868	6.09
1012.293	-4.01
1012.718	-6.41
1013.143	5.69
1013.567	-1.81
1013.992	-5.71
1014.417	-15.61
1014.842	2.19
1015.267	-6.71
1015.691	-12.21
1016.116	2.89
1016.541	-3.61
1016.965	4.89
1017.39	3.99
1017.814	0.99
1018.239	0.19
1018.663	-8.31
1019.088	-7.31
1019.512	-2.41
1019.937	-0.11
1020.361	-3.11
1020.785	-8.11
1021.21	-4.21
1021.634	0.59
1022.058	1.99
1022.483	4.49
1022.907	-4.31
1023.331	-1.91
1023.755	-3.11
1024.179	-3.81
1024.604	-7.71
1025.028	-2.71
1025.452	-3.21
1025.876	2.19
1026.3	-1.51
1026.724	-12.51
1027.148	-7.81
1027.572	-6.31
1027.996	-3.61
1028.42	-2.71
1028.843	-1.51
1029.267	-8.91
1029.691	-5.41
1030.115	-3.51
1030.539	-6.51
1030.962	-11.11
1031.386	-7.91
1031.81	0.89
1032.233	-0.91
1032.657	-1.11
1033.08	0.59
1033.504	-2.91
1033.927	0.39
1034.351	-3.81
1034.774	-7.11
1035.198	-2.71
1035.621	-5.41
1036.045	-6.81
1036.468	-4.21
1036.891	-13.01
1037.315	-6.81
1037.738	-11.41
1038.161	1.19
1038.584	-3.61
1039.008	-8.11
1039.431	-1.41
1039.854	-7.31
1040.277	-11.11
1040.7	-6.91
1041.123	2.39
1041.546	-10.31
1041.969	-4.71
1042.392	-3.71
1042.815	-4.91
1043.238	-4.61
1043.661	-1.81
1044.084	-6.01
1044.507	-9.61
1044.93	-6.51
1045.352	-1.71
1045.775	-5.61
1046.198	-3.91
1046.621	0.99
1047.043	2.99
1047.466	5.29
1047.889	-4.61
1048.311	-5.21
1048.734	-5.01
1049.156	-4.21
1049.579	-5.61
1050.001	-3.81
1050.424	-4.11
1050.846	-4.51
1051.269	-3.41
1051.691	-4.61
1052.113	-6.11
1052.536	-1.91
1052.958	-0.81
1053.38	-4.71
1053.802	-8.21
1054.225	-5.21
1054.647	-7.71
1055.069	-5.11
1055.491	7.59
1055.913	-11.01
1056.335	7.39
1056.757	-2.01
1057.179	-7.71
1057.601	-2.11
1058.023	-8.71
1058.445	-2.11
1058.867	-7.51
1059.289	-2.51
1059.711	-8.11
1060.133	-6.41
1060.555	-6.51
1060.976	-10.51
1061.398	-2.81
1061.82	-1.31
1062.241	-8.11
1062.663	-7.81
1063.085	-7.61
1063.506	0.09
1063.928	-3.01
1064.35	-5.51
1064.771	-8.31
1065.193	-6.11
1065.614	-8.11
1066.035	-4.51
1066.457	-1.81
1066.878	4.39
1067.3	-0.21
1067.721	-4.81
1068.142	-4.61
1068.564	-2.91
1068.985	-10.31
1069.406	-6.11
1069.827	-5.71
1070.248	-3.31
1070.67	-8.01
1071.091	-5.81
1071.512	-4.11
1071.933	-4.31
1072.354	-10.51
1072.775	-6.01
1073.196	-8.71
1073.617	-6.21
1074.038	-8.01
1074.459	-4.91
1074.88	-9.11
1075.3	-2.51
1075.721	-6.81
1076.142	1.79
1076.563	-2.41
1076.983	-11.21
1077.404	-2.31
1077.825	-14.71
1078.246	-2.51
1078.666	-11.41
1079.087	-5.71
1079.507	-13.21
1079.928	-2.31
1080.348	-3.31
1080.769	-5.01
1081.189	-4.21
1081.61	-4.11
1082.03	-5.21
1082.451	-7.11
1082.871	-1.71
1083.291	-4.41
1083.711	-9.51
1084.132	-6.71
1084.552	-1.81
1084.972	-0.81
1085.392	-15.21
1085.813	-11.71
1086.233	-7.21
1086.653	-5.51
1087.073	-2.21
1087.493	-5.91
1087.913	-10.91
1088.333	-8.91
1088.753	-0.31
1089.173	5.19
1089.593	-2.81
1090.013	3.79
1090.433	-4.91
1090.852	-4.11
1091.272	-4.51
1091.692	-2.51
1092.112	-8.91
1092.531	-13.01
1092.951	-17.51
1093.371	-4.11
1093.79	2.89
1094.21	-10.71
1094.63	-8.01
1095.049	-7.91
1095.469	-6.61
1095.888	-5.71
1096.308	-1.31
1096.727	5.49
1097.146	-2.81
1097.566	1.79
1097.985	-7.31
1098.405	2.59
1098.824	-9.81
1099.243	-6.71
1099.662	-8.91
1100.082	-9.81
1100.501	-0.71
1100.92	-13.81
1101.339	-5.51
1101.758	-9.41
