Data from 20171114-ORNL-Ar_H_NY_Subt18_08-06-05-447.txt Node
Date: Tue Nov 14 08:06:05 EST 2017
User: Ender
Spectrometer: HR+D1039
Trigger mode: 0
Integration Time (sec): 2.730000E-2
Scans to average: 10
Electric dark correction enabled: true
Nonlinearity correction enabled: false
Boxcar width: 0
XAxis mode: Wavelengths
Number of Pixels in Spectrum: 2048
>>>>>Begin Spectral Data<<<<<
187.836	-3.18
188.309	-3.18
188.782	-3.18
189.255	-1.78
189.728	-0.78
190.201	1.62
190.674	-3.78
191.147	5.02
191.619	-6.98
192.092	1.62
192.565	0.92
193.038	0.62
193.511	5.32
193.984	2.02
194.456	-2.28
194.929	2.02
195.402	-0.58
195.874	0.12
196.347	-3.08
196.82	-3.98
197.292	0.42
197.765	-6.58
198.237	-10.08
198.71	-0.78
199.182	-8.68
199.655	4.52
200.127	2.22
200.6	-1.88
201.072	-1.18
201.544	-5.08
202.017	-4.28
202.489	0.32
202.961	1.32
203.433	-5.78
203.906	-6.68
204.378	-10.58
204.85	-2.78
205.322	-7.18
205.794	2.22
206.266	-3.18
206.739	-11.78
207.211	-0.38
207.683	-8.68
208.155	-12.58
208.627	-12.78
209.099	-4.28
209.57	-9.88
210.042	-6.18
210.514	-6.18
210.986	-2.58
211.458	-13.18
211.93	-6.98
212.402	-1.68
212.873	-10.38
213.345	-14.68
213.817	-9.28
214.288	-5.08
214.76	-16.78
215.232	-6.08
215.703	-2.68
216.175	-5.98
216.646	-6.68
217.118	-7.88
217.589	-2.58
218.061	-1.78
218.532	-6.88
219.004	-1.38
219.475	-1.28
219.946	-5.58
220.418	-7.18
220.889	1.62
221.36	-6.68
221.832	-9.88
222.303	-11.88
222.774	-8.58
223.245	-8.38
223.717	-1.28
224.188	-8.08
224.659	-12.38
225.13	-5.98
225.601	-4.38
226.072	-2.88
226.543	2.52
227.014	3.02
227.485	-3.28
227.956	-2.18
228.427	-2.68
228.898	0.12
229.369	4.62
229.839	-5.68
230.31	-6.18
230.781	-0.78
231.252	0.92
231.722	-1.38
232.193	-4.78
232.664	-7.68
233.135	0.32
233.605	-1.08
234.076	-4.38
234.546	0.92
235.017	6.42
235.487	-2.78
235.958	-4.08
236.428	-3.88
236.899	1.12
237.369	3.12
237.84	0.52
238.31	1.92
238.78	4.22
239.251	0.92
239.721	2.22
240.191	-1.78
240.662	-0.38
241.132	3.22
241.602	-10.58
242.072	-0.08
242.542	3.72
243.013	-1.08
243.483	2.82
243.953	1.22
244.423	0.92
244.893	-0.48
245.363	5.12
245.833	-2.38
246.303	-1.68
246.773	5.52
247.243	0.52
247.712	1.82
248.182	7.02
248.652	7.42
249.122	2.72
249.592	10.32
250.061	17.32
250.531	33.22
251.001	16.82
251.471	27.82
251.94	17.72
252.41	10.42
252.879	0.82
253.349	17.32
253.818	6.82
254.288	5.02
254.757	6.22
255.227	2.02
255.696	4.62
256.166	1.82
256.635	3.22
257.105	9.32
257.574	8.72
258.043	6.22
258.513	10.92
258.982	12.12
259.451	7.12
259.92	11.32
260.389	10.62
260.859	15.52
261.328	9.42
261.797	15.12
262.266	4.12
262.735	6.72
263.204	5.72
263.673	3.02
264.142	6.32
264.611	-7.48
265.08	1.22
265.549	-0.18
266.018	4.92
266.487	0.62
266.955	-2.98
267.424	-1.48
267.893	6.72
268.362	-3.18
268.83	2.02
269.299	10.02
269.768	7.22
270.236	8.72
270.705	5.92
271.174	6.32
271.642	7.82
272.111	4.32
272.579	10.62
273.048	30.92
273.516	34.02
273.985	29.02
274.453	20.62
274.922	16.82
275.39	8.72
275.858	1.92
276.327	12.32
276.795	15.12
277.263	10.82
277.731	34.22
278.2	56.62
278.668	58.92
279.136	45.52
279.604	23.12
280.072	14.72
280.54	6.72
281.008	6.62
281.477	12.22
281.945	16.72
282.413	10.82
282.881	13.92
283.348	8.02
283.816	13.92
284.284	14.52
284.752	23.02
285.22	7.82
285.688	13.62
286.156	19.72
286.623	50.62
287.091	59.92
287.559	27.52
288.026	15.02
288.494	17.32
288.962	7.52
289.429	13.52
289.897	23.12
290.364	18.82
290.832	15.32
291.3	15.12
291.767	16.82
292.234	21.32
292.702	14.52
293.169	17.22
293.637	26.52
294.104	17.82
294.571	9.02
295.039	11.42
295.506	13.02
295.973	19.02
296.44	15.42
296.908	17.32
297.375	19.32
297.842	24.52
298.309	17.02
298.776	8.62
299.243	20.82
299.71	12.82
300.177	29.12
300.644	23.32
301.111	15.92
301.578	23.32
302.045	19.42
302.512	24.82
302.979	29.12
303.446	21.12
303.913	19.32
304.379	16.32
304.846	29.42
305.313	25.52
305.78	23.72
306.246	26.92
306.713	24.62
307.18	24.72
307.646	24.52
308.113	29.02
308.579	21.92
309.046	21.62
309.512	29.22
309.979	20.62
310.445	30.52
310.912	22.72
311.378	35.82
311.845	27.82
312.311	32.22
312.777	25.52
313.244	33.22
313.71	37.42
314.176	30.92
314.642	35.82
315.109	34.12
315.575	37.32
316.041	36.22
316.507	30.92
316.973	37.82
317.439	38.62
317.905	34.42
318.371	36.92
318.837	29.92
319.303	33.32
319.769	33.22
320.235	27.82
320.701	28.62
321.167	36.52
321.633	32.22
322.099	36.52
322.564	43.42
323.03	34.02
323.496	37.92
323.962	45.92
324.427	34.72
324.893	39.12
325.359	39.72
325.824	37.02
326.29	35.92
326.755	37.02
327.221	36.42
327.686	39.32
328.152	48.62
328.617	38.22
329.083	48.62
329.548	46.42
330.014	44.52
330.479	45.62
330.944	39.72
331.41	45.22
331.875	51.82
332.34	41.32
332.805	44.42
333.271	51.22
333.736	47.32
334.201	52.32
334.666	55.62
335.131	58.12
335.596	50.22
336.061	49.22
336.526	44.12
336.991	51.22
337.456	52.32
337.921	46.72
338.386	45.52
338.851	49.82
339.316	45.12
339.781	45.82
340.246	51.12
340.711	41.22
341.175	52.42
341.64	50.02
342.105	46.22
342.569	64.92
343.034	57.92
343.499	60.02
343.963	49.22
344.428	67.82
344.893	62.02
345.357	64.12
345.822	63.82
346.286	67.92
346.751	80.02
347.215	68.12
347.679	79.12
348.144	99.32
348.608	86.42
349.073	65.92
349.537	69.12
350.001	76.52
350.465	86.82
350.93	86.82
351.394	79.62
351.858	78.72
352.322	87.52
352.786	95.52
353.25	101.52
353.715	109.52
354.179	107.12
354.643	124.02
355.107	134.32
355.571	107.52
356.035	110.32
356.498	117.02
356.962	129.72
357.426	130.72
357.89	120.12
358.354	88.52
358.818	87.92
359.281	78.82
359.745	75.52
360.209	79.12
360.673	77.42
361.136	84.22
361.6	86.72
362.064	85.62
362.527	88.82
362.991	91.82
363.454	80.42
363.918	79.72
364.381	84.52
364.845	84.12
365.308	88.42
365.772	96.92
366.235	86.02
366.698	86.12
367.162	81.42
367.625	91.12
368.088	86.72
368.552	91.22
369.015	85.62
369.478	96.72
369.941	104.32
370.404	99.42
370.867	117.02
371.331	109.32
371.794	118.22
372.257	105.62
372.72	120.92
373.183	116.22
373.646	111.12
374.109	104.82
374.572	112.12
375.035	110.12
375.497	114.22
375.96	102.62
376.423	103.72
376.886	115.32
377.349	111.82
377.811	104.72
378.274	111.52
378.737	109.12
379.199	112.72
379.662	113.92
380.125	117.72
380.587	115.22
381.05	127.62
381.512	131.42
381.975	138.22
382.437	132.52
382.9	134.22
383.362	136.92
383.825	140.12
384.287	148.52
384.75	141.52
385.212	142.12
385.674	140.12
386.136	139.52
386.599	122.02
387.061	127.92
387.523	136.12
387.985	141.52
388.447	151.02
388.91	141.62
389.372	155.82
389.834	153.92
390.296	148.92
390.758	150.22
391.22	174.12
391.682	209.02
392.144	307.32
392.606	240.62
393.068	167.12
393.529	169.92
393.991	161.52
394.453	154.62
394.915	165.42
395.377	198.52
395.838	214.72
396.3	155.12
396.762	144.32
397.224	133.32
397.685	132.72
398.147	132.22
398.608	128.62
399.07	131.72
399.531	136.32
399.993	141.92
400.454	156.12
400.916	149.52
401.377	147.62
401.839	151.12
402.3	160.12
402.762	170.82
403.223	186.52
403.684	175.92
404.145	163.52
404.607	167.92
405.068	168.92
405.529	171.62
405.99	194.62
406.451	184.02
406.913	177.82
407.374	169.92
407.835	170.52
408.296	171.52
408.757	180.42
409.218	192.12
409.679	175.32
410.14	181.82
410.601	182.52
411.062	190.32
411.522	193.62
411.983	191.62
412.444	178.12
412.905	187.62
413.366	187.72
413.826	196.32
414.287	229.02
414.748	260.52
415.208	248.82
415.669	223.72
416.13	215.12
416.59	204.62
417.051	218.32
417.511	222.92
417.972	247.52
418.432	247.42
418.893	297.72
419.353	257.12
419.814	207.52
420.274	189.72
420.734	183.82
421.195	200.62
421.655	200.02
422.115	203.62
422.576	187.82
423.036	199.02
423.496	215.92
423.956	214.23
424.416	235.82
424.876	275.12
425.336	264.92
425.797	268.12
426.257	258.92
426.717	251.82
427.177	232.62
427.637	228.02
428.097	243.62
428.556	246.42
429.016	271.02
429.476	273.52
429.936	284.32
430.396	288.92
430.856	296.72
431.315	327.22
431.775	361.92
432.235	389.32
432.694	369.12
433.154	368.42
433.614	404.32
434.073	353.32
434.533	292.22
434.993	279.32
435.452	282.52
435.912	304.02
436.371	305.73
436.83	296.73
437.29	273.52
437.749	258.82
438.209	251.02
438.668	288.02
439.127	287.22
439.587	266.92
440.046	254.52
440.505	264.42
440.964	286.02
441.424	332.92
441.883	328.52
442.342	264.02
442.801	230.72
443.26	226.32
443.719	231.32
444.178	221.62
444.637	215.82
445.096	221.82
445.555	232.02
446.014	221.22
446.473	227.82
446.932	230.52
447.391	233.72
447.849	230.62
448.308	220.52
448.767	230.52
449.226	239.02
449.685	240.82
450.143	246.72
450.602	235.12
451.061	236.12
451.519	234.62
451.978	238.32
452.436	235.32
452.895	236.52
453.353	261.92
453.812	249.73
454.27	248.22
454.729	244.42
455.187	248.22
455.646	252.42
456.104	255.32
456.562	265.22
457.021	269.12
457.479	267.12
457.937	274.82
458.395	276.32
458.854	253.42
459.312	261.82
459.77	285.12
460.228	267.72
460.686	239.62
461.144	251.42
461.602	248.92
462.06	248.82
462.518	252.82
462.976	257.42
463.434	269.22
463.892	266.42
464.35	281.72
464.808	297.92
465.266	270.02
465.724	278.52
466.181	281.72
466.639	272.72
467.097	289.22
467.555	310.52
468.012	310.02
468.47	311.02
468.928	335.72
469.385	350.73
469.843	357.52
470.3	365.12
470.758	368.02
471.215	397.12
471.673	416.92
472.13	419.22
472.588	426.92
473.045	376.62
473.503	388.82
473.96	401.92
474.417	413.62
474.875	449.82
475.332	484.32
475.789	466.42
476.246	485.72
476.704	502.72
477.161	513.72
477.618	540.72
478.075	564.52
478.532	622.62
478.989	708.72
479.446	822.42
479.903	797.02
480.36	834.12
480.817	890.12
481.274	1002.22
481.731	1109.82
482.188	1191.22
482.645	1332.33
483.102	1448.12
483.558	1590.22
484.015	1660.03
484.472	1620.82
484.929	1574.82
485.385	1530.33
485.842	1468.62
486.299	1410.33
486.755	1338.02
487.212	1132.42
487.668	950.52
488.125	869.82
488.582	791.73
489.038	762.22
489.494	725.82
489.951	713.42
490.407	685.23
490.864	663.52
491.32	662.82
491.776	662.12
492.233	661.92
492.689	623.42
493.145	617.32
493.602	611.62
494.058	622.02
494.514	625.42
494.97	650.73
495.426	652.62
495.882	633.02
496.338	632.52
496.794	645.02
497.251	633.32
497.707	649.92
498.163	657.92
498.618	661.12
499.074	661.32
499.53	698.12
499.986	690.62
500.442	666.62
500.898	643.42
501.354	634.02
501.809	646.72
502.265	661.52
502.721	675.02
503.177	678.42
503.632	681.42
504.088	691.62
504.543	734.42
504.999	733.02
505.455	692.82
505.91	646.02
506.366	641.42
506.821	642.02
507.277	635.82
507.732	641.52
508.187	640.22
508.643	647.42
509.098	656.72
509.553	670.32
510.009	687.52
510.464	682.62
510.919	696.02
511.375	704.62
511.83	729.02
512.285	743.12
512.74	775.82
513.195	793.72
513.65	786.12
514.105	769.22
514.56	781.52
515.015	805.42
515.47	827.92
515.925	802.23
516.38	794.02
516.835	806.92
517.29	794.23
517.745	792.62
518.2	771.02
518.655	757.72
519.109	756.62
519.564	747.42
520.019	759.12
520.474	731.23
520.928	743.52
521.383	730.32
521.838	730.02
522.292	714.92
522.747	727.42
523.201	724.22
523.656	709.52
524.11	703.73
524.565	706.12
525.019	700.12
525.474	719.12
525.928	726.62
526.382	701.62
526.837	712.32
527.291	720.32
527.745	709.12
528.2	710.62
528.654	695.02
529.108	694.02
529.562	701.02
530.016	694.92
530.47	701.92
530.925	706.32
531.379	716.92
531.833	715.02
532.287	708.22
532.741	710.02
533.195	717.72
533.649	723.32
534.103	729.92
534.556	721.22
535.01	724.12
535.464	719.92
535.918	730.42
536.372	733.82
536.826	731.12
537.279	714.72
537.733	726.62
538.187	718.62
538.64	723.62
539.094	741.62
539.548	748.52
540.001	732.82
540.455	735.22
540.908	742.92
541.362	745.32
541.815	758.02
542.269	770.22
542.722	770.22
543.175	778.02
543.629	790.12
544.082	802.72
544.536	805.72
544.989	798.23
545.442	801.02
545.895	805.52
546.349	809.62
546.802	808.02
547.255	814.42
547.708	811.12
548.161	820.32
548.614	823.12
549.067	834.12
549.52	828.82
549.973	824.62
550.426	824.92
550.879	810.82
551.332	812.12
551.785	811.52
552.238	815.82
552.691	831.52
553.144	849.92
553.596	855.02
554.049	877.52
554.502	902.12
554.955	926.12
555.407	915.62
555.86	905.32
556.313	894.92
556.765	886.72
557.218	892.82
557.67	886.02
558.123	892.12
558.576	882.22
559.028	885.52
559.48	892.42
559.933	876.72
560.385	851.92
560.838	821.12
561.29	801.02
561.742	795.42
562.195	769.12
562.647	768.82
563.099	784.32
563.551	771.02
564.004	787.82
564.456	791.72
564.908	767.32
565.36	754.22
565.812	744.82
566.264	729.12
566.716	730.42
567.168	727.52
567.62	734.72
568.072	708.12
568.524	703.42
568.976	697.92
569.428	679.42
569.88	676.02
570.332	685.92
570.784	692.92
571.235	692.82
571.687	693.52
572.139	710.92
572.59	720.02
573.042	716.12
573.494	715.02
573.945	704.92
574.397	689.92
574.849	702.52
575.3	693.22
575.752	688.12
576.203	683.82
576.655	688.92
577.106	675.52
577.557	677.62
578.009	677.52
578.46	668.92
578.912	670.22
579.363	671.62
579.814	668.72
580.265	669.42
580.717	679.32
581.168	678.92
581.619	678.62
582.07	690.62
582.521	674.02
582.972	663.72
583.423	678.82
583.875	683.42
584.326	711.42
584.777	753.32
585.227	825.32
585.678	920.12
586.129	1010.12
586.58	1077.92
587.031	1160.82
587.482	1318.52
587.933	1494.53
588.384	1309.43
588.834	984.23
589.285	820.22
589.736	789.22
590.186	778.02
590.637	772.42
591.088	751.62
591.538	744.82
591.989	735.92
592.439	736.62
592.89	719.22
593.34	703.92
593.791	712.42
594.241	711.62
594.692	715.02
595.142	707.52
595.593	706.52
596.043	710.72
596.493	720.22
596.943	725.73
597.394	721.12
597.844	721.12
598.294	730.92
598.744	755.52
599.195	778.62
599.645	820.12
600.095	853.12
600.545	918.62
600.995	983.72
601.445	1031.52
601.895	1087.42
602.345	1125.82
602.795	1117.32
603.245	1068.72
603.695	1014.62
604.145	956.52
604.594	906.42
605.044	871.52
605.494	802.92
605.944	761.72
606.393	745.72
606.843	733.72
607.293	725.52
607.743	741.02
608.192	756.12
608.642	760.02
609.091	775.92
609.541	774.62
609.99	784.32
610.44	779.02
610.889	720.92
611.339	699.72
611.788	694.92
612.238	695.32
612.687	716.62
613.136	733.22
613.586	739.62
614.035	744.62
614.484	758.72
614.933	757.32
615.383	745.82
615.832	740.52
616.281	730.82
616.73	688.32
617.179	662.52
617.628	652.52
618.077	635.82
618.526	617.42
618.975	618.12
619.424	610.82
619.873	598.12
620.322	609.32
620.771	602.32
621.22	600.12
621.669	591.52
622.118	594.92
622.567	583.02
623.015	574.92
623.464	572.82
623.913	561.92
624.361	540.42
624.81	549.52
625.259	548.73
625.707	561.42
626.156	552.12
626.604	565.72
627.053	558.42
627.501	553.52
627.95	568.42
628.398	571.62
628.847	569.32
629.295	572.12
629.744	571.02
630.192	571.62
630.64	561.42
631.089	563.22
631.537	582.12
631.985	593.02
632.433	596.62
632.881	596.52
633.33	665.32
633.778	637.92
634.226	566.23
634.674	564.32
635.122	577.02
635.57	599.12
636.018	628.32
636.466	572.32
636.914	558.22
637.362	565.52
637.81	569.82
638.258	571.32
638.705	572.52
639.153	608.72
639.601	604.72
640.049	644.82
640.497	664.42
640.944	691.82
641.392	637.72
641.84	606.22
642.287	581.52
642.735	568.42
643.182	569.62
643.63	565.72
644.078	573.92
644.525	587.62
644.973	597.82
645.42	600.22
645.867	618.12
646.315	639.52
646.762	661.32
647.21	686.92
647.657	717.12
648.104	750.02
648.551	777.82
648.999	840.82
649.446	905.92
649.893	1011.92
650.34	1150.62
650.787	1383.62
651.234	1725.03
651.682	2260.03
652.129	3081.92
652.576	4462.22
653.023	6555.12
653.47	9034.92
653.917	11313.82
654.363	13072.02
654.81	14439.83
655.257	13728.42
655.704	9003.22
656.151	5292.32
656.598	3441.13
657.044	2433.93
657.491	1867.43
657.938	1489.22
658.385	1249.52
658.831	1080.23
659.278	965.72
659.724	856.52
660.171	782.32
660.618	720.02
661.064	685.62
661.511	666.42
661.957	653.22
662.404	638.82
662.85	655.42
663.296	619.12
663.743	550.12
664.189	536.62
664.635	529.52
665.082	525.12
665.528	527.62
665.974	510.42
666.42	503.52
666.867	500.82
667.313	489.82
667.759	482.42
668.205	476.42
668.651	474.52
669.097	484.82
669.543	487.22
669.989	464.62
670.435	443.62
670.881	439.82
671.327	441.32
671.773	455.92
672.219	488.82
672.665	534.12
673.11	565.12
673.556	615.32
674.002	662.82
674.448	654.32
674.893	541.52
675.339	470.82
675.785	433.72
676.23	407.42
676.676	386.72
677.122	373.72
677.567	359.72
678.013	365.52
678.458	357.92
678.904	352.32
679.349	347.12
679.794	352.52
680.24	352.42
680.685	345.02
681.131	341.12
681.576	341.42
682.021	345.02
682.466	346.12
682.912	341.42
683.357	341.22
683.802	382.02
684.247	408.42
684.692	450.22
685.137	484.52
685.583	529.32
686.028	559.32
686.473	511.82
686.918	434.12
687.363	422.12
687.807	394.42
688.252	363.52
688.697	349.92
689.142	328.02
689.587	329.22
690.032	323.62
690.477	339.12
690.921	352.42
691.366	372.32
691.811	393.82
692.255	433.32
692.7	454.82
693.145	484.73
693.589	679.02
694.034	1097.53
694.478	1516.33
694.923	1716.43
695.367	2242.43
695.812	1175.22
696.256	498.52
696.701	362.02
697.145	340.62
697.59	327.72
698.034	322.52
698.478	317.92
698.922	320.23
699.367	327.82
699.811	336.92
700.255	350.02
700.699	380.22
701.143	413.32
701.588	465.92
702.032	506.22
702.476	503.62
702.92	484.52
703.364	486.22
703.808	613.12
704.252	1008.43
704.696	1411.13
705.14	1649.92
705.584	2101.93
706.027	1051.33
706.471	516.32
706.915	391.72
707.359	343.62
707.803	318.42
708.246	304.62
708.69	305.82
709.134	311.22
709.577	312.52
710.021	316.02
710.465	300.12
710.908	295.32
711.352	299.62
711.795	309.72
712.239	345.72
712.682	381.42
713.126	411.12
713.569	451.12
714.012	363.92
714.456	316.32
714.899	296.12
715.342	267.82
715.786	257.22
716.229	248.82
716.672	244.72
717.115	248.52
717.558	245.92
718.002	248.12
718.445	259.42
718.888	278.22
719.331	294.12
719.774	298.92
720.217	292.82
720.66	279.22
721.103	261.22
721.546	249.42
721.989	241.62
722.432	223.92
722.874	229.72
723.317	226.02
723.76	238.72
724.203	258.22
724.645	308.82
725.088	430.32
725.531	559.72
725.974	645.32
726.416	537.12
726.859	301.62
727.301	237.52
727.744	235.82
728.187	231.73
728.629	233.52
729.071	243.42
729.514	250.82
729.956	267.42
730.399	279.32
730.841	292.82
731.283	271.82
731.726	255.42
732.168	251.32
732.61	257.32
733.053	279.92
733.495	307.92
733.937	356.02
734.379	391.72
734.821	421.82
735.263	533.32
735.705	811.42
736.148	1533.62
736.59	2530.82
737.032	3019.52
737.474	2439.93
737.916	789.12
738.357	420.72
738.799	313.82
739.241	292.62
739.683	278.32
740.125	285.52
740.567	293.92
741.008	303.62
741.45	314.22
741.892	314.62
742.334	342.12
742.775	349.42
743.217	335.62
743.658	269.82
744.1	246.12
744.542	255.22
744.983	304.02
745.425	331.52
745.866	329.82
746.307	281.32
746.749	277.42
747.19	314.23
747.632	442.52
748.073	845.82
748.514	1820.23
748.956	2786.22
749.397	3491.73
749.838	2890.12
750.279	2914.82
750.72	1471.02
751.162	532.32
751.603	318.32
752.044	249.22
752.485	209.12
752.926	202.12
753.367	193.82
753.808	188.02
754.249	185.22
754.69	185.42
755.131	181.42
755.572	172.72
756.013	171.62
756.453	180.82
756.894	187.82
757.335	187.62
757.776	193.82
758.216	191.62
758.657	191.42
759.098	194.92
759.538	220.42
759.979	261.42
760.42	366.62
760.86	675.42
761.301	1752.22
761.741	4306.62
762.182	6361.52
762.622	4455.52
763.063	1287.12
763.503	527.62
763.943	347.62
764.384	335.12
764.824	394.52
765.264	423.92
765.705	295.42
766.145	204.12
766.585	186.02
767.025	179.42
767.465	187.62
767.906	239.82
768.346	305.72
768.786	335.72
769.226	259.62
769.666	316.12
770.106	591.52
770.546	1502.33
770.986	2598.02
771.426	2340.32
771.866	779.82
772.306	327.02
772.745	206.52
773.185	165.02
773.625	168.62
774.065	164.62
774.505	193.32
774.944	305.92
775.384	656.42
775.824	1211.83
776.263	1189.22
776.703	500.62
777.142	218.02
777.582	158.22
778.021	134.02
778.461	130.32
778.9	140.72
779.34	126.32
779.779	116.52
780.219	107.22
780.658	109.62
781.097	115.52
781.537	112.02
781.976	107.02
782.415	103.62
782.855	108.82
783.294	107.32
783.733	108.92
784.172	112.52
784.611	101.72
785.05	104.52
785.489	107.62
785.928	113.12
786.367	122.42
786.806	114.12
787.245	127.72
787.684	132.82
788.123	145.62
788.562	124.82
789.001	122.12
789.44	118.52
789.879	112.22
790.317	120.62
790.756	127.52
791.195	124.42
791.634	138.62
792.072	201.62
792.511	349.23
792.95	975.03
793.388	2105.22
793.827	1911.72
794.265	658.82
794.704	272.92
795.142	183.62
795.581	152.62
796.019	135.72
796.458	121.92
796.896	118.32
797.334	128.42
797.773	149.82
798.211	210.52
798.649	424.12
799.087	997.83
799.526	1549.53
799.964	1969.53
800.402	1981.12
800.84	740.72
801.278	286.12
801.716	178.82
802.154	145.52
802.592	133.32
803.03	138.62
803.468	128.62
803.906	141.52
804.344	142.72
804.782	136.92
805.22	132.12
805.658	131.12
806.096	139.22
806.533	148.82
806.971	175.62
807.409	212.02
807.847	309.42
808.284	635.02
808.722	1799.42
809.16	3212.43
809.597	3009.73
810.035	5268.02
810.472	5696.22
810.91	2052.53
811.347	777.12
811.785	399.73
812.222	247.62
812.66	190.22
813.097	159.62
813.535	134.52
813.972	128.82
814.409	116.82
814.846	104.82
815.284	110.92
815.721	106.52
816.158	105.92
816.595	118.32
817.032	172.32
817.47	192.02
817.907	172.22
818.344	145.42
818.781	118.32
819.218	96.72
819.655	115.22
820.092	179.42
820.529	202.72
820.966	169.32
821.403	130.52
821.839	108.02
822.276	100.72
822.713	123.92
823.15	126.62
823.587	115.82
824.023	139.92
824.46	287.02
824.897	859.82
825.333	1331.93
825.77	558.82
826.206	226.62
826.643	127.62
827.08	102.32
827.516	88.32
827.953	73.32
828.389	75.12
828.825	69.42
829.262	70.02
829.698	64.02
830.135	55.32
830.571	62.02
831.007	59.72
831.443	61.62
831.88	56.92
832.316	60.82
832.752	60.32
833.188	62.22
833.624	66.02
834.06	66.82
834.497	66.62
834.933	71.52
835.369	76.22
835.805	66.22
836.241	78.32
836.677	77.12
837.112	82.82
837.548	97.02
837.984	134.32
838.42	189.12
838.856	474.82
839.292	1468.72
839.727	2264.62
840.163	1038.42
840.599	885.72
841.034	1961.72
841.47	2082.32
841.906	754.02
842.341	328.62
842.777	227.02
843.212	306.82
843.648	308.32
844.083	151.52
844.519	96.92
844.954	69.52
845.39	57.12
845.825	57.62
846.261	53.82
846.696	53.52
847.131	53.92
847.566	60.62
848.002	56.82
848.437	54.22
848.872	55.62
849.307	59.62
849.742	78.52
850.177	174.02
850.613	539.42
851.048	866.22
851.483	369.22
851.918	143.92
852.353	83.82
852.788	57.32
853.223	63.42
853.657	53.32
854.092	42.42
854.527	42.12
854.962	36.92
855.397	39.92
855.832	47.02
856.266	35.82
856.701	36.32
857.136	37.42
857.57	36.52
858.005	45.32
858.44	55.02
858.874	41.42
859.309	45.82
859.743	41.82
860.178	41.52
860.612	43.02
861.047	44.62
861.481	63.32
861.915	68.92
862.35	51.32
862.784	31.02
863.218	35.32
863.653	36.12
864.087	41.72
864.521	53.42
864.955	61.82
865.39	155.82
865.824	168.82
866.258	111.22
866.692	155.72
867.126	170.52
867.56	101.12
867.994	46.72
868.428	36.52
868.862	47.52
869.296	56.92
869.73	54.32
870.164	51.12
870.598	47.42
871.031	33.62
871.465	28.12
871.899	29.92
872.333	18.92
872.766	25.52
873.2	24.32
873.634	29.72
874.067	29.42
874.501	21.42
874.935	35.12
875.368	27.12
875.802	29.32
876.235	19.92
876.669	22.22
877.102	14.92
877.535	19.82
877.969	27.22
878.402	17.72
878.836	18.72
879.269	24.42
879.702	25.42
880.135	20.72
880.569	25.72
881.002	23.92
881.435	18.02
881.868	15.12
882.301	23.92
882.734	20.72
883.167	19.22
883.601	19.12
884.034	18.12
884.467	9.62
884.899	14.62
885.332	15.62
885.765	15.92
886.198	14.52
886.631	20.82
887.064	17.92
887.497	15.82
887.929	20.92
888.362	13.12
888.795	8.72
889.228	15.52
889.66	17.52
890.093	18.82
890.526	15.52
890.958	17.52
891.391	18.52
891.823	19.62
892.256	16.42
892.688	7.22
893.121	16.92
893.553	17.52
893.985	20.32
894.418	15.72
894.85	7.92
895.282	13.52
895.715	18.82
896.147	13.22
896.579	11.62
897.011	11.62
897.444	18.22
897.876	11.32
898.308	18.92
898.74	10.22
899.172	9.72
899.604	26.52
900.036	21.52
900.468	13.92
900.9	18.42
901.332	12.72
901.764	14.62
902.196	20.12
902.628	13.92
903.06	16.12
903.491	23.72
903.923	19.82
904.355	14.12
904.787	20.42
905.218	20.52
905.65	17.12
906.082	15.02
906.513	10.62
906.945	16.42
907.376	8.92
907.808	13.22
908.239	20.72
908.671	23.12
909.102	19.52
909.534	22.82
909.965	45.82
910.397	92.02
910.828	312.12
911.259	472.12
911.691	217.12
912.122	95.32
912.553	49.62
912.984	30.32
913.415	27.82
913.847	25.12
914.278	11.52
914.709	14.32
915.14	19.02
915.571	18.02
916.002	18.62
916.433	17.22
916.864	15.72
917.295	8.82
917.726	23.72
918.157	10.22
918.587	24.72
919.018	18.92
919.449	18.22
919.88	22.42
920.311	30.22
920.741	50.62
921.172	160.82
921.603	143.72
922.033	68.42
922.464	47.62
922.895	16.52
923.325	14.02
923.756	11.52
924.186	17.12
924.617	29.82
925.047	43.52
925.478	58.62
925.908	48.42
926.338	23.92
926.769	13.62
927.199	14.52
927.629	5.02
928.06	11.62
928.49	13.42
928.92	14.22
929.35	11.32
929.78	10.42
930.21	6.62
930.641	7.22
931.071	4.92
931.501	-1.88
931.931	5.72
932.361	2.82
932.791	1.82
933.221	2.72
933.651	5.02
934.08	15.12
934.51	27.22
934.94	8.42
935.37	7.62
935.8	4.92
936.229	3.22
936.659	6.12
937.089	-1.28
937.519	12.42
937.948	21.32
938.378	10.02
938.807	4.82
939.237	-0.28
939.666	3.02
940.096	-7.68
940.525	-0.58
940.955	0.92
941.384	1.22
941.814	0.12
942.243	-3.68
942.672	2.62
943.102	-0.28
943.531	2.42
943.96	0.72
944.39	-1.98
944.819	-2.38
945.248	3.22
945.677	1.92
946.106	0.82
946.535	-0.98
946.964	-0.18
947.393	-2.48
947.822	4.72
948.251	-10.08
948.68	1.12
949.109	5.52
949.538	4.82
949.967	-2.58
950.396	0.82
950.825	-1.08
951.254	-1.48
951.682	-13.38
952.111	3.12
952.54	3.62
952.969	-3.58
953.397	-8.98
953.826	4.02
954.254	-3.68
954.683	-1.28
955.112	-4.98
955.54	-5.78
955.969	-5.98
956.397	-0.28
956.826	-2.98
957.254	-5.78
957.682	-5.28
958.111	1.42
958.539	-4.08
958.967	-0.68
959.396	-6.28
959.824	-1.48
960.252	2.72
960.68	-2.38
961.109	0.82
961.537	-2.78
961.965	1.12
962.393	-4.68
962.821	-6.48
963.249	2.02
963.677	2.82
964.105	2.92
964.533	49.02
964.961	40.82
965.389	20.22
965.817	5.32
966.245	-1.58
966.672	1.92
967.1	-10.98
967.528	1.92
967.956	-3.88
968.383	-2.28
968.811	-2.08
969.239	-3.98
969.666	-4.78
970.094	3.92
970.522	-1.68
970.949	-1.68
971.377	-5.18
971.804	1.02
972.232	-2.78
972.659	-1.18
973.087	-4.18
973.514	-5.38
973.941	-4.28
974.369	5.22
974.796	-1.98
975.223	0.92
975.651	-0.68
976.078	1.42
976.505	-1.68
976.932	0.22
977.359	9.72
977.786	13.52
978.214	-0.48
978.641	-6.98
979.068	-4.58
979.495	-10.88
979.922	-4.88
980.349	-8.18
980.776	0.92
981.202	-5.68
981.629	1.12
982.056	1.72
982.483	-4.58
982.91	-1.38
983.337	-4.58
983.763	3.92
984.19	-3.78
984.617	-5.68
985.043	-9.78
985.47	-1.88
985.897	-2.98
986.323	-10.08
986.75	-1.08
987.176	-8.58
987.603	-2.28
988.029	-0.78
988.456	-5.48
988.882	2.92
989.308	-9.18
989.735	-5.98
990.161	0.12
990.587	-10.38
991.014	-3.08
991.44	7.82
991.866	-2.98
992.292	-7.28
992.719	-4.78
993.145	-3.38
993.571	-12.88
993.997	-3.38
994.423	1.12
994.849	-4.38
995.275	1.22
995.701	-4.58
996.127	-8.08
996.553	-2.88
996.979	-6.58
997.405	-4.28
997.83	-8.98
998.256	-1.38
998.682	-11.68
999.108	-8.88
999.534	-7.58
999.959	-2.28
1000.385	-4.88
1000.811	-2.28
1001.236	-9.38
1001.662	-11.78
1002.087	-12.88
1002.513	-4.78
1002.938	-2.88
1003.364	-4.38
1003.789	-2.78
1004.215	1.22
1004.64	-2.78
1005.066	4.02
1005.491	-5.58
1005.916	-1.98
1006.342	-3.58
1006.767	-9.48
1007.192	1.82
1007.617	-2.68
1008.042	-9.48
1008.468	-7.38
1008.893	-6.48
1009.318	-1.98
1009.743	-2.78
1010.168	-2.58
1010.593	3.12
1011.018	-10.28
1011.443	-6.18
1011.868	-4.18
1012.293	-1.78
1012.718	-11.28
1013.143	-4.28
1013.567	1.42
1013.992	-7.48
1014.417	-17.08
1014.842	1.42
1015.267	-5.48
1015.691	-8.48
1016.116	3.82
1016.541	-5.08
1016.965	-2.18
1017.39	0.72
1017.814	-0.58
1018.239	-8.08
1018.663	-17.68
1019.088	-10.58
1019.512	-7.78
1019.937	0.12
1020.361	-5.28
1020.785	-16.48
1021.21	-2.38
1021.634	-3.68
1022.058	-3.78
1022.483	-1.68
1022.907	-7.68
1023.331	-10.48
1023.755	-3.28
1024.179	-6.58
1024.604	-8.78
1025.028	-4.08
1025.452	-3.48
1025.876	-1.68
1026.3	4.32
1026.724	-14.38
1027.148	-7.98
1027.572	-6.58
1027.996	-7.88
1028.42	-2.58
1028.843	1.22
1029.267	-8.58
1029.691	-7.18
1030.115	-14.88
1030.539	-10.58
1030.962	-6.78
1031.386	-17.58
1031.81	-2.98
1032.233	-0.88
1032.657	0.52
1033.08	-6.58
1033.504	-4.38
1033.927	-0.78
1034.351	-5.48
1034.774	-9.28
1035.198	-1.18
1035.621	-4.88
1036.045	-9.68
1036.468	0.52
1036.891	-7.88
1037.315	-7.18
1037.738	-17.48
1038.161	-2.08
1038.584	-9.18
1039.008	-12.98
1039.431	-5.78
1039.854	0.32
1040.277	-10.88
1040.7	-13.78
1041.123	-1.18
1041.546	-7.38
1041.969	-5.78
1042.392	-8.28
1042.815	1.12
1043.238	-3.38
1043.661	0.02
1044.084	-7.48
1044.507	-7.58
1044.93	-8.08
1045.352	-6.68
1045.775	-1.98
1046.198	-2.98
1046.621	-6.58
1047.043	0.32
1047.466	-0.38
1047.889	-2.38
1048.311	-11.88
1048.734	-3.28
1049.156	-2.88
1049.579	-4.78
1050.001	-6.18
1050.424	-1.38
1050.846	-8.88
1051.269	-7.48
1051.691	-6.88
1052.113	-10.58
1052.536	-3.68
1052.958	-7.18
1053.38	-7.48
1053.802	-14.28
1054.225	-0.18
1054.647	-18.78
1055.069	-9.78
1055.491	-0.78
1055.913	-11.18
1056.335	-3.88
1056.757	-6.18
1057.179	-12.68
1057.601	-6.68
1058.023	-4.08
1058.445	-11.38
1058.867	-8.18
1059.289	-8.28
1059.711	-14.68
1060.133	-0.98
1060.555	-7.38
1060.976	-7.08
1061.398	-3.58
1061.82	-8.98
1062.241	-14.08
1062.663	-9.18
1063.085	-8.28
1063.506	-0.18
1063.928	-6.08
1064.35	-10.88
1064.771	-3.28
1065.193	-5.38
1065.614	-7.48
1066.035	-2.88
1066.457	-4.48
1066.878	0.72
1067.3	-6.18
1067.721	-7.38
1068.142	-3.08
1068.564	-2.38
1068.985	-8.68
1069.406	-7.48
1069.827	-8.88
1070.248	-0.58
1070.67	-6.98
1071.091	-15.38
1071.512	-6.38
1071.933	-14.08
1072.354	-12.28
1072.775	-7.18
1073.196	-10.48
1073.617	-0.48
1074.038	-2.78
1074.459	-8.78
1074.88	-8.18
1075.3	-0.08
1075.721	-6.68
1076.142	-3.98
1076.563	-6.68
1076.983	-15.58
1077.404	-11.18
1077.825	-5.38
1078.246	-13.48
1078.666	-18.68
1079.087	-6.98
1079.507	-5.18
1079.928	1.62
1080.348	-6.28
1080.769	-7.88
1081.189	-5.28
1081.61	-3.68
1082.03	-7.98
1082.451	-2.88
1082.871	-13.88
1083.291	-5.98
1083.711	-14.48
1084.132	-10.18
1084.552	-11.48
1084.972	-7.18
1085.392	-5.38
1085.813	-15.68
1086.233	-11.68
1086.653	-3.28
1087.073	-6.58
1087.493	-9.38
1087.913	-7.98
1088.333	-5.88
1088.753	-4.08
1089.173	-1.88
1089.593	-6.98
1090.013	1.02
1090.433	-1.68
1090.852	-9.68
1091.272	-3.98
1091.692	-0.98
1092.112	-5.48
1092.531	-12.18
1092.951	-16.88
1093.371	-6.38
1093.79	-3.58
1094.21	-10.78
1094.63	-12.68
1095.049	-5.38
1095.469	-6.68
1095.888	-2.88
1096.308	1.22
1096.727	2.22
1097.146	-7.08
1097.566	-1.58
1097.985	-11.08
1098.405	-8.78
1098.824	-9.38
1099.243	-8.08
1099.662	-5.18
1100.082	-5.68
1100.501	-2.18
1100.92	-9.78
1101.339	-7.28
1101.758	-12.48
