Data from 20171114-ORNL-Ar_H_NY_Subt18_08-08-50-899.txt Node
Date: Tue Nov 14 08:08:50 EST 2017
User: Ender
Spectrometer: HR+D1039
Trigger mode: 0
Integration Time (sec): 2.730000E-2
Scans to average: 10
Electric dark correction enabled: true
Nonlinearity correction enabled: false
Boxcar width: 0
XAxis mode: Wavelengths
Number of Pixels in Spectrum: 2048
>>>>>Begin Spectral Data<<<<<
187.836	-6.58
188.309	-6.58
188.782	-6.58
189.255	0.62
189.728	-2.68
190.201	0.32
190.674	3.12
191.147	-2.58
191.619	-8.98
192.092	3.02
192.565	7.12
193.038	0.52
193.511	5.62
193.984	0.82
194.456	-1.68
194.929	2.42
195.402	-2.88
195.874	1.82
196.347	-3.58
196.82	-6.58
197.292	4.12
197.765	2.32
198.237	-9.48
198.71	-3.48
199.182	-2.18
199.655	3.22
200.127	2.62
200.6	-6.78
201.072	1.32
201.544	-1.18
202.017	0.42
202.489	5.62
202.961	-0.88
203.433	-3.28
203.906	-5.88
204.378	-6.78
204.85	-6.28
205.322	-9.88
205.794	-2.48
206.266	-1.68
206.739	-7.48
207.211	4.02
207.683	-8.28
208.155	-11.48
208.627	0.22
209.099	-6.98
209.57	-7.18
210.042	-4.88
210.514	-8.48
210.986	-0.98
211.458	-13.58
211.93	-4.78
212.402	-1.18
212.873	-3.68
213.345	-9.58
213.817	-12.28
214.288	-1.88
214.76	-8.88
215.232	-5.28
215.703	-4.68
216.175	-2.58
216.646	-3.58
217.118	-7.08
217.589	-5.08
218.061	-9.98
218.532	-11.68
219.004	-7.28
219.475	-12.48
219.946	2.12
220.418	-3.78
220.889	3.92
221.36	-5.98
221.832	-5.98
222.303	-9.48
222.774	1.32
223.245	-13.48
223.717	-12.38
224.188	-0.38
224.659	-6.58
225.13	-7.58
225.601	-6.08
226.072	3.42
226.543	-1.18
227.014	-0.98
227.485	-3.88
227.956	-3.28
228.427	0.82
228.898	1.22
229.369	-0.18
229.839	-7.58
230.31	-13.28
230.781	2.62
231.252	-1.88
231.722	-3.78
232.193	-1.48
232.664	-2.28
233.135	0.42
233.605	1.62
234.076	-5.18
234.546	4.02
235.017	3.12
235.487	1.72
235.958	-5.68
236.428	-7.28
236.899	-0.28
237.369	5.32
237.84	-3.58
238.31	4.32
238.78	-4.68
239.251	-2.68
239.721	-3.68
240.191	-2.88
240.662	-0.98
241.132	-2.88
241.602	-9.78
242.072	-6.68
242.542	1.72
243.013	-2.08
243.483	0.22
243.953	-2.08
244.423	1.72
244.893	-2.88
245.363	4.52
245.833	0.52
246.303	-7.48
246.773	6.72
247.243	-1.68
247.712	1.82
248.182	7.62
248.652	1.12
249.122	-4.68
249.592	2.42
250.061	11.12
250.531	18.22
251.001	5.02
251.471	11.02
251.94	8.72
252.41	-2.48
252.879	-6.48
253.349	6.32
253.818	0.82
254.288	2.42
254.757	-0.18
255.227	-7.88
255.696	-4.18
256.166	-1.38
256.635	4.52
257.105	5.72
257.574	-0.38
258.043	3.82
258.513	0.62
258.982	3.22
259.451	3.62
259.92	4.12
260.389	3.12
260.859	5.92
261.328	1.42
261.797	5.52
262.266	0.92
262.735	10.22
263.204	4.22
263.673	-4.98
264.142	1.32
264.611	-4.08
265.08	-2.08
265.549	-7.18
266.018	-2.98
266.487	-8.68
266.955	-2.88
267.424	-5.48
267.893	0.82
268.362	-2.78
268.83	-0.08
269.299	9.42
269.768	-0.28
270.236	4.22
270.705	-3.78
271.174	3.42
271.642	-1.68
272.111	0.82
272.579	3.52
273.048	8.12
273.516	6.62
273.985	7.52
274.453	12.62
274.922	6.42
275.39	10.62
275.858	-0.18
276.327	4.82
276.795	15.82
277.263	1.72
277.731	19.32
278.2	22.62
278.668	24.22
279.136	25.12
279.604	11.02
280.072	9.22
280.54	5.82
281.008	-0.48
281.477	4.02
281.945	7.52
282.413	11.22
282.881	9.62
283.348	4.82
283.816	15.62
284.284	9.42
284.752	16.62
285.22	6.62
285.688	9.92
286.156	13.72
286.623	24.72
287.091	22.32
287.559	15.22
288.026	7.82
288.494	8.22
288.962	-0.48
289.429	5.22
289.897	13.62
290.364	10.82
290.832	14.72
291.3	13.12
291.767	8.22
292.234	12.72
292.702	3.32
293.169	7.32
293.637	10.72
294.104	11.12
294.571	3.12
295.039	2.02
295.506	11.12
295.973	12.22
296.44	11.02
296.908	7.52
297.375	12.42
297.842	13.72
298.309	9.42
298.776	10.22
299.243	10.32
299.71	6.12
300.177	10.22
300.644	19.62
301.111	10.82
301.578	18.42
302.045	8.92
302.512	17.82
302.979	18.82
303.446	19.82
303.913	10.42
304.379	7.62
304.846	18.22
305.313	13.02
305.78	16.12
306.246	19.52
306.713	24.52
307.18	18.02
307.646	16.22
308.113	20.12
308.579	14.32
309.046	21.92
309.512	18.12
309.979	11.72
310.445	19.22
310.912	24.22
311.378	26.42
311.845	27.62
312.311	23.42
312.777	19.82
313.244	28.52
313.71	30.72
314.176	21.92
314.642	21.82
315.109	19.82
315.575	28.52
316.041	28.52
316.507	23.32
316.973	32.92
317.439	25.52
317.905	27.32
318.371	30.12
318.837	23.82
319.303	28.42
319.769	28.62
320.235	27.72
320.701	30.42
321.167	30.02
321.633	26.02
322.099	18.92
322.564	31.42
323.03	31.52
323.496	34.42
323.962	32.52
324.427	31.82
324.893	29.12
325.359	34.92
325.824	34.72
326.29	31.52
326.755	30.72
327.221	32.32
327.686	28.72
328.152	34.62
328.617	29.52
329.083	35.12
329.548	41.52
330.014	37.42
330.479	31.32
330.944	36.82
331.41	35.92
331.875	40.32
332.34	34.02
332.805	28.32
333.271	36.02
333.736	31.12
334.201	43.22
334.666	44.92
335.131	41.42
335.596	40.92
336.061	36.92
336.526	31.22
336.991	37.52
337.456	46.12
337.921	38.92
338.386	33.42
338.851	40.82
339.316	38.72
339.781	38.92
340.246	40.52
340.711	42.82
341.175	40.72
341.64	35.32
342.105	42.52
342.569	44.92
343.034	50.02
343.499	42.62
343.963	40.62
344.428	56.22
344.893	54.22
345.357	54.02
345.822	55.02
346.286	62.32
346.751	58.92
347.215	52.12
347.679	56.82
348.144	79.22
348.608	66.62
349.073	55.22
349.537	62.02
350.001	71.42
350.465	79.32
350.93	66.52
351.394	63.22
351.858	57.02
352.322	71.02
352.786	66.22
353.25	87.62
353.715	90.72
354.179	88.82
354.643	99.12
355.107	98.42
355.571	91.22
356.035	89.32
356.498	96.92
356.962	95.32
357.426	105.42
357.89	92.52
358.354	73.82
358.818	75.82
359.281	65.42
359.745	63.12
360.209	67.82
360.673	67.02
361.136	68.92
361.6	70.22
362.064	71.92
362.527	80.32
362.991	82.02
363.454	72.82
363.918	65.62
364.381	71.72
364.845	75.42
365.308	78.72
365.772	73.92
366.235	81.02
366.698	73.92
367.162	80.22
367.625	75.62
368.088	76.92
368.552	78.12
369.015	84.12
369.478	84.72
369.941	90.72
370.404	85.62
370.867	90.02
371.331	93.62
371.794	97.02
372.257	92.12
372.72	104.72
373.183	86.92
373.646	89.22
374.109	89.42
374.572	92.02
375.035	88.92
375.497	97.52
375.96	98.92
376.423	94.92
376.886	98.02
377.349	97.32
377.811	94.42
378.274	98.82
378.737	98.02
379.199	102.52
379.662	99.32
380.125	109.72
380.587	105.92
381.05	103.32
381.512	111.22
381.975	117.22
382.437	113.62
382.9	115.82
383.362	119.12
383.825	125.92
384.287	132.72
384.75	112.52
385.212	124.82
385.674	133.42
386.136	120.72
386.599	125.62
387.061	127.72
387.523	116.92
387.985	119.42
388.447	134.72
388.91	125.62
389.372	133.12
389.834	128.02
390.296	130.52
390.758	138.72
391.22	149.62
391.682	161.32
392.144	203.12
392.606	171.62
393.068	139.92
393.529	150.42
393.991	144.92
394.453	131.02
394.915	132.92
395.377	153.72
395.838	158.42
396.3	141.12
396.762	138.72
397.224	130.12
397.685	131.52
398.147	127.92
398.608	131.02
399.07	124.32
399.531	126.12
399.993	140.42
400.454	152.02
400.916	145.82
401.377	142.62
401.839	155.22
402.3	143.82
402.762	150.12
403.223	178.52
403.684	161.62
404.145	153.42
404.607	147.92
405.068	157.22
405.529	162.42
405.99	173.02
406.451	167.02
406.913	167.82
407.374	160.42
407.835	159.22
408.296	167.82
408.757	162.02
409.218	178.82
409.679	175.32
410.14	166.02
410.601	171.02
411.062	179.42
411.522	185.52
411.983	186.42
412.444	173.42
412.905	180.52
413.366	187.42
413.826	199.32
414.287	220.92
414.748	257.72
415.208	242.82
415.669	214.92
416.13	207.22
416.59	196.12
417.051	217.22
417.511	219.12
417.972	232.22
418.432	250.72
418.893	286.82
419.353	245.72
419.814	194.32
420.274	184.22
420.734	183.02
421.195	199.02
421.655	196.52
422.115	196.42
422.576	191.72
423.036	193.32
423.496	204.12
423.956	214.52
424.416	226.62
424.876	258.82
425.336	264.82
425.797	259.42
426.257	255.22
426.717	235.22
427.177	238.62
427.637	225.92
428.097	232.52
428.556	240.42
429.016	262.32
429.476	258.92
429.936	268.82
430.396	279.52
430.856	288.62
431.315	308.32
431.775	339.52
432.235	366.42
432.694	340.02
433.154	351.02
433.614	376.42
434.073	331.92
434.533	287.42
434.993	271.72
435.452	279.82
435.912	289.62
436.371	274.42
436.83	273.52
437.29	266.82
437.749	246.92
438.209	234.12
438.668	273.22
439.127	284.72
439.587	263.72
440.046	246.02
440.505	253.12
440.964	275.82
441.424	313.02
441.883	303.12
442.342	257.82
442.801	227.02
443.26	221.62
443.719	224.82
444.178	219.82
444.637	216.72
445.096	223.72
445.555	225.42
446.014	226.52
446.473	232.32
446.932	241.62
447.391	228.42
447.849	237.82
448.308	229.22
448.767	221.02
449.226	237.42
449.685	242.22
450.143	251.02
450.602	239.02
451.061	233.42
451.519	237.72
451.978	226.82
452.436	230.92
452.895	240.22
453.353	251.62
453.812	245.32
454.27	248.02
454.729	237.22
455.187	240.22
455.646	250.62
456.104	255.52
456.562	264.32
457.021	270.32
457.479	262.52
457.937	273.32
458.395	271.12
458.854	248.82
459.312	262.52
459.77	280.52
460.228	258.62
460.686	248.02
461.144	251.12
461.602	252.82
462.06	246.12
462.518	257.92
462.976	262.32
463.434	256.82
463.892	261.72
464.35	272.92
464.808	292.72
465.266	271.92
465.724	277.32
466.181	284.22
466.639	280.62
467.097	299.62
467.555	302.22
468.012	308.02
468.47	307.62
468.928	333.52
469.385	353.22
469.843	352.32
470.3	350.82
470.758	363.82
471.215	378.52
471.673	417.62
472.13	408.22
472.588	420.52
473.045	385.82
473.503	386.82
473.96	404.72
474.417	411.82
474.875	436.12
475.332	477.92
475.789	459.62
476.246	481.82
476.704	495.92
477.161	517.82
477.618	527.52
478.075	568.42
478.532	624.92
478.989	683.32
479.446	798.62
479.903	761.82
480.36	786.12
480.817	846.52
481.274	942.82
481.731	1029.72
482.188	1113.02
482.645	1233.92
483.102	1330.02
483.558	1443.42
484.015	1503.82
484.472	1471.62
484.929	1426.12
485.385	1396.22
485.842	1358.72
486.299	1294.82
486.755	1250.62
487.212	1070.02
487.668	899.02
488.125	834.92
488.582	773.02
489.038	749.52
489.494	706.82
489.951	677.42
490.407	671.92
490.864	648.42
491.32	648.92
491.776	641.22
492.233	651.82
492.689	617.32
493.145	608.52
493.602	609.12
494.058	621.12
494.514	621.82
494.97	636.02
495.426	660.82
495.882	631.92
496.338	619.32
496.794	635.42
497.251	619.72
497.707	640.22
498.163	636.32
498.618	650.92
499.074	645.62
499.53	673.92
499.986	679.22
500.442	660.52
500.898	631.82
501.354	627.52
501.809	637.62
502.265	640.22
502.721	647.42
503.177	648.82
503.632	667.42
504.088	670.72
504.543	697.62
504.999	704.92
505.455	657.02
505.91	638.12
506.366	648.02
506.821	646.72
507.277	640.02
507.732	640.12
508.187	627.02
508.643	645.42
509.098	646.02
509.553	674.22
510.009	683.22
510.464	678.32
510.919	698.32
511.375	713.32
511.83	713.62
512.285	732.92
512.74	768.52
513.195	792.32
513.65	787.32
514.105	779.22
514.56	788.22
515.015	804.22
515.47	813.42
515.925	793.02
516.38	799.92
516.835	803.62
517.29	787.72
517.745	784.32
518.2	775.82
518.655	758.12
519.109	745.02
519.564	751.12
520.019	747.32
520.474	732.12
520.928	728.42
521.383	725.72
521.838	718.82
522.292	727.72
522.747	726.52
523.201	716.02
523.656	708.72
524.11	714.42
524.565	712.22
525.019	708.32
525.474	704.92
525.928	712.52
526.382	703.12
526.837	702.42
527.291	714.22
527.745	707.62
528.2	714.02
528.654	704.82
529.108	701.02
529.562	709.52
530.016	695.82
530.47	695.82
530.925	705.72
531.379	707.12
531.833	711.52
532.287	711.82
532.741	722.82
533.195	716.42
533.649	719.32
534.103	729.72
534.556	713.62
535.01	717.42
535.464	721.42
535.918	723.42
536.372	731.22
536.826	725.32
537.279	724.22
537.733	713.02
538.187	727.12
538.64	734.22
539.094	738.92
539.548	739.12
540.001	736.12
540.455	738.52
540.908	746.32
541.362	746.72
541.815	764.02
542.269	771.02
542.722	779.82
543.175	787.02
543.629	782.22
544.082	799.32
544.536	810.72
544.989	809.02
545.442	811.82
545.895	806.52
546.349	810.12
546.802	816.82
547.255	810.42
547.708	823.32
548.161	825.82
548.614	835.62
549.067	840.82
549.52	827.82
549.973	833.42
550.426	828.92
550.879	817.32
551.332	807.62
551.785	827.92
552.238	830.12
552.691	835.92
553.144	847.92
553.596	872.82
554.049	887.92
554.502	914.62
554.955	925.02
555.407	920.62
555.86	919.02
556.313	911.12
556.765	901.92
557.218	906.12
557.67	899.12
558.123	898.22
558.576	890.72
559.028	900.42
559.48	903.72
559.933	892.32
560.385	860.72
560.838	840.62
561.29	799.92
561.742	809.72
562.195	785.82
562.647	791.12
563.099	790.12
563.551	790.62
564.004	813.02
564.456	802.62
564.908	781.82
565.36	755.12
565.812	748.82
566.264	742.42
566.716	733.12
567.168	723.82
567.62	739.52
568.072	718.12
568.524	711.62
568.976	713.72
569.428	696.42
569.88	699.42
570.332	708.82
570.784	703.12
571.235	707.72
571.687	715.62
572.139	718.62
572.59	731.62
573.042	728.02
573.494	731.22
573.945	728.72
574.397	706.32
574.849	713.42
575.3	712.52
575.752	707.62
576.203	689.72
576.655	705.62
577.106	690.42
577.557	684.22
578.009	690.92
578.46	686.92
578.912	688.12
579.363	683.32
579.814	683.02
580.265	688.22
580.717	687.52
581.168	694.82
581.619	689.12
582.07	703.52
582.521	696.32
582.972	690.12
583.423	695.62
583.875	697.32
584.326	702.72
584.777	745.22
585.227	791.32
585.678	828.62
586.129	878.92
586.58	928.62
587.031	966.62
587.482	1058.72
587.933	1143.72
588.384	1058.02
588.834	892.32
589.285	809.02
589.736	795.02
590.186	794.42
590.637	790.82
591.088	765.22
591.538	759.42
591.989	746.82
592.439	742.82
592.89	741.52
593.34	732.32
593.791	729.92
594.241	723.32
594.692	724.82
595.142	719.62
595.593	718.62
596.043	727.52
596.493	732.42
596.943	733.02
597.394	736.52
597.844	748.02
598.294	758.02
598.744	784.32
599.195	803.62
599.645	849.92
600.095	900.52
600.545	945.82
600.995	1000.32
601.445	1065.22
601.895	1123.52
602.345	1168.42
602.795	1147.72
603.245	1109.42
603.695	1042.52
604.145	992.32
604.594	932.52
605.044	893.42
605.494	825.82
605.944	768.02
606.393	765.12
606.843	745.22
607.293	751.02
607.743	747.52
608.192	765.02
608.642	774.22
609.091	789.02
609.541	787.02
609.99	791.32
610.44	791.02
610.889	735.42
611.339	718.72
611.788	710.52
612.238	712.12
612.687	736.32
613.136	734.82
613.586	735.22
614.035	735.62
614.484	742.62
614.933	740.62
615.383	750.92
615.832	736.22
616.281	731.02
616.73	700.22
617.179	688.52
617.628	673.22
618.077	664.42
618.526	647.02
618.975	635.92
619.424	638.02
619.873	631.32
620.322	643.12
620.771	624.32
621.22	623.42
621.669	611.32
622.118	605.22
622.567	600.02
623.015	583.72
623.464	596.52
623.913	577.02
624.361	570.12
624.81	571.42
625.259	562.62
625.707	575.72
626.156	578.02
626.604	588.02
627.053	584.12
627.501	592.52
627.95	589.82
628.398	604.62
628.847	593.92
629.295	591.42
629.744	603.92
630.192	589.62
630.64	589.02
631.089	575.62
631.537	582.32
631.985	572.92
632.433	580.32
632.881	574.62
633.33	597.12
633.778	600.52
634.226	564.12
634.674	567.32
635.122	576.02
635.57	586.92
636.018	614.42
636.466	589.72
636.914	574.42
637.362	585.62
637.81	598.32
638.258	591.42
638.705	599.92
639.153	630.12
639.601	635.22
640.049	661.22
640.497	698.42
640.944	715.12
641.392	670.02
641.84	635.72
642.287	604.72
642.735	574.12
643.182	580.52
643.63	589.52
644.078	588.12
644.525	602.52
644.973	598.42
645.42	618.22
645.867	641.82
646.315	652.92
646.762	688.32
647.21	709.32
647.657	733.32
648.104	761.42
648.551	790.22
648.999	845.52
649.446	930.12
649.893	1016.82
650.34	1160.02
650.787	1393.22
651.234	1717.92
651.682	2232.62
652.129	3042.72
652.576	4373.92
653.023	6386.92
653.47	8657.32
653.917	10636.32
654.363	12208.52
654.81	13332.32
655.257	12659.22
655.704	8376.22
656.151	5017.02
656.598	3279.42
657.044	2347.62
657.491	1814.12
657.938	1469.62
658.385	1227.12
658.831	1071.32
659.278	954.22
659.724	856.42
660.171	794.02
660.618	735.22
661.064	711.02
661.511	681.92
661.957	661.82
662.404	659.82
662.85	667.12
663.296	636.82
663.743	564.72
664.189	553.82
664.635	543.12
665.082	535.02
665.528	552.82
665.974	538.02
666.42	518.22
666.867	531.62
667.313	510.32
667.759	488.52
668.205	479.02
668.651	474.22
669.097	484.02
669.543	475.22
669.989	466.52
670.435	458.02
670.881	452.12
671.327	467.52
671.773	486.72
672.219	516.52
672.665	571.12
673.11	614.02
673.556	667.62
674.002	690.42
674.448	685.72
674.893	576.42
675.339	496.72
675.785	458.22
676.23	438.42
676.676	413.32
677.122	398.92
677.567	390.92
678.013	384.82
678.458	371.92
678.904	370.22
679.349	359.52
679.794	374.32
680.24	373.12
680.685	368.82
681.131	377.42
681.576	364.92
682.021	370.02
682.466	364.72
682.912	359.42
683.357	375.12
683.802	399.32
684.247	435.12
684.692	478.62
685.137	520.12
685.583	563.52
686.028	589.12
686.473	547.12
686.918	469.12
687.363	439.62
687.807	420.12
688.252	388.42
688.697	377.62
689.142	350.42
689.587	345.82
690.032	343.82
690.477	361.92
690.921	367.42
691.366	399.82
691.811	426.22
692.255	450.82
692.7	482.22
693.145	538.22
693.589	760.22
694.034	1227.72
694.478	1661.42
694.923	1809.32
695.367	2347.22
695.812	1246.92
696.256	523.02
696.701	395.12
697.145	360.32
697.59	345.52
698.034	335.52
698.478	338.82
698.922	343.22
699.367	343.22
699.811	356.62
700.255	372.92
700.699	406.82
701.143	443.92
701.588	502.22
702.032	530.32
702.476	536.32
702.92	509.82
703.364	530.02
703.808	697.52
704.252	1137.42
704.696	1562.52
705.14	1749.02
705.584	2208.12
706.027	1109.52
706.471	548.02
706.915	414.42
707.359	367.12
707.803	342.52
708.246	327.32
708.69	333.12
709.134	325.12
709.577	333.82
710.021	322.62
710.465	323.22
710.908	321.62
711.352	313.22
711.795	333.52
712.239	375.52
712.682	412.32
713.126	429.82
713.569	486.62
714.012	372.42
714.456	320.82
714.899	306.52
715.342	288.92
715.786	281.22
716.229	272.22
716.672	268.12
717.115	255.32
717.558	261.52
718.002	257.72
718.445	266.42
718.888	290.12
719.331	311.02
719.774	325.72
720.217	316.42
720.66	300.42
721.103	276.12
721.546	261.92
721.989	257.32
722.432	239.62
722.874	251.12
723.317	249.42
723.76	250.62
724.203	273.22
724.645	338.12
725.088	482.12
725.531	595.02
725.974	669.92
726.416	567.82
726.859	328.32
727.301	253.62
727.744	246.12
728.187	243.32
728.629	253.02
729.071	250.52
729.514	275.22
729.956	289.42
730.399	305.42
730.841	304.72
731.283	288.32
731.726	282.02
732.168	278.02
732.61	285.92
733.053	305.62
733.495	335.62
733.937	372.52
734.379	430.82
734.821	465.02
735.263	584.52
735.705	915.92
736.148	1731.22
736.59	2776.02
737.032	3180.42
737.474	2586.52
737.916	857.02
738.357	447.72
738.799	342.52
739.241	314.42
739.683	303.12
740.125	309.62
740.567	311.02
741.008	332.82
741.45	331.32
741.892	336.32
742.334	372.72
742.775	381.32
743.217	360.52
743.658	294.42
744.1	270.62
744.542	279.52
744.983	331.42
745.425	370.22
745.866	364.12
746.307	298.92
746.749	289.52
747.19	345.52
747.632	495.82
748.073	980.42
748.514	2042.42
748.956	3030.72
749.397	3819.72
749.838	3146.12
750.279	3079.32
750.72	1576.82
751.162	585.72
751.603	346.12
752.044	273.42
752.485	231.02
752.926	226.72
753.367	216.82
753.808	200.42
754.249	200.92
754.69	194.52
755.131	195.92
755.572	190.72
756.013	198.42
756.453	200.82
756.894	196.02
757.335	202.62
757.776	200.92
758.216	207.32
758.657	214.62
759.098	218.32
759.538	243.02
759.979	291.92
760.42	409.32
760.86	783.12
761.301	2053.62
761.741	4828.22
762.182	6688.12
762.622	4720.82
763.063	1387.82
763.503	565.32
763.943	340.82
764.384	322.82
764.824	325.42
765.264	328.22
765.705	260.22
766.145	211.22
766.585	196.62
767.025	186.42
767.465	180.52
767.906	214.62
768.346	260.82
768.786	272.32
769.226	245.02
769.666	342.22
770.106	688.62
770.546	1718.52
770.986	2767.52
771.426	2446.82
771.866	835.92
772.306	347.32
772.745	217.52
773.185	177.52
773.625	169.22
774.065	157.32
774.505	179.92
774.944	257.42
775.384	503.72
775.824	844.72
776.263	791.62
776.703	369.32
777.142	186.12
777.582	151.42
778.021	137.02
778.461	137.42
778.9	136.92
779.34	135.72
779.779	119.52
780.219	113.42
780.658	113.02
781.097	116.92
781.537	113.12
781.976	115.12
782.415	109.32
782.855	108.92
783.294	111.52
783.733	114.42
784.172	113.62
784.611	110.42
785.05	109.72
785.489	115.12
785.928	126.92
786.367	128.12
786.806	131.12
787.245	131.92
787.684	144.42
788.123	151.92
788.562	139.52
789.001	131.72
789.44	129.52
789.879	125.12
790.317	128.02
790.756	132.02
791.195	141.72
791.634	159.82
792.072	221.82
792.511	401.72
792.95	1123.22
793.388	2235.62
793.827	1987.92
794.265	705.52
794.704	296.32
795.142	195.52
795.581	160.42
796.019	140.52
796.458	127.62
796.896	126.72
797.334	139.12
797.773	163.72
798.211	234.52
798.649	484.32
799.087	1109.42
799.526	1712.12
799.964	2151.92
800.402	2076.02
800.84	798.72
801.278	317.12
801.716	189.42
802.154	159.42
802.592	154.62
803.03	149.12
803.468	136.12
803.906	152.62
804.344	155.52
804.782	148.92
805.22	137.12
805.658	138.02
806.096	162.22
806.533	174.22
806.971	191.52
807.409	237.62
807.847	352.82
808.284	740.52
808.722	2054.82
809.16	3461.72
809.597	3422.72
810.035	5810.42
810.472	5931.12
810.91	2198.32
811.347	855.12
811.785	432.22
812.222	264.82
812.66	207.32
813.097	180.02
813.535	156.62
813.972	134.52
814.409	130.42
814.846	113.42
815.284	112.32
815.721	107.02
816.158	106.72
816.595	120.02
817.032	169.42
817.47	193.62
817.907	136.42
818.344	119.02
818.781	111.42
819.218	101.42
819.655	134.12
820.092	197.82
820.529	226.32
820.966	182.82
821.403	135.52
821.839	108.62
822.276	102.62
822.713	129.12
823.15	139.02
823.587	124.82
824.023	161.42
824.46	336.82
824.897	975.82
825.333	1414.52
825.77	611.02
826.206	252.82
826.643	142.72
827.08	113.22
827.516	87.72
827.953	85.12
828.389	89.42
828.825	73.12
829.262	69.12
829.698	69.62
830.135	68.72
830.571	71.02
831.007	70.32
831.443	69.72
831.88	62.12
832.316	66.32
832.752	67.22
833.188	65.62
833.624	63.72
834.06	76.02
834.497	77.02
834.933	81.12
835.369	80.32
835.805	70.02
836.241	78.12
836.677	84.82
837.112	99.62
837.548	113.62
837.984	141.82
838.42	222.12
838.856	554.72
839.292	1656.82
839.727	2398.32
840.163	1131.72
840.599	1026.72
841.034	2184.22
841.47	2173.12
841.906	808.72
842.341	356.42
842.777	219.62
843.212	251.92
843.648	233.02
844.083	129.42
844.519	99.12
844.954	72.72
845.39	65.32
845.825	59.32
846.261	61.32
846.696	57.22
847.131	55.62
847.566	63.22
848.002	52.52
848.437	60.92
848.872	64.92
849.307	67.82
849.742	95.82
850.177	195.32
850.613	601.32
851.048	906.82
851.483	396.42
851.918	165.32
852.353	85.02
852.788	64.12
853.223	53.22
853.657	55.32
854.092	46.52
854.527	45.42
854.962	41.92
855.397	49.72
855.832	51.72
856.266	39.32
856.701	43.12
857.136	39.72
857.57	44.92
858.005	54.12
858.44	59.12
858.874	45.62
859.309	54.72
859.743	38.92
860.178	48.32
860.612	44.02
861.047	54.42
861.481	69.92
861.915	72.22
862.35	57.52
862.784	37.82
863.218	40.22
863.653	30.32
864.087	49.62
864.521	56.92
864.955	69.42
865.39	171.52
865.824	185.42
866.258	122.62
866.692	176.22
867.126	183.32
867.56	111.52
867.994	54.62
868.428	44.32
868.862	51.22
869.296	60.32
869.73	61.12
870.164	58.92
870.598	47.92
871.031	37.82
871.465	36.12
871.899	34.42
872.333	27.82
872.766	25.72
873.2	28.02
873.634	27.82
874.067	28.42
874.501	27.72
874.935	40.42
875.368	29.02
875.802	31.32
876.235	27.92
876.669	25.72
877.102	22.22
877.535	29.62
877.969	26.12
878.402	26.32
878.836	17.72
879.269	24.32
879.702	27.92
880.135	25.12
880.569	20.22
881.002	27.92
881.435	21.02
881.868	18.42
882.301	24.42
882.734	9.92
883.167	21.52
883.601	15.02
884.034	24.42
884.467	16.22
884.899	21.42
885.332	18.22
885.765	15.52
886.198	19.42
886.631	14.62
887.064	17.32
887.497	23.02
887.929	26.82
888.362	14.62
888.795	9.22
889.228	17.82
889.66	20.92
890.093	17.32
890.526	19.32
890.958	15.02
891.391	23.02
891.823	22.92
892.256	17.32
892.688	15.22
893.121	19.22
893.553	18.32
893.985	20.72
894.418	23.72
894.85	6.82
895.282	15.02
895.715	16.02
896.147	21.02
896.579	20.32
897.011	15.92
897.444	23.02
897.876	16.62
898.308	20.82
898.74	21.72
899.172	16.32
899.604	22.92
900.036	23.22
900.468	16.22
900.9	18.12
901.332	18.92
901.764	14.22
902.196	18.22
902.628	20.32
903.06	16.32
903.491	27.72
903.923	22.32
904.355	20.62
904.787	25.22
905.218	28.12
905.65	13.22
906.082	13.02
906.513	15.02
906.945	12.62
907.376	15.92
907.808	17.42
908.239	33.02
908.671	20.42
909.102	21.42
909.534	27.92
909.965	54.72
910.397	99.82
910.828	337.32
911.259	492.72
911.691	226.42
912.122	115.72
912.553	56.32
912.984	33.52
913.415	28.02
913.847	22.92
914.278	16.12
914.709	21.02
915.14	23.02
915.571	17.92
916.002	15.82
916.433	22.42
916.864	23.02
917.295	13.92
917.726	24.12
918.157	13.32
918.587	30.02
919.018	25.42
919.449	21.42
919.88	25.42
920.311	37.62
920.741	55.82
921.172	177.12
921.603	164.62
922.033	75.92
922.464	47.52
922.895	25.62
923.325	22.72
923.756	18.52
924.186	19.72
924.617	26.42
925.047	28.12
925.478	37.52
925.908	28.42
926.338	20.42
926.769	8.42
927.199	19.42
927.629	9.52
928.06	16.02
928.49	11.12
928.92	13.32
929.35	12.62
929.78	7.02
930.21	11.72
930.641	7.52
931.071	4.12
931.501	5.12
931.931	11.62
932.361	9.02
932.791	5.82
933.221	5.92
933.651	6.12
934.08	19.12
934.51	32.72
934.94	12.02
935.37	12.62
935.8	11.32
936.229	14.42
936.659	12.52
937.089	9.92
937.519	20.02
937.948	23.72
938.378	17.82
938.807	3.92
939.237	8.82
939.666	12.62
940.096	-3.38
940.525	6.82
940.955	3.62
941.384	3.22
941.814	-3.28
942.243	-2.08
942.672	5.72
943.102	2.82
943.531	0.62
943.96	1.02
944.39	2.22
944.819	-0.78
945.248	5.12
945.677	1.52
946.106	4.52
946.535	5.42
946.964	2.92
947.393	4.32
947.822	0.92
948.251	-4.18
948.68	7.82
949.109	10.02
949.538	5.42
949.967	-0.68
950.396	3.02
950.825	0.12
951.254	5.72
951.682	-1.78
952.111	2.32
952.54	2.12
952.969	-6.68
953.397	-9.38
953.826	2.92
954.254	-5.68
954.683	4.72
955.112	2.72
955.54	9.02
955.969	-1.88
956.397	3.72
956.826	-2.38
957.254	6.92
957.682	-0.68
958.111	11.22
958.539	0.62
958.967	4.72
959.396	2.52
959.824	2.52
960.252	3.92
960.68	-3.78
961.109	-2.78
961.537	-3.88
961.965	2.52
962.393	0.72
962.821	-2.88
963.249	3.32
963.677	1.82
964.105	10.62
964.533	48.82
964.961	44.42
965.389	22.82
965.817	8.12
966.245	5.02
966.672	-4.98
967.1	-6.78
967.528	-1.48
967.956	-2.68
968.383	1.32
968.811	-5.88
969.239	-1.98
969.666	-1.88
970.094	1.92
970.522	-0.18
970.949	0.62
971.377	-5.68
971.804	-4.88
972.232	-2.68
972.659	-1.08
973.087	-0.38
973.514	-4.28
973.941	-5.18
974.369	2.92
974.796	3.22
975.223	-2.98
975.651	0.72
976.078	8.22
976.505	-2.18
976.932	2.02
977.359	14.42
977.786	13.82
978.214	-1.38
978.641	4.22
979.068	-5.48
979.495	-6.28
979.922	-2.78
980.349	-4.88
980.776	9.02
981.202	1.82
981.629	9.02
982.056	4.52
982.483	-0.88
982.91	3.52
983.337	-2.08
983.763	0.92
984.19	-6.38
984.617	-1.98
985.043	-5.98
985.47	1.12
985.897	0.32
986.323	-6.08
986.75	0.62
987.176	-0.58
987.603	2.12
988.029	1.22
988.456	1.72
988.882	0.22
989.308	-0.28
989.735	-1.28
990.161	-1.68
990.587	-5.48
991.014	-4.98
991.44	6.82
991.866	-2.48
992.292	-5.48
992.719	-0.58
993.145	5.62
993.571	-5.58
993.997	0.42
994.423	-1.28
994.849	3.12
995.275	2.02
995.701	1.62
996.127	-2.78
996.553	-0.68
996.979	-4.58
997.405	-0.88
997.83	-6.88
998.256	-2.98
998.682	-6.08
999.108	-7.68
999.534	-1.88
999.959	4.02
1000.385	-7.38
1000.811	-1.08
1001.236	-10.08
1001.662	-4.78
1002.087	-8.58
1002.513	1.62
1002.938	5.02
1003.364	1.62
1003.789	-6.88
1004.215	2.22
1004.64	-2.98
1005.066	2.12
1005.491	4.62
1005.916	-2.68
1006.342	-2.18
1006.767	-14.38
1007.192	8.32
1007.617	-3.18
1008.042	-2.58
1008.468	-5.18
1008.893	-2.28
1009.318	-1.88
1009.743	-0.68
1010.168	4.72
1010.593	3.42
1011.018	-14.38
1011.443	-1.38
1011.868	5.72
1012.293	0.62
1012.718	-2.58
1013.143	-8.48
1013.567	-1.38
1013.992	-2.68
1014.417	-13.38
1014.842	2.72
1015.267	-8.78
1015.691	4.32
1016.116	4.52
1016.541	3.52
1016.965	4.52
1017.39	4.22
1017.814	-5.18
1018.239	-4.18
1018.663	-3.18
1019.088	-10.58
1019.512	-8.18
1019.937	-1.48
1020.361	-1.58
1020.785	-7.98
1021.21	-0.98
1021.634	-3.68
1022.058	-0.98
1022.483	6.42
1022.907	-4.88
1023.331	-1.68
1023.755	-3.98
1024.179	-0.68
1024.604	-7.08
1025.028	-4.48
1025.452	-7.08
1025.876	-3.88
1026.3	-0.08
1026.724	-12.08
1027.148	-9.48
1027.572	-9.38
1027.996	-2.78
1028.42	-5.58
1028.843	-4.88
1029.267	-2.28
1029.691	-5.98
1030.115	-6.18
1030.539	-7.28
1030.962	-10.08
1031.386	-3.88
1031.81	-2.18
1032.233	-2.18
1032.657	-6.98
1033.08	-1.08
1033.504	0.42
1033.927	-7.28
1034.351	0.12
1034.774	-1.48
1035.198	-2.98
1035.621	-7.28
1036.045	-4.28
1036.468	0.52
1036.891	-11.78
1037.315	-6.88
1037.738	-6.28
1038.161	-0.18
1038.584	-6.78
1039.008	-6.98
1039.431	-8.78
1039.854	0.52
1040.277	-9.58
1040.7	-7.28
1041.123	-5.88
1041.546	-12.38
1041.969	-8.28
1042.392	-4.48
1042.815	-2.78
1043.238	-1.38
1043.661	1.22
1044.084	-5.68
1044.507	-4.38
1044.93	-3.78
1045.352	-4.38
1045.775	-3.28
1046.198	-1.78
1046.621	-5.48
1047.043	4.62
1047.466	6.72
1047.889	-1.48
1048.311	-6.78
1048.734	0.32
1049.156	-7.08
1049.579	1.92
1050.001	-7.08
1050.424	1.72
1050.846	-3.18
1051.269	-3.38
1051.691	-9.28
1052.113	-4.78
1052.536	2.42
1052.958	-1.28
1053.38	-3.68
1053.802	-3.58
1054.225	1.72
1054.647	-7.98
1055.069	0.32
1055.491	0.52
1055.913	-7.58
1056.335	-0.08
1056.757	-0.48
1057.179	-4.58
1057.601	-7.98
1058.023	-5.28
1058.445	-2.78
1058.867	-1.68
1059.289	-6.08
1059.711	-10.88
1060.133	-10.68
1060.555	-4.18
1060.976	-8.18
1061.398	-6.48
1061.82	-8.18
1062.241	-7.78
1062.663	-8.08
1063.085	-3.88
1063.506	0.12
1063.928	1.22
1064.35	-1.08
1064.771	-10.98
1065.193	-4.58
1065.614	-14.18
1066.035	-1.98
1066.457	-7.98
1066.878	-0.58
1067.3	-9.28
1067.721	-0.58
1068.142	-7.58
1068.564	-2.88
1068.985	-6.58
1069.406	-9.38
1069.827	-2.58
1070.248	2.02
1070.67	-12.38
1071.091	-6.78
1071.512	-3.68
1071.933	-1.08
1072.354	-10.08
1072.775	-1.78
1073.196	-9.68
1073.617	2.92
1074.038	-5.38
1074.459	-4.78
1074.88	-6.18
1075.3	0.32
1075.721	-2.38
1076.142	-0.38
1076.563	0.12
1076.983	-9.08
1077.404	-4.88
1077.825	-16.58
1078.246	-1.48
1078.666	-12.08
1079.087	-4.98
1079.507	-5.38
1079.928	4.42
1080.348	1.62
1080.769	-8.18
1081.189	-3.08
1081.61	-6.78
1082.03	-2.78
1082.451	-4.78
1082.871	-3.68
1083.291	-8.48
1083.711	-11.18
1084.132	-6.48
1084.552	-2.38
1084.972	-0.08
1085.392	-10.08
1085.813	-13.28
1086.233	-4.18
1086.653	-9.28
1087.073	-3.28
1087.493	-8.98
1087.913	-7.78
1088.333	-5.48
1088.753	-0.78
1089.173	6.32
1089.593	-0.08
1090.013	-2.58
1090.433	1.92
1090.852	-2.48
1091.272	-3.28
1091.692	-1.58
1092.112	-2.38
1092.531	-10.38
1092.951	-17.38
1093.371	-6.08
1093.79	-3.08
1094.21	-5.28
1094.63	-6.68
1095.049	-9.68
1095.469	-0.08
1095.888	-2.18
1096.308	3.32
1096.727	0.72
1097.146	-7.18
1097.566	3.12
1097.985	-6.88
1098.405	3.32
1098.824	-6.08
1099.243	-7.48
1099.662	-10.08
1100.082	-2.78
1100.501	3.12
1100.92	-4.28
1101.339	-3.48
1101.758	-1.98
