Data from 20171114-ORNL-Ar_H_NY_Subt18_08-04-28-268.txt Node
Date: Tue Nov 14 08:04:28 EST 2017
User: Ender
Spectrometer: HR+D1039
Trigger mode: 0
Integration Time (sec): 2.730000E-2
Scans to average: 10
Electric dark correction enabled: true
Nonlinearity correction enabled: false
Boxcar width: 0
XAxis mode: Wavelengths
Number of Pixels in Spectrum: 2048
>>>>>Begin Spectral Data<<<<<
187.836	-2.88
188.309	-2.88
188.782	-2.88
189.255	3.12
189.728	-2.18
190.201	3.12
190.674	-1.68
191.147	4.02
191.619	-5.58
192.092	1.22
192.565	4.52
193.038	2.82
193.511	-4.28
193.984	-1.08
194.456	1.42
194.929	-0.98
195.402	1.02
195.874	-2.68
196.347	1.22
196.82	-10.68
197.292	5.12
197.765	-4.28
198.237	-6.78
198.71	-1.58
199.182	1.42
199.655	7.42
200.127	-1.08
200.6	-5.48
201.072	-2.68
201.544	-4.58
202.017	-2.38
202.489	-1.78
202.961	-5.98
203.433	-4.08
203.906	-6.08
204.378	-9.78
204.85	-6.28
205.322	-10.48
205.794	1.52
206.266	-9.38
206.739	-9.78
207.211	-4.08
207.683	-10.88
208.155	-6.78
208.627	-9.78
209.099	-8.18
209.57	-12.68
210.042	-5.28
210.514	-7.38
210.986	-9.58
211.458	-6.28
211.93	-2.88
212.402	0.42
212.873	-9.58
213.345	-12.68
213.817	-14.38
214.288	-10.38
214.76	-13.38
215.232	-12.38
215.703	-5.48
216.175	-3.48
216.646	-2.48
217.118	-10.18
217.589	-5.78
218.061	-5.88
218.532	-3.98
219.004	-5.18
219.475	-2.98
219.946	-3.08
220.418	-9.48
220.889	1.72
221.36	0.12
221.832	-3.48
222.303	-9.28
222.774	1.32
223.245	-8.28
223.717	-10.48
224.188	-5.28
224.659	-11.48
225.13	-6.48
225.601	-3.38
226.072	0.12
226.543	1.12
227.014	-1.28
227.485	-3.58
227.956	-5.38
228.427	-3.28
228.898	-0.28
229.369	-1.08
229.839	-4.58
230.31	-12.38
230.781	-6.98
231.252	-3.98
231.722	-7.68
232.193	-2.18
232.664	-3.38
233.135	-1.98
233.605	-5.88
234.076	-7.88
234.546	-1.18
235.017	-2.48
235.487	-0.88
235.958	-6.28
236.428	-3.48
236.899	-0.08
237.369	2.22
237.84	-3.58
238.31	3.92
238.78	2.62
239.251	3.32
239.721	8.92
240.191	3.52
240.662	-1.28
241.132	-1.78
241.602	-6.28
242.072	-0.98
242.542	10.22
243.013	-2.68
243.483	4.92
243.953	8.32
244.423	-0.78
244.893	-2.38
245.363	5.42
245.833	1.52
246.303	-1.68
246.773	7.22
247.243	2.72
247.712	4.72
248.182	5.82
248.652	7.02
249.122	-2.78
249.592	9.52
250.061	23.92
250.531	35.22
251.001	19.32
251.471	19.02
251.94	24.62
252.41	7.32
252.879	-0.38
253.349	9.72
253.818	8.82
254.288	2.52
254.757	2.82
255.227	4.32
255.696	0.32
256.166	1.22
256.635	7.72
257.105	8.62
257.574	6.82
258.043	10.32
258.513	11.72
258.982	18.32
259.451	7.12
259.92	15.32
260.389	9.12
260.859	17.02
261.328	15.32
261.797	9.82
262.266	5.22
262.735	8.22
263.204	1.12
263.673	1.52
264.142	1.02
264.611	-1.88
265.08	3.52
265.549	-3.08
266.018	7.32
266.487	1.42
266.955	0.92
267.424	-0.38
267.893	9.72
268.362	1.42
268.83	5.42
269.299	10.32
269.768	-0.28
270.236	10.12
270.705	2.12
271.174	4.22
271.642	4.92
272.111	15.52
272.579	12.22
273.048	23.52
273.516	26.52
273.985	28.62
274.453	23.62
274.922	16.82
275.39	12.82
275.858	3.82
276.327	14.72
276.795	17.52
277.263	10.42
277.731	25.02
278.2	51.82
278.668	66.42
279.136	45.22
279.604	21.32
280.072	15.52
280.54	12.22
281.008	10.92
281.477	12.12
281.945	10.52
282.413	11.32
282.881	19.02
283.348	5.02
283.816	14.62
284.284	11.92
284.752	20.32
285.22	8.02
285.688	19.92
286.156	18.02
286.623	43.12
287.091	47.72
287.559	25.42
288.026	15.22
288.494	13.62
288.962	13.12
289.429	4.52
289.897	14.22
290.364	11.72
290.832	6.92
291.3	21.02
291.767	14.02
292.234	20.42
292.702	8.22
293.169	15.52
293.637	21.32
294.104	22.92
294.571	7.62
295.039	12.82
295.506	16.22
295.973	21.42
296.44	13.12
296.908	19.02
297.375	19.12
297.842	10.52
298.309	12.82
298.776	14.52
299.243	21.82
299.71	13.62
300.177	21.02
300.644	24.02
301.111	21.42
301.578	23.62
302.045	18.42
302.512	23.82
302.979	21.12
303.446	21.52
303.913	12.12
304.379	17.62
304.846	28.12
305.313	22.32
305.78	28.12
306.246	25.62
306.713	21.92
307.18	30.72
307.646	30.62
308.113	22.82
308.579	25.32
309.046	24.02
309.512	20.42
309.979	17.92
310.445	24.72
310.912	25.32
311.378	29.62
311.845	28.82
312.311	28.32
312.777	30.42
313.244	26.82
313.71	30.52
314.176	32.62
314.642	29.12
315.109	26.12
315.575	39.72
316.041	33.22
316.507	31.72
316.973	39.52
317.439	29.42
317.905	36.22
318.371	36.52
318.837	32.42
319.303	29.42
319.769	31.02
320.235	37.22
320.701	35.52
321.167	31.12
321.633	34.72
322.099	38.12
322.564	47.12
323.03	38.42
323.496	37.32
323.962	37.12
324.427	35.72
324.893	37.52
325.359	37.62
325.824	33.02
326.29	33.52
326.755	37.82
327.221	41.02
327.686	36.82
328.152	46.72
328.617	46.22
329.083	39.42
329.548	45.32
330.014	44.12
330.479	36.32
330.944	39.82
331.41	40.12
331.875	42.12
332.34	36.72
332.805	42.62
333.271	47.72
333.736	43.92
334.201	53.42
334.666	47.82
335.131	50.72
335.596	44.82
336.061	45.62
336.526	39.72
336.991	48.82
337.456	54.02
337.921	49.52
338.386	45.52
338.851	40.72
339.316	43.22
339.781	40.52
340.246	52.12
340.711	42.42
341.175	48.72
341.64	40.52
342.105	48.02
342.569	55.32
343.034	55.42
343.499	53.22
343.963	46.42
344.428	64.92
344.893	55.32
345.357	57.92
345.822	52.52
346.286	62.02
346.751	64.02
347.215	65.62
347.679	65.42
348.144	99.02
348.608	76.22
349.073	69.22
349.537	73.52
350.001	68.82
350.465	82.72
350.93	69.12
351.394	78.02
351.858	69.82
352.322	83.32
352.786	82.22
353.25	98.32
353.715	100.12
354.179	85.72
354.643	112.92
355.107	120.42
355.571	101.02
356.035	92.22
356.498	108.42
356.962	114.82
357.426	120.12
357.89	108.12
358.354	80.42
358.818	77.92
359.281	75.82
359.745	71.32
360.209	72.62
360.673	71.52
361.136	72.82
361.6	72.92
362.064	74.62
362.527	74.72
362.991	82.42
363.454	72.42
363.918	73.22
364.381	69.52
364.845	69.22
365.308	84.32
365.772	76.62
366.235	88.22
366.698	79.72
367.162	82.92
367.625	77.82
368.088	78.52
368.552	81.72
369.015	83.92
369.478	88.92
369.941	94.92
370.404	93.32
370.867	99.72
371.331	102.42
371.794	105.42
372.257	102.52
372.72	110.72
373.183	103.72
373.646	95.52
374.109	90.72
374.572	100.52
375.035	98.12
375.497	100.22
375.96	98.72
376.423	99.42
376.886	106.32
377.349	98.62
377.811	95.22
378.274	96.92
378.737	103.82
379.199	99.42
379.662	101.02
380.125	108.12
380.587	100.22
381.05	107.82
381.512	121.22
381.975	123.72
382.437	116.32
382.9	115.52
383.362	123.92
383.825	125.92
384.287	139.92
384.75	133.12
385.212	134.92
385.674	124.22
386.136	121.52
386.599	121.92
387.061	117.62
387.523	113.72
387.985	121.12
388.447	131.12
388.91	134.92
389.372	139.12
389.834	143.82
390.296	125.02
390.758	135.52
391.22	153.52
391.682	192.92
392.144	258.32
392.606	208.32
393.068	152.22
393.529	152.72
393.991	141.42
394.453	134.42
394.915	143.42
395.377	173.12
395.838	197.72
396.3	139.82
396.762	132.72
397.224	126.92
397.685	119.52
398.147	124.32
398.608	120.82
399.07	122.42
399.531	124.72
399.993	126.62
400.454	138.92
400.916	137.52
401.377	136.82
401.839	136.32
402.3	138.72
402.762	149.42
403.223	166.32
403.684	162.92
404.145	139.02
404.607	148.32
405.068	144.02
405.529	150.62
405.99	172.52
406.451	160.72
406.913	155.62
407.374	151.42
407.835	146.52
408.296	151.32
408.757	159.82
409.218	170.12
409.679	169.12
410.14	154.02
410.601	166.82
411.062	163.02
411.522	182.32
411.983	176.12
412.444	159.52
412.905	162.42
413.366	169.02
413.826	173.42
414.287	194.02
414.748	237.12
415.208	232.62
415.669	194.02
416.13	181.02
416.59	176.12
417.051	188.32
417.511	196.52
417.972	215.52
418.432	225.23
418.893	263.73
419.353	234.22
419.814	179.72
420.274	168.12
420.734	164.12
421.195	179.02
421.655	179.92
422.115	174.42
422.576	175.32
423.036	169.92
423.496	181.02
423.956	198.62
424.416	215.22
424.876	252.72
425.336	241.52
425.797	244.42
426.257	235.92
426.717	210.02
427.177	212.32
427.637	199.82
428.097	212.22
428.556	228.23
429.016	244.22
429.476	231.62
429.936	252.83
430.396	249.92
430.856	257.82
431.315	289.02
431.775	319.42
432.235	336.32
432.694	319.12
433.154	321.23
433.614	348.22
434.073	306.82
434.533	255.42
434.993	242.12
435.452	256.02
435.912	266.82
436.371	265.02
436.83	254.12
437.29	245.92
437.749	227.23
438.209	219.12
438.668	245.62
439.127	264.32
439.587	235.33
440.046	222.52
440.505	229.52
440.964	247.42
441.424	286.12
441.883	271.12
442.342	234.42
442.801	201.52
443.26	201.62
443.719	197.42
444.178	188.02
444.637	192.22
445.096	197.22
445.555	194.82
446.014	205.12
446.473	201.82
446.932	207.72
447.391	202.52
447.849	206.02
448.308	197.32
448.767	200.92
449.226	215.62
449.685	222.42
450.143	226.92
450.602	214.82
451.061	205.42
451.519	213.22
451.978	212.22
452.436	213.23
452.895	218.12
453.353	224.52
453.812	215.72
454.27	217.72
454.729	215.02
455.187	219.32
455.646	223.62
456.104	220.52
456.562	230.92
457.021	236.52
457.479	235.02
457.937	245.42
458.395	241.12
458.854	225.42
459.312	228.12
459.77	238.62
460.228	226.42
460.686	217.02
461.144	226.32
461.602	225.72
462.06	223.42
462.518	227.72
462.976	231.02
463.434	234.12
463.892	241.12
464.35	246.12
464.808	255.92
465.266	248.02
465.724	250.72
466.181	253.52
466.639	250.62
467.097	264.52
467.555	278.32
468.012	276.22
468.47	282.92
468.928	294.12
469.385	314.12
469.843	315.52
470.3	315.22
470.758	325.92
471.215	336.52
471.673	367.12
472.13	366.42
472.588	365.52
473.045	338.33
473.503	339.22
473.96	349.92
474.417	370.62
474.875	390.22
475.332	424.23
475.789	413.12
476.246	418.42
476.704	449.22
477.161	465.32
477.618	473.82
478.075	507.92
478.532	552.42
478.989	624.73
479.446	723.83
479.903	703.33
480.36	733.12
480.817	785.62
481.274	883.92
481.731	981.02
482.188	1056.12
482.645	1187.92
483.102	1294.82
483.558	1415.62
484.015	1472.22
484.472	1446.22
484.929	1401.53
485.385	1356.02
485.842	1318.42
486.299	1247.52
486.755	1181.82
487.212	998.52
487.668	850.12
488.125	781.42
488.582	708.62
489.038	688.32
489.494	641.82
489.951	625.82
490.407	609.02
490.864	598.92
491.32	579.32
491.776	590.42
492.233	592.12
492.689	549.12
493.145	547.62
493.602	548.12
494.058	555.02
494.514	549.02
494.97	573.62
495.426	583.23
495.882	567.73
496.338	558.02
496.794	566.32
497.251	564.32
497.707	584.52
498.163	590.02
498.618	587.42
499.074	593.52
499.53	615.72
499.986	617.72
500.442	592.33
500.898	567.62
501.354	559.02
501.809	581.82
502.265	592.92
502.721	601.42
503.177	615.42
503.632	602.22
504.088	608.42
504.543	638.72
504.999	636.82
505.455	591.22
505.91	580.32
506.366	580.52
506.821	571.12
507.277	566.22
507.732	566.72
508.187	568.72
508.643	573.02
509.098	581.62
509.553	592.92
510.009	597.12
510.464	607.02
510.919	624.12
511.375	633.12
511.83	636.92
512.285	657.12
512.74	691.62
513.195	712.73
513.65	704.62
514.105	704.62
514.56	709.92
515.015	720.12
515.47	736.73
515.925	731.12
516.38	726.02
516.835	727.72
517.29	712.42
517.745	708.92
518.2	690.12
518.655	686.92
519.109	675.12
519.564	680.22
520.019	667.42
520.474	666.62
520.928	668.02
521.383	660.52
521.838	646.62
522.292	641.82
522.747	648.73
523.201	631.22
523.656	629.82
524.11	621.52
524.565	623.23
525.019	628.92
525.474	628.22
525.928	631.62
526.382	629.32
526.837	625.42
527.291	637.12
527.745	627.12
528.2	624.12
528.654	629.52
529.108	610.62
529.562	621.92
530.016	618.72
530.47	623.52
530.925	625.02
531.379	628.92
531.833	640.92
532.287	627.92
532.741	644.42
533.195	625.12
533.649	640.42
534.103	654.02
534.556	647.32
535.01	634.12
535.464	631.82
535.918	650.72
536.372	652.72
536.826	644.22
537.279	632.72
537.733	640.12
538.187	650.72
538.64	646.02
539.094	655.82
539.548	655.32
540.001	649.92
540.455	647.72
540.908	661.82
541.362	664.73
541.815	670.82
542.269	681.72
542.722	683.82
543.175	691.12
543.629	690.62
544.082	705.92
544.536	704.73
544.989	694.83
545.442	717.92
545.895	711.12
546.349	708.02
546.802	718.12
547.255	718.62
547.708	718.82
548.161	733.02
548.614	732.72
549.067	746.82
549.52	724.42
549.973	726.92
550.426	719.02
550.879	712.52
551.332	718.32
551.785	713.42
552.238	718.62
552.691	724.62
553.144	748.72
553.596	755.92
554.049	780.22
554.502	796.92
554.955	807.62
555.407	817.02
555.86	801.32
556.313	797.23
556.765	783.52
557.218	782.22
557.67	791.52
558.123	772.32
558.576	776.72
559.028	777.52
559.48	783.22
559.933	775.42
560.385	746.12
560.838	723.12
561.29	696.82
561.742	695.83
562.195	678.73
562.647	681.52
563.099	681.52
563.551	679.92
564.004	695.82
564.456	682.32
564.908	677.12
565.36	663.52
565.812	651.82
566.264	639.62
566.716	635.83
567.168	626.42
567.62	637.32
568.072	621.42
568.524	620.62
568.976	612.52
569.428	595.62
569.88	598.02
570.332	601.42
570.784	593.82
571.235	603.12
571.687	615.73
572.139	608.62
572.59	632.82
573.042	627.62
573.494	633.72
573.945	618.02
574.397	614.73
574.849	602.92
575.3	612.42
575.752	603.82
576.203	600.72
576.655	600.62
577.106	594.52
577.557	575.02
578.009	588.72
578.46	586.92
578.912	579.42
579.363	576.23
579.814	574.42
580.265	577.72
580.717	588.22
581.168	588.82
581.619	594.92
582.07	602.22
582.521	585.52
582.972	586.42
583.423	599.32
583.875	598.52
584.326	610.72
584.777	647.62
585.227	714.82
585.678	796.22
586.129	873.22
586.58	943.02
587.031	1021.23
587.482	1175.92
587.933	1316.72
588.384	1146.42
588.834	846.23
589.285	701.42
589.736	681.62
590.186	677.32
590.637	666.52
591.088	648.12
591.538	642.32
591.989	638.02
592.439	627.62
592.89	622.42
593.34	621.82
593.791	608.12
594.241	607.72
594.692	609.23
595.142	604.42
595.593	605.82
596.043	602.62
596.493	625.32
596.943	613.42
597.394	627.12
597.844	607.62
598.294	636.83
598.744	650.92
599.195	677.92
599.645	708.42
600.095	736.72
600.545	775.72
600.995	835.02
601.445	890.62
601.895	949.83
602.345	995.42
602.795	968.02
603.245	922.92
603.695	868.92
604.145	831.12
604.594	795.12
605.044	739.32
605.494	690.32
605.944	644.42
606.393	633.82
606.843	626.72
607.293	627.42
607.743	633.92
608.192	644.12
608.642	645.52
609.091	663.92
609.541	661.92
609.99	659.72
610.44	656.83
610.889	614.62
611.339	601.52
611.788	583.72
612.238	605.72
612.687	612.42
613.136	620.52
613.586	628.92
614.035	623.62
614.484	646.02
614.933	639.42
615.383	649.52
615.832	626.12
616.281	613.22
616.73	583.42
617.179	566.62
617.628	552.62
618.077	540.02
618.526	527.72
618.975	522.42
619.424	514.32
619.873	522.42
620.322	526.32
620.771	506.62
621.22	519.72
621.669	508.42
622.118	497.62
622.567	487.33
623.015	476.72
623.464	485.42
623.913	471.12
624.361	469.22
624.81	467.02
625.259	481.42
625.707	476.62
626.156	467.52
626.604	476.92
627.053	477.32
627.501	473.22
627.95	478.83
628.398	486.92
628.847	479.92
629.295	483.92
629.744	483.42
630.192	482.02
630.64	487.72
631.089	475.02
631.537	492.02
631.985	485.12
632.433	500.42
632.881	514.33
633.33	551.52
633.778	535.02
634.226	470.83
634.674	474.92
635.122	490.52
635.57	495.82
636.018	523.52
636.466	484.23
636.914	467.32
637.362	481.22
637.81	489.02
638.258	480.52
638.705	479.02
639.153	506.92
639.601	517.22
640.049	528.42
640.497	562.32
640.944	575.72
641.392	543.42
641.84	514.22
642.287	493.73
642.735	478.22
643.182	483.83
643.63	481.52
644.078	480.42
644.525	497.42
644.973	500.22
645.42	504.82
645.867	524.12
646.315	533.12
646.762	555.72
647.21	579.83
647.657	592.72
648.104	625.72
648.551	640.32
648.999	691.92
649.446	751.82
649.893	832.62
650.34	958.82
650.787	1154.32
651.234	1418.32
651.682	1840.32
652.129	2509.42
652.576	3620.43
653.023	5382.22
653.47	7412.02
653.917	9381.52
654.363	10990.03
654.81	12363.83
655.257	11717.83
655.704	7607.43
656.151	4451.92
656.598	2893.72
657.044	2044.02
657.491	1571.93
657.938	1245.62
658.385	1041.02
658.831	907.02
659.278	808.12
659.724	717.62
660.171	657.12
660.618	614.92
661.064	573.42
661.511	556.92
661.957	537.22
662.404	526.72
662.85	531.42
663.296	514.72
663.743	457.92
664.189	443.72
664.635	441.22
665.082	429.52
665.528	444.92
665.974	427.52
666.42	412.42
666.867	417.62
667.313	396.73
667.759	398.52
668.205	390.72
668.651	398.42
669.097	403.92
669.543	413.72
669.989	392.22
670.435	373.42
670.881	367.52
671.327	372.62
671.773	387.82
672.219	399.82
672.665	458.02
673.11	475.52
673.556	512.42
674.002	556.12
674.448	542.72
674.893	455.92
675.339	395.32
675.785	368.12
676.23	349.12
676.676	324.82
677.122	314.02
677.567	311.02
678.013	299.72
678.458	299.12
678.904	299.22
679.349	273.92
679.794	282.82
680.24	280.72
680.685	276.92
681.131	280.72
681.576	280.62
682.021	288.32
682.466	282.22
682.912	287.72
683.357	282.23
683.802	308.52
684.247	340.22
684.692	374.42
685.137	407.82
685.583	452.12
686.028	461.82
686.473	424.92
686.918	364.32
687.363	338.92
687.807	322.82
688.252	300.22
688.697	286.22
689.142	274.72
689.587	263.92
690.032	269.42
690.477	283.12
690.921	287.72
691.366	310.52
691.811	325.82
692.255	354.32
692.7	380.82
693.145	408.22
693.589	551.42
694.034	902.02
694.478	1246.52
694.923	1455.22
695.367	1931.62
695.812	1001.22
696.256	409.42
696.701	305.22
697.145	270.92
697.59	271.02
698.034	260.72
698.478	270.33
698.922	264.83
699.367	271.42
699.811	281.72
700.255	285.83
700.699	304.82
701.143	343.22
701.588	391.02
702.032	430.82
702.476	420.42
702.92	398.52
703.364	398.32
703.808	507.92
704.252	821.82
704.696	1178.33
705.14	1384.52
705.584	1799.43
706.027	885.62
706.471	426.32
706.915	322.12
707.359	283.32
707.803	253.32
708.246	250.62
708.69	252.22
709.134	260.82
709.577	251.12
710.021	261.62
710.465	245.02
710.908	242.62
711.352	236.92
711.795	253.72
712.239	283.73
712.682	307.62
713.126	339.32
713.569	379.72
714.012	299.02
714.456	261.02
714.899	245.92
715.342	221.33
715.786	213.92
716.229	208.32
716.672	212.42
717.115	200.02
717.558	203.12
718.002	203.92
718.445	208.73
718.888	227.52
719.331	233.92
719.774	251.02
720.217	249.22
720.66	231.02
721.103	212.32
721.546	204.92
721.989	205.02
722.432	186.32
722.874	184.12
723.317	185.73
723.76	188.42
724.203	203.42
724.645	253.12
725.088	349.62
725.531	456.62
725.974	533.02
726.416	453.72
726.859	249.32
727.301	198.73
727.744	185.32
728.187	190.83
728.629	191.12
729.071	198.82
729.514	207.02
729.956	218.32
730.399	230.32
730.841	240.32
731.283	228.72
731.726	217.22
732.168	211.12
732.61	208.42
733.053	229.42
733.495	257.42
733.937	284.52
734.379	317.22
734.821	351.32
735.263	437.42
735.705	653.92
736.148	1240.43
736.59	2087.02
737.032	2568.62
737.474	2088.82
737.916	658.32
738.357	353.32
738.799	266.22
739.241	246.92
739.683	228.92
740.125	237.12
740.567	240.02
741.008	255.32
741.45	256.92
741.892	253.82
742.334	281.52
742.775	284.72
743.217	274.72
743.658	216.92
744.1	204.42
744.542	210.42
744.983	252.23
745.425	282.32
745.866	288.62
746.307	234.82
746.749	224.52
747.19	258.52
747.632	357.42
748.073	685.62
748.514	1456.23
748.956	2324.92
749.397	2922.82
749.838	2428.82
750.279	2512.53
750.72	1247.62
751.162	449.52
751.603	262.72
752.044	199.42
752.485	180.12
752.926	171.62
753.367	158.92
753.808	159.52
754.249	150.42
754.69	149.42
755.131	149.52
755.572	149.22
756.013	150.62
756.453	152.02
756.894	143.72
757.335	147.12
757.776	149.92
758.216	159.62
758.657	161.82
759.098	153.82
759.538	177.72
759.979	210.12
760.42	285.52
760.86	553.32
761.301	1415.02
761.741	3571.02
762.182	5491.23
762.622	3861.32
763.063	1081.12
763.503	431.82
763.943	283.72
764.384	267.92
764.824	324.62
765.264	370.12
765.705	253.02
766.145	175.72
766.585	151.92
767.025	145.52
767.465	149.02
767.906	196.23
768.346	259.42
768.786	279.62
769.226	207.62
769.666	258.02
770.106	475.62
770.546	1220.72
770.986	2213.02
771.426	2006.02
771.866	658.22
772.306	257.92
772.745	166.52
773.185	141.82
773.625	137.62
774.065	130.72
774.505	162.62
774.944	241.22
775.384	524.72
775.824	1011.92
776.263	999.62
776.703	417.32
777.142	181.62
777.582	121.82
778.021	111.42
778.461	111.02
778.9	115.82
779.34	108.92
779.779	95.22
780.219	83.42
780.658	86.72
781.097	84.82
781.537	90.62
781.976	82.12
782.415	88.12
782.855	81.62
783.294	82.52
783.733	77.22
784.172	82.32
784.611	81.52
785.05	86.32
785.489	90.92
785.928	87.62
786.367	91.52
786.806	87.12
787.245	100.12
787.684	106.42
788.123	120.72
788.562	104.02
789.001	94.62
789.44	95.92
789.879	89.22
790.317	96.52
790.756	103.12
791.195	102.52
791.634	109.22
792.072	156.52
792.511	282.62
792.95	784.62
793.388	1770.72
793.827	1654.32
794.265	558.12
794.704	223.42
795.142	150.02
795.581	122.62
796.019	112.22
796.458	105.52
796.896	97.52
797.334	103.12
797.773	118.22
798.211	172.62
798.649	344.12
799.087	817.72
799.526	1304.93
799.964	1635.03
800.402	1701.53
800.84	630.42
801.278	246.82
801.716	150.12
802.154	124.22
802.592	114.02
803.03	116.52
803.468	104.42
803.906	114.82
804.344	115.52
804.782	109.62
805.22	105.32
805.658	100.02
806.096	119.22
806.533	123.82
806.971	144.82
807.409	171.02
807.847	243.62
808.284	511.22
808.722	1482.22
809.16	2765.32
809.597	2541.23
810.035	4469.32
810.472	5024.02
810.91	1773.62
811.347	658.52
811.785	339.42
812.222	212.02
812.66	159.12
813.097	132.62
813.535	111.92
813.972	105.92
814.409	97.12
814.846	89.72
815.284	86.32
815.721	76.32
816.158	82.22
816.595	94.52
817.032	136.42
817.47	166.72
817.907	139.32
818.344	115.22
818.781	95.82
819.218	79.02
819.655	92.82
820.092	150.42
820.529	179.82
820.966	143.22
821.403	105.92
821.839	88.42
822.276	79.22
822.713	94.82
823.15	107.82
823.587	90.02
824.023	111.72
824.46	231.22
824.897	712.92
825.333	1145.42
825.77	485.72
826.206	186.12
826.643	109.02
827.08	72.72
827.516	67.12
827.953	59.02
828.389	68.72
828.825	55.12
829.262	49.32
829.698	48.22
830.135	47.62
830.571	42.52
831.007	49.12
831.443	50.22
831.88	45.62
832.316	47.12
832.752	50.62
833.188	47.12
833.624	50.52
834.06	57.52
834.497	52.72
834.933	50.12
835.369	58.02
835.805	47.42
836.241	59.22
836.677	60.12
837.112	70.02
837.548	84.62
837.984	103.82
838.42	151.92
838.856	375.12
839.292	1217.22
839.727	1957.92
840.163	902.82
840.599	741.12
841.034	1674.03
841.47	1816.82
841.906	654.83
842.341	269.02
842.777	187.83
843.212	264.92
843.648	253.12
844.083	121.72
844.519	77.82
844.954	59.62
845.39	45.22
845.825	50.22
846.261	47.22
846.696	40.02
847.131	40.32
847.566	45.72
848.002	43.22
848.437	44.62
848.872	41.82
849.307	46.42
849.742	66.32
850.177	141.52
850.613	449.02
851.048	734.52
851.483	319.42
851.918	125.72
852.353	65.92
852.788	40.72
853.223	43.32
853.657	41.92
854.092	35.62
854.527	27.82
854.962	35.62
855.397	35.12
855.832	34.52
856.266	29.32
856.701	29.32
857.136	26.12
857.57	28.42
858.005	39.42
858.44	48.52
858.874	28.82
859.309	44.02
859.743	21.92
860.178	40.82
860.612	26.82
861.047	40.32
861.481	53.32
861.915	57.72
862.35	44.32
862.784	22.72
863.218	28.32
863.653	28.12
864.087	37.02
864.521	43.02
864.955	51.82
865.39	122.92
865.824	142.12
866.258	88.32
866.692	136.02
867.126	144.92
867.56	89.02
867.994	40.92
868.428	27.82
868.862	31.82
869.296	42.32
869.73	45.82
870.164	40.12
870.598	37.22
871.031	22.92
871.465	26.32
871.899	19.32
872.333	19.72
872.766	22.12
873.2	17.12
873.634	26.42
874.067	15.42
874.501	23.12
874.935	22.82
875.368	20.32
875.802	21.82
876.235	14.12
876.669	19.72
877.102	14.32
877.535	21.02
877.969	17.02
878.402	20.12
878.836	9.42
879.269	12.52
879.702	20.62
880.135	13.52
880.569	20.32
881.002	20.62
881.435	11.02
881.868	8.62
882.301	15.72
882.734	12.32
883.167	16.62
883.601	12.22
884.034	16.42
884.467	10.02
884.899	6.92
885.332	8.22
885.765	4.92
886.198	7.62
886.631	10.72
887.064	8.42
887.497	11.52
887.929	16.42
888.362	9.22
888.795	4.82
889.228	13.22
889.66	13.72
890.093	12.22
890.526	14.22
890.958	12.02
891.391	12.22
891.823	17.32
892.256	12.62
892.688	8.72
893.121	14.32
893.553	9.32
893.985	11.52
894.418	9.02
894.85	9.42
895.282	6.82
895.715	14.92
896.147	13.02
896.579	14.42
897.011	8.12
897.444	12.02
897.876	7.82
898.308	8.32
898.74	9.52
899.172	7.42
899.604	18.42
900.036	12.02
900.468	5.22
900.9	12.92
901.332	12.42
901.764	9.62
902.196	12.92
902.628	14.12
903.06	8.82
903.491	21.62
903.923	12.42
904.355	17.72
904.787	17.02
905.218	23.12
905.65	9.42
906.082	1.42
906.513	7.82
906.945	11.12
907.376	8.42
907.808	11.02
908.239	19.92
908.671	11.02
909.102	17.32
909.534	17.42
909.965	35.52
910.397	74.82
910.828	263.12
911.259	408.02
911.691	185.92
912.122	87.92
912.553	37.52
912.984	24.52
913.415	15.82
913.847	22.22
914.278	12.02
914.709	2.12
915.14	7.32
915.571	12.12
916.002	8.22
916.433	16.12
916.864	7.62
917.295	8.22
917.726	14.92
918.157	16.32
918.587	20.72
919.018	16.92
919.449	10.22
919.88	11.22
920.311	23.22
920.741	35.52
921.172	135.32
921.603	122.32
922.033	55.12
922.464	31.62
922.895	17.22
923.325	14.92
923.756	11.32
924.186	11.82
924.617	18.22
925.047	31.22
925.478	42.92
925.908	37.42
926.338	18.02
926.769	11.12
927.199	19.22
927.629	1.62
928.06	3.82
928.49	7.12
928.92	3.82
929.35	1.72
929.78	5.22
930.21	3.22
930.641	7.42
931.071	11.12
931.501	-0.68
931.931	4.42
932.361	8.02
932.791	2.02
933.221	1.72
933.651	5.12
934.08	9.12
934.51	24.32
934.94	9.02
935.37	8.32
935.8	7.32
936.229	6.72
936.659	1.92
937.089	-6.68
937.519	4.62
937.948	13.52
938.378	8.32
938.807	1.62
939.237	2.92
939.666	2.82
940.096	-8.08
940.525	-1.98
940.955	1.32
941.384	8.02
941.814	-3.68
942.243	-7.18
942.672	-0.28
943.102	0.02
943.531	2.12
943.96	2.92
944.39	-0.28
944.819	-5.78
945.248	-0.48
945.677	-3.98
946.106	1.42
946.535	4.32
946.964	0.32
947.393	0.02
947.822	-2.28
948.251	-6.28
948.68	4.82
949.109	2.52
949.538	-0.68
949.967	0.92
950.396	-0.78
950.825	-1.28
951.254	-3.98
951.682	-5.18
952.111	1.82
952.54	1.22
952.969	-4.28
953.397	-10.98
953.826	2.22
954.254	-4.58
954.683	-6.18
955.112	-6.28
955.54	-2.38
955.969	1.62
956.397	5.92
956.826	-4.78
957.254	5.62
957.682	1.22
958.111	2.92
958.539	-3.08
958.967	0.02
959.396	1.72
959.824	1.12
960.252	1.52
960.68	-6.68
961.109	-3.28
961.537	-10.08
961.965	-2.78
962.393	-1.48
962.821	-3.78
963.249	-2.18
963.677	-1.98
964.105	2.72
964.533	36.62
964.961	28.02
965.389	16.02
965.817	3.02
966.245	-4.18
966.672	-6.58
967.1	-10.88
967.528	-1.78
967.956	-12.28
968.383	-3.38
968.811	-6.48
969.239	-3.08
969.666	-9.18
970.094	-2.88
970.522	2.92
970.949	-3.78
971.377	-3.68
971.804	-3.08
972.232	-3.38
972.659	-7.78
973.087	-7.58
973.514	-9.78
973.941	-1.28
974.369	0.22
974.796	-6.08
975.223	-6.08
975.651	-2.58
976.078	-0.98
976.505	-2.08
976.932	0.72
977.359	12.92
977.786	9.82
978.214	-2.18
978.641	-7.58
979.068	-7.88
979.495	-4.88
979.922	0.32
980.349	-3.08
980.776	0.02
981.202	-1.48
981.629	0.22
982.056	-0.18
982.483	-4.58
982.91	-2.18
983.337	-6.18
983.763	0.52
984.19	-1.68
984.617	-3.68
985.043	-10.18
985.47	-2.28
985.897	-5.38
986.323	-8.58
986.75	-2.68
987.176	-4.28
987.603	1.92
988.029	-3.08
988.456	-5.98
988.882	-0.68
989.308	-7.68
989.735	-8.18
990.161	-2.08
990.587	-5.78
991.014	1.72
991.44	0.92
991.866	-5.48
992.292	-10.48
992.719	-9.58
993.145	4.82
993.571	-10.98
993.997	-6.08
994.423	-5.38
994.849	-7.28
995.275	-5.88
995.701	-2.08
996.127	-0.48
996.553	-0.88
996.979	-5.58
997.405	-3.48
997.83	-7.68
998.256	-8.98
998.682	-4.28
999.108	-12.88
999.534	-5.68
999.959	-2.98
1000.385	-8.58
1000.811	-3.98
1001.236	-6.28
1001.662	-9.28
1002.087	-12.78
1002.513	1.12
1002.938	-0.08
1003.364	-6.08
1003.789	-3.48
1004.215	-3.78
1004.64	-4.98
1005.066	3.42
1005.491	-2.28
1005.916	-6.88
1006.342	-5.68
1006.767	-3.88
1007.192	5.12
1007.617	-2.58
1008.042	-5.98
1008.468	-8.08
1008.893	-6.38
1009.318	-2.48
1009.743	-8.38
1010.168	5.52
1010.593	5.12
1011.018	-9.08
1011.443	-8.18
1011.868	1.12
1012.293	-8.48
1012.718	-8.98
1013.143	-0.48
1013.567	-0.18
1013.992	-0.78
1014.417	-13.48
1014.842	0.32
1015.267	-7.38
1015.691	-9.78
1016.116	0.22
1016.541	-7.38
1016.965	-4.08
1017.39	-0.98
1017.814	-1.58
1018.239	-0.68
1018.663	-11.78
1019.088	-12.08
1019.512	-0.38
1019.937	-2.78
1020.361	-4.98
1020.785	-12.08
1021.21	-0.78
1021.634	-7.38
1022.058	-4.88
1022.483	4.42
1022.907	-8.38
1023.331	-3.88
1023.755	-8.08
1024.179	-5.58
1024.604	-12.68
1025.028	-8.18
1025.452	-11.58
1025.876	-1.98
1026.3	-0.78
1026.724	-10.28
1027.148	-6.08
1027.572	-8.08
1027.996	-3.48
1028.42	-4.88
1028.843	-8.88
1029.267	-7.08
1029.691	-0.38
1030.115	-9.48
1030.539	-8.28
1030.962	-8.18
1031.386	-13.78
1031.81	1.42
1032.233	-2.78
1032.657	-0.48
1033.08	-4.08
1033.504	-4.08
1033.927	-6.48
1034.351	-3.48
1034.774	-6.78
1035.198	-2.28
1035.621	-6.68
1036.045	-5.48
1036.468	-1.98
1036.891	-9.88
1037.315	-12.78
1037.738	-15.28
1038.161	-4.18
1038.584	-3.18
1039.008	-6.98
1039.431	-2.58
1039.854	-3.68
1040.277	-5.88
1040.7	-8.48
1041.123	-1.48
1041.546	-6.28
1041.969	-2.38
1042.392	-9.18
1042.815	-4.88
1043.238	-4.38
1043.661	-1.78
1044.084	-9.68
1044.507	-7.28
1044.93	-11.18
1045.352	-5.68
1045.775	-9.08
1046.198	0.42
1046.621	-5.88
1047.043	-1.38
1047.466	2.72
1047.889	-4.98
1048.311	-8.08
1048.734	-7.08
1049.156	-8.98
1049.579	-6.68
1050.001	0.42
1050.424	-1.98
1050.846	-1.98
1051.269	-4.48
1051.691	-11.48
1052.113	-9.18
1052.536	-10.08
1052.958	-3.68
1053.38	-12.88
1053.802	-16.08
1054.225	0.42
1054.647	-12.78
1055.069	-12.08
1055.491	3.42
1055.913	-4.78
1056.335	-0.28
1056.757	-6.38
1057.179	-14.18
1057.601	-7.88
1058.023	-2.08
1058.445	-3.78
1058.867	0.22
1059.289	1.72
1059.711	-9.88
1060.133	-6.98
1060.555	-2.78
1060.976	-11.38
1061.398	-10.68
1061.82	-8.88
1062.241	-5.78
1062.663	-7.58
1063.085	-13.88
1063.506	-3.28
1063.928	-3.18
1064.35	-5.38
1064.771	-15.78
1065.193	-4.18
1065.614	-11.68
1066.035	-6.38
1066.457	-2.68
1066.878	0.42
1067.3	-6.08
1067.721	-3.78
1068.142	-5.28
1068.564	-3.78
1068.985	-3.08
1069.406	-5.98
1069.827	-8.78
1070.248	0.52
1070.67	-10.88
1071.091	-11.18
1071.512	-2.18
1071.933	-6.88
1072.354	-11.78
1072.775	-5.98
1073.196	-11.18
1073.617	-8.38
1074.038	-9.38
1074.459	-4.98
1074.88	-5.88
1075.3	-6.18
1075.721	-7.18
1076.142	-0.38
1076.563	-1.08
1076.983	-7.48
1077.404	-10.88
1077.825	-10.78
1078.246	-7.68
1078.666	-11.18
1079.087	-0.78
1079.507	-1.48
1079.928	-5.08
1080.348	-4.88
1080.769	-1.18
1081.189	-1.38
1081.61	-6.28
1082.03	-6.68
1082.451	-5.98
1082.871	-10.28
1083.291	-10.38
1083.711	-10.38
1084.132	-4.48
1084.552	-6.78
1084.972	-0.88
1085.392	-12.98
1085.813	-11.18
1086.233	-9.38
1086.653	-11.48
1087.073	-7.28
1087.493	-2.18
1087.913	-7.98
1088.333	-8.38
1088.753	-13.28
1089.173	0.02
1089.593	-8.48
1090.013	-3.88
1090.433	-1.58
1090.852	-5.88
1091.272	-1.08
1091.692	0.42
1092.112	-5.88
1092.531	-7.18
1092.951	-11.88
1093.371	-3.68
1093.79	-4.78
1094.21	-1.38
1094.63	-12.68
1095.049	-7.58
1095.469	-3.78
1095.888	-4.98
1096.308	-3.58
1096.727	5.02
1097.146	-7.28
1097.566	-1.68
1097.985	-4.98
1098.405	-10.08
1098.824	-10.28
1099.243	-5.38
1099.662	-9.98
1100.082	-0.18
1100.501	-4.28
1100.92	-6.18
1101.339	-8.68
1101.758	-5.68
