Data from 20171114-ORNL-Ar_H_NY_Subt18_08-07-57-095.txt Node
Date: Tue Nov 14 08:07:57 EST 2017
User: Ender
Spectrometer: HR+D1039
Trigger mode: 0
Integration Time (sec): 2.730000E-2
Scans to average: 10
Electric dark correction enabled: true
Nonlinearity correction enabled: false
Boxcar width: 0
XAxis mode: Wavelengths
Number of Pixels in Spectrum: 2048
>>>>>Begin Spectral Data<<<<<
187.836	-1.53
188.309	-1.53
188.782	-1.53
189.255	-1.73
189.728	-3.43
190.201	2.87
190.674	1.17
191.147	-0.43
191.619	-4.53
192.092	2.97
192.565	5.87
193.038	0.37
193.511	3.67
193.984	-4.93
194.456	-0.53
194.929	0.47
195.402	-0.13
195.874	-0.13
196.347	0.87
196.82	-8.93
197.292	5.27
197.765	-2.63
198.237	-6.33
198.71	-2.93
199.182	1.17
199.655	1.77
200.127	3.37
200.6	-7.73
201.072	-11.63
201.544	-7.33
202.017	1.17
202.489	0.17
202.961	-3.33
203.433	-5.53
203.906	-9.03
204.378	-6.93
204.85	-5.13
205.322	-10.73
205.794	-7.73
206.266	-1.13
206.739	-13.33
207.211	0.47
207.683	-9.33
208.155	-4.53
208.627	-5.23
209.099	-6.83
209.57	-3.73
210.042	-8.63
210.514	-6.33
210.986	-4.53
211.458	-10.83
211.93	-4.13
212.402	-0.13
212.873	-4.53
213.345	-13.43
213.817	-20.93
214.288	-4.33
214.76	-16.03
215.232	-2.13
215.703	-7.73
216.175	-2.93
216.646	-6.33
217.118	-9.93
217.589	-5.83
218.061	-4.93
218.532	-6.73
219.004	-5.73
219.475	-4.33
219.946	-3.83
220.418	-8.03
220.889	0.97
221.36	-0.13
221.832	-5.93
222.303	-7.53
222.774	-2.13
223.245	-13.73
223.717	-10.03
224.188	-7.13
224.659	-10.43
225.13	-10.33
225.601	-7.03
226.072	4.77
226.543	-4.83
227.014	-1.13
227.485	-1.63
227.956	-7.83
228.427	-10.03
228.898	-2.33
229.369	2.57
229.839	-4.83
230.31	-7.93
230.781	-1.73
231.252	-4.53
231.722	-7.33
232.193	-4.83
232.664	-9.23
233.135	-2.33
233.605	-1.73
234.076	-6.23
234.546	-5.43
235.017	5.47
235.487	1.67
235.958	-8.53
236.428	-3.93
236.899	-2.63
237.369	2.47
237.84	0.27
238.31	1.67
238.78	0.77
239.251	-1.53
239.721	1.17
240.191	-0.43
240.662	-3.03
241.132	2.17
241.602	-1.73
242.072	0.37
242.542	10.47
243.013	-5.73
243.483	3.47
243.953	-2.33
244.423	3.37
244.893	-1.53
245.363	-1.23
245.833	2.97
246.303	-3.43
246.773	1.47
247.243	-1.63
247.712	-3.83
248.182	5.87
248.652	4.57
249.122	-2.73
249.592	7.07
250.061	17.97
250.531	24.67
251.001	13.77
251.471	17.97
251.94	15.47
252.41	0.47
252.879	-1.73
253.349	9.47
253.818	7.17
254.288	7.47
254.757	1.37
255.227	-2.73
255.696	-2.73
256.166	8.07
256.635	5.27
257.105	8.97
257.574	6.47
258.043	10.17
258.513	14.47
258.982	14.27
259.451	0.07
259.92	13.17
260.389	6.57
260.859	13.07
261.328	15.77
261.797	18.37
262.266	3.97
262.735	12.57
263.204	13.37
263.673	2.27
264.142	6.87
264.611	-5.03
265.08	-1.43
265.549	-4.23
266.018	8.77
266.487	-6.73
266.955	-7.43
267.424	0.07
267.893	3.27
268.362	-0.43
268.83	5.77
269.299	11.87
269.768	3.77
270.236	6.57
270.705	1.77
271.174	5.67
271.642	2.57
272.111	6.87
272.579	14.87
273.048	21.97
273.516	27.27
273.985	25.37
274.453	22.57
274.922	10.57
275.39	14.57
275.858	1.07
276.327	9.57
276.795	14.87
277.263	8.97
277.731	22.87
278.2	48.47
278.668	55.87
279.136	47.47
279.604	11.87
280.072	11.57
280.54	10.87
281.008	6.97
281.477	16.17
281.945	7.57
282.413	11.67
282.881	12.47
283.348	2.87
283.816	15.37
284.284	14.77
284.752	21.87
285.22	11.47
285.688	13.87
286.156	16.37
286.623	39.87
287.091	50.07
287.559	24.77
288.026	12.77
288.494	12.07
288.962	8.37
289.429	8.77
289.897	19.67
290.364	14.57
290.832	12.67
291.3	10.77
291.767	11.57
292.234	14.77
292.702	17.07
293.169	17.07
293.637	16.27
294.104	14.47
294.571	-0.63
295.039	9.17
295.506	13.77
295.973	13.47
296.44	19.17
296.908	21.47
297.375	16.07
297.842	18.47
298.309	20.37
298.776	11.27
299.243	19.37
299.71	8.87
300.177	21.17
300.644	22.67
301.111	22.97
301.578	24.37
302.045	11.57
302.512	22.27
302.979	16.67
303.446	24.17
303.913	19.37
304.379	18.97
304.846	27.77
305.313	16.97
305.78	16.67
306.246	20.57
306.713	24.47
307.18	21.27
307.646	31.57
308.113	25.97
308.579	19.17
309.046	27.57
309.512	22.37
309.979	17.27
310.445	26.27
310.912	22.57
311.378	26.67
311.845	29.37
312.311	26.67
312.777	28.77
313.244	27.67
313.71	35.27
314.176	27.97
314.642	26.37
315.109	35.57
315.575	40.77
316.041	34.47
316.507	28.77
316.973	40.57
317.439	37.57
317.905	35.67
318.371	27.87
318.837	25.37
319.303	33.17
319.769	32.47
320.235	36.07
320.701	27.57
321.167	35.07
321.633	34.27
322.099	37.97
322.564	41.77
323.03	30.37
323.496	34.37
323.962	35.27
324.427	29.37
324.893	38.67
325.359	38.67
325.824	35.27
326.29	32.07
326.755	37.87
327.221	39.77
327.686	39.07
328.152	45.17
328.617	37.67
329.083	34.47
329.548	47.37
330.014	43.87
330.479	40.47
330.944	41.27
331.41	38.57
331.875	42.07
332.34	36.97
332.805	35.67
333.271	41.37
333.736	42.37
334.201	47.97
334.666	51.27
335.131	47.97
335.596	43.57
336.061	50.47
336.526	41.07
336.991	56.87
337.456	57.67
337.921	43.57
338.386	42.47
338.851	44.07
339.316	47.57
339.781	38.27
340.246	47.37
340.711	45.57
341.175	53.27
341.64	45.37
342.105	50.67
342.569	50.37
343.034	49.77
343.499	55.77
343.963	43.97
344.428	63.07
344.893	56.07
345.357	61.87
345.822	58.27
346.286	64.57
346.751	73.27
347.215	70.77
347.679	72.27
348.144	91.17
348.608	79.97
349.073	62.97
349.537	69.47
350.001	73.17
350.465	87.67
350.93	80.07
351.394	79.57
351.858	69.47
352.322	81.77
352.786	86.67
353.25	93.57
353.715	107.87
354.179	96.97
354.643	114.07
355.107	119.77
355.571	107.37
356.035	93.37
356.498	113.57
356.962	120.67
357.426	123.17
357.89	114.27
358.354	83.97
358.818	79.07
359.281	81.27
359.745	66.47
360.209	76.67
360.673	77.17
361.136	78.67
361.6	83.27
362.064	82.67
362.527	80.77
362.991	85.57
363.454	83.17
363.918	76.27
364.381	77.77
364.845	80.47
365.308	82.77
365.772	81.47
366.235	77.87
366.698	76.97
367.162	86.37
367.625	80.47
368.088	87.57
368.552	85.77
369.015	79.17
369.478	90.67
369.941	92.17
370.404	90.37
370.867	102.67
371.331	109.67
371.794	109.97
372.257	105.37
372.72	114.57
373.183	99.87
373.646	99.17
374.109	101.47
374.572	105.67
375.035	104.37
375.497	105.77
375.96	98.37
376.423	97.87
376.886	111.87
377.349	104.67
377.811	94.77
378.274	94.27
378.737	108.37
379.199	111.17
379.662	108.37
380.125	102.87
380.587	114.07
381.05	125.07
381.512	122.07
381.975	130.47
382.437	127.57
382.9	123.37
383.362	131.27
383.825	138.37
384.287	150.07
384.75	140.67
385.212	134.57
385.674	136.57
386.136	133.47
386.599	117.77
387.061	127.37
387.523	121.37
387.985	130.87
388.447	141.97
388.91	147.47
389.372	157.97
389.834	147.47
390.296	137.47
390.758	146.17
391.22	169.07
391.682	212.07
392.144	298.67
392.606	226.97
393.068	163.87
393.529	163.67
393.991	157.27
394.453	144.17
394.915	153.57
395.377	195.37
395.838	211.87
396.3	154.97
396.762	141.57
397.224	135.27
397.685	126.87
398.147	129.67
398.608	139.47
399.07	132.47
399.531	136.67
399.993	145.87
400.454	148.87
400.916	145.07
401.377	138.17
401.839	148.47
402.3	151.37
402.762	164.97
403.223	179.57
403.684	173.47
404.145	156.97
404.607	159.17
405.068	163.17
405.529	162.87
405.99	184.17
406.451	175.77
406.913	167.37
407.374	162.77
407.835	159.97
408.296	161.87
408.757	168.27
409.218	186.67
409.679	177.47
410.14	175.57
410.601	183.17
411.062	185.27
411.522	186.17
411.983	190.57
412.444	172.27
412.905	172.57
413.366	178.17
413.826	184.77
414.287	210.07
414.748	256.47
415.208	246.67
415.669	207.17
416.13	199.77
416.59	203.87
417.051	207.07
417.511	214.07
417.972	239.17
418.432	242.57
418.893	288.17
419.353	241.47
419.814	200.57
420.274	189.67
420.734	179.07
421.195	201.77
421.655	192.07
422.115	196.87
422.576	192.77
423.036	209.27
423.496	208.37
423.956	213.27
424.416	224.67
424.876	269.07
425.336	259.17
425.797	253.37
426.257	261.17
426.717	240.17
427.177	234.57
427.637	223.17
428.097	236.07
428.556	244.77
429.016	268.67
429.476	265.67
429.936	283.67
430.396	274.47
430.856	289.47
431.315	311.17
431.775	353.27
432.235	375.07
432.694	343.37
433.154	372.37
433.614	399.57
434.073	337.47
434.533	291.87
434.993	268.07
435.452	278.47
435.912	293.37
436.371	284.07
436.83	278.27
437.29	268.37
437.749	250.47
438.209	248.37
438.668	281.37
439.127	284.27
439.587	266.27
440.046	247.47
440.505	259.37
440.964	273.67
441.424	321.37
441.883	310.87
442.342	260.97
442.801	236.27
443.26	216.67
443.719	215.37
444.178	215.77
444.637	205.67
445.096	221.07
445.555	229.87
446.014	230.07
446.473	221.97
446.932	232.77
447.391	223.27
447.849	224.27
448.308	213.27
448.767	221.47
449.226	239.07
449.685	230.37
450.143	251.37
450.602	240.47
451.061	223.97
451.519	229.97
451.978	235.37
452.436	226.07
452.895	230.47
453.353	243.87
453.812	236.37
454.27	235.07
454.729	234.07
455.187	241.67
455.646	243.07
456.104	244.77
456.562	252.87
457.021	271.87
457.479	256.87
457.937	273.47
458.395	262.07
458.854	246.97
459.312	254.37
459.77	274.07
460.228	254.37
460.686	235.87
461.144	249.47
461.602	238.57
462.06	240.17
462.518	257.57
462.976	255.07
463.434	249.07
463.892	262.87
464.35	275.27
464.808	288.37
465.266	262.97
465.724	266.57
466.181	269.77
466.639	265.77
467.097	283.97
467.555	296.97
468.012	292.07
468.47	307.37
468.928	319.67
469.385	340.07
469.843	349.37
470.3	341.07
470.758	355.57
471.215	387.47
471.673	408.37
472.13	404.17
472.588	419.67
473.045	370.57
473.503	375.77
473.96	389.27
474.417	394.47
474.875	425.57
475.332	470.17
475.789	460.77
476.246	466.27
476.704	486.07
477.161	504.87
477.618	524.97
478.075	549.47
478.532	620.07
478.989	684.37
479.446	803.37
479.903	769.37
480.36	797.17
480.817	868.87
481.274	961.97
481.731	1059.97
482.188	1152.77
482.645	1295.67
483.102	1395.57
483.558	1536.47
484.015	1588.17
484.472	1562.67
484.929	1513.07
485.385	1463.37
485.842	1417.77
486.299	1347.57
486.755	1298.67
487.212	1089.97
487.668	923.47
488.125	846.97
488.582	774.07
489.038	740.97
489.494	699.07
489.951	675.87
490.407	655.07
490.864	639.57
491.32	638.17
491.776	632.97
492.233	640.27
492.689	604.37
493.145	603.67
493.602	591.77
494.058	603.47
494.514	614.67
494.97	629.67
495.426	645.37
495.882	622.07
496.338	610.97
496.794	618.27
497.251	611.47
497.707	628.97
498.163	630.07
498.618	640.87
499.074	642.57
499.53	678.97
499.986	682.17
500.442	651.87
500.898	635.67
501.354	631.27
501.809	631.57
502.265	641.17
502.721	663.57
503.177	672.17
503.632	657.37
504.088	665.97
504.543	711.67
504.999	702.27
505.455	655.67
505.91	624.87
506.366	624.37
506.821	615.17
507.277	610.37
507.732	618.77
508.187	619.07
508.643	627.07
509.098	624.77
509.553	649.17
510.009	653.47
510.464	649.47
510.919	674.47
511.375	697.37
511.83	701.87
512.285	703.57
512.74	741.47
513.195	771.57
513.65	757.87
514.105	761.87
514.56	758.97
515.015	773.77
515.47	789.67
515.925	781.27
516.38	772.67
516.835	786.57
517.29	777.07
517.745	762.07
518.2	748.57
518.655	739.57
519.109	720.57
519.564	730.47
520.019	724.07
520.474	713.97
520.928	715.67
521.383	713.57
521.838	705.57
522.292	705.47
522.747	700.97
523.201	692.17
523.656	692.47
524.11	693.47
524.565	696.17
525.019	678.77
525.474	697.37
525.928	690.87
526.382	690.07
526.837	689.07
527.291	684.07
527.745	690.57
528.2	696.07
528.654	680.47
529.108	687.77
529.562	679.27
530.016	679.07
530.47	686.67
530.925	688.87
531.379	691.37
531.833	689.47
532.287	696.77
532.741	685.87
533.195	693.87
533.649	702.57
534.103	704.57
534.556	693.37
535.01	701.77
535.464	696.67
535.918	708.27
536.372	710.57
536.826	715.37
537.279	700.57
537.733	705.77
538.187	705.87
538.64	704.97
539.094	721.17
539.548	719.07
540.001	719.37
540.455	721.37
540.908	726.87
541.362	730.97
541.815	736.67
542.269	744.77
542.722	749.87
543.175	757.07
543.629	759.47
544.082	779.97
544.536	782.97
544.989	771.27
545.442	788.87
545.895	784.37
546.349	787.37
546.802	785.97
547.255	788.87
547.708	789.17
548.161	800.67
548.614	806.07
549.067	824.17
549.52	805.87
549.973	805.47
550.426	791.57
550.879	789.17
551.332	785.47
551.785	797.57
552.238	807.47
552.691	805.87
553.144	812.97
553.596	833.67
554.049	851.77
554.502	874.17
554.955	899.27
555.407	898.47
555.86	883.67
556.313	881.07
556.765	868.07
557.218	863.37
557.67	870.27
558.123	858.27
558.576	864.57
559.028	863.47
559.48	876.27
559.933	866.77
560.385	831.17
560.838	802.77
561.29	780.67
561.742	775.77
562.195	756.57
562.647	763.97
563.099	763.77
563.551	762.87
564.004	780.57
564.456	771.37
564.908	742.57
565.36	741.37
565.812	727.87
566.264	726.27
566.716	729.67
567.168	709.07
567.62	713.67
568.072	700.47
568.524	692.67
568.976	680.27
569.428	666.67
569.88	671.17
570.332	681.07
570.784	674.77
571.235	669.47
571.687	691.27
572.139	692.97
572.59	704.27
573.042	700.27
573.494	703.27
573.945	700.37
574.397	683.17
574.849	684.37
575.3	690.67
575.752	678.57
576.203	672.57
576.655	681.07
577.106	669.07
577.557	658.47
578.009	666.27
578.46	665.87
578.912	657.37
579.363	656.27
579.814	663.57
580.265	663.37
580.717	662.27
581.168	652.77
581.619	675.07
582.07	683.97
582.521	681.97
582.972	669.07
583.423	679.27
583.875	679.47
584.326	704.37
584.777	739.67
585.227	832.17
585.678	921.47
586.129	1007.77
586.58	1080.77
587.031	1164.97
587.482	1316.27
587.933	1496.37
588.384	1306.27
588.834	973.27
589.285	803.97
589.736	783.87
590.186	779.27
590.637	760.67
591.088	734.87
591.538	726.67
591.989	721.87
592.439	718.67
592.89	714.47
593.34	698.07
593.791	707.67
594.241	709.67
594.692	708.37
595.142	708.77
595.593	700.17
596.043	701.87
596.493	713.07
596.943	717.77
597.394	714.17
597.844	712.27
598.294	727.27
598.744	750.47
599.195	773.47
599.645	810.97
600.095	858.77
600.545	908.37
600.995	968.87
601.445	1008.87
601.895	1081.07
602.345	1130.77
602.795	1096.47
603.245	1058.57
603.695	1007.57
604.145	948.57
604.594	901.47
605.044	850.77
605.494	785.87
605.944	751.67
606.393	744.17
606.843	717.27
607.293	730.17
607.743	724.57
608.192	743.77
608.642	751.57
609.091	769.37
609.541	771.07
609.99	773.07
610.44	762.47
610.889	712.27
611.339	692.87
611.788	687.07
612.238	701.17
612.687	718.57
613.136	721.47
613.586	734.67
614.035	736.47
614.484	759.67
614.933	757.97
615.383	742.87
615.832	735.47
616.281	728.47
616.73	686.37
617.179	671.57
617.628	650.97
618.077	636.87
618.526	612.17
618.975	607.07
619.424	616.57
619.873	618.37
620.322	612.57
620.771	598.27
621.22	597.47
621.669	585.87
622.118	589.07
622.567	584.07
623.015	567.67
623.464	568.97
623.913	558.97
624.361	549.97
624.81	551.77
625.259	543.37
625.707	551.57
626.156	552.97
626.604	557.97
627.053	553.17
627.501	559.07
627.95	564.27
628.398	573.47
628.847	564.87
629.295	572.07
629.744	573.87
630.192	570.77
630.64	568.57
631.089	574.07
631.537	586.87
631.985	587.77
632.433	602.97
632.881	620.17
633.33	667.37
633.778	651.27
634.226	568.87
634.674	578.17
635.122	580.47
635.57	600.37
636.018	623.77
636.466	581.27
636.914	564.77
637.362	565.77
637.81	564.67
638.258	580.17
638.705	579.97
639.153	609.47
639.601	614.27
640.049	646.37
640.497	666.17
640.944	690.87
641.392	649.87
641.84	606.87
642.287	581.57
642.735	569.57
643.182	573.57
643.63	573.47
644.078	574.27
644.525	594.77
644.973	597.07
645.42	600.97
645.867	618.37
646.315	638.77
646.762	657.17
647.21	686.47
647.657	704.77
648.104	746.57
648.551	787.17
648.999	842.17
649.446	921.17
649.893	1014.17
650.34	1172.67
650.787	1411.17
651.234	1756.37
651.682	2290.47
652.129	3146.07
652.576	4562.77
653.023	6734.97
653.47	9198.87
653.917	11439.37
654.363	13113.87
654.81	14392.57
655.257	13710.37
655.704	8930.47
656.151	5279.37
656.598	3423.67
657.044	2415.77
657.491	1855.97
657.938	1499.67
658.385	1235.57
658.831	1087.47
659.278	964.97
659.724	852.27
660.171	793.07
660.618	722.77
661.064	687.77
661.511	669.37
661.957	648.67
662.404	644.67
662.85	653.67
663.296	633.97
663.743	562.47
664.189	539.17
664.635	530.67
665.082	522.27
665.528	527.17
665.974	512.77
666.42	505.77
666.867	506.37
667.313	493.57
667.759	483.67
668.205	492.27
668.651	492.27
669.097	493.37
669.543	509.47
669.989	467.37
670.435	447.37
670.881	438.57
671.327	443.97
671.773	466.27
672.219	493.67
672.665	545.07
673.11	580.97
673.556	627.07
674.002	659.77
674.448	652.77
674.893	545.77
675.339	467.57
675.785	438.87
676.23	413.67
676.676	390.67
677.122	383.97
677.567	362.47
678.013	368.27
678.458	361.07
678.904	356.37
679.349	339.17
679.794	352.17
680.24	362.07
680.685	352.87
681.131	354.67
681.576	350.77
682.021	349.97
682.466	346.77
682.912	352.77
683.357	358.47
683.802	375.77
684.247	408.57
684.692	445.37
685.137	489.97
685.583	534.17
686.028	557.77
686.473	520.17
686.918	440.27
687.363	421.27
687.807	383.67
688.252	356.67
688.697	349.27
689.142	331.67
689.587	328.07
690.032	329.07
690.477	342.97
690.921	352.27
691.366	382.37
691.811	395.77
692.255	433.87
692.7	459.07
693.145	507.67
693.589	705.57
694.034	1142.97
694.478	1544.97
694.923	1729.67
695.367	2227.77
695.812	1181.27
696.256	499.47
696.701	369.87
697.145	338.07
697.59	323.27
698.034	326.97
698.478	325.67
698.922	321.47
699.367	324.57
699.811	342.47
700.255	356.77
700.699	388.37
701.143	433.97
701.588	473.47
702.032	516.67
702.476	508.17
702.92	489.97
703.364	489.37
703.808	640.57
704.252	1054.77
704.696	1464.07
705.14	1647.67
705.584	2098.17
706.027	1052.57
706.471	517.57
706.915	386.07
707.359	354.37
707.803	316.27
708.246	309.47
708.69	308.17
709.134	313.77
709.577	312.67
710.021	317.47
710.465	306.27
710.908	297.67
711.352	302.87
711.795	303.27
712.239	358.77
712.682	385.57
713.126	410.37
713.569	459.67
714.012	367.77
714.456	316.17
714.899	293.57
715.342	275.07
715.786	264.87
716.229	258.87
716.672	256.57
717.115	252.47
717.558	249.07
718.002	253.07
718.445	260.97
718.888	291.47
719.331	296.07
719.774	300.97
720.217	309.77
720.66	284.77
721.103	267.57
721.546	244.87
721.989	254.27
722.432	227.77
722.874	240.07
723.317	221.27
723.76	238.57
724.203	255.87
724.645	320.77
725.088	449.27
725.531	563.17
725.974	636.57
726.416	541.97
726.859	306.27
727.301	246.07
727.744	234.07
728.187	234.07
728.629	235.67
729.071	241.17
729.514	257.17
729.956	266.67
730.399	273.77
730.841	283.47
731.283	274.37
731.726	261.77
732.168	255.27
732.61	265.57
733.053	289.87
733.495	317.57
733.937	358.87
734.379	396.47
734.821	434.67
735.263	554.97
735.705	860.37
736.148	1607.37
736.59	2580.67
737.032	3000.77
737.474	2438.87
737.916	804.97
738.357	423.87
738.799	326.37
739.241	301.27
739.683	280.07
740.125	293.57
740.567	297.27
741.008	315.27
741.45	310.97
741.892	319.87
742.334	345.97
742.775	353.77
743.217	332.07
743.658	271.07
744.1	254.57
744.542	257.17
744.983	312.57
745.425	333.27
745.866	342.37
746.307	282.57
746.749	283.07
747.19	322.77
747.632	460.77
748.073	888.87
748.514	1883.07
748.956	2841.57
749.397	3569.07
749.838	2956.07
750.279	2902.47
750.72	1465.77
751.162	544.67
751.603	318.07
752.044	249.47
752.485	218.67
752.926	211.17
753.367	200.87
753.808	188.97
754.249	188.67
754.69	184.87
755.131	181.67
755.572	181.67
756.013	174.97
756.453	183.67
756.894	187.37
757.335	190.27
757.776	194.57
758.216	198.17
758.657	198.27
759.098	202.57
759.538	222.17
759.979	266.07
760.42	370.77
760.86	733.07
761.301	1880.17
761.741	4467.07
762.182	6299.07
762.622	4407.47
763.063	1294.97
763.503	533.37
763.943	340.87
764.384	345.17
764.824	411.67
765.264	441.77
765.705	308.77
766.145	204.57
766.585	185.17
767.025	181.77
767.465	186.77
767.906	249.67
768.346	320.17
768.786	350.57
769.226	270.67
769.666	323.57
770.106	634.87
770.546	1593.47
770.986	2620.27
771.426	2312.37
771.866	786.17
772.306	322.77
772.745	201.87
773.185	171.97
773.625	169.27
774.065	165.37
774.505	206.87
774.944	318.97
775.384	698.47
775.824	1229.67
776.263	1189.87
776.703	510.67
777.142	217.07
777.582	161.67
778.021	140.77
778.461	135.47
778.9	139.67
779.34	132.37
779.779	119.97
780.219	107.07
780.658	112.67
781.097	114.57
781.537	113.07
781.976	104.57
782.415	110.77
782.855	107.37
783.294	106.47
783.733	108.07
784.172	109.57
784.611	101.97
785.05	106.17
785.489	114.77
785.928	116.27
786.367	119.27
786.806	120.57
787.245	128.37
787.684	132.97
788.123	143.37
788.562	137.07
789.001	125.17
789.44	119.77
789.879	110.47
790.317	121.87
790.756	129.37
791.195	127.17
791.634	145.37
792.072	208.77
792.511	368.07
792.95	1036.27
793.388	2129.17
793.827	1888.97
794.265	669.47
794.704	280.87
795.142	178.87
795.581	147.17
796.019	133.37
796.458	122.37
796.896	123.77
797.334	132.17
797.773	152.27
798.211	226.77
798.649	449.87
799.087	1029.67
799.526	1588.47
799.964	2004.57
800.402	1958.07
800.84	745.87
801.278	301.87
801.716	187.67
802.154	159.17
802.592	145.17
803.03	139.67
803.468	139.37
803.906	142.57
804.344	152.37
804.782	138.27
805.22	136.87
805.658	130.07
806.096	152.97
806.533	152.47
806.971	167.57
807.409	218.37
807.847	321.27
808.284	681.07
808.722	1889.37
809.16	3231.47
809.597	3143.57
810.035	5395.77
810.472	5599.47
810.91	2040.47
811.347	785.77
811.785	393.37
812.222	249.87
812.66	192.97
813.097	155.97
813.535	138.17
813.972	128.17
814.409	117.87
814.846	108.77
815.284	106.87
815.721	102.27
816.158	106.17
816.595	113.67
817.032	179.67
817.47	198.37
817.907	159.67
818.344	145.67
818.781	118.67
819.218	99.07
819.655	124.67
820.092	181.27
820.529	203.87
820.966	162.37
821.403	135.97
821.839	106.97
822.276	101.67
822.713	117.37
823.15	131.87
823.587	114.57
824.023	152.57
824.46	312.67
824.897	910.77
825.333	1333.07
825.77	577.37
826.206	229.67
826.643	137.97
827.08	101.57
827.516	89.57
827.953	77.67
828.389	84.47
828.825	71.67
829.262	66.17
829.698	58.77
830.135	61.07
830.571	60.57
831.007	57.97
831.443	59.87
831.88	59.77
832.316	60.77
832.752	63.07
833.188	61.47
833.624	71.57
834.06	64.87
834.497	72.87
834.933	64.27
835.369	76.47
835.805	61.17
836.241	74.97
836.677	80.57
837.112	86.67
837.548	96.77
837.984	127.87
838.42	209.97
838.856	497.27
839.292	1513.97
839.727	2260.77
840.163	1047.57
840.599	941.77
841.034	2019.77
841.47	2070.27
841.906	761.57
842.341	325.37
842.777	228.47
843.212	319.47
843.648	307.37
844.083	153.07
844.519	94.77
844.954	70.37
845.39	54.37
845.825	59.17
846.261	58.47
846.696	55.07
847.131	50.37
847.566	61.67
848.002	56.67
848.437	52.67
848.872	55.77
849.307	61.37
849.742	86.67
850.177	184.67
850.613	559.37
851.048	867.97
851.483	369.17
851.918	151.17
852.353	86.27
852.788	65.37
853.223	61.07
853.657	54.77
854.092	48.87
854.527	35.27
854.962	38.77
855.397	45.57
855.832	49.97
856.266	38.67
856.701	36.47
857.136	35.97
857.57	44.37
858.005	47.97
858.44	52.87
858.874	42.07
859.309	48.87
859.743	35.37
860.178	44.37
860.612	38.17
861.047	56.37
861.481	66.77
861.915	69.77
862.35	47.17
862.784	36.17
863.218	36.67
863.653	31.67
864.087	42.57
864.521	50.87
864.955	74.47
865.39	148.17
865.824	166.97
866.258	108.37
866.692	159.67
867.126	168.57
867.56	97.07
867.994	48.77
868.428	36.87
868.862	40.67
869.296	53.37
869.73	55.97
870.164	52.97
870.598	51.27
871.031	39.57
871.465	33.27
871.899	24.57
872.333	22.47
872.766	27.07
873.2	23.77
873.634	33.37
874.067	25.57
874.501	33.57
874.935	29.17
875.368	31.17
875.802	25.97
876.235	26.37
876.669	23.97
877.102	21.77
877.535	24.77
877.969	21.47
878.402	25.57
878.836	18.77
879.269	24.57
879.702	22.57
880.135	17.77
880.569	21.67
881.002	22.67
881.435	17.87
881.868	18.17
882.301	22.67
882.734	14.17
883.167	20.87
883.601	16.87
884.034	19.87
884.467	12.57
884.899	23.37
885.332	18.67
885.765	16.57
886.198	19.07
886.631	16.57
887.064	24.77
887.497	13.97
887.929	20.97
888.362	9.77
888.795	10.77
889.228	15.47
889.66	19.57
890.093	12.67
890.526	15.07
890.958	14.97
891.391	13.37
891.823	21.07
892.256	10.17
892.688	8.67
893.121	14.17
893.553	11.47
893.985	28.27
894.418	12.07
894.85	18.97
895.282	11.57
895.715	14.17
896.147	17.07
896.579	17.07
897.011	13.17
897.444	19.27
897.876	11.57
898.308	10.07
898.74	15.67
899.172	11.87
899.604	26.17
900.036	18.27
900.468	14.97
900.9	12.47
901.332	15.17
901.764	11.87
902.196	14.87
902.628	16.77
903.06	19.47
903.491	26.07
903.923	17.17
904.355	18.47
904.787	25.27
905.218	19.37
905.65	20.87
906.082	18.57
906.513	10.37
906.945	8.47
907.376	6.87
907.808	20.27
908.239	23.27
908.671	18.37
909.102	23.07
909.534	24.17
909.965	44.57
910.397	95.37
910.828	309.57
911.259	466.77
911.691	215.97
912.122	105.17
912.553	47.07
912.984	30.87
913.415	26.87
913.847	27.37
914.278	18.77
914.709	15.17
915.14	20.27
915.571	16.87
916.002	14.97
916.433	16.47
916.864	15.07
917.295	9.17
917.726	20.37
918.157	20.07
918.587	30.37
919.018	15.77
919.449	14.87
919.88	22.07
920.311	26.17
920.741	45.27
921.172	160.17
921.603	147.27
922.033	67.87
922.464	43.47
922.895	21.27
923.325	17.97
923.756	19.47
924.186	13.67
924.617	18.97
925.047	44.17
925.478	55.07
925.908	47.87
926.338	19.87
926.769	18.27
927.199	17.77
927.629	11.37
928.06	19.87
928.49	12.87
928.92	11.47
929.35	10.07
929.78	10.77
930.21	1.57
930.641	10.87
931.071	8.57
931.501	4.27
931.931	5.07
932.361	7.57
932.791	3.37
933.221	9.17
933.651	10.37
934.08	20.97
934.51	31.47
934.94	5.87
935.37	1.47
935.8	8.37
936.229	7.77
936.659	10.17
937.089	4.37
937.519	11.07
937.948	28.97
938.378	18.07
938.807	1.57
939.237	2.97
939.666	5.07
940.096	-7.83
940.525	-3.53
940.955	0.87
941.384	3.97
941.814	-9.13
942.243	-1.33
942.672	5.67
943.102	1.17
943.531	-1.63
943.96	3.27
944.39	-4.43
944.819	4.87
945.248	2.87
945.677	-1.73
946.106	7.87
946.535	0.87
946.964	-4.83
947.393	-2.03
947.822	-0.83
948.251	-3.03
948.68	6.47
949.109	6.77
949.538	2.27
949.967	-4.73
950.396	-0.03
950.825	4.77
951.254	-2.53
951.682	-5.83
952.111	0.67
952.54	3.57
952.969	0.47
953.397	-6.53
953.826	0.37
954.254	-4.53
954.683	4.67
955.112	-1.53
955.54	-4.13
955.969	-1.63
956.397	-2.13
956.826	3.47
957.254	0.17
957.682	7.17
958.111	1.37
958.539	-0.83
958.967	-3.23
959.396	-3.43
959.824	-5.33
960.252	5.07
960.68	-7.83
961.109	-4.73
961.537	-7.83
961.965	-3.93
962.393	-0.53
962.821	-4.73
963.249	-1.13
963.677	1.67
964.105	6.27
964.533	41.77
964.961	42.17
965.389	16.17
965.817	5.97
966.245	2.97
966.672	-3.13
967.1	-11.33
967.528	-1.53
967.956	-7.73
968.383	-1.93
968.811	0.67
969.239	-3.13
969.666	-2.43
970.094	-0.53
970.522	-2.93
970.949	0.67
971.377	-0.53
971.804	-4.23
972.232	-4.03
972.659	-5.63
973.087	-6.73
973.514	-7.23
973.941	-7.83
974.369	-2.23
974.796	0.57
975.223	0.97
975.651	-6.43
976.078	1.37
976.505	-4.13
976.932	0.87
977.359	9.97
977.786	7.47
978.214	-1.93
978.641	-5.63
979.068	-4.93
979.495	-5.63
979.922	-3.83
980.349	-3.23
980.776	1.37
981.202	-3.73
981.629	5.07
982.056	-0.43
982.483	-6.43
982.91	0.47
983.337	-7.33
983.763	-2.03
984.19	-7.53
984.617	-8.53
985.043	-4.23
985.47	-2.53
985.897	-4.03
986.323	-4.53
986.75	1.07
987.176	-1.13
987.603	-2.63
988.029	-1.93
988.456	-5.93
988.882	1.57
989.308	-4.63
989.735	-1.33
990.161	2.17
990.587	-5.73
991.014	-1.83
991.44	7.47
991.866	-4.93
992.292	-9.03
992.719	-3.73
993.145	2.07
993.571	-11.63
993.997	-5.03
994.423	-7.83
994.849	-5.03
995.275	-2.33
995.701	1.77
996.127	0.97
996.553	-6.93
996.979	-6.33
997.405	-3.33
997.83	-5.63
998.256	-9.13
998.682	-8.93
999.108	-9.53
999.534	-2.33
999.959	-6.83
1000.385	-3.33
1000.811	0.47
1001.236	-8.73
1001.662	-4.73
1002.087	-13.13
1002.513	0.77
1002.938	-1.73
1003.364	-8.73
1003.789	-6.63
1004.215	1.57
1004.64	0.47
1005.066	0.17
1005.491	-2.53
1005.916	0.27
1006.342	-11.93
1006.767	-6.43
1007.192	7.07
1007.617	-9.43
1008.042	-12.03
1008.468	-6.63
1008.893	-4.83
1009.318	-4.43
1009.743	-4.73
1010.168	-3.13
1010.593	-4.93
1011.018	-8.63
1011.443	-4.63
1011.868	-0.03
1012.293	-1.93
1012.718	-6.13
1013.143	0.27
1013.567	2.57
1013.992	-6.63
1014.417	-10.03
1014.842	2.97
1015.267	-3.93
1015.691	-8.93
1016.116	2.27
1016.541	-1.13
1016.965	0.17
1017.39	-0.13
1017.814	-0.43
1018.239	-6.73
1018.663	-9.03
1019.088	-8.73
1019.512	-5.73
1019.937	-9.23
1020.361	-6.43
1020.785	-10.53
1021.21	-7.13
1021.634	-4.33
1022.058	-5.63
1022.483	2.87
1022.907	-7.73
1023.331	-11.23
1023.755	-6.43
1024.179	-4.23
1024.604	-14.53
1025.028	-10.53
1025.452	-4.63
1025.876	-4.23
1026.3	0.87
1026.724	-13.23
1027.148	-6.43
1027.572	-5.03
1027.996	-6.23
1028.42	-2.33
1028.843	-6.23
1029.267	-7.63
1029.691	-5.03
1030.115	-10.13
1030.539	-9.33
1030.962	-3.23
1031.386	-7.93
1031.81	1.67
1032.233	-2.73
1032.657	-5.93
1033.08	-3.23
1033.504	-5.73
1033.927	-6.63
1034.351	-2.63
1034.774	-5.33
1035.198	-7.93
1035.621	-3.43
1036.045	-13.93
1036.468	-1.83
1036.891	-12.43
1037.315	-11.63
1037.738	-6.03
1038.161	-2.43
1038.584	-11.53
1039.008	-6.23
1039.431	-2.73
1039.854	-0.53
1040.277	-9.53
1040.7	-12.23
1041.123	-2.63
1041.546	-11.63
1041.969	-13.73
1042.392	-5.83
1042.815	-1.73
1043.238	-3.03
1043.661	-0.73
1044.084	-6.03
1044.507	-6.93
1044.93	-7.53
1045.352	0.17
1045.775	-4.93
1046.198	-3.73
1046.621	-1.53
1047.043	-2.23
1047.466	3.47
1047.889	-2.83
1048.311	-5.73
1048.734	-7.63
1049.156	-4.33
1049.579	-1.03
1050.001	-5.43
1050.424	-3.53
1050.846	-5.53
1051.269	-7.53
1051.691	-7.63
1052.113	-5.23
1052.536	-3.53
1052.958	-3.03
1053.38	-4.33
1053.802	-5.03
1054.225	2.07
1054.647	-9.83
1055.069	-7.73
1055.491	1.17
1055.913	-8.33
1056.335	-4.43
1056.757	-2.23
1057.179	-10.13
1057.601	-7.53
1058.023	-4.53
1058.445	-2.53
1058.867	-1.53
1059.289	-5.03
1059.711	-4.43
1060.133	-2.93
1060.555	-6.53
1060.976	-6.23
1061.398	-9.03
1061.82	-11.23
1062.241	-7.43
1062.663	-5.13
1063.085	-1.63
1063.506	-3.43
1063.928	-10.13
1064.35	-8.43
1064.771	-14.03
1065.193	-12.23
1065.614	-10.13
1066.035	-2.13
1066.457	1.97
1066.878	-1.33
1067.3	-7.83
1067.721	1.27
1068.142	-4.83
1068.564	-6.83
1068.985	-9.93
1069.406	-9.73
1069.827	-8.93
1070.248	-7.13
1070.67	-9.63
1071.091	-9.03
1071.512	-2.73
1071.933	-4.73
1072.354	-11.03
1072.775	-6.23
1073.196	-10.63
1073.617	-5.63
1074.038	-9.33
1074.459	-1.43
1074.88	-6.63
1075.3	-1.43
1075.721	-4.43
1076.142	-7.83
1076.563	-6.53
1076.983	-14.13
1077.404	-8.93
1077.825	-16.73
1078.246	-12.03
1078.666	-9.33
1079.087	-4.03
1079.507	-10.83
1079.928	-0.43
1080.348	-6.13
1080.769	-10.43
1081.189	0.87
1081.61	-5.43
1082.03	-2.63
1082.451	-3.43
1082.871	-12.43
1083.291	-9.13
1083.711	-12.03
1084.132	-0.13
1084.552	-7.93
1084.972	-5.33
1085.392	-7.93
1085.813	-15.43
1086.233	-10.23
1086.653	-3.83
1087.073	-3.63
1087.493	-3.13
1087.913	-6.33
1088.333	-10.43
1088.753	-4.93
1089.173	-5.13
1089.593	-7.93
1090.013	1.17
1090.433	-3.93
1090.852	-3.43
1091.272	-5.93
1091.692	-5.33
1092.112	-8.73
1092.531	-7.33
1092.951	-14.83
1093.371	-3.43
1093.79	0.27
1094.21	-9.83
1094.63	-6.33
1095.049	-11.63
1095.469	-2.23
1095.888	-6.13
1096.308	-1.73
1096.727	-0.83
1097.146	-9.73
1097.566	-4.73
1097.985	-11.03
1098.405	0.17
1098.824	-13.53
1099.243	-10.33
1099.662	-15.33
1100.082	0.07
1100.501	-2.93
1100.92	-3.93
1101.339	-6.63
1101.758	-5.13
