Data from 20171114-ORNL-Ar_H_NY_Subt18_08-04-26-630.txt Node
Date: Tue Nov 14 08:04:26 EST 2017
User: Ender
Spectrometer: HR+D1039
Trigger mode: 0
Integration Time (sec): 2.730000E-2
Scans to average: 10
Electric dark correction enabled: true
Nonlinearity correction enabled: false
Boxcar width: 0
XAxis mode: Wavelengths
Number of Pixels in Spectrum: 2048
>>>>>Begin Spectral Data<<<<<
187.836	-3.48
188.309	-3.48
188.782	-3.48
189.255	7.52
189.728	-0.48
190.201	5.72
190.674	0.42
191.147	-1.08
191.619	-0.58
192.092	-5.18
192.565	3.22
193.038	3.72
193.511	-0.18
193.984	-3.48
194.456	-5.48
194.929	1.62
195.402	-0.68
195.874	-1.58
196.347	-4.68
196.82	-7.38
197.292	4.72
197.765	1.62
198.237	-12.58
198.71	-2.68
199.182	0.32
199.655	-0.08
200.127	5.02
200.6	-3.38
201.072	-1.88
201.544	-3.18
202.017	0.62
202.489	2.82
202.961	-0.18
203.433	-2.38
203.906	-6.78
204.378	-4.28
204.85	2.62
205.322	-3.88
205.794	-2.38
206.266	-5.98
206.739	-11.68
207.211	-3.38
207.683	-4.68
208.155	-5.38
208.627	-9.38
209.099	-7.78
209.57	-7.78
210.042	-7.78
210.514	-5.48
210.986	-1.38
211.458	-6.98
211.93	-2.88
212.402	3.62
212.873	-7.88
213.345	-8.38
213.817	-12.88
214.288	-9.78
214.76	-5.98
215.232	0.72
215.703	-0.48
216.175	-1.18
216.646	-7.28
217.118	-2.58
217.589	-5.58
218.061	-0.98
218.532	-0.08
219.004	7.52
219.475	-4.48
219.946	-1.88
220.418	-8.38
220.889	2.52
221.36	1.72
221.832	-5.98
222.303	-3.58
222.774	-5.58
223.245	-7.68
223.717	-7.18
224.188	-0.28
224.659	-13.68
225.13	-5.48
225.601	5.02
226.072	-0.68
226.543	2.12
227.014	-1.48
227.485	-2.78
227.956	-7.78
228.427	1.42
228.898	-1.18
229.369	1.12
229.839	-4.18
230.31	-9.08
230.781	-2.88
231.252	-2.88
231.722	-2.88
232.193	-1.88
232.664	2.12
233.135	1.32
233.605	0.62
234.076	-2.28
234.546	4.12
235.017	5.52
235.487	3.42
235.958	3.42
236.428	0.32
236.899	6.02
237.369	5.52
237.84	-5.18
238.31	1.32
238.78	6.82
239.251	-1.98
239.721	8.02
240.191	4.72
240.662	-3.78
241.132	3.62
241.602	-4.88
242.072	1.32
242.542	1.42
243.013	0.02
243.483	5.42
243.953	-1.48
244.423	-2.18
244.893	-5.38
245.363	6.22
245.833	1.92
246.303	0.02
246.773	2.82
247.243	5.32
247.712	7.32
248.182	11.42
248.652	11.02
249.122	1.72
249.592	15.52
250.061	29.12
250.531	39.92
251.001	17.02
251.471	25.12
251.94	21.92
252.41	12.22
252.879	3.12
253.349	13.22
253.818	9.02
254.288	1.12
254.757	8.42
255.227	-0.58
255.696	11.12
256.166	8.82
256.635	4.02
257.105	7.02
257.574	1.32
258.043	12.72
258.513	7.32
258.982	18.82
259.451	8.92
259.92	13.52
260.389	16.22
260.859	24.22
261.328	13.92
261.797	18.22
262.266	12.22
262.735	5.92
263.204	7.92
263.673	-1.88
264.142	10.62
264.611	-5.58
265.08	1.52
265.549	4.82
266.018	12.22
266.487	-1.38
266.955	-3.38
267.424	9.02
267.893	4.62
268.362	4.72
268.83	10.52
269.299	12.52
269.768	11.32
270.236	9.52
270.705	4.82
271.174	0.12
271.642	7.72
272.111	8.82
272.579	16.22
273.048	23.52
273.516	22.92
273.985	31.42
274.453	18.72
274.922	21.32
275.39	7.42
275.858	5.12
276.327	14.32
276.795	18.72
277.263	13.32
277.731	32.62
278.2	56.12
278.668	61.12
279.136	50.22
279.604	17.42
280.072	15.72
280.54	12.32
281.008	14.82
281.477	10.42
281.945	9.62
282.413	16.72
282.881	17.12
283.348	10.62
283.816	18.42
284.284	18.82
284.752	25.22
285.22	18.32
285.688	15.72
286.156	23.42
286.623	44.52
287.091	51.92
287.559	31.22
288.026	15.22
288.494	21.52
288.962	4.22
289.429	7.32
289.897	21.82
290.364	13.32
290.832	21.02
291.3	16.82
291.767	25.42
292.234	23.92
292.702	19.02
293.169	19.72
293.637	25.02
294.104	25.72
294.571	14.72
295.039	15.32
295.506	13.32
295.973	19.22
296.44	13.22
296.908	13.12
297.375	12.12
297.842	24.62
298.309	23.32
298.776	19.12
299.243	16.72
299.71	15.52
300.177	21.92
300.644	19.12
301.111	22.52
301.578	23.82
302.045	21.82
302.512	22.02
302.979	26.62
303.446	24.62
303.913	22.72
304.379	16.52
304.846	24.42
305.313	23.32
305.78	26.62
306.246	31.92
306.713	27.22
307.18	33.52
307.646	30.22
308.113	29.12
308.579	25.42
309.046	29.12
309.512	25.92
309.979	18.12
310.445	32.62
310.912	25.62
311.378	35.32
311.845	30.92
312.311	31.62
312.777	30.92
313.244	32.92
313.71	38.92
314.176	32.02
314.642	33.72
315.109	28.82
315.575	37.42
316.041	33.92
316.507	31.42
316.973	39.32
317.439	36.42
317.905	36.22
318.371	31.62
318.837	34.52
319.303	34.52
319.769	36.62
320.235	40.62
320.701	36.52
321.167	38.82
321.633	34.62
322.099	35.42
322.564	42.22
323.03	42.82
323.496	36.52
323.962	44.02
324.427	36.62
324.893	49.02
325.359	37.02
325.824	42.32
326.29	40.92
326.755	36.42
327.221	38.82
327.686	40.12
328.152	46.32
328.617	39.62
329.083	45.32
329.548	48.72
330.014	46.62
330.479	39.82
330.944	42.02
331.41	46.42
331.875	43.62
332.34	42.02
332.805	46.72
333.271	46.22
333.736	35.42
334.201	52.02
334.666	48.22
335.131	47.32
335.596	52.82
336.061	52.32
336.526	47.92
336.991	43.12
337.456	52.52
337.921	47.72
338.386	45.82
338.851	42.72
339.316	52.62
339.781	40.72
340.246	48.62
340.711	44.82
341.175	50.52
341.64	43.72
342.105	49.62
342.569	51.82
343.034	62.12
343.499	54.02
343.963	51.02
344.428	55.32
344.893	61.92
345.357	61.32
345.822	61.42
346.286	62.82
346.751	67.32
347.215	63.92
347.679	72.62
348.144	89.42
348.608	80.52
349.073	67.02
349.537	71.72
350.001	73.92
350.465	85.22
350.93	79.92
351.394	78.42
351.858	67.32
352.322	82.72
352.786	76.42
353.25	92.02
353.715	100.62
354.179	95.82
354.643	113.62
355.107	121.92
355.571	102.52
356.035	98.02
356.498	110.12
356.962	111.32
357.426	120.82
357.89	105.72
358.354	91.72
358.818	83.12
359.281	75.12
359.745	69.12
360.209	73.22
360.673	68.12
361.136	77.02
361.6	80.02
362.064	79.02
362.527	84.12
362.991	79.52
363.454	75.12
363.918	77.62
364.381	78.82
364.845	78.32
365.308	74.92
365.772	84.72
366.235	78.22
366.698	71.72
367.162	75.92
367.625	86.92
368.088	80.52
368.552	82.62
369.015	83.82
369.478	86.92
369.941	96.62
370.404	92.02
370.867	99.22
371.331	99.82
371.794	105.92
372.257	98.22
372.72	113.62
373.183	103.12
373.646	106.12
374.109	95.92
374.572	103.92
375.035	100.82
375.497	101.02
375.96	104.92
376.423	97.52
376.886	107.32
377.349	107.12
377.811	99.02
378.274	96.62
378.737	94.02
379.199	102.12
379.662	108.42
380.125	113.92
380.587	104.02
381.05	118.82
381.512	122.22
381.975	126.92
382.437	118.02
382.9	117.82
383.362	120.12
383.825	129.22
384.287	142.12
384.75	130.02
385.212	134.32
385.674	137.72
386.136	135.02
386.599	117.22
387.061	121.62
387.523	122.92
387.985	122.42
388.447	137.52
388.91	135.92
389.372	149.22
389.834	142.72
390.296	139.22
390.758	142.72
391.22	151.92
391.682	196.52
392.144	263.12
392.606	209.12
393.068	156.32
393.529	157.12
393.991	139.32
394.453	139.42
394.915	151.92
395.377	175.22
395.838	188.72
396.3	143.82
396.762	135.92
397.224	124.42
397.685	121.72
398.147	122.22
398.608	119.72
399.07	118.92
399.531	127.52
399.993	131.82
400.454	143.92
400.916	134.02
401.377	138.92
401.839	144.52
402.3	141.52
402.762	151.52
403.223	166.92
403.684	160.52
404.145	146.52
404.607	155.62
405.068	152.92
405.529	152.82
405.99	171.12
406.451	162.22
406.913	162.12
407.374	156.62
407.835	154.52
408.296	154.72
408.757	160.02
409.218	169.22
409.679	163.72
410.14	168.62
410.601	164.62
411.062	174.72
411.522	168.12
411.983	178.22
412.444	169.42
412.905	164.52
413.366	170.72
413.826	178.22
414.287	204.62
414.748	248.12
415.208	228.72
415.669	194.22
416.13	191.22
416.59	187.82
417.051	195.92
417.511	205.62
417.972	225.32
418.432	231.32
418.893	268.52
419.353	235.22
419.814	181.02
420.274	173.52
420.734	167.62
421.195	184.92
421.655	182.12
422.115	181.82
422.576	177.92
423.036	183.52
423.496	190.42
423.956	200.52
424.416	217.52
424.876	242.42
425.336	238.32
425.797	241.12
426.257	234.92
426.717	220.82
427.177	213.62
427.637	212.12
428.097	205.22
428.556	229.32
429.016	242.92
429.476	240.62
429.936	246.42
430.396	254.22
430.856	261.72
431.315	292.12
431.775	321.82
432.235	351.02
432.694	313.92
433.154	322.72
433.614	353.02
434.073	298.92
434.533	254.92
434.993	249.22
435.452	262.52
435.912	269.42
436.371	258.72
436.83	257.22
437.29	242.12
437.749	228.02
438.209	223.82
438.668	250.02
439.127	258.82
439.587	240.32
440.046	234.12
440.505	237.02
440.964	255.92
441.424	294.42
441.883	280.52
442.342	233.72
442.801	208.42
443.26	199.82
443.719	206.72
444.178	201.92
444.637	190.12
445.096	202.42
445.555	209.02
446.014	206.82
446.473	206.92
446.932	217.72
447.391	208.12
447.849	206.62
448.308	202.62
448.767	207.32
449.226	216.42
449.685	223.62
450.143	232.92
450.602	218.52
451.061	213.62
451.519	221.52
451.978	212.62
452.436	219.52
452.895	220.62
453.353	228.42
453.812	221.42
454.27	223.02
454.729	218.82
455.187	215.92
455.646	219.92
456.104	228.02
456.562	235.12
457.021	241.12
457.479	236.92
457.937	249.02
458.395	239.12
458.854	227.72
459.312	231.52
459.77	249.02
460.228	227.32
460.686	222.82
461.144	227.32
461.602	223.92
462.06	218.12
462.518	235.82
462.976	232.72
463.434	240.72
463.892	241.52
464.35	254.12
464.808	273.42
465.266	244.02
465.724	248.82
466.181	253.82
466.639	243.72
467.097	262.02
467.555	281.92
468.012	291.02
468.47	280.92
468.928	303.12
469.385	309.52
469.843	318.52
470.3	316.72
470.758	333.82
471.215	343.62
471.673	366.22
472.13	359.82
472.588	372.72
473.045	339.72
473.503	342.32
473.96	356.42
474.417	371.02
474.875	389.72
475.332	436.72
475.789	424.42
476.246	422.72
476.704	448.62
477.161	465.32
477.618	479.72
478.075	512.52
478.532	560.62
478.989	629.92
479.446	724.32
479.903	711.72
480.36	741.72
480.817	798.42
481.274	895.12
481.731	990.82
482.188	1078.22
482.645	1199.52
483.102	1305.22
483.558	1413.62
484.015	1489.42
484.472	1449.72
484.929	1419.22
485.385	1363.22
485.842	1323.12
486.299	1271.32
486.755	1196.42
487.212	1008.12
487.668	859.92
488.125	783.82
488.582	726.62
489.038	688.52
489.494	664.12
489.951	638.42
490.407	612.62
490.864	609.12
491.32	594.62
491.776	587.32
492.233	598.92
492.689	558.42
493.145	566.32
493.602	551.92
494.058	558.12
494.514	566.02
494.97	586.42
495.426	594.82
495.882	572.62
496.338	567.12
496.794	575.92
497.251	582.92
497.707	588.22
498.163	584.72
498.618	586.52
499.074	594.42
499.53	618.02
499.986	618.12
500.442	602.42
500.898	582.12
501.354	572.92
501.809	589.12
502.265	596.72
502.721	609.22
503.177	618.22
503.632	605.22
504.088	623.02
504.543	659.52
504.999	653.42
505.455	616.52
505.91	579.92
506.366	582.62
506.821	581.62
507.277	580.62
507.732	579.72
508.187	579.52
508.643	583.52
509.098	577.62
509.553	602.92
510.009	610.22
510.464	626.52
510.919	625.92
511.375	633.32
511.83	647.12
512.285	666.82
512.74	695.12
513.195	723.92
513.65	702.92
514.105	706.02
514.56	717.22
515.015	735.02
515.47	745.82
515.925	724.22
516.38	725.72
516.835	731.82
517.29	723.32
517.745	710.42
518.2	708.42
518.655	692.32
519.109	678.62
519.564	685.62
520.019	679.02
520.474	665.22
520.928	668.42
521.383	670.72
521.838	661.92
522.292	663.22
522.747	648.82
523.201	639.72
523.656	637.52
524.11	635.62
524.565	639.82
525.019	631.22
525.474	643.62
525.928	646.12
526.382	633.52
526.837	650.42
527.291	635.12
527.745	639.42
528.2	633.42
528.654	634.92
529.108	628.92
529.562	619.42
530.016	626.52
530.47	627.22
530.925	630.22
531.379	636.12
531.833	643.32
532.287	651.62
532.741	649.62
533.195	644.62
533.649	658.22
534.103	652.72
534.556	644.82
535.01	654.22
535.464	650.82
535.918	668.92
536.372	659.62
536.826	659.92
537.279	653.52
537.733	646.82
538.187	653.62
538.64	650.42
539.094	660.62
539.548	672.32
540.001	666.12
540.455	656.92
540.908	673.92
541.362	672.92
541.815	675.42
542.269	681.72
542.722	686.92
543.175	703.92
543.629	699.12
544.082	715.82
544.536	712.72
544.989	715.22
545.442	713.32
545.895	714.92
546.349	724.02
546.802	709.42
547.255	722.92
547.708	729.32
548.161	746.62
548.614	741.02
549.067	758.22
549.52	748.22
549.973	733.52
550.426	731.42
550.879	723.12
551.332	718.72
551.785	731.12
552.238	728.42
552.691	737.02
553.144	747.12
553.596	768.12
554.049	782.12
554.502	798.52
554.955	821.12
555.407	820.72
555.86	807.92
556.313	816.42
556.765	794.82
557.218	798.32
557.67	804.52
558.123	797.52
558.576	787.62
559.028	803.22
559.48	795.42
559.933	782.62
560.385	751.82
560.838	726.52
561.29	701.92
561.742	708.22
562.195	689.92
562.647	686.92
563.099	693.82
563.551	696.72
564.004	705.62
564.456	703.32
564.908	689.32
565.36	664.52
565.812	652.62
566.264	652.82
566.716	643.22
567.168	641.32
567.62	641.02
568.072	628.52
568.524	620.42
568.976	615.42
569.428	608.22
569.88	604.42
570.332	608.22
570.784	600.82
571.235	613.42
571.687	623.72
572.139	626.02
572.59	636.92
573.042	635.12
573.494	636.22
573.945	623.02
574.397	604.02
574.849	621.52
575.3	616.52
575.752	607.12
576.203	605.72
576.655	612.52
577.106	592.02
577.557	592.52
578.009	591.02
578.46	579.72
578.912	587.42
579.363	590.52
579.814	589.72
580.265	588.72
580.717	594.62
581.168	605.62
581.619	601.02
582.07	603.82
582.521	599.82
582.972	586.52
583.423	598.22
583.875	603.22
584.326	619.92
584.777	658.12
585.227	722.52
585.678	795.12
586.129	871.52
586.58	948.82
587.031	1011.62
587.482	1166.12
587.933	1328.32
588.384	1146.32
588.834	864.42
589.285	704.32
589.736	692.42
590.186	683.72
590.637	676.82
591.088	655.22
591.538	645.82
591.989	637.12
592.439	643.02
592.89	634.42
593.34	624.62
593.791	619.92
594.241	621.02
594.692	622.52
595.142	608.72
595.593	614.52
596.043	621.22
596.493	625.72
596.943	622.42
597.394	634.72
597.844	621.02
598.294	632.82
598.744	662.42
599.195	677.02
599.645	709.22
600.095	741.12
600.545	798.92
600.995	841.52
601.445	890.52
601.895	950.12
602.345	985.52
602.795	969.12
603.245	936.12
603.695	898.72
604.145	833.32
604.594	791.22
605.044	741.12
605.494	695.12
605.944	659.02
606.393	646.22
606.843	630.42
607.293	628.72
607.743	632.92
608.192	637.22
608.642	660.62
609.091	664.32
609.541	665.42
609.99	664.72
610.44	661.22
610.889	619.62
611.339	602.12
611.788	593.82
612.238	593.02
612.687	623.52
613.136	618.72
613.586	629.02
614.035	634.62
614.484	655.32
614.933	650.62
615.383	642.32
615.832	632.02
616.281	627.02
616.73	603.72
617.179	577.12
617.628	554.12
618.077	539.72
618.526	533.52
618.975	531.62
619.424	536.82
619.873	521.12
620.322	532.02
620.771	526.02
621.22	521.62
621.669	505.02
622.118	509.82
622.567	489.02
623.015	481.22
623.464	487.42
623.913	478.72
624.361	480.92
624.81	473.42
625.259	473.52
625.707	466.62
626.156	468.32
626.604	494.22
627.053	484.52
627.501	476.62
627.95	488.92
628.398	492.72
628.847	480.32
629.295	483.22
629.744	492.12
630.192	480.52
630.64	480.22
631.089	474.02
631.537	488.52
631.985	493.32
632.433	503.42
632.881	521.72
633.33	553.62
633.778	541.12
634.226	477.02
634.674	489.02
635.122	483.42
635.57	509.02
636.018	528.02
636.466	489.12
636.914	459.32
637.362	479.42
637.81	488.92
638.258	487.02
638.705	480.72
639.153	520.52
639.601	530.62
640.049	546.02
640.497	565.42
640.944	585.52
641.392	541.72
641.84	519.02
642.287	488.62
642.735	473.52
643.182	483.32
643.63	483.72
644.078	486.52
644.525	500.52
644.973	498.62
645.42	500.72
645.867	526.12
646.315	536.42
646.762	558.32
647.21	585.52
647.657	592.82
648.104	634.12
648.551	649.82
648.999	709.72
649.446	762.12
649.893	835.02
650.34	960.12
650.787	1160.02
651.234	1437.82
651.682	1860.02
652.129	2531.32
652.576	3622.92
653.023	5396.32
653.47	7470.32
653.917	9383.02
654.363	11085.32
654.81	12455.82
655.257	11841.72
655.704	7661.82
656.151	4511.92
656.598	2909.02
657.044	2062.22
657.491	1580.62
657.938	1266.02
658.385	1052.12
658.831	911.92
659.278	816.42
659.724	720.32
660.171	660.02
660.618	604.72
661.064	571.92
661.511	555.52
661.957	541.02
662.404	529.32
662.85	541.82
663.296	508.92
663.743	471.72
664.189	452.52
664.635	447.82
665.082	436.12
665.528	436.02
665.974	429.52
666.42	422.92
666.867	421.32
667.313	396.82
667.759	406.62
668.205	398.22
668.651	402.12
669.097	401.42
669.543	419.82
669.989	395.82
670.435	367.92
670.881	364.32
671.327	383.12
671.773	395.42
672.219	398.42
672.665	454.02
673.11	481.12
673.556	518.52
674.002	566.72
674.448	551.12
674.893	466.02
675.339	389.22
675.785	375.02
676.23	355.12
676.676	328.72
677.122	325.52
677.567	302.82
678.013	309.72
678.458	288.82
678.904	291.02
679.349	283.02
679.794	292.12
680.24	282.22
680.685	287.82
681.131	288.22
681.576	288.92
682.021	292.12
682.466	279.92
682.912	289.02
683.357	288.52
683.802	313.72
684.247	332.52
684.692	375.12
685.137	412.12
685.583	452.02
686.028	464.82
686.473	427.02
686.918	372.22
687.363	356.22
687.807	324.52
688.252	294.72
688.697	293.32
689.142	274.92
689.587	268.72
690.032	262.92
690.477	284.42
690.921	287.92
691.366	315.22
691.811	336.12
692.255	358.32
692.7	381.72
693.145	404.22
693.589	555.52
694.034	912.92
694.478	1256.82
694.923	1463.42
695.367	1929.72
695.812	1003.52
696.256	413.22
696.701	308.52
697.145	284.72
697.59	276.22
698.034	271.02
698.478	269.22
698.922	272.02
699.367	269.02
699.811	278.22
700.255	289.02
700.699	315.32
701.143	352.12
701.588	395.42
702.032	431.32
702.476	428.22
702.92	411.22
703.364	408.12
703.808	515.32
704.252	830.42
704.696	1195.92
705.14	1399.22
705.584	1825.72
706.027	901.32
706.471	438.32
706.915	322.32
707.359	277.52
707.803	259.72
708.246	256.52
708.69	257.02
709.134	255.22
709.577	262.42
710.021	262.92
710.465	252.12
710.908	246.02
711.352	242.32
711.795	254.12
712.239	285.02
712.682	311.02
713.126	335.62
713.569	386.32
714.012	304.82
714.456	267.92
714.899	239.52
715.342	217.82
715.786	210.82
716.229	204.82
716.672	218.22
717.115	203.72
717.558	198.52
718.002	204.22
718.445	206.02
718.888	232.02
719.331	241.52
719.774	255.42
720.217	246.72
720.66	239.22
721.103	211.92
721.546	207.72
721.989	207.62
722.432	185.82
722.874	198.02
723.317	186.52
723.76	192.22
724.203	209.32
724.645	254.92
725.088	351.72
725.531	469.82
725.974	548.92
726.416	457.72
726.859	259.22
727.301	194.92
727.744	200.72
728.187	190.02
728.629	200.22
729.071	192.02
729.514	206.82
729.956	227.12
730.399	231.42
730.841	235.02
731.283	219.72
731.726	219.32
732.168	211.32
732.61	224.32
733.053	227.82
733.495	248.12
733.937	277.32
734.379	326.02
734.821	343.52
735.263	437.92
735.705	669.82
736.148	1251.62
736.59	2114.62
737.032	2598.62
737.474	2127.32
737.916	673.52
738.357	351.02
738.799	262.72
739.241	241.22
739.683	234.72
740.125	237.02
740.567	249.22
741.008	261.12
741.45	256.42
741.892	262.22
742.334	283.92
742.775	292.52
743.217	287.62
743.658	221.72
744.1	212.62
744.542	212.02
744.983	246.92
745.425	278.92
745.866	293.02
746.307	240.02
746.749	235.92
747.19	271.82
747.632	366.92
748.073	685.82
748.514	1495.02
748.956	2359.32
749.397	2949.92
749.838	2480.62
750.279	2528.82
750.72	1253.82
751.162	457.62
751.603	269.02
752.044	210.42
752.485	175.92
752.926	174.72
753.367	159.22
753.808	160.12
754.249	164.22
754.69	153.32
755.131	148.82
755.572	148.52
756.013	149.02
756.453	157.72
756.894	148.42
757.335	154.82
757.776	160.42
758.216	157.22
758.657	162.02
759.098	168.22
759.538	189.22
759.979	216.12
760.42	295.52
760.86	548.22
761.301	1436.92
761.741	3574.82
762.182	5523.12
762.622	3889.72
763.063	1104.12
763.503	445.32
763.943	283.12
764.384	281.52
764.824	333.32
765.264	366.02
765.705	250.42
766.145	168.32
766.585	153.42
767.025	147.52
767.465	149.82
767.906	196.82
768.346	261.82
768.786	285.12
769.226	210.22
769.666	249.72
770.106	493.32
770.546	1236.32
770.986	2221.22
771.426	2014.62
771.866	671.52
772.306	268.32
772.745	160.72
773.185	141.82
773.625	142.72
774.065	133.42
774.505	155.02
774.944	244.32
775.384	536.22
775.824	1016.82
776.263	1009.42
776.703	418.82
777.142	185.32
777.582	129.82
778.021	111.82
778.461	116.72
778.9	116.72
779.34	107.82
779.779	95.52
780.219	86.72
780.658	89.12
781.097	90.02
781.537	89.52
781.976	84.92
782.415	89.22
782.855	85.32
783.294	85.82
783.733	87.12
784.172	89.02
784.611	78.62
785.05	87.72
785.489	89.62
785.928	94.42
786.367	95.42
786.806	103.12
787.245	108.92
787.684	115.02
788.123	116.72
788.562	112.82
789.001	108.92
789.44	99.02
789.879	92.32
790.317	95.62
790.756	108.62
791.195	98.22
791.634	116.12
792.072	164.22
792.511	288.62
792.95	801.02
793.388	1776.02
793.827	1666.92
794.265	569.22
794.704	235.02
795.142	150.42
795.581	133.82
796.019	108.82
796.458	108.82
796.896	102.72
797.334	105.02
797.773	120.92
798.211	174.02
798.649	343.72
799.087	819.12
799.526	1319.62
799.964	1658.72
800.402	1726.32
800.84	634.62
801.278	245.22
801.716	150.42
802.154	125.12
802.592	122.72
803.03	111.02
803.468	100.72
803.906	109.02
804.344	121.42
804.782	112.72
805.22	109.82
805.658	105.32
806.096	121.52
806.533	125.42
806.971	143.62
807.409	179.62
807.847	255.72
808.284	522.82
808.722	1488.72
809.16	2775.72
809.597	2545.62
810.035	4504.62
810.472	5044.62
810.91	1777.82
811.347	668.32
811.785	330.92
812.222	212.02
812.66	158.92
813.097	135.22
813.535	114.82
813.972	105.82
814.409	103.72
814.846	87.62
815.284	93.32
815.721	77.82
816.158	82.02
816.595	97.82
817.032	148.72
817.47	161.22
817.907	142.72
818.344	123.82
818.781	92.32
819.218	82.22
819.655	103.52
820.092	155.22
820.529	177.62
820.966	144.12
821.403	111.82
821.839	88.32
822.276	86.52
822.713	97.22
823.15	112.92
823.587	95.02
824.023	115.02
824.46	227.02
824.897	726.12
825.333	1156.72
825.77	494.52
826.206	188.82
826.643	102.52
827.08	81.52
827.516	57.82
827.953	56.72
828.389	61.62
828.825	57.02
829.262	57.22
829.698	48.22
830.135	57.42
830.571	55.42
831.007	51.52
831.443	47.02
831.88	51.92
832.316	48.32
832.752	53.12
833.188	54.32
833.624	55.32
834.06	55.72
834.497	53.22
834.933	55.32
835.369	61.12
835.805	58.12
836.241	57.72
836.677	64.62
837.112	75.02
837.548	81.62
837.984	107.12
838.42	153.92
838.856	384.12
839.292	1241.52
839.727	1974.82
840.163	904.92
840.599	748.62
841.034	1705.32
841.47	1845.52
841.906	652.52
842.341	279.32
842.777	193.82
843.212	251.62
843.648	267.02
844.083	119.72
844.519	79.92
844.954	63.22
845.39	43.42
845.825	50.32
846.261	48.02
846.696	41.22
847.131	49.32
847.566	44.52
848.002	40.42
848.437	41.52
848.872	49.02
849.307	52.02
849.742	67.92
850.177	145.02
850.613	457.22
851.048	742.72
851.483	322.22
851.918	123.92
852.353	77.92
852.788	44.32
853.223	50.02
853.657	44.82
854.092	44.12
854.527	37.72
854.962	28.82
855.397	39.72
855.832	38.12
856.266	36.92
856.701	28.92
857.136	33.02
857.57	32.22
858.005	45.02
858.44	51.32
858.874	34.32
859.309	45.22
859.743	27.82
860.178	35.02
860.612	32.12
861.047	43.12
861.481	56.42
861.915	60.62
862.35	43.02
862.784	28.62
863.218	36.92
863.653	31.52
864.087	35.32
864.521	39.32
864.955	52.42
865.39	132.72
865.824	151.42
866.258	96.52
866.692	136.72
867.126	150.72
867.56	88.82
867.994	45.12
868.428	26.72
868.862	36.82
869.296	46.62
869.73	46.62
870.164	39.22
870.598	36.52
871.031	33.22
871.465	24.22
871.899	27.92
872.333	10.42
872.766	22.12
873.2	15.02
873.634	26.82
874.067	21.22
874.501	18.32
874.935	34.12
875.368	25.22
875.802	30.32
876.235	24.52
876.669	20.52
877.102	15.32
877.535	20.82
877.969	14.82
878.402	22.72
878.836	18.52
879.269	23.32
879.702	21.42
880.135	17.52
880.569	19.92
881.002	26.42
881.435	16.02
881.868	10.02
882.301	19.42
882.734	13.82
883.167	22.02
883.601	16.72
884.034	14.52
884.467	11.92
884.899	14.32
885.332	13.02
885.765	10.22
886.198	18.32
886.631	16.42
887.064	15.02
887.497	19.22
887.929	21.12
888.362	14.22
888.795	4.52
889.228	13.82
889.66	13.62
890.093	13.92
890.526	13.32
890.958	14.02
891.391	12.32
891.823	21.22
892.256	9.72
892.688	12.02
893.121	8.72
893.553	5.92
893.985	17.22
894.418	14.72
894.85	13.52
895.282	10.92
895.715	9.02
896.147	14.22
896.579	15.32
897.011	14.02
897.444	9.32
897.876	13.02
898.308	13.32
898.74	9.42
899.172	8.12
899.604	18.92
900.036	17.62
900.468	4.52
900.9	15.92
901.332	12.52
901.764	7.32
902.196	6.62
902.628	12.82
903.06	12.82
903.491	24.82
903.923	19.02
904.355	17.02
904.787	23.42
905.218	20.12
905.65	19.42
906.082	9.02
906.513	14.42
906.945	13.02
907.376	8.42
907.808	18.82
908.239	16.72
908.671	14.22
909.102	20.02
909.534	24.82
909.965	36.82
910.397	73.22
910.828	261.62
911.259	415.42
911.691	184.02
912.122	87.22
912.553	46.72
912.984	30.52
913.415	24.12
913.847	20.62
914.278	12.72
914.709	5.72
915.14	13.32
915.571	17.72
916.002	8.42
916.433	21.12
916.864	12.12
917.295	13.42
917.726	14.12
918.157	13.92
918.587	18.62
919.018	21.42
919.449	17.12
919.88	20.42
920.311	25.42
920.741	33.12
921.172	134.12
921.603	133.42
922.033	63.12
922.464	38.12
922.895	18.42
923.325	22.82
923.756	15.22
924.186	12.02
924.617	23.92
925.047	33.52
925.478	46.32
925.908	37.22
926.338	18.62
926.769	9.02
927.199	13.22
927.629	4.12
928.06	13.12
928.49	10.52
928.92	10.32
929.35	2.02
929.78	8.12
930.21	2.32
930.641	4.22
931.071	4.32
931.501	7.82
931.931	11.42
932.361	5.62
932.791	-2.48
933.221	-1.78
933.651	4.32
934.08	12.12
934.51	28.62
934.94	2.62
935.37	8.32
935.8	12.02
936.229	2.92
936.659	12.52
937.089	3.42
937.519	13.32
937.948	18.62
938.378	14.82
938.807	2.62
939.237	8.22
939.666	10.12
940.096	-6.88
940.525	0.92
940.955	-2.58
941.384	5.92
941.814	-4.58
942.243	0.62
942.672	2.92
943.102	1.22
943.531	1.52
943.96	6.22
944.39	-0.28
944.819	3.72
945.248	7.42
945.677	1.42
946.106	0.62
946.535	1.02
946.964	1.42
947.393	3.42
947.822	1.92
948.251	1.62
948.68	-1.58
949.109	1.22
949.538	3.12
949.967	4.92
950.396	-0.58
950.825	-0.98
951.254	4.02
951.682	-13.38
952.111	5.12
952.54	3.82
952.969	-3.38
953.397	-3.68
953.826	0.52
954.254	-3.98
954.683	0.82
955.112	-6.78
955.54	1.02
955.969	4.52
956.397	2.02
956.826	-1.98
957.254	0.32
957.682	4.82
958.111	7.92
958.539	-1.18
958.967	-4.98
959.396	-0.98
959.824	6.32
960.252	2.22
960.68	-5.08
961.109	-2.98
961.537	-0.98
961.965	-2.18
962.393	-1.18
962.821	-2.98
963.249	4.12
963.677	2.52
964.105	5.12
964.533	35.22
964.961	40.22
965.389	16.92
965.817	9.42
966.245	3.12
966.672	0.52
967.1	-2.58
967.528	6.32
967.956	-0.98
968.383	4.52
968.811	-3.08
969.239	-5.18
969.666	0.02
970.094	2.02
970.522	-0.18
970.949	0.72
971.377	-3.58
971.804	-6.78
972.232	1.22
972.659	1.32
973.087	0.52
973.514	0.42
973.941	-6.78
974.369	2.22
974.796	0.42
975.223	-2.18
975.651	-4.68
976.078	2.02
976.505	-2.08
976.932	6.82
977.359	11.12
977.786	14.12
978.214	0.72
978.641	-1.58
979.068	-6.88
979.495	-5.28
979.922	-2.18
980.349	-2.58
980.776	2.62
981.202	-1.68
981.629	0.02
982.056	4.82
982.483	-4.48
982.91	2.02
983.337	-4.58
983.763	0.62
984.19	-6.88
984.617	-1.48
985.043	-5.78
985.47	-1.58
985.897	1.62
986.323	-10.98
986.75	2.72
987.176	-2.38
987.603	0.72
988.029	-0.88
988.456	-5.88
988.882	-0.18
989.308	-2.68
989.735	-10.38
990.161	-1.68
990.587	-5.28
991.014	0.32
991.44	8.32
991.866	-4.88
992.292	-4.68
992.719	-4.78
993.145	4.32
993.571	-12.88
993.997	-2.18
994.423	-8.68
994.849	-10.88
995.275	-1.98
995.701	4.32
996.127	-5.28
996.553	-1.28
996.979	-2.18
997.405	-5.88
997.83	-6.58
998.256	-9.38
998.682	-4.38
999.108	-8.18
999.534	2.42
999.959	-1.38
1000.385	-3.08
1000.811	6.72
1001.236	-5.98
1001.662	-8.18
1002.087	-11.08
1002.513	-1.78
1002.938	5.12
1003.364	0.22
1003.789	-1.48
1004.215	1.92
1004.64	-3.98
1005.066	-3.88
1005.491	1.62
1005.916	-2.28
1006.342	-0.38
1006.767	-6.58
1007.192	4.82
1007.617	-3.38
1008.042	-6.88
1008.468	-9.18
1008.893	-8.58
1009.318	-4.48
1009.743	-9.18
1010.168	5.62
1010.593	-5.08
1011.018	-8.58
1011.443	0.52
1011.868	4.12
1012.293	-0.78
1012.718	-4.48
1013.143	3.52
1013.567	3.52
1013.992	-0.18
1014.417	-17.48
1014.842	8.62
1015.267	-3.48
1015.691	-3.38
1016.116	0.72
1016.541	-0.38
1016.965	5.32
1017.39	1.42
1017.814	3.92
1018.239	2.12
1018.663	-9.18
1019.088	-9.88
1019.512	2.02
1019.937	-0.18
1020.361	-3.18
1020.785	-7.58
1021.21	-2.28
1021.634	-1.38
1022.058	-4.58
1022.483	4.82
1022.907	-0.58
1023.331	-2.68
1023.755	-4.98
1024.179	-5.78
1024.604	-6.28
1025.028	-0.68
1025.452	-0.18
1025.876	-5.38
1026.3	0.12
1026.724	-8.38
1027.148	-2.38
1027.572	-8.38
1027.996	-2.78
1028.42	1.12
1028.843	-10.98
1029.267	-4.68
1029.691	-7.48
1030.115	-6.28
1030.539	-9.18
1030.962	-6.98
1031.386	-10.38
1031.81	-4.48
1032.233	0.82
1032.657	-9.78
1033.08	-4.68
1033.504	-5.58
1033.927	-4.38
1034.351	-6.68
1034.774	-7.18
1035.198	-4.88
1035.621	0.92
1036.045	-4.68
1036.468	0.22
1036.891	-4.38
1037.315	-5.68
1037.738	-4.98
1038.161	-2.18
1038.584	-6.38
1039.008	-6.88
1039.431	-3.08
1039.854	-2.38
1040.277	-1.78
1040.7	-7.08
1041.123	2.32
1041.546	-5.08
1041.969	-9.78
1042.392	-6.18
1042.815	-3.88
1043.238	-0.58
1043.661	2.52
1044.084	-4.28
1044.507	-5.48
1044.93	-7.68
1045.352	-7.28
1045.775	-7.98
1046.198	1.12
1046.621	0.12
1047.043	-3.08
1047.466	9.82
1047.889	0.02
1048.311	-4.38
1048.734	-10.28
1049.156	0.92
1049.579	-5.18
1050.001	-2.68
1050.424	-1.48
1050.846	-2.18
1051.269	-3.48
1051.691	-4.68
1052.113	-2.48
1052.536	-5.18
1052.958	-3.98
1053.38	-1.38
1053.802	-12.48
1054.225	0.92
1054.647	-5.08
1055.069	-4.08
1055.491	2.72
1055.913	-10.58
1056.335	-1.78
1056.757	-2.18
1057.179	-9.08
1057.601	-5.48
1058.023	-7.68
1058.445	1.22
1058.867	-2.18
1059.289	-2.18
1059.711	-7.28
1060.133	-6.28
1060.555	-3.68
1060.976	-9.78
1061.398	-2.08
1061.82	-9.98
1062.241	-7.28
1062.663	-9.58
1063.085	-6.38
1063.506	-3.88
1063.928	-13.68
1064.35	-8.28
1064.771	-9.78
1065.193	-1.88
1065.614	-9.98
1066.035	-2.78
1066.457	-3.38
1066.878	-2.08
1067.3	-2.38
1067.721	-3.98
1068.142	-2.88
1068.564	-2.58
1068.985	-0.28
1069.406	-2.08
1069.827	-0.48
1070.248	3.82
1070.67	-7.68
1071.091	-4.28
1071.512	-8.18
1071.933	-6.58
1072.354	-7.78
1072.775	-4.58
1073.196	-12.98
1073.617	8.12
1074.038	-8.88
1074.459	-0.28
1074.88	-11.68
1075.3	2.72
1075.721	-9.48
1076.142	0.22
1076.563	-0.68
1076.983	-9.88
1077.404	-9.08
1077.825	-9.08
1078.246	-1.88
1078.666	-9.18
1079.087	-0.08
1079.507	-8.58
1079.928	-2.28
1080.348	5.92
1080.769	-6.58
1081.189	-3.18
1081.61	-6.08
1082.03	-4.48
1082.451	-6.98
1082.871	-3.58
1083.291	-6.58
1083.711	-9.08
1084.132	-5.88
1084.552	-3.48
1084.972	-7.38
1085.392	-11.08
1085.813	-8.68
1086.233	-6.58
1086.653	-9.68
1087.073	-9.08
1087.493	-11.78
1087.913	-4.98
1088.333	-7.28
1088.753	-4.48
1089.173	-0.48
1089.593	1.52
1090.013	-0.78
1090.433	-4.58
1090.852	-5.88
1091.272	-4.48
1091.692	-0.68
1092.112	-2.18
1092.531	-9.78
1092.951	-11.08
1093.371	3.32
1093.79	-0.78
1094.21	-3.88
1094.63	0.32
1095.049	-6.08
1095.469	4.52
1095.888	0.22
1096.308	7.72
1096.727	4.22
1097.146	-1.48
1097.566	0.82
1097.985	-6.78
1098.405	1.12
1098.824	-5.38
1099.243	-5.28
1099.662	-10.58
1100.082	2.92
1100.501	-5.78
1100.92	-3.58
1101.339	-6.48
1101.758	-6.58
