Data from 20171114-ORNL-Ar_H_NY_Subt18_08-06-04-901.txt Node
Date: Tue Nov 14 08:06:04 EST 2017
User: Ender
Spectrometer: HR+D1039
Trigger mode: 0
Integration Time (sec): 2.730000E-2
Scans to average: 10
Electric dark correction enabled: true
Nonlinearity correction enabled: false
Boxcar width: 0
XAxis mode: Wavelengths
Number of Pixels in Spectrum: 2048
>>>>>Begin Spectral Data<<<<<
187.836	-0.78
188.309	-0.78
188.782	-0.78
189.255	1.82
189.728	-0.98
190.201	8.02
190.674	6.52
191.147	-2.38
191.619	-5.58
192.092	1.32
192.565	4.02
193.038	-1.18
193.511	5.52
193.984	0.12
194.456	-4.58
194.929	-0.88
195.402	-6.48
195.874	-4.48
196.347	-0.78
196.82	-4.58
197.292	8.72
197.765	3.02
198.237	-5.18
198.71	0.42
199.182	-5.28
199.655	1.12
200.127	3.52
200.6	-2.28
201.072	-1.08
201.544	-5.48
202.017	-5.18
202.489	-1.38
202.961	-1.38
203.433	-2.98
203.906	-3.58
204.378	-6.58
204.85	0.22
205.322	-2.48
205.794	-7.28
206.266	2.92
206.739	-2.08
207.211	-0.18
207.683	-9.58
208.155	-4.28
208.627	-6.38
209.099	-2.08
209.57	-8.78
210.042	-11.08
210.514	-4.48
210.986	-8.98
211.458	-15.68
211.93	-1.98
212.402	-1.68
212.873	-5.88
213.345	-10.28
213.817	-10.48
214.288	-4.98
214.76	-5.18
215.232	-4.68
215.703	0.42
216.175	-1.48
216.646	-5.48
217.118	-4.78
217.589	-4.88
218.061	-0.98
218.532	-4.48
219.004	-4.68
219.475	-4.18
219.946	-2.88
220.418	-6.88
220.889	3.22
221.36	-1.38
221.832	-4.18
222.303	-2.88
222.774	7.62
223.245	0.72
223.717	-8.88
224.188	-3.38
224.659	-2.68
225.13	-4.18
225.601	-0.98
226.072	3.82
226.543	-0.78
227.014	-2.58
227.485	-4.38
227.956	-7.38
228.427	-2.68
228.898	-0.78
229.369	4.32
229.839	-0.28
230.31	-7.08
230.781	5.52
231.252	-0.78
231.722	3.92
232.193	-3.58
232.664	1.82
233.135	2.12
233.605	-4.38
234.076	-5.88
234.546	-1.78
235.017	7.92
235.487	-0.58
235.958	5.12
236.428	-2.48
236.899	2.82
237.369	0.82
237.84	-2.08
238.31	8.82
238.78	2.42
239.251	4.92
239.721	5.22
240.191	4.32
240.662	-6.28
241.132	2.62
241.602	2.12
242.072	6.52
242.542	0.12
243.013	0.52
243.483	1.82
243.953	4.12
244.423	0.12
244.893	1.22
245.363	7.12
245.833	2.32
246.303	-3.78
246.773	5.82
247.243	5.02
247.712	1.42
248.182	3.12
248.652	7.72
249.122	-3.48
249.592	13.22
250.061	15.32
250.531	34.52
251.001	20.42
251.471	22.12
251.94	17.72
252.41	7.92
252.879	1.02
253.349	9.32
253.818	12.72
254.288	0.32
254.757	8.32
255.227	-0.88
255.696	7.22
256.166	6.72
256.635	4.22
257.105	6.52
257.574	8.72
258.043	7.92
258.513	6.42
258.982	19.92
259.451	10.32
259.92	15.92
260.389	7.12
260.859	14.62
261.328	12.42
261.797	14.62
262.266	12.12
262.735	4.52
263.204	4.42
263.673	-2.38
264.142	3.52
264.611	-1.48
265.08	0.02
265.549	1.22
266.018	2.62
266.487	-4.08
266.955	0.42
267.424	-1.98
267.893	8.02
268.362	5.92
268.83	9.02
269.299	7.32
269.768	4.52
270.236	9.92
270.705	5.52
271.174	10.12
271.642	8.92
272.111	6.72
272.579	21.32
273.048	25.32
273.516	29.32
273.985	34.52
274.453	22.32
274.922	20.02
275.39	11.12
275.858	2.82
276.327	16.32
276.795	18.32
277.263	11.52
277.731	32.52
278.2	53.42
278.668	55.92
279.136	52.22
279.604	21.02
280.072	16.92
280.54	7.72
281.008	10.82
281.477	9.82
281.945	15.12
282.413	14.22
282.881	17.92
283.348	6.62
283.816	12.02
284.284	19.12
284.752	19.62
285.22	13.32
285.688	17.82
286.156	24.52
286.623	46.32
287.091	53.32
287.559	31.52
288.026	14.92
288.494	19.72
288.962	8.12
289.429	10.82
289.897	16.42
290.364	14.52
290.832	16.72
291.3	18.02
291.767	20.62
292.234	24.42
292.702	7.82
293.169	18.12
293.637	22.62
294.104	15.92
294.571	10.52
295.039	15.92
295.506	11.52
295.973	20.42
296.44	17.72
296.908	20.22
297.375	16.92
297.842	17.92
298.309	12.92
298.776	15.52
299.243	24.42
299.71	12.12
300.177	19.32
300.644	17.22
301.111	19.42
301.578	22.12
302.045	20.02
302.512	27.62
302.979	29.02
303.446	23.32
303.913	15.92
304.379	23.32
304.846	20.02
305.313	31.32
305.78	21.92
306.246	23.82
306.713	32.12
307.18	24.22
307.646	25.62
308.113	26.42
308.579	22.82
309.046	29.02
309.512	29.12
309.979	13.22
310.445	35.12
310.912	29.32
311.378	33.22
311.845	30.82
312.311	35.42
312.777	34.12
313.244	34.02
313.71	35.22
314.176	35.42
314.642	35.32
315.109	34.32
315.575	35.82
316.041	42.92
316.507	30.32
316.973	40.32
317.439	33.52
317.905	38.62
318.371	37.12
318.837	33.82
319.303	35.22
319.769	35.52
320.235	35.82
320.701	34.62
321.167	37.72
321.633	34.52
322.099	49.22
322.564	46.52
323.03	40.32
323.496	40.82
323.962	43.22
324.427	37.52
324.893	44.92
325.359	36.12
325.824	37.12
326.29	36.02
326.755	38.32
327.221	41.62
327.686	35.02
328.152	47.02
328.617	43.02
329.083	48.42
329.548	55.62
330.014	45.22
330.479	41.12
330.944	43.72
331.41	43.32
331.875	49.52
332.34	46.62
332.805	43.02
333.271	49.12
333.736	45.72
334.201	55.82
334.666	58.32
335.131	52.52
335.596	53.12
336.061	53.32
336.526	43.62
336.991	48.82
337.456	61.42
337.921	46.32
338.386	46.02
338.851	45.32
339.316	40.22
339.781	48.52
340.246	51.32
340.711	51.12
341.175	49.92
341.64	44.32
342.105	48.82
342.569	56.72
343.034	54.52
343.499	61.02
343.963	55.12
344.428	66.42
344.893	64.32
345.357	56.62
345.822	69.42
346.286	67.52
346.751	73.32
347.215	61.52
347.679	76.82
348.144	99.92
348.608	84.92
349.073	69.22
349.537	76.22
350.001	80.52
350.465	88.82
350.93	82.42
351.394	85.32
351.858	72.52
352.322	87.82
352.786	84.52
353.25	104.72
353.715	108.02
354.179	101.32
354.643	126.42
355.107	127.92
355.571	110.72
356.035	104.62
356.498	130.72
356.962	127.42
357.426	137.72
357.89	117.42
358.354	88.92
358.818	84.32
359.281	84.22
359.745	79.02
360.209	79.72
360.673	76.32
361.136	81.12
361.6	91.02
362.064	86.22
362.527	88.02
362.991	92.32
363.454	88.12
363.918	73.72
364.381	82.62
364.845	83.02
365.308	85.42
365.772	95.82
366.235	86.52
366.698	83.22
367.162	82.92
367.625	92.32
368.088	94.32
368.552	88.42
369.015	87.22
369.478	99.92
369.941	102.92
370.404	97.52
370.867	112.92
371.331	101.62
371.794	126.22
372.257	108.62
372.72	120.22
373.183	112.22
373.646	108.82
374.109	102.62
374.572	103.22
375.035	112.22
375.497	112.52
375.96	107.42
376.423	99.32
376.886	117.52
377.349	111.92
377.811	98.92
378.274	110.92
378.737	107.22
379.199	105.92
379.662	105.82
380.125	118.52
380.587	116.62
381.05	135.22
381.512	131.62
381.975	139.62
382.437	133.12
382.9	120.82
383.362	132.82
383.825	145.12
384.287	151.82
384.75	144.32
385.212	151.62
385.674	139.72
386.136	142.12
386.599	124.92
387.061	128.32
387.523	128.62
387.985	135.62
388.447	140.22
388.91	144.72
389.372	160.02
389.834	154.62
390.296	147.42
390.758	155.52
391.22	175.42
391.682	214.32
392.144	304.52
392.606	237.72
393.068	169.52
393.529	165.32
393.991	154.62
394.453	145.32
394.915	166.32
395.377	192.42
395.838	219.12
396.3	159.02
396.762	145.82
397.224	134.02
397.685	128.52
398.147	132.32
398.608	133.42
399.07	129.72
399.531	130.72
399.993	140.92
400.454	159.72
400.916	148.12
401.377	153.42
401.839	154.32
402.3	152.72
402.762	171.62
403.223	179.62
403.684	163.02
404.145	169.12
404.607	160.02
405.068	168.62
405.529	173.92
405.99	191.92
406.451	176.82
406.913	180.92
407.374	171.22
407.835	167.92
408.296	169.32
408.757	176.02
409.218	192.22
409.679	183.12
410.14	182.22
410.601	182.42
411.062	193.72
411.522	199.32
411.983	198.52
412.444	179.32
412.905	189.82
413.366	185.92
413.826	203.32
414.287	220.72
414.748	261.32
415.208	246.82
415.669	216.02
416.13	207.52
416.59	209.22
417.051	208.52
417.511	220.92
417.972	238.92
418.432	251.52
418.893	292.12
419.353	250.72
419.814	201.42
420.274	185.72
420.734	185.52
421.195	204.22
421.655	205.12
422.115	193.72
422.576	192.62
423.036	197.02
423.496	207.42
423.956	214.02
424.416	232.02
424.876	265.02
425.336	261.82
425.797	270.02
426.257	263.12
426.717	245.32
427.177	242.32
427.637	226.32
428.097	242.02
428.556	249.42
429.016	270.02
429.476	272.12
429.936	277.22
430.396	284.72
430.856	293.22
431.315	313.52
431.775	360.72
432.235	384.12
432.694	359.42
433.154	368.22
433.614	400.02
434.073	342.02
434.533	291.42
434.993	277.32
435.452	292.82
435.912	301.12
436.371	294.72
436.83	287.02
437.29	270.22
437.749	257.02
438.209	247.22
438.668	278.82
439.127	297.72
439.587	268.22
440.046	257.42
440.505	263.22
440.964	282.42
441.424	336.42
441.883	318.22
442.342	267.92
442.801	226.22
443.26	225.12
443.719	218.52
444.178	217.62
444.637	211.82
445.096	222.22
445.555	230.52
446.014	223.72
446.473	228.02
446.932	236.82
447.391	229.82
447.849	229.52
448.308	223.72
448.767	220.62
449.226	239.92
449.685	244.12
450.143	255.82
450.602	238.52
451.061	234.62
451.519	237.82
451.978	235.62
452.436	239.32
452.895	248.92
453.353	250.52
453.812	242.42
454.27	249.92
454.729	251.32
455.187	247.72
455.646	254.32
456.104	246.72
456.562	267.02
457.021	271.62
457.479	268.12
457.937	274.12
458.395	269.42
458.854	252.92
459.312	253.62
459.77	280.72
460.228	257.92
460.686	249.62
461.144	248.92
461.602	245.42
462.06	247.52
462.518	262.12
462.976	261.32
463.434	270.32
463.892	264.72
464.35	283.12
464.808	298.02
465.266	275.32
465.724	274.22
466.181	277.72
466.639	275.92
467.097	293.12
467.555	310.92
468.012	319.32
468.47	316.32
468.928	341.92
469.385	349.82
469.843	352.42
470.3	350.12
470.758	373.42
471.215	386.52
471.673	420.32
472.13	415.22
472.588	421.32
473.045	376.62
473.503	382.92
473.96	400.42
474.417	409.32
474.875	435.72
475.332	481.82
475.789	467.52
476.246	474.22
476.704	506.72
477.161	516.32
477.618	530.92
478.075	569.12
478.532	621.92
478.989	700.02
479.446	829.82
479.903	796.72
480.36	827.82
480.817	875.62
481.274	992.42
481.731	1090.82
482.188	1186.22
482.645	1326.72
483.102	1435.12
483.558	1569.42
484.015	1645.02
484.472	1605.92
484.929	1544.52
485.385	1501.22
485.842	1457.62
486.299	1392.72
486.755	1332.02
487.212	1109.12
487.668	934.42
488.125	866.62
488.582	802.22
489.038	761.32
489.494	720.82
489.951	701.12
490.407	682.72
490.864	659.02
491.32	661.02
491.776	646.22
492.233	656.42
492.689	629.92
493.145	618.22
493.602	613.22
494.058	630.12
494.514	632.52
494.97	652.82
495.426	661.72
495.882	632.52
496.338	629.62
496.794	634.12
497.251	629.02
497.707	648.72
498.163	646.82
498.618	651.92
499.074	661.22
499.53	684.92
499.986	691.52
500.442	678.72
500.898	650.82
501.354	632.22
501.809	651.52
502.265	658.42
502.721	678.02
503.177	688.62
503.632	682.12
504.088	696.02
504.543	731.22
504.999	722.72
505.455	672.22
505.91	649.12
506.366	649.52
506.821	651.42
507.277	628.02
507.732	637.82
508.187	631.32
508.643	648.32
509.098	639.92
509.553	663.32
510.009	674.82
510.464	679.52
510.919	699.52
511.375	715.52
511.83	720.62
512.285	735.12
512.74	783.32
513.195	793.12
513.65	792.62
514.105	782.72
514.56	779.62
515.015	811.32
515.47	823.82
515.925	812.82
516.38	803.02
516.835	804.92
517.29	801.02
517.745	784.72
518.2	770.12
518.655	753.02
519.109	753.92
519.564	744.62
520.019	751.52
520.474	735.12
520.928	742.22
521.383	724.32
521.838	725.42
522.292	719.72
522.747	716.42
523.201	714.52
523.656	696.32
524.11	693.92
524.565	704.12
525.019	694.72
525.474	720.52
525.928	716.22
526.382	710.12
526.837	708.02
527.291	717.22
527.745	704.92
528.2	707.22
528.654	708.62
529.108	708.22
529.562	701.72
530.016	693.72
530.47	703.42
530.925	700.32
531.379	710.12
531.833	714.62
532.287	709.42
532.741	715.62
533.195	721.92
533.649	718.32
534.103	732.82
534.556	726.52
535.01	724.92
535.464	724.92
535.918	728.52
536.372	737.62
536.826	725.72
537.279	722.72
537.733	727.52
538.187	727.62
538.64	711.52
539.094	732.62
539.548	743.92
540.001	733.42
540.455	732.52
540.908	741.32
541.362	756.52
541.815	755.62
542.269	773.32
542.722	768.92
543.175	778.32
543.629	790.62
544.082	799.92
544.536	795.92
544.989	787.12
545.442	796.82
545.895	802.42
546.349	800.12
546.802	799.72
547.255	814.62
547.708	816.82
548.161	828.92
548.614	824.02
549.067	836.32
549.52	829.72
549.973	828.52
550.426	816.02
550.879	801.72
551.332	813.32
551.785	812.52
552.238	822.82
552.691	832.02
553.144	841.42
553.596	867.12
554.049	878.72
554.502	905.42
554.955	936.62
555.407	934.52
555.86	910.92
556.313	906.32
556.765	896.52
557.218	892.02
557.67	894.52
558.123	887.22
558.576	885.62
559.028	877.22
559.48	892.02
559.933	882.12
560.385	846.62
560.838	809.72
561.29	795.02
561.742	790.22
562.195	784.12
562.647	771.12
563.099	788.62
563.551	786.32
564.004	794.32
564.456	782.32
564.908	773.02
565.36	758.62
565.812	753.42
566.264	731.62
566.716	735.22
567.168	720.02
567.62	729.32
568.072	714.12
568.524	704.92
568.976	695.82
569.428	677.82
569.88	678.22
570.332	689.02
570.784	696.22
571.235	691.22
571.687	705.92
572.139	716.92
572.59	716.32
573.042	715.72
573.494	717.72
573.945	711.92
574.397	692.92
574.849	698.62
575.3	696.82
575.752	688.42
576.203	682.72
576.655	691.62
577.106	672.12
577.557	665.32
578.009	675.22
578.46	675.92
578.912	662.42
579.363	672.62
579.814	675.92
580.265	671.92
580.717	673.82
581.168	667.52
581.619	672.12
582.07	686.22
582.521	681.42
582.972	678.72
583.423	685.82
583.875	691.92
584.326	707.42
584.777	754.52
585.227	835.82
585.678	920.22
586.129	1004.52
586.58	1068.92
587.031	1162.22
587.482	1311.92
587.933	1502.82
588.384	1305.82
588.834	978.82
589.285	812.02
589.736	790.62
590.186	780.92
590.637	778.82
591.088	746.92
591.538	742.62
591.989	733.62
592.439	730.42
592.89	722.52
593.34	715.22
593.791	719.52
594.241	709.72
594.692	710.42
595.142	708.52
595.593	710.22
596.043	709.62
596.493	719.72
596.943	731.32
597.394	722.02
597.844	716.42
598.294	732.02
598.744	756.92
599.195	781.32
599.645	813.52
600.095	867.22
600.545	919.32
600.995	967.22
601.445	1034.42
601.895	1092.02
602.345	1133.22
602.795	1120.12
603.245	1068.12
603.695	1016.42
604.145	963.02
604.594	921.82
605.044	860.72
605.494	807.72
605.944	749.32
606.393	749.52
606.843	734.02
607.293	743.12
607.743	737.52
608.192	739.92
608.642	764.42
609.091	762.12
609.541	773.22
609.99	770.32
610.44	769.62
610.889	724.62
611.339	699.92
611.788	682.82
612.238	705.22
612.687	724.92
613.136	720.22
613.586	738.22
614.035	744.12
614.484	756.52
614.933	758.72
615.383	747.52
615.832	743.72
616.281	739.42
616.73	693.92
617.179	670.12
617.628	648.02
618.077	636.32
618.526	625.62
618.975	615.82
619.424	613.42
619.873	615.02
620.322	622.12
620.771	613.82
621.22	602.42
621.669	596.32
622.118	595.22
622.567	582.12
623.015	571.02
623.464	569.32
623.913	564.42
624.361	546.92
624.81	554.92
625.259	555.62
625.707	555.82
626.156	551.12
626.604	566.32
627.053	566.22
627.501	557.32
627.95	571.62
628.398	576.42
628.847	572.82
629.295	561.62
629.744	570.72
630.192	573.82
630.64	565.72
631.089	570.52
631.537	574.72
631.985	589.42
632.433	604.12
632.881	614.82
633.33	649.22
633.778	642.02
634.226	571.62
634.674	572.22
635.122	583.62
635.57	597.92
636.018	638.42
636.466	581.42
636.914	551.32
637.362	568.62
637.81	569.32
638.258	586.02
638.705	584.12
639.153	609.32
639.601	609.22
640.049	642.12
640.497	667.62
640.944	692.92
641.392	652.02
641.84	601.82
642.287	586.62
642.735	570.12
643.182	572.82
643.63	565.62
644.078	579.92
644.525	586.32
644.973	586.32
645.42	600.62
645.867	622.02
646.315	647.12
646.762	655.22
647.21	694.32
647.657	704.22
648.104	746.42
648.551	768.32
648.999	836.22
649.446	899.42
649.893	1001.02
650.34	1158.72
650.787	1378.42
651.234	1716.22
651.682	2238.02
652.129	3072.02
652.576	4405.52
653.023	6525.82
653.47	8968.42
653.917	11206.82
654.363	12951.72
654.81	14341.62
655.257	13656.22
655.704	8945.12
656.151	5272.42
656.598	3450.72
657.044	2414.32
657.491	1861.22
657.938	1482.22
658.385	1254.92
658.831	1069.52
659.278	965.82
659.724	853.92
660.171	787.02
660.618	717.72
661.064	682.42
661.511	660.12
661.957	656.92
662.404	643.22
662.85	654.32
663.296	618.92
663.743	562.72
664.189	538.12
664.635	522.12
665.082	518.12
665.528	521.92
665.974	520.02
666.42	517.72
666.867	505.32
667.313	487.72
667.759	472.72
668.205	469.12
668.651	479.52
669.097	487.62
669.543	496.42
669.989	465.32
670.435	445.12
670.881	435.72
671.327	443.72
671.773	465.72
672.219	479.72
672.665	541.42
673.11	580.02
673.556	622.52
674.002	664.72
674.448	649.82
674.893	537.82
675.339	475.32
675.785	431.32
676.23	409.42
676.676	384.72
677.122	385.52
677.567	367.22
678.013	362.82
678.458	350.82
678.904	354.72
679.349	345.42
679.794	353.42
680.24	339.82
680.685	341.12
681.131	342.72
681.576	349.82
682.021	349.22
682.466	343.92
682.912	339.72
683.357	348.12
683.802	376.42
684.247	403.02
684.692	451.82
685.137	486.62
685.583	526.82
686.028	554.42
686.473	510.82
686.918	445.72
687.363	407.72
687.807	400.22
688.252	363.22
688.697	345.62
689.142	332.82
689.587	332.92
690.032	320.92
690.477	332.42
690.921	344.32
691.366	376.72
691.811	396.92
692.255	430.82
692.7	451.32
693.145	496.22
693.589	676.12
694.034	1099.92
694.478	1497.52
694.923	1713.12
695.367	2247.02
695.812	1182.52
696.256	488.82
696.701	370.32
697.145	335.22
697.59	321.52
698.034	315.62
698.478	331.12
698.922	316.32
699.367	319.52
699.811	333.52
700.255	351.12
700.699	378.92
701.143	418.12
701.588	470.92
702.032	518.02
702.476	501.22
702.92	476.42
703.364	484.02
703.808	615.82
704.252	1016.42
704.696	1420.92
705.14	1644.02
705.584	2099.92
706.027	1046.12
706.471	509.12
706.915	392.52
707.359	346.92
707.803	315.12
708.246	308.52
708.69	304.42
709.134	309.02
709.577	301.72
710.021	314.42
710.465	304.12
710.908	293.72
711.352	289.62
711.795	305.52
712.239	342.82
712.682	372.82
713.126	414.92
713.569	465.62
714.012	365.82
714.456	315.72
714.899	290.82
715.342	265.92
715.786	261.52
716.229	248.62
716.672	247.32
717.115	241.42
717.558	247.02
718.002	247.82
718.445	258.52
718.888	282.82
719.331	285.12
719.774	303.62
720.217	302.92
720.66	273.02
721.103	266.82
721.546	255.92
721.989	245.22
722.432	226.02
722.874	229.62
723.317	231.12
723.76	231.12
724.203	255.32
724.645	308.92
725.088	438.62
725.531	566.42
725.974	629.72
726.416	542.32
726.859	305.12
727.301	241.02
727.744	232.72
728.187	228.52
728.629	229.32
729.071	237.82
729.514	250.82
729.956	269.92
730.399	281.02
730.841	292.02
731.283	272.02
731.726	252.92
732.168	254.32
732.61	265.02
733.053	281.02
733.495	312.82
733.937	349.62
734.379	387.02
734.821	428.62
735.263	529.62
735.705	805.12
736.148	1530.82
736.59	2516.82
737.032	3026.52
737.474	2441.12
737.916	787.32
738.357	416.92
738.799	325.02
739.241	291.32
739.683	279.32
740.125	282.92
740.567	295.52
741.008	309.72
741.45	307.22
741.892	306.92
742.334	346.32
742.775	353.82
743.217	335.72
743.658	267.32
744.1	250.72
744.542	258.72
744.983	308.82
745.425	336.32
745.866	334.62
746.307	281.22
746.749	280.92
747.19	314.72
747.632	440.72
748.073	839.22
748.514	1798.62
748.956	2780.52
749.397	3499.22
749.838	2917.52
750.279	2903.02
750.72	1474.82
751.162	536.02
751.603	315.92
752.044	246.22
752.485	213.82
752.926	203.62
753.367	195.82
753.808	194.82
754.249	180.22
754.69	183.42
755.131	173.72
755.572	179.02
756.013	173.92
756.453	173.12
756.894	188.32
757.335	185.42
757.776	193.32
758.216	190.82
758.657	196.72
759.098	200.92
759.538	220.22
759.979	260.02
760.42	356.62
760.86	682.22
761.301	1756.12
761.741	4302.02
762.182	6326.92
762.622	4470.62
763.063	1292.42
763.503	540.62
763.943	337.52
764.384	340.42
764.824	398.12
765.264	431.32
765.705	309.22
766.145	205.02
766.585	185.62
767.025	175.62
767.465	185.92
767.906	234.12
768.346	320.32
768.786	346.02
769.226	257.52
769.666	309.52
770.106	597.72
770.546	1499.12
770.986	2587.32
771.426	2326.42
771.866	769.42
772.306	312.82
772.745	199.82
773.185	171.22
773.625	169.02
774.065	166.22
774.505	193.42
774.944	296.92
775.384	648.72
775.824	1192.02
776.263	1165.42
776.703	493.72
777.142	218.62
777.582	157.52
778.021	130.92
778.461	137.82
778.9	137.72
779.34	130.62
779.779	116.02
780.219	109.12
780.658	104.62
781.097	105.72
781.537	115.32
781.976	102.32
782.415	94.72
782.855	104.02
783.294	103.02
783.733	104.22
784.172	107.82
784.611	107.72
785.05	105.82
785.489	110.22
785.928	109.82
786.367	116.92
786.806	119.52
787.245	127.32
787.684	135.02
788.123	146.52
788.562	133.22
789.001	126.02
789.44	117.62
789.879	118.62
790.317	118.32
790.756	121.42
791.195	126.82
791.634	151.32
792.072	200.42
792.511	345.22
792.95	973.42
793.388	2096.32
793.827	1907.62
794.265	666.92
794.704	281.42
795.142	179.92
795.581	147.32
796.019	135.92
796.458	118.02
796.896	119.32
797.334	129.52
797.773	147.82
798.211	213.42
798.649	421.32
799.087	993.42
799.526	1541.72
799.964	1957.92
800.402	1968.42
800.84	734.02
801.278	289.02
801.716	179.12
802.154	155.52
802.592	145.42
803.03	140.22
803.468	130.92
803.906	144.52
804.344	145.92
804.782	140.92
805.22	130.62
805.658	123.72
806.096	144.32
806.533	161.22
806.971	162.72
807.409	213.62
807.847	313.32
808.284	631.72
808.722	1792.32
809.16	3227.82
809.597	3026.62
810.035	5285.42
810.472	5698.62
810.91	2049.52
811.347	775.32
811.785	398.32
812.222	250.52
812.66	189.42
813.097	159.62
813.535	136.92
813.972	125.62
814.409	119.02
814.846	103.72
815.284	107.92
815.721	104.02
816.158	106.72
816.595	118.22
817.032	181.02
817.47	197.02
817.907	170.32
818.344	146.82
818.781	107.82
819.218	91.32
819.655	117.62
820.092	183.52
820.529	218.22
820.966	176.92
821.403	135.32
821.839	108.52
822.276	98.42
822.713	117.02
823.15	125.52
823.587	111.92
824.023	147.82
824.46	289.22
824.897	867.12
825.333	1332.72
825.77	577.02
826.206	228.92
826.643	137.82
827.08	100.12
827.516	71.52
827.953	76.12
828.389	76.32
828.825	73.32
829.262	69.72
829.698	59.22
830.135	61.12
830.571	54.92
831.007	64.52
831.443	63.02
831.88	63.92
832.316	56.22
832.752	64.82
833.188	56.92
833.624	58.92
834.06	59.82
834.497	64.62
834.933	68.62
835.369	73.12
835.805	65.02
836.241	73.12
836.677	82.22
837.112	82.92
837.548	101.12
837.984	127.62
838.42	193.02
838.856	478.42
839.292	1467.32
839.727	2266.42
840.163	1049.42
840.599	889.02
841.034	1965.22
841.47	2084.32
841.906	757.42
842.341	320.42
842.777	222.52
843.212	308.02
843.648	309.22
844.083	146.42
844.519	96.72
844.954	70.52
845.39	62.82
845.825	57.12
846.261	49.62
846.696	55.52
847.131	58.22
847.566	54.82
848.002	54.82
848.437	52.42
848.872	60.42
849.307	54.72
849.742	79.62
850.177	174.42
850.613	537.82
851.048	867.72
851.483	375.52
851.918	152.92
852.353	83.12
852.788	59.52
853.223	51.82
853.657	54.12
854.092	48.02
854.527	37.22
854.962	37.92
855.397	42.72
855.832	49.62
856.266	48.42
856.701	43.02
857.136	33.62
857.57	43.52
858.005	52.72
858.44	62.72
858.874	45.92
859.309	50.82
859.743	40.02
860.178	45.12
860.612	46.82
861.047	45.82
861.481	62.02
861.915	72.72
862.35	47.92
862.784	32.42
863.218	37.02
863.653	37.42
864.087	42.82
864.521	52.42
864.955	69.82
865.39	150.62
865.824	168.32
866.258	109.72
866.692	155.82
867.126	169.92
867.56	106.32
867.994	55.82
868.428	38.52
868.862	45.62
869.296	51.12
869.73	60.22
870.164	48.52
870.598	48.12
871.031	35.32
871.465	32.12
871.899	26.72
872.333	25.22
872.766	26.52
873.2	15.52
873.634	25.12
874.067	28.72
874.501	25.12
874.935	34.32
875.368	31.92
875.802	33.02
876.235	20.22
876.669	24.62
877.102	23.22
877.535	23.42
877.969	21.82
878.402	26.42
878.836	17.12
879.269	25.42
879.702	23.82
880.135	17.12
880.569	22.12
881.002	27.52
881.435	21.22
881.868	16.52
882.301	20.62
882.734	14.32
883.167	19.32
883.601	23.72
884.034	24.52
884.467	12.32
884.899	22.42
885.332	20.22
885.765	14.72
886.198	15.22
886.631	13.82
887.064	22.02
887.497	21.02
887.929	23.72
888.362	18.02
888.795	12.82
889.228	24.72
889.66	21.52
890.093	15.52
890.526	9.72
890.958	18.12
891.391	16.12
891.823	19.92
892.256	10.92
892.688	17.62
893.121	16.02
893.553	18.42
893.985	19.12
894.418	18.62
894.85	9.72
895.282	15.02
895.715	20.52
896.147	15.62
896.579	14.32
897.011	12.52
897.444	18.12
897.876	14.92
898.308	14.92
898.74	11.02
899.172	13.92
899.604	21.72
900.036	20.42
900.468	16.12
900.9	15.92
901.332	18.82
901.764	15.32
902.196	16.32
902.628	13.52
903.06	16.42
903.491	29.12
903.923	20.12
904.355	26.22
904.787	26.42
905.218	23.82
905.65	19.12
906.082	10.12
906.513	13.12
906.945	19.12
907.376	12.62
907.808	19.72
908.239	21.62
908.671	18.22
909.102	24.52
909.534	26.72
909.965	49.02
910.397	88.32
910.828	299.02
911.259	466.92
911.691	211.62
912.122	105.32
912.553	51.02
912.984	35.82
913.415	25.22
913.847	24.02
914.278	10.22
914.709	12.32
915.14	20.92
915.571	14.62
916.002	14.52
916.433	19.12
916.864	15.12
917.295	12.82
917.726	16.12
918.157	17.82
918.587	27.42
919.018	19.02
919.449	27.92
919.88	24.62
920.311	29.62
920.741	47.12
921.172	163.32
921.603	148.62
922.033	70.12
922.464	45.22
922.895	27.02
923.325	22.22
923.756	19.72
924.186	16.02
924.617	24.22
925.047	41.12
925.478	49.52
925.908	40.72
926.338	26.92
926.769	17.62
927.199	21.12
927.629	7.72
928.06	17.02
928.49	15.82
928.92	14.62
929.35	8.02
929.78	10.32
930.21	7.52
930.641	10.52
931.071	4.52
931.501	6.32
931.931	7.52
932.361	10.22
932.791	5.92
933.221	9.72
933.651	7.02
934.08	13.82
934.51	23.42
934.94	8.62
935.37	6.72
935.8	6.52
936.229	11.32
936.659	7.62
937.089	7.62
937.519	12.32
937.948	26.42
938.378	14.42
938.807	10.12
939.237	3.92
939.666	9.22
940.096	0.42
940.525	5.32
940.955	-1.28
941.384	7.22
941.814	-1.98
942.243	-0.68
942.672	0.42
943.102	1.62
943.531	-2.18
943.96	9.92
944.39	5.22
944.819	1.32
945.248	8.12
945.677	10.12
946.106	4.62
946.535	6.22
946.964	0.12
947.393	4.92
947.822	0.12
948.251	-4.18
948.68	3.82
949.109	1.42
949.538	6.82
949.967	2.02
950.396	1.72
950.825	0.62
951.254	-0.58
951.682	-5.98
952.111	1.92
952.54	4.82
952.969	-2.18
953.397	-5.58
953.826	-2.08
954.254	-3.98
954.683	-0.98
955.112	-1.88
955.54	3.62
955.969	2.92
956.397	4.62
956.826	0.72
957.254	3.02
957.682	0.62
958.111	6.62
958.539	-3.78
958.967	3.42
959.396	0.72
959.824	0.92
960.252	6.52
960.68	-2.98
961.109	3.22
961.537	-0.88
961.965	2.82
962.393	4.92
962.821	2.92
963.249	1.72
963.677	11.62
964.105	1.82
964.533	41.52
964.961	41.92
965.389	22.52
965.817	6.02
966.245	5.82
966.672	2.52
967.1	-3.48
967.528	3.72
967.956	-5.08
968.383	-1.88
968.811	-2.58
969.239	-3.98
969.666	-8.48
970.094	-1.98
970.522	5.42
970.949	-3.98
971.377	-7.28
971.804	-3.18
972.232	-0.08
972.659	-1.98
973.087	-2.88
973.514	-2.78
973.941	-5.28
974.369	2.72
974.796	2.12
975.223	-2.88
975.651	-4.58
976.078	1.12
976.505	-8.48
976.932	-2.48
977.359	18.62
977.786	8.72
978.214	-2.68
978.641	-2.18
979.068	-4.28
979.495	-10.78
979.922	-4.08
980.349	-0.98
980.776	-1.88
981.202	-2.28
981.629	3.72
982.056	3.52
982.483	-2.98
982.91	4.42
983.337	-2.98
983.763	2.62
984.19	-5.18
984.617	-10.18
985.043	-11.68
985.47	-1.28
985.897	-1.18
986.323	-9.58
986.75	5.22
987.176	-7.38
987.603	-0.18
988.029	-2.78
988.456	-3.78
988.882	3.82
989.308	-1.08
989.735	-1.48
990.161	-3.38
990.587	-2.08
991.014	-2.98
991.44	5.82
991.866	0.42
992.292	-3.38
992.719	-3.88
993.145	0.82
993.571	-7.38
993.997	-7.48
994.423	-2.48
994.849	-6.48
995.275	-1.88
995.701	2.42
996.127	-0.78
996.553	7.92
996.979	-2.98
997.405	0.52
997.83	-6.58
998.256	-4.58
998.682	-5.08
999.108	-0.98
999.534	-0.78
999.959	0.02
1000.385	-2.58
1000.811	1.22
1001.236	-8.68
1001.662	-6.08
1002.087	-5.58
1002.513	2.92
1002.938	0.12
1003.364	-6.08
1003.789	-0.08
1004.215	8.12
1004.64	0.02
1005.066	-3.18
1005.491	1.52
1005.916	0.72
1006.342	-3.18
1006.767	-6.38
1007.192	2.02
1007.617	-5.38
1008.042	-2.88
1008.468	-6.78
1008.893	-2.38
1009.318	-3.68
1009.743	-1.88
1010.168	1.02
1010.593	-1.08
1011.018	-3.98
1011.443	-7.18
1011.868	-1.58
1012.293	-1.48
1012.718	-8.88
1013.143	-0.08
1013.567	4.32
1013.992	2.02
1014.417	-14.18
1014.842	-0.78
1015.267	-3.68
1015.691	-3.18
1016.116	6.52
1016.541	-2.18
1016.965	2.72
1017.39	4.52
1017.814	-0.28
1018.239	-2.88
1018.663	-10.18
1019.088	-6.18
1019.512	-3.08
1019.937	-0.38
1020.361	-5.48
1020.785	-9.48
1021.21	1.42
1021.634	-3.98
1022.058	-0.98
1022.483	4.12
1022.907	-2.18
1023.331	-0.38
1023.755	1.22
1024.179	-3.58
1024.604	-10.28
1025.028	-8.08
1025.452	-7.28
1025.876	0.82
1026.3	-4.78
1026.724	-9.68
1027.148	-1.58
1027.572	-8.68
1027.996	-7.08
1028.42	-2.28
1028.843	-1.58
1029.267	-3.78
1029.691	-4.38
1030.115	-5.18
1030.539	-8.98
1030.962	-3.28
1031.386	-13.18
1031.81	-3.58
1032.233	-0.48
1032.657	-4.98
1033.08	-5.58
1033.504	-1.08
1033.927	-0.98
1034.351	-0.88
1034.774	-6.98
1035.198	-1.88
1035.621	-2.38
1036.045	-10.38
1036.468	0.22
1036.891	-13.58
1037.315	-10.38
1037.738	-11.68
1038.161	-1.38
1038.584	-1.18
1039.008	-11.48
1039.431	-2.08
1039.854	-2.28
1040.277	-8.08
1040.7	-11.38
1041.123	-1.38
1041.546	-11.98
1041.969	-7.28
1042.392	-10.08
1042.815	-5.48
1043.238	-0.18
1043.661	-2.18
1044.084	-4.58
1044.507	-3.08
1044.93	-2.78
1045.352	-5.58
1045.775	4.12
1046.198	-1.08
1046.621	-5.58
1047.043	0.92
1047.466	2.92
1047.889	-1.98
1048.311	-8.28
1048.734	-3.58
1049.156	-4.58
1049.579	-1.78
1050.001	-4.58
1050.424	-0.38
1050.846	-5.68
1051.269	-2.48
1051.691	-3.98
1052.113	-2.18
1052.536	-2.28
1052.958	-5.78
1053.38	-4.98
1053.802	-9.98
1054.225	2.22
1054.647	-12.18
1055.069	-8.38
1055.491	5.22
1055.913	-8.48
1056.335	2.02
1056.757	-1.08
1057.179	-9.18
1057.601	-6.38
1058.023	-4.88
1058.445	-8.48
1058.867	-5.58
1059.289	0.62
1059.711	-7.98
1060.133	5.42
1060.555	-8.58
1060.976	-4.88
1061.398	-8.08
1061.82	-10.38
1062.241	-4.58
1062.663	-9.28
1063.085	-5.68
1063.506	-1.08
1063.928	-5.38
1064.35	-6.68
1064.771	-17.18
1065.193	-4.78
1065.614	-7.48
1066.035	-3.18
1066.457	-5.88
1066.878	-3.48
1067.3	-7.58
1067.721	-6.18
1068.142	-1.78
1068.564	-3.68
1068.985	-4.58
1069.406	-3.58
1069.827	-4.88
1070.248	-2.58
1070.67	-3.78
1071.091	-12.88
1071.512	-5.38
1071.933	-3.18
1072.354	-5.68
1072.775	-7.78
1073.196	-9.68
1073.617	-3.48
1074.038	-2.98
1074.459	-5.58
1074.88	-7.68
1075.3	-2.88
1075.721	-4.88
1076.142	1.22
1076.563	-3.18
1076.983	-10.48
1077.404	-6.98
1077.825	-5.88
1078.246	-5.58
1078.666	-16.88
1079.087	-2.88
1079.507	-6.68
1079.928	-4.58
1080.348	1.02
1080.769	-7.78
1081.189	-3.28
1081.61	-6.18
1082.03	-6.58
1082.451	-1.28
1082.871	-2.48
1083.291	-9.58
1083.711	-7.28
1084.132	-5.08
1084.552	-4.48
1084.972	-0.98
1085.392	-12.78
1085.813	-3.48
1086.233	-6.08
1086.653	-5.08
1087.073	-4.78
1087.493	-10.88
1087.913	-9.78
1088.333	-4.98
1088.753	-6.08
1089.173	4.12
1089.593	-2.48
1090.013	-3.28
1090.433	-3.08
1090.852	-7.68
1091.272	-8.48
1091.692	-1.58
1092.112	-5.08
1092.531	-4.58
1092.951	-13.08
1093.371	-0.98
1093.79	3.62
1094.21	-4.78
1094.63	-3.48
1095.049	-8.98
1095.469	-6.68
1095.888	-2.18
1096.308	-2.58
1096.727	5.82
1097.146	-2.48
1097.566	-3.58
1097.985	-7.68
1098.405	-8.08
1098.824	-14.68
1099.243	-10.08
1099.662	-9.78
1100.082	-7.38
1100.501	-1.68
1100.92	-8.88
1101.339	-6.08
1101.758	-6.48
