Data from 20171114-ORNL-Ar_H_NY_Subt18_08-09-08-673.txt Node
Date: Tue Nov 14 08:09:08 EST 2017
User: Ender
Spectrometer: HR+D1039
Trigger mode: 0
Integration Time (sec): 2.730000E-2
Scans to average: 10
Electric dark correction enabled: true
Nonlinearity correction enabled: false
Boxcar width: 0
XAxis mode: Wavelengths
Number of Pixels in Spectrum: 2048
>>>>>Begin Spectral Data<<<<<
187.836	-3.21
188.309	-3.21
188.782	-3.21
189.255	0.89
189.728	1.29
190.201	3.29
190.674	-0.31
191.147	3.29
191.619	-9.01
192.092	3.69
192.565	-0.11
193.038	1.69
193.511	-0.01
193.984	2.39
194.456	0.99
194.929	-1.81
195.402	-3.21
195.874	0.19
196.347	-4.91
196.82	-5.51
197.292	3.09
197.765	-4.51
198.237	-6.41
198.71	1.29
199.182	-3.41
199.655	4.79
200.127	3.09
200.6	-1.81
201.072	0.39
201.544	-0.11
202.017	-6.81
202.489	3.99
202.961	-2.51
203.433	-2.81
203.906	-4.41
204.378	-9.61
204.85	-3.01
205.322	-13.71
205.794	-1.21
206.266	-7.71
206.739	-10.41
207.211	-3.31
207.683	-8.81
208.155	-7.41
208.627	-9.61
209.099	-6.81
209.57	-9.61
210.042	0.49
210.514	-4.21
210.986	-2.31
211.458	-13.11
211.93	-6.61
212.402	-3.31
212.873	-6.91
213.345	-4.11
213.817	-13.31
214.288	-6.41
214.76	-16.81
215.232	-7.31
215.703	-5.61
216.175	-5.81
216.646	-4.71
217.118	-4.41
217.589	-5.11
218.061	-0.71
218.532	-6.31
219.004	-4.51
219.475	-1.01
219.946	-7.61
220.418	-11.41
220.889	-0.21
221.36	2.49
221.832	1.19
222.303	-8.21
222.774	5.09
223.245	-12.21
223.717	-6.21
224.188	-6.91
224.659	-10.41
225.13	-3.31
225.601	-4.61
226.072	-1.41
226.543	-0.51
227.014	3.19
227.485	-3.01
227.956	-5.71
228.427	-0.81
228.898	-3.11
229.369	0.79
229.839	-0.61
230.31	-5.71
230.781	1.69
231.252	-3.81
231.722	-7.01
232.193	-4.01
232.664	-6.21
233.135	-5.71
233.605	-4.71
234.076	-11.21
234.546	4.99
235.017	-1.91
235.487	-1.31
235.958	-2.01
236.428	-3.71
236.899	3.49
237.369	-0.11
237.84	-5.61
238.31	-0.41
238.78	-5.91
239.251	-7.21
239.721	-6.11
240.191	-3.11
240.662	-2.91
241.132	-3.01
241.602	-6.91
242.072	-10.41
242.542	3.69
243.013	-3.61
243.483	5.99
243.953	3.19
244.423	-4.51
244.893	-3.51
245.363	4.19
245.833	1.39
246.303	-4.41
246.773	1.39
247.243	-4.71
247.712	-4.61
248.182	3.79
248.652	-3.91
249.122	-14.21
249.592	-3.31
250.061	4.99
250.531	8.49
251.001	-2.61
251.471	11.89
251.94	7.29
252.41	-2.01
252.879	-3.91
253.349	4.89
253.818	2.39
254.288	3.39
254.757	3.29
255.227	-11.01
255.696	-0.01
256.166	1.19
256.635	-5.81
257.105	-2.61
257.574	0.59
258.043	3.99
258.513	-1.61
258.982	1.89
259.451	-5.11
259.92	-0.91
260.389	2.59
260.859	3.79
261.328	-0.11
261.797	-0.31
262.266	-1.41
262.735	9.49
263.204	1.49
263.673	-1.71
264.142	-0.21
264.611	-2.61
265.08	-5.51
265.549	-3.21
266.018	-1.71
266.487	-10.21
266.955	-6.71
267.424	1.19
267.893	7.49
268.362	-3.41
268.83	-2.71
269.299	6.79
269.768	0.09
270.236	0.39
270.705	-2.81
271.174	-3.31
271.642	-2.81
272.111	-1.21
272.579	-2.71
273.048	-0.11
273.516	-0.51
273.985	0.89
274.453	10.49
274.922	4.49
275.39	5.59
275.858	-1.61
276.327	4.69
276.795	9.09
277.263	-3.41
277.731	11.29
278.2	8.99
278.668	10.19
279.136	7.19
279.604	2.69
280.072	0.09
280.54	7.49
281.008	2.19
281.477	9.59
281.945	7.39
282.413	7.79
282.881	12.29
283.348	0.79
283.816	6.79
284.284	7.89
284.752	19.59
285.22	8.89
285.688	4.49
286.156	6.89
286.623	14.59
287.091	4.79
287.559	9.49
288.026	8.59
288.494	6.39
288.962	2.39
289.429	2.19
289.897	10.29
290.364	13.19
290.832	12.19
291.3	8.09
291.767	7.79
292.234	13.19
292.702	5.29
293.169	12.79
293.637	13.79
294.104	12.79
294.571	2.69
295.039	6.39
295.506	6.49
295.973	5.19
296.44	5.29
296.908	9.69
297.375	10.39
297.842	5.29
298.309	10.09
298.776	5.69
299.243	8.99
299.71	8.09
300.177	16.89
300.644	12.29
301.111	4.49
301.578	15.19
302.045	8.09
302.512	23.09
302.979	19.59
303.446	16.79
303.913	9.59
304.379	9.19
304.846	17.99
305.313	20.39
305.78	8.09
306.246	14.29
306.713	15.09
307.18	14.79
307.646	11.39
308.113	22.19
308.579	14.19
309.046	9.49
309.512	20.49
309.979	14.09
310.445	19.19
310.912	21.89
311.378	23.09
311.845	14.89
312.311	20.69
312.777	18.49
313.244	16.99
313.71	29.19
314.176	23.29
314.642	19.19
315.109	27.49
315.575	28.19
316.041	32.79
316.507	20.09
316.973	27.99
317.439	27.29
317.905	22.49
318.371	27.79
318.837	23.69
319.303	17.79
319.769	20.39
320.235	21.29
320.701	26.29
321.167	25.89
321.633	21.19
322.099	29.89
322.564	31.99
323.03	24.89
323.496	26.89
323.962	29.19
324.427	30.29
324.893	30.69
325.359	29.29
325.824	29.49
326.29	25.69
326.755	29.29
327.221	27.69
327.686	27.79
328.152	31.89
328.617	31.09
329.083	37.49
329.548	34.29
330.014	34.39
330.479	26.09
330.944	30.59
331.41	36.39
331.875	34.69
332.34	30.79
332.805	27.49
333.271	31.59
333.736	25.49
334.201	44.09
334.666	38.99
335.131	43.09
335.596	41.39
336.061	36.09
336.526	34.59
336.991	41.39
337.456	42.79
337.921	39.19
338.386	32.19
338.851	33.89
339.316	42.09
339.781	37.49
340.246	39.89
340.711	38.39
341.175	41.29
341.64	33.09
342.105	39.79
342.569	46.39
343.034	48.29
343.499	41.79
343.963	40.29
344.428	53.29
344.893	56.19
345.357	50.39
345.822	50.19
346.286	52.59
346.751	57.89
347.215	52.89
347.679	53.99
348.144	75.99
348.608	61.49
349.073	52.89
349.537	57.19
350.001	63.29
350.465	68.09
350.93	67.79
351.394	64.39
351.858	55.69
352.322	72.79
352.786	61.69
353.25	75.99
353.715	84.69
354.179	83.99
354.643	91.79
355.107	93.69
355.571	81.49
356.035	87.29
356.498	87.59
356.962	87.09
357.426	101.19
357.89	89.69
358.354	72.79
358.818	66.99
359.281	64.29
359.745	63.29
360.209	68.99
360.673	59.19
361.136	66.39
361.6	72.09
362.064	67.69
362.527	70.49
362.991	78.39
363.454	70.29
363.918	57.89
364.381	66.39
364.845	71.99
365.308	73.69
365.772	70.49
366.235	70.19
366.698	65.99
367.162	60.89
367.625	72.39
368.088	68.79
368.552	72.39
369.015	76.39
369.478	85.19
369.941	77.79
370.404	79.69
370.867	88.09
371.331	88.99
371.794	92.89
372.257	70.39
372.72	94.99
373.183	84.99
373.646	77.89
374.109	79.29
374.572	86.19
375.035	81.29
375.497	89.99
375.96	90.59
376.423	85.89
376.886	99.19
377.349	93.09
377.811	90.89
378.274	95.29
378.737	93.39
379.199	94.69
379.662	98.99
380.125	92.79
380.587	91.39
381.05	94.19
381.512	106.89
381.975	104.89
382.437	99.09
382.9	99.79
383.362	102.49
383.825	109.39
384.287	114.29
384.75	104.09
385.212	115.49
385.674	117.59
386.136	120.19
386.599	101.19
387.061	104.89
387.523	111.69
387.985	113.69
388.447	122.09
388.91	112.89
389.372	119.99
389.834	111.49
390.296	114.39
390.758	115.89
391.22	128.79
391.682	132.29
392.144	146.69
392.606	137.59
393.068	129.19
393.529	138.89
393.991	122.79
394.453	124.39
394.915	121.09
395.377	126.99
395.838	128.89
396.3	122.89
396.762	122.69
397.224	123.99
397.685	115.99
398.147	127.99
398.608	119.19
399.07	117.19
399.531	118.39
399.993	132.29
400.454	143.89
400.916	139.19
401.377	136.29
401.839	142.49
402.3	143.19
402.762	148.29
403.223	165.19
403.684	155.99
404.145	146.19
404.607	150.49
405.068	149.29
405.529	158.19
405.99	177.39
406.451	159.99
406.913	158.49
407.374	157.09
407.835	146.19
408.296	155.29
408.757	162.89
409.218	175.19
409.679	163.39
410.14	164.39
410.601	159.29
411.062	174.49
411.522	163.89
411.983	161.29
412.444	155.79
412.905	168.89
413.366	177.09
413.826	186.99
414.287	206.59
414.748	256.59
415.208	243.49
415.669	200.49
416.13	198.89
416.59	194.69
417.051	204.59
417.511	217.89
417.972	229.69
418.432	248.69
418.893	278.49
419.353	240.39
419.814	191.89
420.274	176.69
420.734	178.19
421.195	179.59
421.655	177.69
422.115	179.99
422.576	192.39
423.036	194.59
423.496	205.29
423.956	208.49
424.416	222.39
424.876	260.09
425.336	254.39
425.797	247.29
426.257	240.19
426.717	228.79
427.177	230.09
427.637	220.49
428.097	220.59
428.556	233.09
429.016	255.59
429.476	256.09
429.936	259.39
430.396	266.29
430.856	279.59
431.315	292.49
431.775	326.19
432.235	354.59
432.694	321.89
433.154	330.19
433.614	362.49
434.073	319.29
434.533	275.69
434.993	254.99
435.452	265.09
435.912	275.79
436.371	267.89
436.83	264.99
437.29	251.19
437.749	238.19
438.209	242.19
438.668	261.39
439.127	275.79
439.587	250.79
440.046	241.09
440.505	248.89
440.964	274.49
441.424	305.39
441.883	302.99
442.342	249.09
442.801	220.59
443.26	218.89
443.719	216.09
444.178	223.09
444.637	206.99
445.096	217.49
445.555	221.69
446.014	221.89
446.473	237.39
446.932	230.29
447.391	221.79
447.849	223.49
448.308	222.09
448.767	220.09
449.226	236.09
449.685	236.79
450.143	244.29
450.602	241.39
451.061	219.99
451.519	223.69
451.978	225.99
452.436	232.59
452.895	240.79
453.353	247.29
453.812	234.29
454.27	233.09
454.729	235.59
455.187	235.29
455.646	246.79
456.104	247.09
456.562	254.39
457.021	264.69
457.479	259.69
457.937	271.19
458.395	267.49
458.854	249.89
459.312	253.89
459.77	263.29
460.228	254.29
460.686	248.69
461.144	248.99
461.602	238.79
462.06	249.29
462.518	262.29
462.976	253.59
463.434	262.59
463.892	268.19
464.35	276.99
464.808	284.09
465.266	268.59
465.724	268.49
466.181	276.49
466.639	270.79
467.097	286.49
467.555	300.99
468.012	306.19
468.47	302.99
468.928	329.79
469.385	337.39
469.843	344.69
470.3	338.49
470.758	359.79
471.215	378.99
471.673	402.79
472.13	400.79
472.588	417.39
473.045	368.89
473.503	383.79
473.96	401.39
474.417	406.29
474.875	436.29
475.332	471.79
475.789	461.29
476.246	463.99
476.704	482.29
477.161	498.59
477.618	514.19
478.075	549.79
478.532	604.69
478.989	672.19
479.446	776.79
479.903	736.79
480.36	764.69
480.817	822.29
481.274	907.19
481.731	992.29
482.188	1070.49
482.645	1187.39
483.102	1272.99
483.558	1392.59
484.015	1438.79
484.472	1400.79
484.929	1359.09
485.385	1322.59
485.842	1285.59
486.299	1239.49
486.755	1206.19
487.212	1014.89
487.668	879.09
488.125	815.79
488.582	741.69
489.038	716.59
489.494	695.39
489.951	675.59
490.407	650.49
490.864	630.49
491.32	630.09
491.776	627.69
492.233	633.59
492.689	598.19
493.145	595.79
493.602	599.79
494.058	608.29
494.514	595.59
494.97	632.29
495.426	643.59
495.882	616.99
496.338	601.89
496.794	615.19
497.251	613.09
497.707	628.89
498.163	624.09
498.618	632.89
499.074	631.99
499.53	667.79
499.986	666.49
500.442	643.29
500.898	628.69
501.354	611.29
501.809	613.49
502.265	618.29
502.721	631.29
503.177	641.79
503.632	642.79
504.088	639.89
504.543	671.59
504.999	690.89
505.455	659.49
505.91	641.39
506.366	645.29
506.821	629.59
507.277	625.69
507.732	640.39
508.187	639.49
508.643	640.69
509.098	649.99
509.553	657.99
510.009	671.79
510.464	678.49
510.919	696.19
511.375	698.99
511.83	716.99
512.285	723.59
512.74	763.79
513.195	773.09
513.65	764.79
514.105	770.89
514.56	768.59
515.015	789.99
515.47	797.59
515.925	779.19
516.38	795.99
516.835	794.59
517.29	773.59
517.745	786.39
518.2	775.69
518.655	751.59
519.109	754.89
519.564	740.99
520.019	735.79
520.474	730.09
520.928	728.99
521.383	731.69
521.838	713.19
522.292	727.79
522.747	719.49
523.201	712.79
523.656	706.29
524.11	691.89
524.565	700.69
525.019	704.09
525.474	713.39
525.928	704.89
526.382	706.09
526.837	703.39
527.291	708.29
527.745	695.59
528.2	709.99
528.654	699.99
529.108	694.19
529.562	695.29
530.016	699.39
530.47	691.29
530.925	686.89
531.379	703.89
531.833	709.49
532.287	699.79
532.741	709.29
533.195	705.69
533.649	715.09
534.103	722.49
534.556	702.99
535.01	711.49
535.464	708.39
535.918	722.89
536.372	724.49
536.826	726.99
537.279	712.29
537.733	719.99
538.187	727.39
538.64	717.29
539.094	716.79
539.548	740.69
540.001	736.09
540.455	725.49
540.908	744.39
541.362	751.49
541.815	754.99
542.269	773.79
542.722	773.29
543.175	778.99
543.629	782.59
544.082	800.39
544.536	795.29
544.989	799.29
545.442	799.29
545.895	808.29
546.349	809.89
546.802	809.39
547.255	810.69
547.708	815.69
548.161	825.69
548.614	836.89
549.067	831.79
549.52	829.59
549.973	826.09
550.426	820.79
550.879	815.99
551.332	815.29
551.785	824.79
552.238	826.99
552.691	843.99
553.144	857.69
553.596	862.09
554.049	885.69
554.502	910.59
554.955	927.89
555.407	919.49
555.86	922.89
556.313	899.39
556.765	906.99
557.218	899.79
557.67	907.59
558.123	901.69
558.576	886.89
559.028	894.99
559.48	901.39
559.933	886.39
560.385	857.09
560.838	831.19
561.29	808.59
561.742	801.89
562.195	781.99
562.647	783.29
563.099	789.99
563.551	790.89
564.004	792.19
564.456	789.09
564.908	777.89
565.36	766.09
565.812	752.39
566.264	740.59
566.716	731.19
567.168	719.29
567.62	739.09
568.072	711.39
568.524	707.89
568.976	702.69
569.428	695.59
569.88	695.59
570.332	699.09
570.784	701.29
571.235	713.59
571.687	719.59
572.139	725.59
572.59	731.59
573.042	731.49
573.494	726.69
573.945	726.69
574.397	702.59
574.849	707.29
575.3	703.09
575.752	695.99
576.203	690.09
576.655	701.59
577.106	689.19
577.557	683.49
578.009	687.79
578.46	686.19
578.912	682.39
579.363	685.69
579.814	684.69
580.265	684.29
580.717	685.59
581.168	692.69
581.619	689.79
582.07	700.29
582.521	687.29
582.972	679.49
583.423	685.69
583.875	694.89
584.326	699.69
584.777	719.39
585.227	749.39
585.678	758.59
586.129	789.29
586.58	805.29
587.031	819.49
587.482	862.29
587.933	904.49
588.384	874.69
588.834	810.09
589.285	798.99
589.736	792.39
590.186	795.89
590.637	792.69
591.088	761.99
591.538	765.59
591.989	740.09
592.439	750.99
592.89	729.69
593.34	718.79
593.791	722.69
594.241	720.59
594.692	703.59
595.142	717.79
595.593	713.69
596.043	725.19
596.493	729.19
596.943	726.89
597.394	736.39
597.844	732.99
598.294	753.69
598.744	768.19
599.195	808.69
599.645	838.19
600.095	882.29
600.545	943.89
600.995	996.99
601.445	1048.59
601.895	1120.09
602.345	1167.09
602.795	1138.09
603.245	1090.79
603.695	1040.99
604.145	988.79
604.594	942.09
605.044	883.39
605.494	826.59
605.944	781.09
606.393	768.59
606.843	742.69
607.293	752.09
607.743	743.89
608.192	751.59
608.642	768.69
609.091	775.69
609.541	780.39
609.99	779.09
610.44	789.39
610.889	737.19
611.339	722.39
611.788	699.09
612.238	707.89
612.687	719.19
613.136	710.99
613.586	733.99
614.035	720.79
614.484	735.59
614.933	732.39
615.383	735.99
615.832	724.69
616.281	724.49
616.73	687.29
617.179	678.99
617.628	662.49
618.077	647.39
618.526	642.59
618.975	633.99
619.424	632.89
619.873	630.99
620.322	640.69
620.771	622.09
621.22	624.09
621.669	610.19
622.118	604.19
622.567	588.69
623.015	575.59
623.464	575.69
623.913	566.79
624.361	571.39
624.81	564.59
625.259	570.09
625.707	579.59
626.156	574.69
626.604	595.69
627.053	573.19
627.501	579.09
627.95	583.09
628.398	594.69
628.847	582.39
629.295	591.49
629.744	591.09
630.192	585.49
630.64	575.09
631.089	570.79
631.537	559.29
631.985	557.09
632.433	552.79
632.881	544.39
633.33	551.59
633.778	546.09
634.226	550.59
634.674	556.79
635.122	558.49
635.57	567.29
636.018	578.39
636.466	579.19
636.914	566.79
637.362	599.99
637.81	589.29
638.258	603.79
638.705	607.59
639.153	638.19
639.601	637.99
640.049	659.59
640.497	696.39
640.944	718.69
641.392	661.29
641.84	640.99
642.287	601.89
642.735	586.89
643.182	585.89
643.63	578.39
644.078	581.79
644.525	590.99
644.973	601.19
645.42	609.29
645.867	633.19
646.315	647.09
646.762	673.59
647.21	699.29
647.657	724.09
648.104	763.59
648.551	776.59
648.999	837.39
649.446	912.39
649.893	998.69
650.34	1125.99
650.787	1358.59
651.234	1658.89
651.682	2169.29
652.129	2919.89
652.576	4203.79
653.023	6092.29
653.47	8210.39
653.917	10112.19
654.363	11557.49
654.81	12717.79
655.257	12023.49
655.704	7989.19
656.151	4822.99
656.598	3147.69
657.044	2272.59
657.491	1767.99
657.938	1430.79
658.385	1191.69
658.831	1052.99
659.278	927.09
659.724	838.79
660.171	784.99
660.618	732.89
661.064	687.29
661.511	667.89
661.957	662.09
662.404	650.39
662.85	663.29
663.296	635.09
663.743	569.89
664.189	545.29
664.635	557.99
665.082	539.09
665.528	549.49
665.974	541.59
666.42	523.89
666.867	528.89
667.313	487.39
667.759	485.69
668.205	477.99
668.651	464.49
669.097	465.49
669.543	460.49
669.989	452.89
670.435	455.99
670.881	460.39
671.327	468.39
671.773	492.89
672.219	513.09
672.665	564.69
673.11	622.09
673.556	649.99
674.002	691.09
674.448	680.59
674.893	571.99
675.339	487.59
675.785	458.39
676.23	437.79
676.676	413.79
677.122	402.89
677.567	389.49
678.013	376.69
678.458	380.29
678.904	381.89
679.349	362.69
679.794	369.39
680.24	367.99
680.685	365.09
681.131	362.69
681.576	358.09
682.021	369.99
682.466	366.59
682.912	361.79
683.357	360.79
683.802	392.39
684.247	434.29
684.692	486.59
685.137	521.49
685.583	565.89
686.028	585.49
686.473	542.99
686.918	466.99
687.363	431.79
687.807	418.39
688.252	388.39
688.697	371.09
689.142	354.59
689.587	348.89
690.032	338.19
690.477	361.49
690.921	368.99
691.366	395.39
691.811	418.79
692.255	454.19
692.7	483.89
693.145	535.29
693.589	760.89
694.034	1223.29
694.478	1641.79
694.923	1806.19
695.367	2346.99
695.812	1258.19
696.256	523.99
696.701	388.29
697.145	357.79
697.59	344.39
698.034	334.69
698.478	336.29
698.922	339.89
699.367	344.39
699.811	348.49
700.255	368.99
700.699	402.29
701.143	441.39
701.588	482.59
702.032	539.29
702.476	536.69
702.92	513.39
703.364	532.19
703.808	707.79
704.252	1137.29
704.696	1571.99
705.14	1755.59
705.584	2220.59
706.027	1126.09
706.471	551.19
706.915	420.49
707.359	373.69
707.803	335.39
708.246	323.79
708.69	338.79
709.134	330.89
709.577	323.49
710.021	335.79
710.465	315.49
710.908	320.89
711.352	312.19
711.795	319.99
712.239	373.69
712.682	402.59
713.126	428.59
713.569	470.29
714.012	374.59
714.456	314.99
714.899	301.59
715.342	281.89
715.786	273.39
716.229	266.89
716.672	268.99
717.115	257.89
717.558	264.09
718.002	257.59
718.445	283.39
718.888	299.19
719.331	304.49
719.774	316.99
720.217	313.09
720.66	295.89
721.103	280.59
721.546	267.29
721.989	254.39
722.432	245.69
722.874	246.09
723.317	240.89
723.76	250.49
724.203	269.89
724.645	340.89
725.088	471.89
725.531	604.09
725.974	667.99
726.416	574.09
726.859	326.19
727.301	250.79
727.744	247.99
728.187	243.79
728.629	249.49
729.071	257.99
729.514	274.59
729.956	288.99
730.399	304.29
730.841	304.99
731.283	288.69
731.726	273.49
732.168	269.99
732.61	277.79
733.053	298.39
733.495	339.69
733.937	373.19
734.379	423.99
734.821	463.29
735.263	594.29
735.705	923.69
736.148	1747.79
736.59	2793.59
737.032	3187.29
737.474	2602.59
737.916	876.79
738.357	456.39
738.799	348.99
739.241	312.69
739.683	297.49
740.125	308.29
740.567	309.09
741.008	331.89
741.45	339.49
741.892	337.99
742.334	361.89
742.775	375.99
743.217	363.69
743.658	287.09
744.1	269.29
744.542	275.69
744.983	335.19
745.425	356.59
745.866	368.09
746.307	294.79
746.749	293.99
747.19	348.39
747.632	506.09
748.073	996.09
748.514	2071.09
748.956	3040.09
749.397	3852.49
749.838	3172.39
750.279	3094.89
750.72	1577.19
751.162	583.89
751.603	339.69
752.044	263.79
752.485	226.19
752.926	218.79
753.367	215.49
753.808	201.59
754.249	200.39
754.69	193.39
755.131	193.59
755.572	198.09
756.013	187.49
756.453	199.39
756.894	195.89
757.335	201.59
757.776	205.59
758.216	206.29
758.657	207.59
759.098	210.89
759.538	240.09
759.979	284.89
760.42	409.99
760.86	786.89
761.301	2082.59
761.741	4870.99
762.182	6699.09
762.622	4733.99
763.063	1409.29
763.503	568.59
763.943	346.49
764.384	291.09
764.824	270.09
765.264	260.99
765.705	227.69
766.145	194.99
766.585	186.59
767.025	179.99
767.465	174.09
767.906	193.59
768.346	210.29
768.786	222.39
769.226	232.69
769.666	335.99
770.106	695.49
770.546	1726.29
770.986	2784.09
771.426	2461.49
771.866	838.89
772.306	348.89
772.745	205.29
773.185	177.79
773.625	163.89
774.065	159.69
774.505	167.59
774.944	224.89
775.384	390.99
775.824	626.89
776.263	609.09
776.703	293.99
777.142	168.69
777.582	132.89
778.021	121.69
778.461	129.89
778.9	129.19
779.34	137.19
779.779	124.09
780.219	114.19
780.658	107.59
781.097	114.69
781.537	116.99
781.976	120.19
782.415	110.09
782.855	106.79
783.294	109.19
783.733	114.49
784.172	112.39
784.611	108.79
785.05	115.39
785.489	115.89
785.928	114.39
786.367	122.49
786.806	119.19
787.245	136.29
787.684	141.39
788.123	157.19
788.562	145.99
789.001	130.59
789.44	122.19
789.879	127.19
790.317	121.39
790.756	137.79
791.195	133.89
791.634	154.49
792.072	211.89
792.511	399.29
792.95	1120.19
793.388	2260.59
793.827	1987.29
794.265	706.49
794.704	300.49
795.142	196.19
795.581	159.69
796.019	140.69
796.458	134.99
796.896	134.79
797.334	144.39
797.773	162.59
798.211	240.19
798.649	500.79
799.087	1119.09
799.526	1716.89
799.964	2169.29
800.402	2086.79
800.84	806.79
801.278	329.09
801.716	204.49
802.154	166.29
802.592	155.89
803.03	152.29
803.468	145.59
803.906	149.39
804.344	155.49
804.782	151.69
805.22	145.59
805.658	136.39
806.096	158.79
806.533	163.99
806.971	198.49
807.409	232.09
807.847	351.49
808.284	754.69
808.722	2073.49
809.16	3465.19
809.597	3459.29
810.035	5908.19
810.472	5992.79
810.91	2205.99
811.347	862.89
811.785	436.49
812.222	267.19
812.66	210.99
813.097	174.29
813.535	144.79
813.972	136.99
814.409	133.29
814.846	119.69
815.284	113.89
815.721	107.39
816.158	109.59
816.595	115.39
817.032	160.49
817.47	192.59
817.907	130.99
818.344	104.09
818.781	102.59
819.218	97.89
819.655	130.59
820.092	198.99
820.529	226.39
820.966	180.39
821.403	129.89
821.839	111.89
822.276	103.29
822.713	130.79
823.15	138.69
823.587	129.29
824.023	153.99
824.46	339.59
824.897	990.69
825.333	1403.89
825.77	599.99
826.206	244.69
826.643	141.69
827.08	107.29
827.516	87.99
827.953	81.59
828.389	84.29
828.825	63.39
829.262	76.89
829.698	61.39
830.135	66.49
830.571	59.49
831.007	72.89
831.443	67.59
831.88	57.79
832.316	66.79
832.752	64.99
833.188	63.29
833.624	65.49
834.06	69.09
834.497	72.19
834.933	77.39
835.369	83.09
835.805	70.79
836.241	81.79
836.677	84.69
837.112	94.09
837.548	113.89
837.984	147.39
838.42	221.59
838.856	554.69
839.292	1670.69
839.727	2420.49
840.163	1139.89
840.599	1029.69
841.034	2192.69
841.47	2191.89
841.906	825.39
842.341	351.99
842.777	206.99
843.212	214.29
843.648	190.49
844.083	118.79
844.519	82.29
844.954	69.59
845.39	54.49
845.825	57.59
846.261	58.19
846.696	58.19
847.131	57.99
847.566	65.19
848.002	53.09
848.437	61.59
848.872	57.09
849.307	68.99
849.742	92.69
850.177	202.69
850.613	609.79
851.048	926.69
851.483	402.39
851.918	164.19
852.353	93.19
852.788	58.29
853.223	52.39
853.657	56.39
854.092	45.49
854.527	39.79
854.962	45.19
855.397	48.09
855.832	56.69
856.266	44.59
856.701	42.19
857.136	40.79
857.57	42.39
858.005	50.59
858.44	58.69
858.874	45.59
859.309	53.59
859.743	46.19
860.178	49.99
860.612	49.79
861.047	57.99
861.481	76.89
861.915	74.79
862.35	53.59
862.784	36.69
863.218	45.99
863.653	37.99
864.087	42.89
864.521	51.99
864.955	69.29
865.39	170.89
865.824	184.09
866.258	121.89
866.692	182.99
867.126	186.79
867.56	114.49
867.994	57.89
868.428	40.59
868.862	51.19
869.296	63.69
869.73	61.19
870.164	53.89
870.598	51.09
871.031	41.29
871.465	35.19
871.899	31.79
872.333	24.39
872.766	28.09
873.2	24.29
873.634	31.19
874.067	24.79
874.501	29.69
874.935	33.39
875.368	32.59
875.802	32.29
876.235	21.89
876.669	26.99
877.102	23.79
877.535	25.49
877.969	21.19
878.402	18.69
878.836	15.99
879.269	21.89
879.702	23.49
880.135	19.59
880.569	21.19
881.002	24.09
881.435	25.69
881.868	16.79
882.301	21.09
882.734	17.09
883.167	23.89
883.601	22.19
884.034	23.89
884.467	14.69
884.899	18.89
885.332	19.89
885.765	11.69
886.198	17.09
886.631	16.29
887.064	21.79
887.497	22.49
887.929	22.49
888.362	11.39
888.795	13.39
889.228	19.29
889.66	21.59
890.093	15.09
890.526	16.39
890.958	16.09
891.391	12.89
891.823	20.89
892.256	19.99
892.688	8.99
893.121	14.19
893.553	16.39
893.985	21.69
894.418	18.59
894.85	12.19
895.282	16.29
895.715	19.19
896.147	13.89
896.579	19.89
897.011	13.49
897.444	17.49
897.876	12.89
898.308	12.89
898.74	17.59
899.172	15.69
899.604	25.39
900.036	15.99
900.468	13.89
900.9	13.89
901.332	20.09
901.764	21.19
902.196	19.19
902.628	17.49
903.06	23.39
903.491	29.69
903.923	17.99
904.355	17.79
904.787	22.59
905.218	24.99
905.65	19.99
906.082	10.99
906.513	13.59
906.945	18.19
907.376	14.99
907.808	26.29
908.239	22.69
908.671	18.39
909.102	21.79
909.534	22.09
909.965	52.09
910.397	99.39
910.828	340.49
911.259	501.89
911.691	231.59
912.122	114.69
912.553	57.39
912.984	36.59
913.415	27.69
913.847	25.19
914.278	16.79
914.709	19.49
915.14	18.59
915.571	14.39
916.002	14.59
916.433	16.99
916.864	18.69
917.295	16.59
917.726	21.59
918.157	14.79
918.587	26.99
919.018	24.89
919.449	24.29
919.88	25.89
920.311	43.69
920.741	55.29
921.172	175.29
921.603	157.39
922.033	75.69
922.464	46.99
922.895	24.69
923.325	16.79
923.756	13.09
924.186	13.89
924.617	18.59
925.047	23.69
925.478	21.29
925.908	22.39
926.338	18.89
926.769	12.39
927.199	14.99
927.629	7.29
928.06	12.49
928.49	16.89
928.92	13.19
929.35	16.99
929.78	6.79
930.21	6.99
930.641	6.69
931.071	9.29
931.501	6.29
931.931	7.89
932.361	9.99
932.791	4.89
933.221	8.99
933.651	8.59
934.08	16.09
934.51	26.59
934.94	13.19
935.37	10.29
935.8	5.09
936.229	12.39
936.659	14.79
937.089	0.59
937.519	13.49
937.948	27.49
938.378	16.49
938.807	13.49
939.237	7.39
939.666	6.99
940.096	-4.81
940.525	1.79
940.955	4.29
941.384	8.09
941.814	-8.11
942.243	-0.21
942.672	2.59
943.102	-2.31
943.531	1.29
943.96	5.89
944.39	2.39
944.819	-2.21
945.248	2.39
945.677	3.29
946.106	9.19
946.535	3.99
946.964	0.39
947.393	-0.41
947.822	4.59
948.251	-5.91
948.68	2.19
949.109	7.49
949.538	3.29
949.967	3.09
950.396	4.59
950.825	0.09
951.254	0.39
951.682	-4.31
952.111	4.39
952.54	11.39
952.969	-6.21
953.397	-6.41
953.826	1.89
954.254	1.79
954.683	-0.81
955.112	-0.71
955.54	1.19
955.969	3.89
956.397	0.99
956.826	-4.81
957.254	4.59
957.682	-1.71
958.111	2.59
958.539	1.59
958.967	0.09
959.396	-1.11
959.824	-1.81
960.252	1.09
960.68	-6.01
961.109	-4.91
961.537	-6.81
961.965	-6.81
962.393	2.79
962.821	0.19
963.249	5.79
963.677	4.69
964.105	7.09
964.533	51.09
964.961	47.69
965.389	21.89
965.817	8.49
966.245	1.99
966.672	6.59
967.1	-8.21
967.528	-4.51
967.956	-1.01
968.383	-1.01
968.811	-0.31
969.239	-2.01
969.666	-4.91
970.094	4.69
970.522	1.69
970.949	3.59
971.377	-0.91
971.804	4.49
972.232	-2.41
972.659	-1.41
973.087	1.39
973.514	-3.41
973.941	-1.41
974.369	-2.91
974.796	1.19
975.223	-1.11
975.651	0.39
976.078	6.29
976.505	0.39
976.932	6.19
977.359	16.99
977.786	14.29
978.214	1.69
978.641	1.49
979.068	-6.61
979.495	-4.01
979.922	-1.81
980.349	-4.91
980.776	-0.81
981.202	-0.81
981.629	2.69
982.056	4.99
982.483	-3.71
982.91	1.69
983.337	-4.51
983.763	1.59
984.19	-9.81
984.617	-7.41
985.043	-8.31
985.47	-1.61
985.897	-9.21
986.323	-3.51
986.75	8.79
987.176	1.29
987.603	2.59
988.029	-0.21
988.456	0.39
988.882	1.09
989.308	-0.91
989.735	-4.61
990.161	-4.91
990.587	-3.21
991.014	1.49
991.44	8.79
991.866	-0.91
992.292	-7.71
992.719	-2.21
993.145	0.29
993.571	-5.01
993.997	0.29
994.423	-0.41
994.849	-7.31
995.275	-2.71
995.701	-0.31
996.127	-1.71
996.553	7.39
996.979	5.29
997.405	-2.61
997.83	-2.21
998.256	-11.01
998.682	2.99
999.108	-5.51
999.534	-2.61
999.959	-4.21
1000.385	-3.21
1000.811	-2.91
1001.236	-14.21
1001.662	-9.61
1002.087	-10.41
1002.513	-0.61
1002.938	4.19
1003.364	1.69
1003.789	3.49
1004.215	6.19
1004.64	1.79
1005.066	2.89
1005.491	-0.21
1005.916	-6.31
1006.342	-0.11
1006.767	-6.21
1007.192	2.99
1007.617	-5.81
1008.042	-10.81
1008.468	-2.71
1008.893	1.69
1009.318	-0.81
1009.743	-2.91
1010.168	4.59
1010.593	-1.91
1011.018	-3.91
1011.443	-0.21
1011.868	0.09
1012.293	-0.31
1012.718	-6.71
1013.143	3.59
1013.567	2.49
1013.992	0.59
1014.417	-13.81
1014.842	1.69
1015.267	-3.51
1015.691	-1.61
1016.116	1.19
1016.541	-4.31
1016.965	4.59
1017.39	1.09
1017.814	5.89
1018.239	-3.61
1018.663	-6.81
1019.088	-12.01
1019.512	-4.21
1019.937	-2.11
1020.361	-8.21
1020.785	-11.01
1021.21	-0.01
1021.634	-1.21
1022.058	-1.71
1022.483	1.99
1022.907	-5.21
1023.331	-4.51
1023.755	-5.61
1024.179	-4.51
1024.604	-6.11
1025.028	-5.41
1025.452	-8.31
1025.876	-0.61
1026.3	0.89
1026.724	-5.31
1027.148	-3.21
1027.572	-3.71
1027.996	-4.91
1028.42	5.49
1028.843	-5.41
1029.267	-7.31
1029.691	-1.31
1030.115	-6.81
1030.539	-4.01
1030.962	-1.01
1031.386	-9.51
1031.81	-1.01
1032.233	2.39
1032.657	-2.31
1033.08	3.49
1033.504	-3.21
1033.927	-6.11
1034.351	-1.51
1034.774	-3.21
1035.198	-0.61
1035.621	-3.61
1036.045	-6.31
1036.468	-2.01
1036.891	-9.11
1037.315	-11.21
1037.738	-9.71
1038.161	-1.61
1038.584	-10.11
1039.008	-4.61
1039.431	-2.51
1039.854	-4.41
1040.277	-11.21
1040.7	-7.91
1041.123	-2.61
1041.546	-6.21
1041.969	-1.41
1042.392	-0.81
1042.815	0.59
1043.238	-3.41
1043.661	9.19
1044.084	-9.41
1044.507	-4.01
1044.93	-8.81
1045.352	-6.01
1045.775	-0.31
1046.198	0.39
1046.621	1.99
1047.043	-0.91
1047.466	-1.21
1047.889	-2.51
1048.311	0.69
1048.734	-7.21
1049.156	-3.21
1049.579	-0.81
1050.001	-2.51
1050.424	-2.11
1050.846	-2.41
1051.269	-8.11
1051.691	-1.91
1052.113	-0.31
1052.536	-3.01
1052.958	-5.61
1053.38	-8.11
1053.802	-9.21
1054.225	0.39
1054.647	-8.01
1055.069	0.09
1055.491	-0.81
1055.913	-8.91
1056.335	-3.71
1056.757	-8.21
1057.179	-6.81
1057.601	-9.01
1058.023	0.19
1058.445	-3.71
1058.867	-7.61
1059.289	-4.41
1059.711	-9.21
1060.133	-5.31
1060.555	-7.11
1060.976	-7.31
1061.398	-7.61
1061.82	-8.61
1062.241	-9.21
1062.663	-5.21
1063.085	-6.61
1063.506	-3.51
1063.928	-7.91
1064.35	-0.61
1064.771	-9.61
1065.193	-4.91
1065.614	-7.41
1066.035	-1.81
1066.457	0.49
1066.878	-3.81
1067.3	-3.51
1067.721	-4.11
1068.142	-3.51
1068.564	-9.41
1068.985	-5.81
1069.406	-5.61
1069.827	-5.21
1070.248	-0.31
1070.67	-6.11
1071.091	-8.41
1071.512	-5.71
1071.933	-2.61
1072.354	-2.41
1072.775	-6.21
1073.196	-7.31
1073.617	-2.11
1074.038	-5.91
1074.459	-1.71
1074.88	-4.81
1075.3	-4.61
1075.721	-8.41
1076.142	1.89
1076.563	-2.71
1076.983	-10.61
1077.404	-2.01
1077.825	-10.41
1078.246	-3.71
1078.666	-6.71
1079.087	-3.91
1079.507	-9.11
1079.928	-0.71
1080.348	0.09
1080.769	-5.41
1081.189	1.69
1081.61	2.19
1082.03	-10.41
1082.451	-8.71
1082.871	-7.51
1083.291	-4.21
1083.711	-9.31
1084.132	-6.51
1084.552	-8.81
1084.972	-3.81
1085.392	-7.91
1085.813	-7.41
1086.233	-4.91
1086.653	-4.01
1087.073	3.59
1087.493	-5.81
1087.913	-2.61
1088.333	-8.01
1088.753	-11.01
1089.173	-3.71
1089.593	-8.81
1090.013	-0.91
1090.433	-5.31
1090.852	-6.91
1091.272	-2.41
1091.692	-6.31
1092.112	-2.21
1092.531	-6.01
1092.951	-14.01
1093.371	-5.11
1093.79	-2.01
1094.21	-4.11
1094.63	-8.01
1095.049	-9.71
1095.469	-0.71
1095.888	-8.31
1096.308	-7.61
1096.727	1.99
1097.146	-11.41
1097.566	-2.01
1097.985	-7.81
1098.405	-4.51
1098.824	-15.51
1099.243	-3.61
1099.662	-10.91
1100.082	-3.91
1100.501	-2.51
1100.92	-4.51
1101.339	-4.21
1101.758	-4.41
