Data from 20171114-ORNL-Ar_H_NY_Subt18_08-05-27-504.txt Node
Date: Tue Nov 14 08:05:27 EST 2017
User: Ender
Spectrometer: HR+D1039
Trigger mode: 0
Integration Time (sec): 2.730000E-2
Scans to average: 10
Electric dark correction enabled: true
Nonlinearity correction enabled: false
Boxcar width: 0
XAxis mode: Wavelengths
Number of Pixels in Spectrum: 2048
>>>>>Begin Spectral Data<<<<<
187.836	-5.87
188.309	-5.87
188.782	-5.87
189.255	-0.17
189.728	0.33
190.201	4.93
190.674	1.83
191.147	2.63
191.619	-6.17
192.092	-3.67
192.565	6.63
193.038	1.13
193.511	1.23
193.984	4.33
194.456	2.53
194.929	-0.37
195.402	-5.07
195.874	-4.27
196.347	-0.37
196.82	-5.17
197.292	4.13
197.765	-0.47
198.237	-5.07
198.71	1.73
199.182	-6.57
199.655	-2.07
200.127	1.63
200.6	-3.97
201.072	-0.67
201.544	-1.57
202.017	-3.37
202.489	6.23
202.961	-4.77
203.433	-1.47
203.906	-9.77
204.378	-3.17
204.85	-2.67
205.322	-11.47
205.794	-5.37
206.266	-2.97
206.739	-12.87
207.211	4.73
207.683	-5.47
208.155	-2.57
208.627	-4.37
209.099	-3.87
209.57	-2.97
210.042	-3.97
210.514	-1.57
210.986	-0.87
211.458	-6.37
211.93	-3.87
212.402	4.73
212.873	0.03
213.345	-11.17
213.817	-7.77
214.288	-5.57
214.76	-5.37
215.232	-2.07
215.703	0.63
216.175	-3.57
216.646	-8.47
217.118	-8.17
217.589	-8.47
218.061	1.43
218.532	-2.47
219.004	-6.27
219.475	-3.07
219.946	-0.07
220.418	-1.27
220.889	4.53
221.36	-1.67
221.832	-6.57
222.303	-8.97
222.774	0.43
223.245	-8.47
223.717	-3.77
224.188	-7.37
224.659	-10.67
225.13	-6.37
225.601	-5.17
226.072	1.83
226.543	-0.07
227.014	4.33
227.485	-3.07
227.956	-10.97
228.427	3.13
228.898	1.83
229.369	3.73
229.839	1.13
230.31	-8.07
230.781	0.73
231.252	-3.67
231.722	-5.07
232.193	1.53
232.664	1.73
233.135	-2.37
233.605	-0.47
234.076	-2.97
234.546	-2.07
235.017	1.73
235.487	-4.57
235.958	-2.07
236.428	-5.67
236.899	5.43
237.369	2.53
237.84	1.23
238.31	6.43
238.78	0.43
239.251	-0.57
239.721	5.43
240.191	9.23
240.662	-3.57
241.132	-1.37
241.602	-4.37
242.072	1.53
242.542	4.53
243.013	3.53
243.483	0.03
243.953	7.23
244.423	2.73
244.893	-0.17
245.363	1.53
245.833	7.13
246.303	3.53
246.773	11.13
247.243	5.33
247.712	1.83
248.182	8.73
248.652	13.93
249.122	7.53
249.592	13.63
250.061	19.63
250.531	33.83
251.001	19.53
251.471	22.43
251.94	21.33
252.41	7.93
252.879	-2.97
253.349	13.13
253.818	12.33
254.288	4.03
254.757	7.83
255.227	-1.27
255.696	5.83
256.166	8.83
256.635	6.43
257.105	8.63
257.574	4.73
258.043	8.53
258.513	10.43
258.982	13.43
259.451	9.43
259.92	9.23
260.389	6.33
260.859	12.53
261.328	10.53
261.797	17.53
262.266	5.83
262.735	15.33
263.204	8.13
263.673	4.73
264.142	6.03
264.611	-2.87
265.08	2.53
265.549	-5.17
266.018	9.73
266.487	0.83
266.955	-1.87
267.424	3.23
267.893	8.03
268.362	3.23
268.83	4.43
269.299	14.03
269.768	12.63
270.236	6.93
270.705	5.03
271.174	7.03
271.642	9.93
272.111	4.03
272.579	19.43
273.048	22.83
273.516	31.03
273.985	32.03
274.453	23.23
274.922	19.63
275.39	7.03
275.858	1.93
276.327	10.03
276.795	22.03
277.263	6.73
277.731	36.43
278.2	55.13
278.668	58.73
279.136	51.23
279.604	23.03
280.072	14.83
280.54	14.23
281.008	16.53
281.477	13.53
281.945	18.83
282.413	11.93
282.881	13.33
283.348	12.73
283.816	12.23
284.284	16.23
284.752	24.43
285.22	11.23
285.688	12.43
286.156	15.93
286.623	43.63
287.091	48.33
287.559	28.73
288.026	19.63
288.494	18.53
288.962	8.13
289.429	10.33
289.897	15.23
290.364	11.93
290.832	21.43
291.3	19.83
291.767	14.83
292.234	19.63
292.702	19.03
293.169	22.03
293.637	24.33
294.104	19.83
294.571	13.13
295.039	14.83
295.506	16.03
295.973	21.03
296.44	16.13
296.908	17.13
297.375	20.83
297.842	21.03
298.309	18.83
298.776	20.23
299.243	22.13
299.71	17.23
300.177	23.23
300.644	22.33
301.111	19.73
301.578	22.73
302.045	14.83
302.512	25.63
302.979	23.63
303.446	22.33
303.913	21.03
304.379	21.83
304.846	32.03
305.313	27.93
305.78	28.23
306.246	27.03
306.713	27.83
307.18	22.43
307.646	28.53
308.113	31.83
308.579	29.83
309.046	27.93
309.512	27.53
309.979	21.43
310.445	26.53
310.912	28.53
311.378	32.93
311.845	25.13
312.311	32.23
312.777	38.13
313.244	38.43
313.71	38.13
314.176	28.33
314.642	36.83
315.109	33.73
315.575	39.23
316.041	33.33
316.507	38.03
316.973	39.03
317.439	35.33
317.905	34.63
318.371	38.53
318.837	40.53
319.303	35.43
319.769	36.83
320.235	33.03
320.701	35.23
321.167	38.43
321.633	36.13
322.099	40.73
322.564	46.93
323.03	41.53
323.496	33.33
323.962	38.23
324.427	33.83
324.893	44.43
325.359	35.23
325.824	40.33
326.29	36.23
326.755	42.43
327.221	43.13
327.686	43.53
328.152	53.73
328.617	41.93
329.083	42.43
329.548	52.13
330.014	48.53
330.479	39.43
330.944	45.43
331.41	47.83
331.875	44.53
332.34	47.13
332.805	39.63
333.271	47.33
333.736	47.63
334.201	52.33
334.666	51.03
335.131	55.73
335.596	47.33
336.061	48.03
336.526	42.83
336.991	45.43
337.456	57.63
337.921	42.43
338.386	49.63
338.851	42.73
339.316	45.93
339.781	46.23
340.246	54.93
340.711	42.53
341.175	52.93
341.64	44.43
342.105	53.63
342.569	56.23
343.034	54.33
343.499	54.73
343.963	49.13
344.428	62.13
344.893	60.33
345.357	65.33
345.822	60.33
346.286	64.53
346.751	67.83
347.215	67.73
347.679	75.53
348.144	93.63
348.608	79.83
349.073	71.83
349.537	76.23
350.001	89.33
350.465	91.83
350.93	82.63
351.394	86.43
351.858	75.93
352.322	91.43
352.786	91.73
353.25	97.33
353.715	106.23
354.179	100.83
354.643	124.03
355.107	121.13
355.571	108.23
356.035	102.83
356.498	119.93
356.962	119.13
357.426	130.93
357.89	118.63
358.354	91.23
358.818	78.73
359.281	79.53
359.745	76.93
360.209	77.13
360.673	81.43
361.136	79.93
361.6	82.03
362.064	90.13
362.527	89.43
362.991	88.13
363.454	79.23
363.918	81.73
364.381	83.63
364.845	83.93
365.308	85.23
365.772	82.33
366.235	84.63
366.698	86.33
367.162	88.73
367.625	88.13
368.088	81.03
368.552	85.23
369.015	87.83
369.478	89.63
369.941	102.73
370.404	102.13
370.867	102.23
371.331	111.23
371.794	112.23
372.257	106.83
372.72	117.73
373.183	106.83
373.646	107.33
374.109	102.03
374.572	101.33
375.035	111.93
375.497	113.53
375.96	103.33
376.423	102.33
376.886	116.53
377.349	105.03
377.811	104.63
378.274	100.63
378.737	99.23
379.199	111.43
379.662	111.93
380.125	120.33
380.587	116.93
381.05	116.53
381.512	127.43
381.975	133.13
382.437	123.93
382.9	126.93
383.362	127.83
383.825	137.73
384.287	141.53
384.75	139.43
385.212	142.63
385.674	138.43
386.136	136.53
386.599	115.93
387.061	126.93
387.523	126.83
387.985	141.43
388.447	145.13
388.91	137.93
389.372	154.93
389.834	149.73
390.296	147.73
390.758	154.83
391.22	171.13
391.682	204.13
392.144	280.33
392.606	224.33
393.068	164.83
393.529	160.73
393.991	145.63
394.453	148.63
394.915	153.13
395.377	191.73
395.838	204.93
396.3	151.73
396.762	145.23
397.224	129.93
397.685	128.13
398.147	136.83
398.608	132.13
399.07	130.93
399.531	128.73
399.993	143.03
400.454	150.13
400.916	144.73
401.377	134.43
401.839	153.53
402.3	149.23
402.762	160.03
403.223	176.93
403.684	169.93
404.145	157.63
404.607	158.13
405.068	159.03
405.529	177.43
405.99	188.33
406.451	167.03
406.913	171.53
407.374	156.23
407.835	158.33
408.296	162.03
408.757	171.43
409.218	182.53
409.679	173.13
410.14	172.83
410.601	173.63
411.062	179.23
411.522	188.13
411.983	187.53
412.444	169.73
412.905	181.53
413.366	175.13
413.826	184.93
414.287	213.43
414.748	257.03
415.208	249.13
415.669	205.13
416.13	203.23
416.59	202.53
417.051	211.13
417.511	210.73
417.972	234.53
418.432	249.53
418.893	276.53
419.353	250.43
419.814	187.23
420.274	180.83
420.734	172.53
421.195	194.13
421.655	196.13
422.115	181.83
422.576	185.73
423.036	197.13
423.496	203.33
423.956	217.43
424.416	221.63
424.876	260.83
425.336	262.13
425.797	259.13
426.257	252.03
426.717	235.53
427.177	225.53
427.637	216.33
428.097	225.43
428.556	235.23
429.016	260.73
429.476	266.33
429.936	266.53
430.396	271.23
430.856	288.73
431.315	305.23
431.775	350.03
432.235	378.63
432.694	345.93
433.154	368.03
433.614	395.03
434.073	342.43
434.533	282.53
434.993	259.63
435.452	283.63
435.912	291.23
436.371	280.13
436.83	287.33
437.29	266.43
437.749	250.63
438.209	244.73
438.668	272.93
439.127	279.63
439.587	265.13
440.046	248.33
440.505	250.73
440.964	270.63
441.424	312.73
441.883	312.73
442.342	264.83
442.801	225.43
443.26	216.43
443.719	208.73
444.178	213.13
444.637	203.83
445.096	214.33
445.555	211.83
446.014	220.63
446.473	221.93
446.932	226.93
447.391	221.93
447.849	223.73
448.308	210.43
448.767	224.13
449.226	229.13
449.685	227.53
450.143	241.33
450.602	231.23
451.061	221.83
451.519	230.23
451.978	226.23
452.436	228.73
452.895	233.33
453.353	250.23
453.812	236.13
454.27	234.93
454.729	228.63
455.187	233.63
455.646	236.63
456.104	239.83
456.562	256.53
457.021	258.43
457.479	261.03
457.937	270.23
458.395	253.73
458.854	250.13
459.312	244.33
459.77	273.73
460.228	251.13
460.686	237.83
461.144	234.63
461.602	244.43
462.06	236.43
462.518	250.73
462.976	251.03
463.434	260.23
463.892	260.23
464.35	276.23
464.808	283.83
465.266	259.33
465.724	268.73
466.181	275.93
466.639	267.03
467.097	278.73
467.555	298.73
468.012	300.73
468.47	300.63
468.928	319.93
469.385	340.13
469.843	342.63
470.3	339.03
470.758	361.43
471.215	385.13
471.673	410.83
472.13	399.43
472.588	411.43
473.045	365.13
473.503	369.73
473.96	387.53
474.417	393.43
474.875	432.23
475.332	473.33
475.789	460.53
476.246	466.53
476.704	486.73
477.161	504.13
477.618	512.23
478.075	553.63
478.532	600.83
478.989	692.83
479.446	793.43
479.903	767.33
480.36	803.53
480.817	866.13
481.274	971.43
481.731	1061.93
482.188	1160.93
482.645	1297.13
483.102	1394.93
483.558	1531.93
484.015	1597.43
484.472	1576.73
484.929	1524.63
485.385	1474.53
485.842	1440.53
486.299	1365.33
486.755	1299.63
487.212	1090.93
487.668	917.23
488.125	858.83
488.582	772.13
489.038	747.43
489.494	715.83
489.951	690.53
490.407	668.53
490.864	647.43
491.32	650.33
491.776	637.23
492.233	648.23
492.689	612.63
493.145	603.73
493.602	593.73
494.058	596.53
494.514	617.13
494.97	638.83
495.426	646.93
495.882	619.43
496.338	611.13
496.794	622.13
497.251	619.13
497.707	637.33
498.163	632.13
498.618	649.53
499.074	641.93
499.53	678.73
499.986	670.33
500.442	651.53
500.898	634.53
501.354	625.93
501.809	628.63
502.265	636.33
502.721	656.63
503.177	666.43
503.632	663.73
504.088	668.43
504.543	705.53
504.999	700.83
505.455	654.73
505.91	627.03
506.366	629.43
506.821	620.93
507.277	621.83
507.732	621.13
508.187	615.53
508.643	627.43
509.098	626.93
509.553	649.83
510.009	655.63
510.464	669.03
510.919	676.13
511.375	693.03
511.83	706.63
512.285	720.13
512.74	755.63
513.195	781.43
513.65	762.63
514.105	759.83
514.56	762.63
515.015	784.63
515.47	802.73
515.925	779.73
516.38	788.33
516.835	789.93
517.29	780.63
517.745	774.93
518.2	757.93
518.655	740.33
519.109	733.63
519.564	738.63
520.019	732.83
520.474	715.73
520.928	716.63
521.383	714.13
521.838	711.33
522.292	707.23
522.747	712.13
523.201	692.43
523.656	679.83
524.11	687.83
524.565	684.03
525.019	676.33
525.474	695.03
525.928	691.53
526.382	691.43
526.837	685.43
527.291	693.23
527.745	680.43
528.2	692.33
528.654	681.83
529.108	681.63
529.562	684.33
530.016	684.83
530.47	679.33
530.925	686.23
531.379	689.93
531.833	705.03
532.287	699.13
532.741	693.73
533.195	696.43
533.649	700.43
534.103	715.23
534.556	701.73
535.01	708.13
535.464	708.43
535.918	716.03
536.372	710.13
536.826	713.93
537.279	699.63
537.733	702.33
538.187	705.03
538.64	701.63
539.094	722.63
539.548	721.63
540.001	712.33
540.455	714.43
540.908	721.23
541.362	729.33
541.815	731.33
542.269	740.83
542.722	750.23
543.175	760.83
543.629	761.93
544.082	783.93
544.536	777.63
544.989	775.23
545.442	783.43
545.895	780.83
546.349	775.43
546.802	781.33
547.255	789.03
547.708	795.73
548.161	804.43
548.614	810.33
549.067	823.13
549.52	810.83
549.973	799.63
550.426	802.03
550.879	787.73
551.332	786.33
551.785	799.73
552.238	794.53
552.691	805.03
553.144	811.33
553.596	829.13
554.049	853.83
554.502	883.63
554.955	892.63
555.407	895.13
555.86	889.83
556.313	885.03
556.765	881.93
557.218	867.53
557.67	868.23
558.123	872.53
558.576	855.53
559.028	861.23
559.48	867.83
559.933	851.83
560.385	832.63
560.838	797.13
561.29	766.93
561.742	779.13
562.195	760.03
562.647	746.13
563.099	763.93
563.551	759.63
564.004	768.13
564.456	757.73
564.908	748.93
565.36	730.13
565.812	717.23
566.264	711.43
566.716	705.03
567.168	701.53
567.62	713.23
568.072	683.93
568.524	689.03
568.976	678.53
569.428	669.13
569.88	667.13
570.332	658.73
570.784	667.13
571.235	661.83
571.687	679.63
572.139	680.53
572.59	700.83
573.042	694.63
573.494	699.23
573.945	692.43
574.397	670.43
574.849	673.93
575.3	679.73
575.752	666.03
576.203	660.43
576.655	665.23
577.106	650.13
577.557	650.63
578.009	652.73
578.46	646.03
578.912	633.63
579.363	653.43
579.814	655.43
580.265	647.53
580.717	654.43
581.168	648.43
581.619	664.33
582.07	660.83
582.521	656.93
582.972	653.93
583.423	661.43
583.875	665.43
584.326	679.73
584.777	730.93
585.227	808.13
585.678	884.33
586.129	971.73
586.58	1047.73
587.031	1127.93
587.482	1279.43
587.933	1461.23
588.384	1273.53
588.834	949.33
589.285	786.83
589.736	753.63
590.186	752.93
590.637	755.73
591.088	726.83
591.538	713.73
591.989	713.73
592.439	713.43
592.89	710.03
593.34	691.03
593.791	690.23
594.241	681.73
594.692	691.13
595.142	685.43
595.593	675.03
596.043	686.73
596.493	695.83
596.943	698.03
597.394	694.93
597.844	700.73
598.294	704.23
598.744	734.93
599.195	750.43
599.645	793.53
600.095	827.43
600.545	881.03
600.995	933.83
601.445	980.43
601.895	1044.53
602.345	1102.33
602.795	1077.83
603.245	1035.23
603.695	974.73
604.145	931.83
604.594	881.63
605.044	828.43
605.494	771.93
605.944	731.33
606.393	725.53
606.843	710.63
607.293	711.53
607.743	690.13
608.192	715.23
608.642	726.63
609.091	741.53
609.541	747.13
609.99	751.73
610.44	740.53
610.889	700.73
611.339	679.33
611.788	660.93
612.238	677.63
612.687	689.13
613.136	685.83
613.586	707.13
614.035	714.03
614.484	736.23
614.933	738.03
615.383	728.13
615.832	722.63
616.281	699.23
616.73	668.93
617.179	633.03
617.628	624.73
618.077	609.53
618.526	601.53
618.975	603.13
619.424	594.93
619.873	584.43
620.322	592.23
620.771	587.33
621.22	591.23
621.669	573.53
622.118	564.33
622.567	559.83
623.015	544.53
623.464	546.43
623.913	533.93
624.361	531.73
624.81	537.03
625.259	527.83
625.707	533.93
626.156	537.63
626.604	545.13
627.053	538.43
627.501	543.13
627.95	548.83
628.398	547.83
628.847	545.43
629.295	547.73
629.744	554.93
630.192	553.73
630.64	548.33
631.089	545.63
631.537	551.73
631.985	562.13
632.433	570.93
632.881	576.13
633.33	626.33
633.778	609.53
634.226	543.43
634.674	547.93
635.122	552.03
635.57	566.53
636.018	596.23
636.466	562.43
636.914	533.53
637.362	546.83
637.81	556.23
638.258	554.13
638.705	549.13
639.153	582.93
639.601	591.73
640.049	609.33
640.497	639.63
640.944	661.23
641.392	609.73
641.84	594.53
642.287	555.83
642.735	545.73
643.182	547.33
643.63	545.23
644.078	556.83
644.525	563.13
644.973	567.23
645.42	579.03
645.867	592.13
646.315	607.93
646.762	627.83
647.21	667.03
647.657	691.43
648.104	719.33
648.551	742.43
648.999	803.93
649.446	871.53
649.893	962.23
650.34	1116.33
650.787	1320.63
651.234	1638.03
651.682	2146.43
652.129	2945.53
652.576	4222.13
653.023	6266.33
653.47	8636.33
653.917	10820.03
654.363	12597.33
654.81	13964.53
655.257	13271.13
655.704	8682.23
656.151	5126.23
656.598	3299.83
657.044	2331.03
657.491	1793.03
657.938	1430.23
658.385	1196.73
658.831	1039.63
659.278	918.13
659.724	817.63
660.171	750.63
660.618	685.23
661.064	650.93
661.511	639.63
661.957	628.73
662.404	612.43
662.85	618.23
663.296	583.33
663.743	539.13
664.189	515.83
664.635	507.63
665.082	499.93
665.528	496.83
665.974	497.63
666.42	486.73
666.867	480.83
667.313	467.23
667.759	455.63
668.205	454.53
668.651	458.13
669.097	452.83
669.543	470.03
669.989	444.33
670.435	430.03
670.881	419.93
671.327	423.13
671.773	445.43
672.219	468.13
672.665	513.23
673.11	545.13
673.556	586.23
674.002	629.93
674.448	613.83
674.893	512.03
675.339	450.23
675.785	416.73
676.23	393.03
676.676	373.63
677.122	363.03
677.567	354.03
678.013	345.33
678.458	341.33
678.904	333.83
679.349	323.83
679.794	336.23
680.24	334.33
680.685	328.43
681.131	325.13
681.576	328.53
682.021	336.53
682.466	327.93
682.912	330.13
683.357	323.23
683.802	361.83
684.247	384.73
684.692	432.43
685.137	465.13
685.583	501.63
686.028	524.33
686.473	481.63
686.918	423.53
687.363	389.33
687.807	374.23
688.252	345.33
688.697	332.03
689.142	316.23
689.587	320.73
690.032	307.83
690.477	318.83
690.921	323.93
691.366	354.63
691.811	379.73
692.255	401.93
692.7	431.73
693.145	466.83
693.589	636.73
694.034	1040.73
694.478	1439.73
694.923	1643.63
695.367	2150.53
695.812	1126.53
696.256	466.03
696.701	353.53
697.145	322.53
697.59	317.43
698.034	298.33
698.478	307.53
698.922	299.83
699.367	308.13
699.811	316.23
700.255	325.33
700.699	356.13
701.143	393.93
701.588	444.33
702.032	489.63
702.476	484.53
702.92	461.83
703.364	468.13
703.808	585.23
704.252	939.83
704.696	1360.33
705.14	1568.83
705.584	2019.73
706.027	1007.43
706.471	489.63
706.915	369.03
707.359	325.53
707.803	301.33
708.246	289.63
708.69	297.13
709.134	302.93
709.577	292.63
710.021	299.43
710.465	284.73
710.908	278.93
711.352	276.33
711.795	293.53
712.239	328.63
712.682	352.93
713.126	390.33
713.569	430.23
714.012	353.73
714.456	301.53
714.899	274.83
715.342	260.53
715.786	239.23
716.229	238.93
716.672	236.13
717.115	229.83
717.558	236.03
718.002	239.53
718.445	245.43
718.888	263.23
719.331	272.03
719.774	289.23
720.217	286.53
720.66	264.13
721.103	245.13
721.546	232.23
721.989	233.23
722.432	215.63
722.874	218.03
723.317	211.63
723.76	220.63
724.203	243.13
724.645	293.13
725.088	408.13
725.531	526.33
725.974	603.63
726.416	508.43
726.859	287.43
727.301	233.93
727.744	225.13
728.187	211.63
728.629	227.23
729.071	228.83
729.514	239.23
729.956	260.63
730.399	266.33
730.841	272.63
731.283	253.93
731.726	245.33
732.168	241.33
732.61	249.13
733.053	265.63
733.495	293.53
733.937	326.83
734.379	363.03
734.821	398.83
735.263	490.43
735.705	751.73
736.148	1444.23
736.59	2389.73
737.032	2891.13
737.474	2358.13
737.916	759.33
738.357	398.73
738.799	302.43
739.241	273.43
739.683	272.43
740.125	272.93
740.567	278.43
741.008	291.53
741.45	294.23
741.892	300.43
742.334	322.23
742.775	338.63
743.217	314.33
743.658	245.53
744.1	238.33
744.542	243.03
744.983	286.83
745.425	317.63
745.866	324.43
746.307	269.13
746.749	266.93
747.19	303.53
747.632	416.13
748.073	786.83
748.514	1713.23
748.956	2641.13
749.397	3320.93
749.838	2749.73
750.279	2780.63
750.72	1399.13
751.162	506.33
751.603	297.13
752.044	237.23
752.485	201.23
752.926	201.23
753.367	191.63
753.808	180.43
754.249	169.93
754.69	170.13
755.131	173.93
755.572	169.13
756.013	167.83
756.453	174.23
756.894	175.63
757.335	175.33
757.776	182.73
758.216	179.93
758.657	187.83
759.098	190.13
759.538	210.23
759.979	250.13
760.42	344.83
760.86	643.83
761.301	1652.53
761.741	4039.63
762.182	6087.53
762.622	4268.63
763.063	1224.73
763.503	508.33
763.943	318.73
764.384	310.63
764.824	374.83
765.264	419.73
765.705	289.93
766.145	202.03
766.585	177.73
767.025	165.93
767.465	170.13
767.906	228.13
768.346	305.53
768.786	318.63
769.226	245.83
769.666	289.83
770.106	551.63
770.546	1406.83
770.986	2482.13
771.426	2243.33
771.866	740.83
772.306	308.23
772.745	193.63
773.185	160.83
773.625	164.03
774.065	148.83
774.505	184.83
774.944	290.43
775.384	625.43
775.824	1169.13
776.263	1153.03
776.703	481.13
777.142	208.03
777.582	145.03
778.021	134.53
778.461	126.13
778.9	131.23
779.34	124.43
779.779	108.43
780.219	107.83
780.658	100.23
781.097	111.13
781.537	107.03
781.976	104.53
782.415	104.33
782.855	101.83
783.294	99.03
783.733	96.03
784.172	100.53
784.611	96.33
785.05	91.73
785.489	103.23
785.928	110.43
786.367	118.43
786.806	111.63
787.245	124.73
787.684	128.33
788.123	141.93
788.562	125.43
789.001	117.33
789.44	113.53
789.879	113.13
790.317	113.83
790.756	120.33
791.195	116.13
791.634	132.83
792.072	185.43
792.511	325.53
792.95	901.93
793.388	1983.23
793.827	1834.83
794.265	627.23
794.704	264.43
795.142	168.73
795.581	142.13
796.019	127.63
796.458	114.93
796.896	113.23
797.334	120.83
797.773	143.13
798.211	202.23
798.649	394.73
799.087	931.93
799.526	1473.43
799.964	1844.83
800.402	1901.33
800.84	709.03
801.278	278.73
801.716	175.13
802.154	145.13
802.592	137.83
803.03	128.33
803.468	118.03
803.906	128.43
804.344	139.73
804.782	135.93
805.22	120.13
805.658	120.83
806.096	136.83
806.533	148.93
806.971	165.63
807.409	200.63
807.847	287.23
808.284	595.03
808.722	1696.23
809.16	3083.93
809.597	2870.63
810.035	5029.73
810.472	5498.33
810.91	1961.33
811.347	741.63
811.785	372.43
812.222	231.93
812.66	185.83
813.097	149.23
813.535	139.13
813.972	117.53
814.409	115.73
814.846	106.33
815.284	100.73
815.721	101.63
816.158	98.73
816.595	111.93
817.032	158.13
817.47	195.43
817.907	164.23
818.344	138.23
818.781	106.73
819.218	94.73
819.655	109.13
820.092	172.23
820.529	201.33
820.966	160.73
821.403	126.13
821.839	98.43
822.276	101.23
822.713	116.03
823.15	122.23
823.587	104.53
824.023	128.03
824.46	273.53
824.897	816.63
825.333	1275.23
825.77	551.73
826.206	210.63
826.643	123.83
827.08	95.13
827.516	68.83
827.953	68.93
828.389	74.43
828.825	63.23
829.262	56.53
829.698	55.63
830.135	57.33
830.571	56.23
831.007	55.43
831.443	64.63
831.88	58.23
832.316	62.43
832.752	62.23
833.188	61.23
833.624	55.53
834.06	61.23
834.497	65.83
834.933	70.03
835.369	69.53
835.805	63.23
836.241	67.63
836.677	74.23
837.112	86.93
837.548	91.93
837.984	124.73
838.42	184.03
838.856	446.03
839.292	1380.43
839.727	2170.83
840.163	1002.73
840.599	839.43
841.034	1864.83
841.47	2017.53
841.906	726.53
842.341	310.03
842.777	214.33
843.212	298.73
843.648	297.93
844.083	143.63
844.519	96.13
844.954	66.73
845.39	58.33
845.825	54.23
846.261	54.23
846.696	56.73
847.131	48.23
847.566	54.53
848.002	48.13
848.437	52.43
848.872	54.03
849.307	47.53
849.742	74.23
850.177	160.63
850.613	504.33
851.048	820.13
851.483	362.33
851.918	140.13
852.353	78.23
852.788	60.23
853.223	51.63
853.657	48.03
854.092	46.73
854.527	43.93
854.962	33.43
855.397	40.13
855.832	43.03
856.266	41.73
856.701	34.53
857.136	31.83
857.57	40.93
858.005	46.23
858.44	55.83
858.874	39.83
859.309	49.23
859.743	36.83
860.178	45.03
860.612	40.73
861.047	48.03
861.481	64.63
861.915	63.33
862.35	47.93
862.784	27.63
863.218	41.23
863.653	29.53
864.087	41.03
864.521	49.03
864.955	62.73
865.39	141.83
865.824	158.73
866.258	101.63
866.692	143.73
867.126	169.63
867.56	101.13
867.994	52.33
868.428	37.53
868.862	42.93
869.296	47.53
869.73	54.03
870.164	47.73
870.598	41.03
871.031	31.23
871.465	23.73
871.899	31.43
872.333	23.23
872.766	22.73
873.2	17.33
873.634	30.33
874.067	24.43
874.501	20.63
874.935	27.53
875.368	26.53
875.802	24.23
876.235	17.33
876.669	26.33
877.102	20.43
877.535	24.23
877.969	23.63
878.402	27.03
878.836	16.93
879.269	19.23
879.702	21.83
880.135	19.23
880.569	23.13
881.002	26.03
881.435	20.93
881.868	16.03
882.301	16.83
882.734	14.13
883.167	25.33
883.601	20.23
884.034	21.93
884.467	14.83
884.899	13.73
885.332	11.23
885.765	14.53
886.198	15.93
886.631	19.13
887.064	15.03
887.497	20.43
887.929	19.03
888.362	9.13
888.795	10.23
889.228	12.83
889.66	21.93
890.093	15.83
890.526	16.83
890.958	15.73
891.391	13.33
891.823	24.73
892.256	13.33
892.688	17.33
893.121	18.13
893.553	14.13
893.985	16.53
894.418	20.33
894.85	11.73
895.282	10.93
895.715	20.03
896.147	16.23
896.579	12.33
897.011	12.13
897.444	12.63
897.876	10.83
898.308	14.43
898.74	12.13
899.172	9.83
899.604	23.13
900.036	17.63
900.468	11.13
900.9	13.23
901.332	17.03
901.764	11.73
902.196	17.43
902.628	13.23
903.06	17.33
903.491	26.23
903.923	22.83
904.355	17.73
904.787	26.13
905.218	23.53
905.65	20.83
906.082	12.63
906.513	12.83
906.945	20.73
907.376	5.63
907.808	16.13
908.239	19.83
908.671	14.63
909.102	21.23
909.534	23.93
909.965	47.03
910.397	79.43
910.828	293.53
911.259	444.43
911.691	205.73
912.122	98.33
912.553	46.93
912.984	41.43
913.415	23.83
913.847	22.03
914.278	21.23
914.709	11.13
915.14	16.73
915.571	16.33
916.002	7.83
916.433	14.13
916.864	15.83
917.295	13.93
917.726	21.83
918.157	17.93
918.587	30.63
919.018	19.83
919.449	15.53
919.88	25.33
920.311	25.83
920.741	43.33
921.172	149.83
921.603	138.43
922.033	66.83
922.464	41.83
922.895	26.03
923.325	20.53
923.756	18.23
924.186	7.03
924.617	29.43
925.047	39.93
925.478	49.03
925.908	41.63
926.338	26.63
926.769	18.43
927.199	21.53
927.629	4.83
928.06	15.23
928.49	7.43
928.92	11.03
929.35	9.53
929.78	8.13
930.21	2.33
930.641	5.63
931.071	6.93
931.501	7.73
931.931	5.83
932.361	-2.37
932.791	0.43
933.221	5.53
933.651	2.53
934.08	12.03
934.51	22.93
934.94	11.63
935.37	4.43
935.8	5.83
936.229	6.03
936.659	7.83
937.089	9.93
937.519	10.93
937.948	21.23
938.378	13.43
938.807	0.73
939.237	3.23
939.666	9.93
940.096	-7.87
940.525	-2.67
940.955	-1.87
941.384	3.63
941.814	-2.37
942.243	-3.97
942.672	3.13
943.102	-3.07
943.531	-3.47
943.96	4.13
944.39	1.03
944.819	-1.57
945.248	4.53
945.677	-1.97
946.106	3.33
946.535	5.43
946.964	0.53
947.393	4.53
947.822	0.43
948.251	-5.57
948.68	5.43
949.109	8.03
949.538	8.23
949.967	-7.17
950.396	-3.97
950.825	-2.47
951.254	4.13
951.682	-5.27
952.111	5.13
952.54	-1.57
952.969	-3.57
953.397	-4.57
953.826	2.03
954.254	2.13
954.683	7.43
955.112	-0.67
955.54	-5.17
955.969	-2.97
956.397	-1.37
956.826	-6.27
957.254	2.63
957.682	-2.47
958.111	6.83
958.539	-5.67
958.967	-1.07
959.396	-10.67
959.824	-0.97
960.252	1.33
960.68	-1.87
961.109	2.73
961.537	-3.97
961.965	1.53
962.393	0.93
962.821	-5.07
963.249	0.23
963.677	5.03
964.105	9.13
964.533	37.33
964.961	33.23
965.389	15.83
965.817	10.03
966.245	0.03
966.672	-0.87
967.1	-7.67
967.528	-0.67
967.956	-5.47
968.383	-0.37
968.811	-5.77
969.239	-9.57
969.666	-11.57
970.094	-0.07
970.522	-1.17
970.949	0.13
971.377	-1.37
971.804	-4.67
972.232	-4.37
972.659	-4.27
973.087	-11.97
973.514	-5.37
973.941	-6.57
974.369	5.73
974.796	2.83
975.223	0.03
975.651	-1.77
976.078	2.83
976.505	1.33
976.932	2.33
977.359	15.93
977.786	9.93
978.214	-3.07
978.641	-4.57
979.068	-7.27
979.495	-8.57
979.922	1.13
980.349	-4.47
980.776	1.43
981.202	1.53
981.629	5.03
982.056	4.33
982.483	-7.87
982.91	9.33
983.337	-8.27
983.763	2.43
984.19	-7.57
984.617	-5.07
985.043	-9.87
985.47	-4.27
985.897	-2.97
986.323	-1.87
986.75	6.63
987.176	-3.07
987.603	-3.27
988.029	-6.37
988.456	-6.57
988.882	-0.07
989.308	-9.57
989.735	0.33
990.161	-1.37
990.587	-9.07
991.014	-2.97
991.44	2.83
991.866	-5.77
992.292	-7.17
992.719	-2.47
993.145	-0.27
993.571	-7.77
993.997	-6.87
994.423	-3.17
994.849	-6.67
995.275	0.13
995.701	1.03
996.127	-5.87
996.553	2.83
996.979	-7.67
997.405	-3.47
997.83	-4.27
998.256	-5.97
998.682	-3.67
999.108	-7.67
999.534	-6.97
999.959	-1.57
1000.385	1.33
1000.811	0.63
1001.236	-11.47
1001.662	-8.67
1002.087	-5.37
1002.513	-2.47
1002.938	2.13
1003.364	4.23
1003.789	-0.27
1004.215	-1.17
1004.64	-7.77
1005.066	-4.27
1005.491	-1.57
1005.916	-4.37
1006.342	-4.47
1006.767	-6.57
1007.192	-3.37
1007.617	-10.47
1008.042	-6.47
1008.468	-8.37
1008.893	-1.07
1009.318	-6.57
1009.743	-4.77
1010.168	-0.97
1010.593	-1.27
1011.018	-7.67
1011.443	-4.67
1011.868	0.63
1012.293	-6.47
1012.718	-7.27
1013.143	-2.57
1013.567	-0.77
1013.992	-4.47
1014.417	-11.97
1014.842	-0.67
1015.267	-3.57
1015.691	-1.57
1016.116	2.13
1016.541	-4.57
1016.965	4.53
1017.39	2.93
1017.814	-2.07
1018.239	1.13
1018.663	-5.87
1019.088	-10.87
1019.512	-1.97
1019.937	-0.67
1020.361	-1.97
1020.785	-9.87
1021.21	-2.47
1021.634	-2.77
1022.058	0.83
1022.483	-1.27
1022.907	-7.67
1023.331	-7.77
1023.755	-2.47
1024.179	-5.77
1024.604	-9.17
1025.028	-8.67
1025.452	-8.07
1025.876	-5.77
1026.3	-3.17
1026.724	-13.07
1027.148	-5.07
1027.572	-10.37
1027.996	-7.67
1028.42	-5.67
1028.843	-3.87
1029.267	-7.97
1029.691	-6.07
1030.115	-8.97
1030.539	-4.87
1030.962	-4.47
1031.386	-10.67
1031.81	2.83
1032.233	-0.27
1032.657	-3.97
1033.08	-3.27
1033.504	-3.67
1033.927	-6.47
1034.351	3.43
1034.774	-8.67
1035.198	-0.37
1035.621	-3.67
1036.045	-7.77
1036.468	-1.17
1036.891	-11.37
1037.315	-16.07
1037.738	-10.07
1038.161	-0.27
1038.584	-10.27
1039.008	-6.37
1039.431	-3.47
1039.854	-8.27
1040.277	-10.57
1040.7	-12.17
1041.123	-4.17
1041.546	-11.67
1041.969	-2.57
1042.392	-2.77
1042.815	-1.97
1043.238	0.83
1043.661	0.53
1044.084	-4.27
1044.507	-10.37
1044.93	-5.07
1045.352	-5.17
1045.775	0.73
1046.198	-4.67
1046.621	-3.77
1047.043	-4.17
1047.466	3.83
1047.889	-10.77
1048.311	-5.17
1048.734	0.83
1049.156	-6.57
1049.579	-2.07
1050.001	-7.37
1050.424	-5.87
1050.846	-5.87
1051.269	-1.87
1051.691	-8.17
1052.113	-8.37
1052.536	-3.77
1052.958	-3.07
1053.38	0.23
1053.802	-9.87
1054.225	-0.87
1054.647	-8.17
1055.069	-6.27
1055.491	-0.57
1055.913	-3.57
1056.335	-4.17
1056.757	-9.57
1057.179	-6.67
1057.601	-11.07
1058.023	-9.27
1058.445	-8.67
1058.867	-3.67
1059.289	-2.17
1059.711	-8.57
1060.133	-3.17
1060.555	-9.07
1060.976	-7.07
1061.398	-5.97
1061.82	-6.97
1062.241	-9.07
1062.663	-10.47
1063.085	-9.37
1063.506	-1.77
1063.928	0.33
1064.35	-0.97
1064.771	-15.27
1065.193	-7.57
1065.614	-4.97
1066.035	-2.87
1066.457	-8.37
1066.878	-0.67
1067.3	-9.57
1067.721	-7.57
1068.142	-5.87
1068.564	-4.67
1068.985	-2.77
1069.406	-1.47
1069.827	-7.67
1070.248	-1.27
1070.67	-4.27
1071.091	-5.67
1071.512	-1.77
1071.933	-3.57
1072.354	-9.07
1072.775	-4.67
1073.196	-8.67
1073.617	-8.57
1074.038	-11.27
1074.459	-6.17
1074.88	-7.77
1075.3	1.43
1075.721	-9.67
1076.142	1.83
1076.563	-7.27
1076.983	-9.27
1077.404	-5.27
1077.825	-8.57
1078.246	-2.87
1078.666	-13.77
1079.087	-8.77
1079.507	-1.87
1079.928	2.93
1080.348	-4.37
1080.769	-7.87
1081.189	-0.37
1081.61	-0.67
1082.03	-9.27
1082.451	-11.17
1082.871	-4.87
1083.291	-8.67
1083.711	-6.77
1084.132	-1.77
1084.552	-4.97
1084.972	-5.47
1085.392	-12.97
1085.813	-9.97
1086.233	-10.27
1086.653	-5.77
1087.073	-3.17
1087.493	-9.17
1087.913	-10.07
1088.333	-4.87
1088.753	-4.77
1089.173	3.13
1089.593	-6.17
1090.013	-0.07
1090.433	-1.17
1090.852	-0.97
1091.272	0.63
1091.692	-2.07
1092.112	-1.27
1092.531	-10.07
1092.951	-11.37
1093.371	-8.97
1093.79	1.03
1094.21	-9.77
1094.63	-7.77
1095.049	-5.37
1095.469	-1.97
1095.888	-5.97
1096.308	1.13
1096.727	3.63
1097.146	-9.67
1097.566	-1.67
1097.985	-5.97
1098.405	-5.47
1098.824	-7.67
1099.243	-11.17
1099.662	-12.27
1100.082	-9.07
1100.501	-2.17
1100.92	-9.07
1101.339	-4.87
1101.758	-5.57
