Data from 20171114-ORNL-Ar_H_NY_Subt18_08-09-00-211.txt Node
Date: Tue Nov 14 08:09:00 EST 2017
User: Ender
Spectrometer: HR+D1039
Trigger mode: 0
Integration Time (sec): 2.730000E-2
Scans to average: 10
Electric dark correction enabled: true
Nonlinearity correction enabled: false
Boxcar width: 0
XAxis mode: Wavelengths
Number of Pixels in Spectrum: 2048
>>>>>Begin Spectral Data<<<<<
187.836	-2.04
188.309	-2.04
188.782	-2.04
189.255	-5.64
189.728	-2.94
190.201	9.36
190.674	3.36
191.147	1.86
191.619	-6.34
192.092	-1.34
192.565	2.26
193.038	1.66
193.511	1.36
193.984	-0.74
194.456	-0.14
194.929	-1.54
195.402	-1.24
195.874	2.06
196.347	0.06
196.82	-6.04
197.292	4.26
197.765	1.46
198.237	-3.54
198.71	-1.04
199.182	1.56
199.655	4.26
200.127	2.76
200.6	-8.84
201.072	-6.84
201.544	-1.24
202.017	-1.84
202.489	4.46
202.961	0.36
203.433	-2.24
203.906	-9.14
204.378	-7.34
204.85	-7.04
205.322	-12.34
205.794	-7.44
206.266	-6.44
206.739	-5.24
207.211	1.26
207.683	-11.84
208.155	-5.94
208.627	-10.04
209.099	-1.54
209.57	-8.84
210.042	-4.44
210.514	-7.74
210.986	-0.34
211.458	-5.84
211.93	-3.04
212.402	1.56
212.873	-3.84
213.345	-9.74
213.817	-12.34
214.288	-4.34
214.76	-4.64
215.232	-0.64
215.703	-7.74
216.175	-1.04
216.646	-11.94
217.118	-11.64
217.589	-6.64
218.061	-5.04
218.532	-2.84
219.004	-2.04
219.475	1.46
219.946	-3.04
220.418	-9.04
220.889	-2.14
221.36	0.86
221.832	-6.24
222.303	-6.14
222.774	1.46
223.245	-5.64
223.717	-5.24
224.188	-4.74
224.659	-8.84
225.13	-5.54
225.601	-4.14
226.072	1.46
226.543	2.96
227.014	3.06
227.485	0.86
227.956	-6.84
228.427	-1.84
228.898	-2.44
229.369	0.16
229.839	-3.44
230.31	-8.04
230.781	1.06
231.252	1.56
231.722	-4.24
232.193	-7.64
232.664	-1.74
233.135	4.96
233.605	-2.54
234.076	-11.44
234.546	-4.14
235.017	-1.84
235.487	-1.04
235.958	-7.64
236.428	-9.74
236.899	-6.34
237.369	-2.44
237.84	-0.74
238.31	-4.84
238.78	-0.34
239.251	-2.04
239.721	-7.24
240.191	-7.44
240.662	0.16
241.132	-9.04
241.602	-5.94
242.072	-2.54
242.542	-0.44
243.013	-2.64
243.483	-2.14
243.953	-1.34
244.423	-8.44
244.893	-6.04
245.363	-0.94
245.833	-5.74
246.303	-7.44
246.773	0.56
247.243	-5.74
247.712	-3.54
248.182	2.36
248.652	-0.34
249.122	-8.34
249.592	-3.34
250.061	3.86
250.531	9.46
251.001	1.26
251.471	0.06
251.94	6.96
252.41	-0.24
252.879	-10.14
253.349	3.06
253.818	5.96
254.288	-2.94
254.757	0.76
255.227	1.76
255.696	4.26
256.166	-2.54
256.635	2.36
257.105	-1.64
257.574	-2.94
258.043	3.36
258.513	0.16
258.982	3.36
259.451	-4.34
259.92	-3.84
260.389	0.66
260.859	5.36
261.328	3.56
261.797	2.46
262.266	-6.94
262.735	3.36
263.204	1.16
263.673	-1.34
264.142	-1.54
264.611	-7.54
265.08	-5.84
265.549	-2.64
266.018	5.16
266.487	0.56
266.955	-3.14
267.424	-0.94
267.893	-0.04
268.362	-6.14
268.83	-3.84
269.299	8.86
269.768	0.86
270.236	-4.14
270.705	-4.94
271.174	-0.04
271.642	1.36
272.111	1.56
272.579	-0.84
273.048	-7.24
273.516	1.16
273.985	-0.04
274.453	7.26
274.922	2.36
275.39	5.36
275.858	1.86
276.327	4.66
276.795	10.16
277.263	-0.44
277.731	8.66
278.2	2.56
278.668	3.96
279.136	8.96
279.604	-2.24
280.072	7.96
280.54	7.66
281.008	4.46
281.477	8.36
281.945	5.46
282.413	10.46
282.881	17.06
283.348	2.56
283.816	5.76
284.284	10.56
284.752	13.06
285.22	8.56
285.688	10.46
286.156	10.06
286.623	9.76
287.091	4.26
287.559	4.66
288.026	4.36
288.494	11.06
288.962	-3.14
289.429	-1.04
289.897	6.56
290.364	3.96
290.832	11.06
291.3	9.36
291.767	7.96
292.234	14.56
292.702	9.46
293.169	11.46
293.637	15.86
294.104	14.26
294.571	-0.14
295.039	1.46
295.506	6.66
295.973	8.96
296.44	4.56
296.908	17.96
297.375	6.56
297.842	6.86
298.309	6.16
298.776	3.06
299.243	9.06
299.71	5.96
300.177	16.26
300.644	17.56
301.111	7.86
301.578	15.76
302.045	13.96
302.512	17.16
302.979	16.46
303.446	12.76
303.913	6.66
304.379	10.46
304.846	15.96
305.313	13.76
305.78	10.86
306.246	11.86
306.713	15.46
307.18	11.96
307.646	14.96
308.113	20.16
308.579	18.46
309.046	16.56
309.512	21.46
309.979	11.76
310.445	26.36
310.912	20.76
311.378	22.76
311.845	21.06
312.311	16.26
312.777	20.16
313.244	21.86
313.71	32.46
314.176	21.56
314.642	19.26
315.109	15.06
315.575	23.26
316.041	25.56
316.507	17.76
316.973	28.06
317.439	19.86
317.905	28.76
318.371	23.46
318.837	23.66
319.303	22.16
319.769	28.56
320.235	23.96
320.701	21.56
321.167	23.36
321.633	19.86
322.099	28.46
322.564	26.86
323.03	31.46
323.496	24.66
323.962	28.86
324.427	28.56
324.893	29.56
325.359	27.86
325.824	27.46
326.29	27.66
326.755	25.16
327.221	32.66
327.686	33.06
328.152	34.96
328.617	28.96
329.083	35.96
329.548	39.86
330.014	44.66
330.479	33.16
330.944	28.86
331.41	31.86
331.875	35.96
332.34	30.36
332.805	33.16
333.271	36.16
333.736	25.46
334.201	41.56
334.666	42.06
335.131	45.76
335.596	44.16
336.061	38.46
336.526	28.76
336.991	35.56
337.456	45.56
337.921	35.76
338.386	35.76
338.851	37.06
339.316	41.56
339.781	38.86
340.246	41.16
340.711	37.36
341.175	40.46
341.64	34.46
342.105	40.16
342.569	44.36
343.034	46.56
343.499	41.46
343.963	42.86
344.428	56.96
344.893	47.36
345.357	52.06
345.822	48.56
346.286	54.46
346.751	57.86
347.215	48.06
347.679	57.56
348.144	81.86
348.608	67.66
349.073	64.56
349.537	63.96
350.001	61.56
350.465	72.06
350.93	65.36
351.394	62.26
351.858	56.96
352.322	72.16
352.786	71.66
353.25	78.56
353.715	80.96
354.179	82.96
354.643	93.26
355.107	94.76
355.571	84.26
356.035	82.26
356.498	87.06
356.962	86.56
357.426	101.06
357.89	91.06
358.354	75.06
358.818	68.86
359.281	67.36
359.745	64.46
360.209	65.36
360.673	55.66
361.136	67.96
361.6	75.26
362.064	71.16
362.527	73.86
362.991	76.46
363.454	65.66
363.918	58.26
364.381	64.56
364.845	69.56
365.308	79.86
365.772	77.86
366.235	77.16
366.698	73.76
367.162	72.76
367.625	75.46
368.088	69.06
368.552	80.76
369.015	80.46
369.478	84.36
369.941	82.96
370.404	78.86
370.867	90.06
371.331	87.26
371.794	91.36
372.257	86.56
372.72	89.36
373.183	87.96
373.646	76.06
374.109	81.46
374.572	86.16
375.035	83.36
375.497	91.26
375.96	94.66
376.423	96.16
376.886	103.16
377.349	98.56
377.811	88.76
378.274	92.06
378.737	96.66
379.199	94.46
379.662	96.06
380.125	97.66
380.587	95.46
381.05	90.36
381.512	106.06
381.975	105.06
382.437	106.76
382.9	108.96
383.362	111.56
383.825	114.26
384.287	107.06
384.75	99.56
385.212	109.26
385.674	120.36
386.136	116.56
386.599	116.96
387.061	117.86
387.523	106.26
387.985	109.66
388.447	117.46
388.91	99.96
389.372	120.86
389.834	115.56
390.296	112.96
390.758	116.76
391.22	124.66
391.682	129.86
392.144	134.66
392.606	132.16
393.068	126.16
393.529	139.16
393.991	129.26
394.453	116.26
394.915	124.66
395.377	118.46
395.838	119.26
396.3	122.46
396.762	128.26
397.224	124.36
397.685	116.26
398.147	121.86
398.608	123.36
399.07	121.56
399.531	134.16
399.993	133.66
400.454	141.66
400.916	141.46
401.377	136.96
401.839	139.76
402.3	146.26
402.762	156.96
403.223	172.56
403.684	164.26
404.145	152.46
404.607	140.26
405.068	148.16
405.529	155.06
405.99	169.76
406.451	162.96
406.913	162.46
407.374	150.26
407.835	152.36
408.296	154.96
408.757	163.66
409.218	173.06
409.679	163.46
410.14	157.56
410.601	167.16
411.062	172.36
411.522	175.06
411.983	163.26
412.444	164.76
412.905	173.56
413.366	174.76
413.826	183.06
414.287	209.56
414.748	263.16
415.208	246.46
415.669	208.86
416.13	201.76
416.59	203.06
417.051	208.36
417.511	221.66
417.972	235.46
418.432	253.06
418.893	279.96
419.353	251.16
419.814	194.16
420.274	180.46
420.734	180.16
421.195	191.06
421.655	185.36
422.115	188.06
422.576	190.66
423.036	190.96
423.496	209.06
423.956	215.56
424.416	224.96
424.876	262.26
425.336	249.76
425.797	258.66
426.257	246.66
426.717	231.16
427.177	223.36
427.637	221.46
428.097	223.66
428.556	238.16
429.016	263.56
429.476	251.36
429.936	259.06
430.396	264.46
430.856	278.66
431.315	297.66
431.775	328.16
432.235	353.56
432.694	334.16
433.154	346.96
433.614	375.86
434.073	322.36
434.533	268.46
434.993	259.76
435.452	267.66
435.912	270.06
436.371	270.26
436.83	266.66
437.29	252.86
437.749	231.16
438.209	238.56
438.668	260.36
439.127	273.16
439.587	248.66
440.046	245.16
440.505	252.86
440.964	268.06
441.424	311.86
441.883	294.66
442.342	255.76
442.801	225.26
443.26	219.36
443.719	220.46
444.178	218.56
444.637	213.76
445.096	227.06
445.555	226.46
446.014	223.16
446.473	223.16
446.932	225.86
447.391	227.76
447.849	226.36
448.308	217.26
448.767	227.86
449.226	236.46
449.685	236.46
450.143	257.16
450.602	235.96
451.061	224.76
451.519	238.16
451.978	230.66
452.436	238.26
452.895	235.66
453.353	250.26
453.812	243.36
454.27	239.56
454.729	241.36
455.187	240.16
455.646	248.86
456.104	249.06
456.562	257.76
457.021	266.76
457.479	263.36
457.937	272.36
458.395	268.86
458.854	257.66
459.312	259.46
459.77	279.96
460.228	258.36
460.686	238.96
461.144	253.66
461.602	245.36
462.06	253.06
462.518	251.36
462.976	264.86
463.434	264.76
463.892	263.76
464.35	268.96
464.808	294.56
465.266	271.86
465.724	277.76
466.181	274.06
466.639	274.36
467.097	295.26
467.555	303.16
468.012	309.76
468.47	319.76
468.928	332.16
469.385	344.56
469.843	348.46
470.3	355.06
470.758	364.16
471.215	384.16
471.673	403.06
472.13	407.26
472.588	420.46
473.045	385.66
473.503	393.06
473.96	397.96
474.417	407.76
474.875	435.36
475.332	483.76
475.789	459.36
476.246	475.16
476.704	493.36
477.161	510.36
477.618	523.36
478.075	557.86
478.532	607.76
478.989	677.06
479.446	783.56
479.903	744.26
480.36	781.86
480.817	823.46
481.274	923.26
481.731	1002.36
482.188	1076.06
482.645	1198.36
483.102	1277.56
483.558	1399.86
484.015	1458.76
484.472	1412.16
484.929	1376.46
485.385	1336.96
485.842	1315.36
486.299	1253.16
486.755	1212.56
487.212	1043.06
487.668	886.76
488.125	826.86
488.582	757.66
489.038	738.96
489.494	698.66
489.951	676.46
490.407	658.66
490.864	644.06
491.32	637.96
491.776	640.66
492.233	641.76
492.689	607.36
493.145	604.56
493.602	601.66
494.058	610.06
494.514	621.46
494.97	642.96
495.426	651.26
495.882	616.76
496.338	614.06
496.794	627.06
497.251	625.86
497.707	626.96
498.163	638.36
498.618	634.16
499.074	644.56
499.53	675.46
499.986	671.06
500.442	638.46
500.898	624.76
501.354	616.86
501.809	629.76
502.265	625.06
502.721	644.46
503.177	639.26
503.632	652.46
504.088	657.56
504.543	678.76
504.999	694.16
505.455	666.86
505.91	646.76
506.366	650.56
506.821	638.76
507.277	635.56
507.732	644.86
508.187	641.76
508.643	655.76
509.098	650.36
509.553	674.96
510.009	682.86
510.464	691.66
510.919	708.56
511.375	710.36
511.83	712.86
512.285	740.86
512.74	761.36
513.195	803.96
513.65	788.66
514.105	776.86
514.56	781.06
515.015	797.76
515.47	808.76
515.925	790.66
516.38	795.76
516.835	811.76
517.29	787.96
517.745	792.76
518.2	785.36
518.655	762.56
519.109	752.76
519.564	749.46
520.019	739.66
520.474	744.16
520.928	728.46
521.383	733.96
521.838	720.96
522.292	731.76
522.747	725.06
523.201	726.06
523.656	713.06
524.11	717.76
524.565	716.06
525.019	718.86
525.474	708.26
525.928	706.96
526.382	717.96
526.837	723.56
527.291	724.06
527.745	711.16
528.2	708.56
528.654	701.96
529.108	707.16
529.562	704.66
530.016	700.46
530.47	704.66
530.925	709.36
531.379	704.76
531.833	716.06
532.287	715.26
532.741	715.66
533.195	726.36
533.649	724.66
534.103	735.16
534.556	727.06
535.01	723.56
535.464	721.36
535.918	735.46
536.372	725.66
536.826	735.36
537.279	727.46
537.733	727.16
538.187	727.26
538.64	733.26
539.094	733.46
539.548	747.46
540.001	732.56
540.455	741.76
540.908	739.36
541.362	754.76
541.815	761.06
542.269	769.96
542.722	779.56
543.175	789.96
543.629	796.96
544.082	811.16
544.536	807.66
544.989	808.96
545.442	808.96
545.895	809.16
546.349	818.86
546.802	820.76
547.255	823.46
547.708	828.66
548.161	846.96
548.614	847.26
549.067	857.36
549.52	838.86
549.973	836.86
550.426	831.26
550.879	816.16
551.332	827.56
551.785	838.86
552.238	832.96
552.691	846.86
553.144	854.86
553.596	878.36
554.049	884.46
554.502	913.96
554.955	947.76
555.407	934.16
555.86	937.86
556.313	922.36
556.765	914.46
557.218	908.16
557.67	901.16
558.123	913.26
558.576	920.06
559.028	910.46
559.48	909.96
559.933	900.56
560.385	879.56
560.838	835.46
561.29	818.76
561.742	806.96
562.195	796.06
562.647	793.66
563.099	798.96
563.551	804.96
564.004	808.46
564.456	790.46
564.908	782.66
565.36	761.96
565.812	759.26
566.264	749.56
566.716	740.46
567.168	724.66
567.62	739.86
568.072	723.36
568.524	726.86
568.976	713.06
569.428	706.46
569.88	705.46
570.332	710.66
570.784	721.96
571.235	717.76
571.687	717.46
572.139	730.96
572.59	733.96
573.042	739.56
573.494	732.96
573.945	734.96
574.397	711.76
574.849	720.16
575.3	717.66
575.752	712.26
576.203	705.76
576.655	705.86
577.106	701.76
577.557	688.16
578.009	697.56
578.46	694.46
578.912	685.16
579.363	688.26
579.814	696.16
580.265	690.76
580.717	702.86
581.168	704.36
581.619	705.46
582.07	708.96
582.521	705.36
582.972	699.36
583.423	698.06
583.875	696.66
584.326	706.96
584.777	717.46
585.227	734.96
585.678	761.66
586.129	775.66
586.58	797.06
587.031	818.96
587.482	853.26
587.933	888.66
588.384	866.96
588.834	816.36
589.285	805.26
589.736	801.46
590.186	802.36
590.637	787.86
591.088	764.76
591.538	770.76
591.989	758.06
592.439	758.26
592.89	747.56
593.34	732.16
593.791	737.26
594.241	727.36
594.692	735.56
595.142	726.26
595.593	720.86
596.043	733.16
596.493	735.36
596.943	742.26
597.394	746.46
597.844	745.06
598.294	765.16
598.744	789.76
599.195	811.06
599.645	856.46
600.095	905.06
600.545	960.26
600.995	1003.76
601.445	1057.76
601.895	1135.56
602.345	1180.06
602.795	1159.66
603.245	1115.96
603.695	1058.46
604.145	997.26
604.594	953.36
605.044	905.26
605.494	845.66
605.944	789.46
606.393	775.06
606.843	760.46
607.293	756.56
607.743	763.26
608.192	770.26
608.642	785.96
609.091	784.76
609.541	801.26
609.99	791.46
610.44	795.66
610.889	751.46
611.339	732.26
611.788	705.86
612.238	725.76
612.687	738.36
613.136	728.96
613.586	735.06
614.035	724.16
614.484	741.86
614.933	738.86
615.383	737.66
615.832	734.86
616.281	734.96
616.73	701.16
617.179	680.06
617.628	671.26
618.077	655.16
618.526	646.76
618.975	642.36
619.424	644.96
619.873	640.06
620.322	636.06
620.771	624.86
621.22	623.56
621.669	616.16
622.118	609.76
622.567	603.16
623.015	585.26
623.464	596.66
623.913	576.76
624.361	567.86
624.81	573.36
625.259	576.46
625.707	590.46
626.156	591.06
626.604	597.86
627.053	573.16
627.501	586.36
627.95	592.86
628.398	608.26
628.847	602.46
629.295	598.26
629.744	598.46
630.192	591.96
630.64	580.66
631.089	569.66
631.537	560.66
631.985	554.76
632.433	554.46
632.881	554.16
633.33	561.16
633.778	546.96
634.226	548.16
634.674	560.06
635.122	564.26
635.57	573.36
636.018	586.46
636.466	585.46
636.914	577.66
637.362	593.86
637.81	591.96
638.258	608.56
638.705	601.26
639.153	638.66
639.601	649.46
640.049	670.96
640.497	702.06
640.944	729.36
641.392	683.16
641.84	639.76
642.287	600.76
642.735	584.06
643.182	595.56
643.63	590.86
644.078	584.66
644.525	593.46
644.973	609.46
645.42	626.86
645.867	624.46
646.315	653.16
646.762	682.06
647.21	712.66
647.657	728.36
648.104	769.06
648.551	783.46
648.999	841.66
649.446	925.26
649.893	1001.36
650.34	1146.16
650.787	1363.36
651.234	1692.76
651.682	2201.86
652.129	2971.76
652.576	4206.06
653.023	6152.16
653.47	8290.96
653.917	10215.26
654.363	11706.86
654.81	12789.96
655.257	12142.86
655.704	8053.36
656.151	4840.86
656.598	3190.16
657.044	2289.86
657.491	1767.56
657.938	1434.46
658.385	1210.16
658.831	1063.06
659.278	945.86
659.724	860.46
660.171	789.06
660.618	731.66
661.064	701.06
661.511	682.96
661.957	665.46
662.404	654.06
662.85	667.16
663.296	639.16
663.743	567.06
664.189	547.06
664.635	552.16
665.082	540.76
665.528	554.26
665.974	547.56
666.42	531.36
666.867	519.46
667.313	497.56
667.759	490.86
668.205	475.46
668.651	474.56
669.097	470.76
669.543	464.06
669.989	466.76
670.435	463.36
670.881	469.06
671.327	476.76
671.773	498.16
672.219	518.26
672.665	574.76
673.11	621.96
673.556	663.66
674.002	712.16
674.448	691.86
674.893	578.16
675.339	496.36
675.785	467.76
676.23	444.36
676.676	418.16
677.122	412.56
677.567	384.16
678.013	394.06
678.458	373.86
678.904	380.46
679.349	365.16
679.794	377.76
680.24	362.36
680.685	376.36
681.131	364.66
681.576	371.96
682.021	377.16
682.466	372.96
682.912	370.36
683.357	373.36
683.802	406.26
684.247	440.76
684.692	489.26
685.137	531.76
685.583	572.06
686.028	599.16
686.473	545.16
686.918	476.76
687.363	441.96
687.807	426.96
688.252	391.96
688.697	379.16
689.142	355.46
689.587	348.96
690.032	342.76
690.477	358.16
690.921	377.26
691.366	408.76
691.811	427.76
692.255	454.86
692.7	487.96
693.145	542.16
693.589	757.86
694.034	1248.36
694.478	1661.56
694.923	1836.66
695.367	2385.06
695.812	1275.46
696.256	531.76
696.701	397.36
697.145	364.56
697.59	345.66
698.034	341.36
698.478	345.46
698.922	343.86
699.367	342.56
699.811	352.26
700.255	371.96
700.699	401.46
701.143	452.26
701.588	501.76
702.032	544.36
702.476	544.46
702.92	530.26
703.364	535.56
703.808	706.36
704.252	1151.46
704.696	1571.66
705.14	1768.36
705.584	2244.96
706.027	1143.26
706.471	558.56
706.915	427.46
707.359	374.16
707.803	343.46
708.246	324.16
708.69	323.86
709.134	336.36
709.577	328.46
710.021	334.66
710.465	325.26
710.908	322.56
711.352	317.66
711.795	344.76
712.239	380.16
712.682	416.26
713.126	432.86
713.569	480.76
714.012	384.16
714.456	314.26
714.899	307.66
715.342	280.96
715.786	277.86
716.229	266.06
716.672	259.96
717.115	266.26
717.558	261.46
718.002	271.76
718.445	273.76
718.888	301.46
719.331	316.76
719.774	327.66
720.217	325.36
720.66	299.76
721.103	279.96
721.546	272.16
721.989	266.16
722.432	245.76
722.874	251.16
723.317	240.96
723.76	242.66
724.203	275.26
724.645	344.26
725.088	488.86
725.531	612.76
725.974	675.86
726.416	587.36
726.859	329.16
727.301	266.26
727.744	257.66
728.187	249.36
728.629	254.16
729.071	256.76
729.514	276.06
729.956	286.86
730.399	304.66
730.841	304.06
731.283	290.06
731.726	285.86
732.168	285.26
732.61	288.76
733.053	315.56
733.495	346.76
733.937	374.76
734.379	431.66
734.821	477.16
735.263	600.96
735.705	927.96
736.148	1768.76
736.59	2829.96
737.032	3206.16
737.474	2630.06
737.916	876.36
738.357	465.86
738.799	347.26
739.241	316.76
739.683	305.56
740.125	311.96
740.567	316.06
741.008	339.66
741.45	332.56
741.892	345.16
742.334	370.96
742.775	392.76
743.217	356.96
743.658	287.66
744.1	277.16
744.542	282.36
744.983	335.06
745.425	376.96
745.866	364.56
746.307	296.46
746.749	298.36
747.19	347.06
747.632	509.56
748.073	999.66
748.514	2077.56
748.956	3070.36
749.397	3921.76
749.838	3208.06
750.279	3111.16
750.72	1613.36
751.162	591.26
751.603	340.46
752.044	264.36
752.485	227.76
752.926	219.66
753.367	221.86
753.808	210.56
754.249	201.86
754.69	199.56
755.131	198.86
755.572	196.06
756.013	193.06
756.453	195.46
756.894	198.46
757.335	203.76
757.776	206.76
758.216	212.66
758.657	218.46
759.098	216.46
759.538	239.96
759.979	285.46
760.42	413.96
760.86	809.16
761.301	2093.36
761.741	4907.86
762.182	6754.06
762.622	4802.46
763.063	1409.46
763.503	572.46
763.943	346.86
764.384	299.06
764.824	269.26
765.264	259.16
765.705	222.16
766.145	200.56
766.585	192.06
767.025	178.46
767.465	174.36
767.906	191.36
768.346	218.36
768.786	220.76
769.226	234.06
769.666	344.16
770.106	692.96
770.546	1737.26
770.986	2819.46
771.426	2479.36
771.866	855.06
772.306	358.56
772.745	219.96
773.185	177.56
773.625	166.46
774.065	158.26
774.505	171.86
774.944	226.56
775.384	392.96
775.824	610.56
776.263	592.76
776.703	297.66
777.142	169.36
777.582	142.96
778.021	130.26
778.461	137.46
778.9	128.36
779.34	132.86
779.779	124.26
780.219	112.36
780.658	114.96
781.097	117.16
781.537	125.66
781.976	106.26
782.415	114.86
782.855	117.56
783.294	109.16
783.733	105.06
784.172	117.76
784.611	117.56
785.05	117.56
785.489	123.56
785.928	125.96
786.367	122.36
786.806	120.86
787.245	140.86
787.684	145.16
788.123	154.16
788.562	145.16
789.001	135.46
789.44	128.06
789.879	131.46
790.317	125.36
790.756	140.86
791.195	133.66
791.634	157.26
792.072	227.06
792.511	408.66
792.95	1144.26
793.388	2274.86
793.827	1998.06
794.265	709.56
794.704	301.96
795.142	194.96
795.581	161.76
796.019	153.16
796.458	138.26
796.896	131.16
797.334	139.96
797.773	173.86
798.211	244.46
798.649	507.16
799.087	1145.96
799.526	1746.16
799.964	2197.16
800.402	2122.36
800.84	810.46
801.278	326.56
801.716	200.76
802.154	166.56
802.592	150.16
803.03	153.06
803.468	146.56
803.906	156.66
804.344	154.06
804.782	148.76
805.22	142.96
805.658	136.86
806.096	160.56
806.533	171.96
806.971	187.76
807.409	235.46
807.847	352.66
808.284	755.76
808.722	2089.66
809.16	3534.86
809.597	3479.76
810.035	5909.16
810.472	6066.86
810.91	2245.06
811.347	870.76
811.785	438.86
812.222	276.96
812.66	207.86
813.097	170.66
813.535	146.16
813.972	133.96
814.409	129.56
814.846	113.96
815.284	118.86
815.721	106.76
816.158	110.66
816.595	110.56
817.032	158.26
817.47	192.66
817.907	131.66
818.344	111.36
818.781	111.36
819.218	104.36
819.655	131.56
820.092	205.16
820.529	231.36
820.966	184.06
821.403	133.56
821.839	106.46
822.276	101.16
822.713	136.16
823.15	148.36
823.587	125.56
824.023	162.56
824.46	340.36
824.897	990.96
825.333	1441.16
825.77	620.06
826.206	250.36
826.643	148.66
827.08	111.46
827.516	88.26
827.953	82.16
828.389	85.16
828.825	74.96
829.262	67.06
829.698	62.66
830.135	64.06
830.571	62.86
831.007	69.86
831.443	74.06
831.88	64.86
832.316	65.76
832.752	67.26
833.188	61.26
833.624	69.36
834.06	70.06
834.497	75.86
834.933	72.96
835.369	82.66
835.805	71.06
836.241	89.06
836.677	87.16
837.112	95.16
837.548	109.16
837.984	147.76
838.42	225.26
838.856	572.56
839.292	1686.56
839.727	2423.06
840.163	1161.76
840.599	1049.06
841.034	2222.56
841.47	2220.06
841.906	826.26
842.341	355.16
842.777	208.46
843.212	207.26
843.648	198.66
844.083	114.26
844.519	86.86
844.954	72.66
845.39	60.86
845.825	64.36
846.261	60.16
846.696	60.36
847.131	61.46
847.566	58.66
848.002	50.46
848.437	53.46
848.872	60.96
849.307	63.26
849.742	97.86
850.177	208.66
850.613	616.16
851.048	937.16
851.483	412.26
851.918	173.46
852.353	95.16
852.788	57.96
853.223	50.86
853.657	62.26
854.092	55.46
854.527	45.76
854.962	44.36
855.397	52.76
855.832	50.56
856.266	43.06
856.701	42.36
857.136	36.06
857.57	39.76
858.005	54.76
858.44	62.06
858.874	46.96
859.309	49.26
859.743	41.06
860.178	50.96
860.612	44.56
861.047	51.66
861.481	71.06
861.915	70.66
862.35	50.06
862.784	40.46
863.218	43.96
863.653	36.86
864.087	46.46
864.521	62.66
864.955	72.76
865.39	174.66
865.824	187.86
866.258	128.46
866.692	196.06
867.126	192.86
867.56	116.96
867.994	56.26
868.428	42.16
868.862	46.56
869.296	63.36
869.73	64.96
870.164	58.46
870.598	55.36
871.031	40.56
871.465	39.46
871.899	29.76
872.333	27.26
872.766	26.16
873.2	22.66
873.634	33.36
874.067	26.96
874.501	29.56
874.935	35.36
875.368	36.96
875.802	30.16
876.235	23.66
876.669	23.76
877.102	25.56
877.535	25.16
877.969	19.76
878.402	22.76
878.836	18.26
879.269	27.96
879.702	22.56
880.135	18.66
880.569	25.96
881.002	21.56
881.435	23.16
881.868	21.66
882.301	29.16
882.734	15.26
883.167	21.96
883.601	18.26
884.034	23.16
884.467	15.56
884.899	19.56
885.332	14.36
885.765	8.76
886.198	16.46
886.631	16.86
887.064	19.16
887.497	24.16
887.929	26.36
888.362	16.26
888.795	12.86
889.228	19.96
889.66	23.06
890.093	19.46
890.526	11.76
890.958	17.86
891.391	20.66
891.823	25.56
892.256	14.06
892.688	16.06
893.121	17.16
893.553	20.26
893.985	23.96
894.418	18.46
894.85	12.56
895.282	14.06
895.715	17.46
896.147	14.36
896.579	14.66
897.011	11.06
897.444	23.16
897.876	16.16
898.308	13.86
898.74	14.16
899.172	15.26
899.604	23.26
900.036	24.56
900.468	18.46
900.9	14.56
901.332	15.26
901.764	14.86
902.196	21.16
902.628	15.06
903.06	14.46
903.491	31.16
903.923	23.06
904.355	18.56
904.787	22.86
905.218	25.56
905.65	22.86
906.082	14.56
906.513	16.06
906.945	16.46
907.376	12.96
907.808	16.66
908.239	23.06
908.671	24.46
909.102	27.06
909.534	28.96
909.965	57.66
910.397	103.46
910.828	342.26
911.259	496.46
911.691	232.66
912.122	116.36
912.553	56.46
912.984	34.06
913.415	24.16
913.847	25.96
914.278	17.56
914.709	15.56
915.14	14.46
915.571	21.36
916.002	11.66
916.433	17.66
916.864	17.86
917.295	14.46
917.726	22.26
918.157	20.16
918.587	31.66
919.018	26.56
919.449	20.86
919.88	19.86
920.311	29.76
920.741	58.06
921.172	182.46
921.603	152.56
922.033	72.46
922.464	49.16
922.895	24.06
923.325	18.56
923.756	12.76
924.186	14.16
924.617	17.96
925.047	22.16
925.478	27.06
925.908	18.06
926.338	13.16
926.769	7.16
927.199	18.26
927.629	8.06
928.06	19.16
928.49	12.46
928.92	21.06
929.35	7.76
929.78	11.36
930.21	6.96
930.641	2.86
931.071	7.56
931.501	5.16
931.931	12.76
932.361	7.36
932.791	5.56
933.221	2.76
933.651	9.06
934.08	18.86
934.51	30.26
934.94	7.96
935.37	11.46
935.8	7.86
936.229	2.86
936.659	12.66
937.089	2.16
937.519	14.16
937.948	23.16
938.378	18.26
938.807	1.06
939.237	2.66
939.666	1.86
940.096	-0.44
940.525	1.06
940.955	-2.74
941.384	3.76
941.814	-6.34
942.243	-1.64
942.672	7.66
943.102	-3.34
943.531	-4.84
943.96	4.86
944.39	6.06
944.819	-7.54
945.248	4.66
945.677	-3.34
946.106	3.86
946.535	6.16
946.964	1.16
947.393	6.16
947.822	3.96
948.251	-5.54
948.68	2.06
949.109	7.16
949.538	2.86
949.967	2.26
950.396	-0.14
950.825	-5.94
951.254	4.36
951.682	-6.14
952.111	5.26
952.54	4.66
952.969	-3.14
953.397	-7.44
953.826	5.06
954.254	-8.84
954.683	2.86
955.112	-3.84
955.54	3.46
955.969	2.06
956.397	5.36
956.826	0.86
957.254	2.26
957.682	1.86
958.111	4.66
958.539	-0.24
958.967	3.16
959.396	1.36
959.824	-1.24
960.252	2.06
960.68	-3.14
961.109	-6.24
961.537	-1.74
961.965	-1.24
962.393	-2.04
962.821	-4.14
963.249	-0.44
963.677	1.36
964.105	9.36
964.533	46.86
964.961	39.96
965.389	22.96
965.817	9.96
966.245	0.96
966.672	1.86
967.1	-12.54
967.528	-0.24
967.956	-3.04
968.383	-2.04
968.811	0.26
969.239	-4.04
969.666	-11.44
970.094	-2.94
970.522	2.86
970.949	0.16
971.377	-7.04
971.804	-3.84
972.232	-2.04
972.659	-5.74
973.087	-1.64
973.514	-8.24
973.941	0.36
974.369	3.66
974.796	1.26
975.223	0.06
975.651	-2.64
976.078	0.06
976.505	-4.74
976.932	5.86
977.359	22.26
977.786	15.26
978.214	4.56
978.641	-4.54
979.068	-1.34
979.495	-7.14
979.922	-5.24
980.349	-7.64
980.776	0.16
981.202	-0.54
981.629	5.26
982.056	4.06
982.483	3.96
982.91	2.66
983.337	-3.84
983.763	2.76
984.19	-9.94
984.617	-4.04
985.043	2.26
985.47	-5.64
985.897	-4.14
986.323	-9.24
986.75	-3.94
987.176	-6.24
987.603	-2.04
988.029	-4.04
988.456	0.66
988.882	3.76
989.308	-8.34
989.735	-7.44
990.161	-2.24
990.587	-7.44
991.014	-0.94
991.44	7.96
991.866	-2.04
992.292	-5.74
992.719	-3.24
993.145	6.56
993.571	-4.94
993.997	-2.74
994.423	-1.94
994.849	-6.24
995.275	-2.64
995.701	-1.64
996.127	-2.54
996.553	2.56
996.979	0.36
997.405	-7.44
997.83	-3.94
998.256	-14.04
998.682	-10.84
999.108	-15.54
999.534	0.86
999.959	-2.74
1000.385	-7.94
1000.811	-2.44
1001.236	-13.44
1001.662	-6.64
1002.087	-7.74
1002.513	3.66
1002.938	-2.14
1003.364	-1.54
1003.789	-1.44
1004.215	2.46
1004.64	2.06
1005.066	5.36
1005.491	3.16
1005.916	-0.84
1006.342	-8.14
1006.767	-5.04
1007.192	8.86
1007.617	-6.04
1008.042	-4.64
1008.468	0.46
1008.893	-2.94
1009.318	-2.64
1009.743	-2.64
1010.168	5.86
1010.593	4.86
1011.018	-5.54
1011.443	-0.44
1011.868	-4.54
1012.293	-7.34
1012.718	-5.14
1013.143	2.86
1013.567	-2.24
1013.992	-7.44
1014.417	-11.74
1014.842	-3.94
1015.267	-7.44
1015.691	-4.44
1016.116	1.06
1016.541	-2.74
1016.965	0.86
1017.39	4.16
1017.814	1.56
1018.239	-4.84
1018.663	-5.24
1019.088	-4.94
1019.512	-2.44
1019.937	-6.74
1020.361	-2.34
1020.785	-8.54
1021.21	-3.74
1021.634	-1.54
1022.058	-0.54
1022.483	1.46
1022.907	-4.44
1023.331	-5.64
1023.755	-4.44
1024.179	-6.64
1024.604	-7.44
1025.028	-7.04
1025.452	-3.84
1025.876	-1.34
1026.3	-0.54
1026.724	-10.74
1027.148	-6.14
1027.572	-10.84
1027.996	-4.04
1028.42	-0.34
1028.843	1.86
1029.267	-2.64
1029.691	-2.44
1030.115	-10.34
1030.539	-5.84
1030.962	-1.84
1031.386	-6.94
1031.81	1.06
1032.233	-5.74
1032.657	-7.14
1033.08	-2.64
1033.504	2.66
1033.927	-4.84
1034.351	-6.34
1034.774	-0.14
1035.198	-3.34
1035.621	-9.64
1036.045	-8.44
1036.468	-5.14
1036.891	-18.74
1037.315	-11.44
1037.738	-9.34
1038.161	-6.64
1038.584	-4.94
1039.008	-6.74
1039.431	-4.24
1039.854	-4.94
1040.277	-14.74
1040.7	-10.64
1041.123	-2.74
1041.546	-8.54
1041.969	-7.44
1042.392	-6.54
1042.815	-8.04
1043.238	-1.44
1043.661	1.66
1044.084	-9.14
1044.507	-5.54
1044.93	-8.54
1045.352	-5.14
1045.775	-1.14
1046.198	-8.94
1046.621	-5.84
1047.043	2.06
1047.466	8.46
1047.889	-2.94
1048.311	-6.74
1048.734	-8.14
1049.156	-5.14
1049.579	-5.24
1050.001	-2.24
1050.424	-1.24
1050.846	-7.84
1051.269	-4.94
1051.691	-9.24
1052.113	-6.44
1052.536	-3.04
1052.958	-0.24
1053.38	-4.84
1053.802	-12.04
1054.225	0.56
1054.647	-10.74
1055.069	-7.54
1055.491	4.16
1055.913	-6.74
1056.335	-1.74
1056.757	-0.54
1057.179	-6.64
1057.601	-5.64
1058.023	2.16
1058.445	-6.24
1058.867	-4.34
1059.289	-1.34
1059.711	-5.74
1060.133	-0.64
1060.555	1.36
1060.976	-4.64
1061.398	-8.34
1061.82	-7.34
1062.241	-8.74
1062.663	-6.74
1063.085	-6.94
1063.506	1.56
1063.928	-6.64
1064.35	0.26
1064.771	-12.94
1065.193	-8.14
1065.614	-12.64
1066.035	-2.44
1066.457	-7.54
1066.878	-3.04
1067.3	-11.94
1067.721	-3.34
1068.142	-8.44
1068.564	0.46
1068.985	-0.34
1069.406	-2.74
1069.827	-0.04
1070.248	0.86
1070.67	-9.54
1071.091	-8.74
1071.512	-2.34
1071.933	-6.24
1072.354	-9.74
1072.775	-6.44
1073.196	-10.24
1073.617	-7.04
1074.038	-6.94
1074.459	-0.64
1074.88	-3.64
1075.3	-6.34
1075.721	-2.24
1076.142	1.56
1076.563	-2.14
1076.983	-10.74
1077.404	-8.64
1077.825	-12.24
1078.246	-2.14
1078.666	-14.04
1079.087	-8.14
1079.507	-5.64
1079.928	-4.64
1080.348	-2.54
1080.769	-7.94
1081.189	-1.24
1081.61	-4.04
1082.03	-6.94
1082.451	-10.64
1082.871	-6.34
1083.291	-7.94
1083.711	-10.94
1084.132	-5.04
1084.552	-7.04
1084.972	-3.84
1085.392	-12.54
1085.813	-9.44
1086.233	-3.74
1086.653	-8.04
1087.073	-1.64
1087.493	-6.94
1087.913	-6.84
1088.333	-13.54
1088.753	-5.54
1089.173	0.66
1089.593	-1.94
1090.013	0.06
1090.433	-4.84
1090.852	-2.84
1091.272	-5.34
1091.692	-5.74
1092.112	-9.54
1092.531	-7.04
1092.951	-12.34
1093.371	-2.14
1093.79	-4.64
1094.21	-6.04
1094.63	-0.84
1095.049	-9.94
1095.469	-2.44
1095.888	0.16
1096.308	0.76
1096.727	4.66
1097.146	-7.84
1097.566	-2.54
1097.985	-7.14
1098.405	1.16
1098.824	-8.94
1099.243	-13.84
1099.662	-7.94
1100.082	-5.44
1100.501	-0.44
1100.92	-5.04
1101.339	-4.14
1101.758	-6.74
