Data from 20171114-ORNL-Ar_H_NY_Subt18_08-09-19-865.txt Node
Date: Tue Nov 14 08:09:19 EST 2017
User: Ender
Spectrometer: HR+D1039
Trigger mode: 0
Integration Time (sec): 2.730000E-2
Scans to average: 10
Electric dark correction enabled: true
Nonlinearity correction enabled: false
Boxcar width: 0
XAxis mode: Wavelengths
Number of Pixels in Spectrum: 2048
>>>>>Begin Spectral Data<<<<<
187.836	-1.93
188.309	-1.93
188.782	-1.93
189.255	2.47
189.728	-2.33
190.201	3.47
190.674	4.87
191.147	2.77
191.619	-3.53
192.092	-2.83
192.565	6.87
193.038	3.27
193.511	-1.73
193.984	-1.73
194.456	-0.83
194.929	1.47
195.402	-9.63
195.874	-0.73
196.347	-4.13
196.82	-7.23
197.292	7.17
197.765	-0.83
198.237	-2.73
198.71	0.77
199.182	-1.03
199.655	3.97
200.127	2.37
200.6	-2.53
201.072	-5.33
201.544	-5.43
202.017	-1.13
202.489	3.77
202.961	-4.53
203.433	-1.63
203.906	-7.03
204.378	-3.23
204.85	-3.33
205.322	-8.63
205.794	-3.13
206.266	0.07
206.739	-10.43
207.211	-0.43
207.683	-8.43
208.155	-8.53
208.627	-6.63
209.099	-6.53
209.57	-10.03
210.042	-7.93
210.514	-5.73
210.986	0.17
211.458	-5.73
211.93	-1.43
212.402	-0.13
212.873	-6.73
213.345	-8.83
213.817	-6.93
214.288	-0.23
214.76	-10.03
215.232	-0.03
215.703	-6.63
216.175	-2.73
216.646	0.97
217.118	-2.83
217.589	-5.43
218.061	-2.83
218.532	-3.83
219.004	-5.53
219.475	-0.53
219.946	0.67
220.418	-4.23
220.889	-1.53
221.36	-3.23
221.832	-5.73
222.303	-7.23
222.774	2.87
223.245	-5.43
223.717	-7.13
224.188	-4.13
224.659	-4.43
225.13	-7.73
225.601	-1.93
226.072	-4.43
226.543	-2.03
227.014	-0.93
227.485	-4.93
227.956	-4.33
228.427	-3.63
228.898	-3.53
229.369	1.67
229.839	-5.73
230.31	-9.23
230.781	5.47
231.252	0.27
231.722	-3.43
232.193	-4.83
232.664	-0.43
233.135	-5.13
233.605	-2.63
234.076	-5.23
234.546	1.17
235.017	4.67
235.487	2.37
235.958	0.47
236.428	0.77
236.899	5.47
237.369	0.77
237.84	-8.03
238.31	2.77
238.78	-5.73
239.251	0.97
239.721	-6.73
240.191	-0.03
240.662	-2.53
241.132	-0.13
241.602	-2.43
242.072	-3.23
242.542	5.87
243.013	-6.93
243.483	2.87
243.953	2.37
244.423	-1.83
244.893	-3.43
245.363	-4.83
245.833	-3.03
246.303	-4.03
246.773	2.97
247.243	4.67
247.712	0.57
248.182	1.27
248.652	0.87
249.122	-8.03
249.592	-6.43
250.061	8.47
250.531	4.27
251.001	-2.83
251.471	-0.93
251.94	7.17
252.41	-2.03
252.879	-6.43
253.349	7.57
253.818	7.57
254.288	2.27
254.757	-2.23
255.227	-0.23
255.696	-1.53
256.166	2.87
256.635	-1.63
257.105	-4.03
257.574	1.37
258.043	-1.43
258.513	1.97
258.982	-0.93
259.451	-1.53
259.92	-2.03
260.389	-1.33
260.859	11.27
261.328	1.27
261.797	0.77
262.266	1.17
262.735	6.57
263.204	0.17
263.673	3.67
264.142	-3.23
264.611	-7.33
265.08	-9.03
265.549	0.57
266.018	4.97
266.487	-3.93
266.955	-2.03
267.424	-2.03
267.893	1.67
268.362	1.37
268.83	6.67
269.299	6.57
269.768	-3.03
270.236	1.17
270.705	-0.53
271.174	0.57
271.642	1.17
272.111	2.07
272.579	-1.33
273.048	3.27
273.516	1.07
273.985	5.17
274.453	6.17
274.922	9.47
275.39	4.37
275.858	0.77
276.327	6.67
276.795	9.07
277.263	3.67
277.731	9.87
278.2	-2.53
278.668	10.07
279.136	11.87
279.604	4.77
280.072	7.07
280.54	10.57
281.008	1.97
281.477	5.47
281.945	5.77
282.413	6.27
282.881	10.87
283.348	4.27
283.816	6.17
284.284	6.17
284.752	19.37
285.22	10.17
285.688	10.47
286.156	2.97
286.623	12.47
287.091	8.67
287.559	8.77
288.026	14.17
288.494	7.17
288.962	-1.53
289.429	-1.33
289.897	15.47
290.364	7.37
290.832	9.17
291.3	15.87
291.767	10.67
292.234	8.77
292.702	2.07
293.169	11.57
293.637	9.07
294.104	10.47
294.571	4.37
295.039	5.97
295.506	3.97
295.973	5.97
296.44	11.37
296.908	10.27
297.375	9.27
297.842	6.57
298.309	15.37
298.776	6.27
299.243	11.27
299.71	-2.33
300.177	18.57
300.644	19.27
301.111	13.97
301.578	17.37
302.045	8.07
302.512	15.47
302.979	16.87
303.446	17.07
303.913	10.97
304.379	11.27
304.846	18.57
305.313	16.57
305.78	15.37
306.246	18.47
306.713	15.27
307.18	13.27
307.646	13.17
308.113	18.67
308.579	12.77
309.046	17.77
309.512	16.37
309.979	9.77
310.445	21.77
310.912	20.87
311.378	26.07
311.845	27.77
312.311	26.97
312.777	21.87
313.244	19.47
313.71	25.67
314.176	23.47
314.642	19.97
315.109	15.27
315.575	18.57
316.041	27.27
316.507	22.57
316.973	26.47
317.439	21.67
317.905	29.37
318.371	28.17
318.837	25.67
319.303	24.67
319.769	24.57
320.235	27.47
320.701	25.77
321.167	30.17
321.633	25.37
322.099	25.87
322.564	28.67
323.03	23.37
323.496	26.17
323.962	28.47
324.427	24.07
324.893	30.37
325.359	25.97
325.824	27.57
326.29	25.37
326.755	33.37
327.221	28.57
327.686	24.47
328.152	29.27
328.617	31.47
329.083	41.57
329.548	34.77
330.014	40.77
330.479	34.47
330.944	33.27
331.41	33.67
331.875	38.17
332.34	29.07
332.805	30.77
333.271	33.37
333.736	36.17
334.201	44.97
334.666	46.87
335.131	42.47
335.596	40.07
336.061	32.97
336.526	29.67
336.991	39.37
337.456	47.67
337.921	42.97
338.386	36.37
338.851	43.37
339.316	40.97
339.781	37.07
340.246	45.47
340.711	35.97
341.175	37.17
341.64	31.57
342.105	41.67
342.569	49.47
343.034	41.47
343.499	46.87
343.963	42.17
344.428	55.67
344.893	46.27
345.357	49.67
345.822	42.47
346.286	50.67
346.751	56.87
347.215	53.97
347.679	54.77
348.144	72.27
348.608	63.37
349.073	56.37
349.537	58.67
350.001	60.97
350.465	68.97
350.93	68.47
351.394	60.27
351.858	54.17
352.322	67.57
352.786	68.67
353.25	75.97
353.715	82.77
354.179	82.97
354.643	90.37
355.107	89.37
355.571	80.27
356.035	76.77
356.498	85.17
356.962	84.77
357.426	99.67
357.89	94.87
358.354	65.17
358.818	69.57
359.281	63.47
359.745	59.87
360.209	63.77
360.673	62.27
361.136	67.27
361.6	74.97
362.064	67.57
362.527	62.37
362.991	67.57
363.454	67.87
363.918	68.17
364.381	69.97
364.845	73.37
365.308	76.07
365.772	75.37
366.235	73.37
366.698	66.87
367.162	69.97
367.625	72.57
368.088	76.27
368.552	77.87
369.015	69.97
369.478	87.37
369.941	81.47
370.404	78.97
370.867	80.97
371.331	84.97
371.794	88.67
372.257	79.97
372.72	89.87
373.183	86.47
373.646	84.87
374.109	84.47
374.572	88.57
375.035	82.17
375.497	98.37
375.96	97.87
376.423	92.77
376.886	97.27
377.349	93.47
377.811	85.67
378.274	88.17
378.737	89.97
379.199	88.47
379.662	95.87
380.125	100.57
380.587	100.67
381.05	94.67
381.512	96.87
381.975	106.87
382.437	103.07
382.9	101.77
383.362	116.17
383.825	114.47
384.287	114.27
384.75	106.07
385.212	111.37
385.674	114.27
386.136	108.27
386.599	108.87
387.061	117.17
387.523	105.77
387.985	111.57
388.447	117.97
388.91	115.97
389.372	118.87
389.834	115.17
390.296	111.07
390.758	123.57
391.22	124.07
391.682	129.37
392.144	131.67
392.606	127.57
393.068	133.27
393.529	140.67
393.991	123.57
394.453	117.57
394.915	121.77
395.377	120.17
395.838	120.47
396.3	125.37
396.762	123.17
397.224	127.47
397.685	123.97
398.147	112.67
398.608	125.37
399.07	118.07
399.531	125.77
399.993	132.97
400.454	143.67
400.916	138.87
401.377	134.67
401.839	140.07
402.3	140.27
402.762	157.67
403.223	166.77
403.684	155.87
404.145	154.17
404.607	151.67
405.068	156.27
405.529	152.97
405.99	171.67
406.451	164.57
406.913	166.97
407.374	155.67
407.835	147.87
408.296	161.37
408.757	165.97
409.218	172.37
409.679	168.27
410.14	166.47
410.601	162.57
411.062	173.57
411.522	174.77
411.983	166.57
412.444	163.47
412.905	174.77
413.366	172.67
413.826	191.07
414.287	212.47
414.748	254.97
415.208	241.17
415.669	209.57
416.13	198.17
416.59	193.47
417.051	208.57
417.511	215.77
417.972	227.37
418.432	245.47
418.893	279.77
419.353	250.37
419.814	195.47
420.274	179.37
420.734	178.67
421.195	192.07
421.655	191.17
422.115	187.67
422.576	189.97
423.036	194.77
423.496	204.87
423.956	213.67
424.416	226.37
424.876	249.87
425.336	245.77
425.797	250.37
426.257	246.77
426.717	235.27
427.177	221.38
427.637	210.27
428.097	225.47
428.556	235.57
429.016	260.47
429.476	240.57
429.936	259.77
430.396	258.27
430.856	279.27
431.315	298.67
431.775	326.17
432.235	359.17
432.694	326.07
433.154	342.57
433.614	361.47
434.073	306.37
434.533	270.67
434.993	254.17
435.452	258.87
435.912	274.27
436.371	275.67
436.83	261.87
437.29	252.87
437.749	245.47
438.209	243.37
438.668	263.47
439.127	279.07
439.587	257.07
440.046	241.07
440.505	246.77
440.964	264.87
441.424	301.77
441.883	292.57
442.342	249.37
442.801	221.27
443.26	221.27
443.719	223.27
444.178	218.67
444.637	209.07
445.096	218.87
445.555	219.47
446.014	225.67
446.473	224.57
446.932	237.87
447.391	219.87
447.849	230.97
448.308	219.88
448.767	224.87
449.226	238.57
449.685	239.17
450.143	246.57
450.602	246.87
451.061	236.97
451.519	230.48
451.978	235.37
452.436	233.88
452.895	240.17
453.353	254.97
453.812	233.27
454.27	240.07
454.729	238.37
455.187	238.17
455.646	244.57
456.104	244.88
456.562	266.37
457.021	264.47
457.479	264.47
457.937	271.87
458.395	263.17
458.854	246.67
459.312	253.77
459.77	271.47
460.228	254.07
460.686	241.27
461.144	251.17
461.602	249.97
462.06	240.27
462.518	260.17
462.976	260.27
463.434	259.57
463.892	259.17
464.35	275.67
464.808	285.77
465.266	267.57
465.724	277.67
466.181	276.57
466.639	275.57
467.097	292.27
467.555	298.97
468.012	301.47
468.47	313.88
468.928	323.47
469.385	335.48
469.843	347.47
470.3	343.67
470.758	369.97
471.215	380.97
471.673	404.87
472.13	408.47
472.588	419.77
473.045	379.67
473.503	379.37
473.96	399.97
474.417	404.27
474.875	438.87
475.332	474.17
475.789	464.97
476.246	468.07
476.704	488.07
477.161	503.97
477.618	520.27
478.075	551.17
478.532	603.07
478.989	664.38
479.446	780.87
479.903	748.27
480.36	765.47
480.817	815.37
481.274	899.37
481.731	990.07
482.188	1068.38
482.645	1184.88
483.102	1271.08
483.558	1380.68
484.015	1420.97
484.472	1397.68
484.929	1359.18
485.385	1312.37
485.842	1274.88
486.299	1241.27
486.755	1199.27
487.212	1027.88
487.668	874.57
488.125	806.67
488.582	761.17
489.038	728.97
489.494	690.47
489.951	667.97
490.407	657.57
490.864	639.17
491.32	637.07
491.776	633.67
492.233	648.07
492.689	602.07
493.145	602.77
493.602	596.87
494.058	613.17
494.514	614.27
494.97	631.27
495.426	638.57
495.882	608.07
496.338	607.97
496.794	614.77
497.251	613.77
497.707	622.77
498.163	628.27
498.618	626.97
499.074	635.17
499.53	660.57
499.986	675.67
500.442	640.37
500.898	618.17
501.354	617.97
501.809	622.97
502.265	623.07
502.721	631.17
503.177	639.07
503.632	643.27
504.088	643.57
504.543	663.87
504.999	680.67
505.455	654.67
505.91	642.67
506.366	638.47
506.821	629.17
507.277	631.97
507.732	647.37
508.187	641.97
508.643	651.88
509.098	637.88
509.553	660.97
510.009	663.27
510.464	675.97
510.919	699.67
511.375	694.37
511.83	711.27
512.285	730.77
512.74	762.88
513.195	774.88
513.65	767.07
514.105	757.07
514.56	759.87
515.015	780.87
515.47	790.88
515.925	786.87
516.38	779.57
516.835	792.47
517.29	779.67
517.745	783.57
518.2	770.47
518.655	757.77
519.109	753.37
519.564	740.07
520.019	738.57
520.474	724.98
520.928	723.97
521.383	720.07
521.838	718.87
522.292	718.47
522.747	721.77
523.201	713.07
523.656	709.27
524.11	707.37
524.565	696.38
525.019	704.57
525.474	703.17
525.928	701.17
526.382	703.57
526.837	710.47
527.291	717.87
527.745	705.07
528.2	704.87
528.654	693.17
529.108	700.17
529.562	699.97
530.016	694.37
530.47	697.27
530.925	705.47
531.379	704.38
531.833	707.17
532.287	709.27
532.741	704.77
533.195	707.47
533.649	712.87
534.103	719.07
534.556	715.67
535.01	713.47
535.464	709.97
535.918	721.27
536.372	721.07
536.826	717.37
537.279	706.87
537.733	719.88
538.187	727.27
538.64	719.07
539.094	727.88
539.548	733.57
540.001	732.17
540.455	733.87
540.908	745.37
541.362	749.07
541.815	750.38
542.269	765.17
542.722	769.77
543.175	780.17
543.629	785.57
544.082	792.97
544.536	795.07
544.989	795.57
545.442	816.57
545.895	807.87
546.349	805.17
546.802	802.97
547.255	821.47
547.708	824.38
548.161	825.37
548.614	833.67
549.067	843.57
549.52	846.67
549.973	829.87
550.426	816.57
550.879	808.87
551.332	815.87
551.785	821.57
552.238	823.87
552.691	833.87
553.144	846.07
553.596	872.48
554.049	880.67
554.502	908.87
554.955	923.57
555.407	923.17
555.86	921.97
556.313	912.07
556.765	898.57
557.218	900.97
557.67	906.37
558.123	896.27
558.576	891.27
559.028	895.57
559.48	903.97
559.933	893.38
560.385	849.87
560.838	831.27
561.29	802.67
561.742	800.77
562.195	792.07
562.647	786.67
563.099	800.37
563.551	803.57
564.004	795.17
564.456	790.47
564.908	773.47
565.36	756.67
565.812	740.27
566.264	734.07
566.716	731.87
567.168	724.77
567.62	723.37
568.072	718.77
568.524	715.98
568.976	704.57
569.428	693.97
569.88	690.27
570.332	694.48
570.784	701.77
571.235	696.07
571.687	719.38
572.139	718.77
572.59	725.47
573.042	732.57
573.494	722.67
573.945	715.57
574.397	697.97
574.849	703.67
575.3	700.67
575.752	695.67
576.203	695.37
576.655	700.67
577.106	687.07
577.557	677.37
578.009	681.17
578.46	673.27
578.912	679.97
579.363	680.67
579.814	697.27
580.265	678.87
580.717	681.27
581.168	704.47
581.619	694.57
582.07	702.77
582.521	691.47
582.972	678.57
583.423	685.27
583.875	694.27
584.326	695.77
584.777	712.97
585.227	733.87
585.678	738.17
586.129	751.37
586.58	767.07
587.031	792.57
587.482	812.17
587.933	840.67
588.384	830.17
588.834	790.07
589.285	797.87
589.736	788.57
590.186	791.47
590.637	783.47
591.088	757.48
591.538	753.88
591.989	745.97
592.439	741.87
592.89	734.87
593.34	723.97
593.791	728.07
594.241	719.57
594.692	712.77
595.142	721.57
595.593	720.38
596.043	717.57
596.493	729.27
596.943	722.77
597.394	734.77
597.844	736.17
598.294	749.07
598.744	783.07
599.195	805.07
599.645	832.47
600.095	900.47
600.545	932.27
600.995	995.97
601.445	1063.87
601.895	1102.37
602.345	1157.77
602.795	1141.18
603.245	1090.47
603.695	1051.47
604.145	998.48
604.594	933.48
605.044	875.47
605.494	824.17
605.944	778.27
606.393	756.47
606.843	750.97
607.293	754.07
607.743	755.27
608.192	773.17
608.642	775.77
609.091	775.87
609.541	782.37
609.99	770.17
610.44	787.17
610.889	735.87
611.339	715.17
611.788	687.48
612.238	707.07
612.687	725.47
613.136	716.77
613.586	727.87
614.035	711.17
614.484	724.77
614.933	720.57
615.383	729.38
615.832	727.98
616.281	728.17
616.73	686.57
617.179	662.77
617.628	666.97
618.077	647.97
618.526	637.27
618.975	628.27
619.424	632.57
619.873	630.37
620.322	627.97
620.771	628.38
621.22	612.07
621.669	604.98
622.118	598.07
622.567	592.17
623.015	577.17
623.464	582.17
623.913	576.67
624.361	575.57
624.81	559.77
625.259	577.57
625.707	573.48
626.156	571.17
626.604	578.87
627.053	578.57
627.501	580.07
627.95	583.17
628.398	596.07
628.847	590.17
629.295	588.57
629.744	584.57
630.192	575.17
630.64	579.77
631.089	554.47
631.537	557.07
631.985	546.88
632.433	548.88
632.881	536.17
633.33	547.97
633.778	540.17
634.226	536.07
634.674	553.77
635.122	555.17
635.57	565.57
636.018	574.77
636.466	586.67
636.914	574.07
637.362	587.27
637.81	595.87
638.258	594.07
638.705	601.47
639.153	620.37
639.601	641.97
640.049	669.97
640.497	688.17
640.944	705.37
641.392	671.87
641.84	630.37
642.287	592.57
642.735	580.17
643.182	581.27
643.63	585.37
644.078	583.48
644.525	588.77
644.973	600.17
645.42	604.77
645.867	629.97
646.315	645.27
646.762	667.37
647.21	694.98
647.657	724.57
648.104	747.67
648.551	766.07
648.999	823.97
649.446	901.17
649.893	991.97
650.34	1115.78
650.787	1353.28
651.234	1655.38
651.682	2157.17
652.129	2908.57
652.576	4157.17
653.023	6027.87
653.47	8120.57
653.917	9981.77
654.363	11473.18
654.81	12544.27
655.257	11876.58
655.704	7885.47
656.151	4757.57
656.598	3136.47
657.044	2243.88
657.491	1740.18
657.938	1417.47
658.385	1187.87
658.831	1052.87
659.278	941.47
659.724	845.27
660.171	776.57
660.618	723.17
661.064	684.48
661.511	668.97
661.957	664.17
662.404	640.77
662.85	650.27
663.296	633.77
663.743	567.47
664.189	543.97
664.635	548.67
665.082	547.07
665.528	530.77
665.974	529.47
666.42	522.27
666.867	519.87
667.313	495.77
667.759	484.07
668.205	468.27
668.651	469.48
669.097	458.17
669.543	461.37
669.989	453.47
670.435	464.17
670.881	469.27
671.327	471.67
671.773	487.17
672.219	513.97
672.665	569.97
673.11	620.37
673.556	651.77
674.002	685.67
674.448	686.47
674.893	574.27
675.339	501.77
675.785	455.57
676.23	437.27
676.676	418.27
677.122	400.47
677.567	384.87
678.013	390.17
678.458	379.38
678.904	369.37
679.349	360.77
679.794	371.27
680.24	369.37
680.685	363.17
681.131	361.27
681.576	367.87
682.021	366.47
682.466	363.67
682.912	371.57
683.357	366.97
683.802	400.67
684.247	434.57
684.692	479.97
685.137	521.77
685.583	562.37
686.028	597.47
686.473	542.77
686.918	462.67
687.363	434.27
687.807	422.07
688.252	381.37
688.697	360.87
689.142	359.77
689.587	347.57
690.032	338.77
690.477	360.57
690.921	365.57
691.366	400.77
691.811	420.27
692.255	453.57
692.7	492.57
693.145	541.77
693.589	764.27
694.034	1235.28
694.478	1642.38
694.923	1805.68
695.367	2360.88
695.812	1266.47
696.256	524.67
696.701	390.97
697.145	354.07
697.59	346.77
698.034	337.97
698.478	336.98
698.922	344.27
699.367	336.07
699.811	351.37
700.255	374.67
700.699	403.27
701.143	444.98
701.588	502.67
702.032	534.88
702.476	535.98
702.92	511.48
703.364	520.47
703.808	693.47
704.252	1129.68
704.696	1562.58
705.14	1749.97
705.584	2208.88
706.027	1128.67
706.471	557.17
706.915	423.47
707.359	366.17
707.803	338.67
708.246	326.77
708.69	318.77
709.134	331.77
709.577	326.88
710.021	328.17
710.465	329.47
710.908	311.97
711.352	317.47
711.795	334.87
712.239	379.17
712.682	404.77
713.126	436.97
713.569	474.47
714.012	373.27
714.456	321.17
714.899	303.97
715.342	282.07
715.786	274.07
716.229	270.27
716.672	262.77
717.115	263.57
717.558	260.17
718.002	267.27
718.445	279.27
718.888	298.37
719.331	304.67
719.774	324.07
720.217	318.27
720.66	295.67
721.103	282.97
721.546	269.07
721.989	261.37
722.432	244.47
722.874	252.27
723.317	239.07
723.76	251.57
724.203	271.07
724.645	336.47
725.088	472.87
725.531	610.57
725.974	669.87
726.416	573.87
726.859	331.37
727.301	265.88
727.744	253.48
728.187	250.37
728.629	251.17
729.071	254.57
729.514	277.07
729.956	292.77
730.399	301.17
730.841	303.37
731.283	292.07
731.726	283.57
732.168	278.27
732.61	285.47
733.053	305.27
733.495	340.17
733.937	375.27
734.379	421.67
734.821	466.67
735.263	589.77
735.705	932.97
736.148	1751.68
736.59	2785.38
737.032	3183.77
737.474	2596.68
737.916	868.17
738.357	460.67
738.799	344.17
739.241	318.47
739.683	295.67
740.125	307.27
740.567	312.27
741.008	333.77
741.45	333.57
741.892	342.67
742.334	376.57
742.775	375.27
743.217	360.77
743.658	286.87
744.1	271.27
744.542	285.27
744.983	335.67
745.425	366.57
745.866	357.07
746.307	299.07
746.749	293.67
747.19	349.48
747.632	505.67
748.073	993.57
748.514	2065.48
748.956	3019.38
749.397	3831.27
749.838	3156.88
750.279	3082.28
750.72	1576.48
751.162	589.97
751.603	350.17
752.044	268.67
752.485	237.57
752.926	222.97
753.367	212.77
753.808	202.77
754.249	204.17
754.69	194.77
755.131	199.97
755.572	193.07
756.013	192.77
756.453	202.67
756.894	200.77
757.335	207.07
757.776	209.77
758.216	211.17
758.657	208.07
759.098	218.17
759.538	241.57
759.979	291.57
760.42	415.07
760.86	812.57
761.301	2087.67
761.741	4858.77
762.182	6654.88
762.622	4744.97
763.063	1421.47
763.503	562.97
763.943	349.27
764.384	281.67
764.824	256.57
765.264	234.37
765.705	213.97
766.145	191.17
766.585	181.37
767.025	179.97
767.465	174.07
767.906	180.47
768.346	191.77
768.786	205.47
769.226	228.77
769.666	337.87
770.106	704.47
770.546	1734.78
770.986	2774.18
771.426	2447.57
771.866	843.87
772.306	348.17
772.745	216.07
773.185	180.67
773.625	169.97
774.065	167.07
774.505	160.47
774.944	215.87
775.384	379.77
775.824	603.98
776.263	566.27
776.703	281.97
777.142	165.07
777.582	134.77
778.021	130.27
778.461	132.17
778.9	132.07
779.34	133.57
779.779	122.67
780.219	112.77
780.658	110.17
781.097	119.87
781.537	120.07
781.976	112.07
782.415	111.47
782.855	114.07
783.294	112.47
783.733	108.67
784.172	114.77
784.611	109.17
785.05	112.77
785.489	123.57
785.928	127.07
786.367	126.77
786.806	124.47
787.245	133.37
787.684	144.77
788.123	162.77
788.562	144.57
789.001	130.47
789.44	131.87
789.879	126.17
790.317	122.57
790.756	136.27
791.195	137.47
791.634	163.57
792.072	225.27
792.511	410.67
792.95	1125.88
793.388	2247.57
793.827	1976.07
794.265	705.57
794.704	301.67
795.142	190.57
795.581	157.87
796.019	145.47
796.458	140.77
796.896	133.57
797.334	133.37
797.773	165.37
798.211	241.37
798.649	497.47
799.087	1117.67
799.526	1723.47
799.964	2165.47
800.402	2075.58
800.84	799.97
801.278	323.88
801.716	197.77
802.154	163.37
802.592	159.47
803.03	149.97
803.468	142.67
803.906	151.47
804.344	158.97
804.782	145.57
805.22	138.27
805.658	141.27
806.096	158.77
806.533	167.97
806.971	189.37
807.409	236.37
807.847	358.37
808.284	764.87
808.722	2078.18
809.16	3482.47
809.597	3485.97
810.035	5887.77
810.472	5965.57
810.91	2211.47
811.347	863.57
811.785	431.57
812.222	275.17
812.66	209.37
813.097	171.97
813.535	150.17
813.972	137.47
814.409	133.97
814.846	113.37
815.284	116.97
815.721	103.67
816.158	113.07
816.595	115.67
817.032	159.87
817.47	192.07
817.907	128.57
818.344	113.27
818.781	104.87
819.218	99.67
819.655	134.47
820.092	203.57
820.529	222.77
820.966	177.97
821.403	133.47
821.839	105.07
822.276	108.97
822.713	125.57
823.15	146.37
823.587	125.27
824.023	157.37
824.46	350.98
824.897	994.38
825.333	1407.68
825.77	619.47
826.206	249.67
826.643	140.67
827.08	113.87
827.516	91.97
827.953	84.47
828.389	83.67
828.825	73.57
829.262	72.77
829.698	65.97
830.135	68.07
830.571	60.07
831.007	72.57
831.443	69.97
831.88	66.47
832.316	62.57
832.752	65.67
833.188	68.47
833.624	69.67
834.06	71.77
834.497	73.27
834.933	72.87
835.369	78.17
835.805	69.57
836.241	80.87
836.677	88.37
837.112	94.17
837.548	120.87
837.984	148.67
838.42	230.67
838.856	570.27
839.292	1674.07
839.727	2387.18
840.163	1140.57
840.599	1036.17
841.034	2196.07
841.47	2198.78
841.906	823.37
842.341	356.17
842.777	215.17
843.212	212.77
843.648	194.77
844.083	117.37
844.519	93.27
844.954	77.37
845.39	60.87
845.825	64.77
846.261	59.97
846.696	62.97
847.131	54.47
847.566	59.47
848.002	57.37
848.437	56.47
848.872	66.47
849.307	66.07
849.742	88.07
850.177	205.77
850.613	605.67
851.048	923.07
851.483	402.57
851.918	165.67
852.353	96.37
852.788	61.37
853.223	53.87
853.657	59.37
854.092	54.17
854.527	48.57
854.962	42.77
855.397	48.17
855.832	56.07
856.266	44.37
856.701	40.77
857.136	43.07
857.57	45.97
858.005	54.47
858.44	68.87
858.874	49.37
859.309	59.47
859.743	42.97
860.178	47.17
860.612	47.37
861.047	59.17
861.481	73.07
861.915	72.87
862.35	57.97
862.784	31.37
863.218	39.87
863.653	38.07
864.087	47.07
864.521	57.07
864.955	73.47
865.39	170.57
865.824	184.37
866.258	128.27
866.692	177.67
867.126	192.87
867.56	114.97
867.994	54.37
868.428	42.27
868.862	50.57
869.296	57.97
869.73	64.57
870.164	56.17
870.598	51.07
871.031	45.27
871.465	33.97
871.899	39.17
872.333	21.97
872.766	24.67
873.2	20.47
873.634	36.77
874.067	29.37
874.501	27.87
874.935	33.27
875.368	32.17
875.802	24.97
876.235	23.57
876.669	25.97
877.102	27.47
877.535	24.27
877.969	26.37
878.402	26.07
878.836	21.07
879.269	28.07
879.702	26.97
880.135	28.87
880.569	20.97
881.002	24.97
881.435	21.27
881.868	21.07
882.301	28.27
882.734	19.87
883.167	23.07
883.601	15.17
884.034	28.37
884.467	20.07
884.899	21.87
885.332	20.27
885.765	16.57
886.198	13.27
886.631	18.37
887.064	19.57
887.497	25.47
887.929	25.17
888.362	14.87
888.795	16.47
889.228	20.97
889.66	22.87
890.093	22.27
890.526	18.67
890.958	13.97
891.391	19.97
891.823	22.97
892.256	11.77
892.688	8.87
893.121	19.17
893.553	17.97
893.985	19.67
894.418	23.87
894.85	16.57
895.282	20.47
895.715	15.77
896.147	19.87
896.579	15.27
897.011	19.87
897.444	20.97
897.876	8.87
898.308	24.97
898.74	17.87
899.172	12.97
899.604	18.57
900.036	17.77
900.468	18.27
900.9	19.77
901.332	21.57
901.764	16.47
902.196	25.37
902.628	13.77
903.06	21.77
903.491	28.57
903.923	25.77
904.355	24.47
904.787	21.67
905.218	26.67
905.65	22.47
906.082	15.87
906.513	13.87
906.945	18.97
907.376	13.67
907.808	22.77
908.239	19.87
908.671	21.77
909.102	25.17
909.534	29.27
909.965	51.47
910.397	108.67
910.828	338.37
911.259	500.07
911.691	223.27
912.122	116.27
912.553	56.17
912.984	35.77
913.415	28.87
913.847	23.17
914.278	14.67
914.709	16.07
915.14	10.87
915.571	16.97
916.002	13.57
916.433	23.27
916.864	17.77
917.295	15.87
917.726	27.77
918.157	21.17
918.587	32.07
919.018	23.17
919.449	28.97
919.88	28.47
920.311	34.77
920.741	52.87
921.172	175.17
921.603	167.97
922.033	77.37
922.464	54.57
922.895	21.37
923.325	24.47
923.756	14.17
924.186	14.57
924.617	24.57
925.047	20.77
925.478	28.37
925.908	25.27
926.338	10.87
926.769	14.27
927.199	19.07
927.629	11.27
928.06	17.47
928.49	13.67
928.92	11.07
929.35	8.97
929.78	12.27
930.21	7.77
930.641	13.27
931.071	13.67
931.501	8.27
931.931	10.67
932.361	9.57
932.791	2.77
933.221	10.97
933.651	4.37
934.08	22.27
934.51	30.37
934.94	8.17
935.37	7.27
935.8	17.07
936.229	10.77
936.659	12.27
937.089	10.87
937.519	14.67
937.948	25.87
938.378	21.77
938.807	7.57
939.237	5.87
939.666	3.27
940.096	-3.13
940.525	2.97
940.955	6.27
941.384	2.37
941.814	-10.23
942.243	-1.13
942.672	6.07
943.102	4.47
943.531	7.57
943.96	1.27
944.39	6.47
944.819	1.57
945.248	4.07
945.677	5.97
946.106	7.57
946.535	4.47
946.964	-3.03
947.393	7.07
947.822	4.17
948.251	-3.03
948.68	4.47
949.109	3.37
949.538	9.07
949.967	-0.13
950.396	9.07
950.825	-3.73
951.254	3.57
951.682	0.17
952.111	2.67
952.54	8.37
952.969	-4.33
953.397	-0.13
953.826	0.67
954.254	-0.63
954.683	0.77
955.112	-1.03
955.54	6.37
955.969	5.57
956.397	1.07
956.826	0.67
957.254	10.77
957.682	-0.13
958.111	5.27
958.539	6.67
958.967	4.57
959.396	2.17
959.824	2.47
960.252	9.57
960.68	-1.53
961.109	-0.93
961.537	-3.73
961.965	4.97
962.393	3.77
962.821	3.87
963.249	5.07
963.677	5.87
964.105	7.77
964.533	45.17
964.961	47.67
965.389	21.87
965.817	10.67
966.245	3.77
966.672	5.97
967.1	-2.73
967.528	1.07
967.956	-2.13
968.383	1.07
968.811	-1.43
969.239	-2.73
969.666	2.87
970.094	-0.73
970.522	5.37
970.949	1.27
971.377	-2.33
971.804	-1.63
972.232	-3.33
972.659	-1.83
973.087	-8.23
973.514	1.27
973.941	-0.73
974.369	9.67
974.796	7.47
975.223	-0.43
975.651	2.07
976.078	-1.53
976.505	1.07
976.932	8.47
977.359	19.17
977.786	13.47
978.214	0.47
978.641	1.57
979.068	-4.23
979.495	-5.73
979.922	6.27
980.349	-3.03
980.776	7.87
981.202	-4.93
981.629	4.97
982.056	6.67
982.483	5.07
982.91	2.77
983.337	2.87
983.763	4.37
984.19	-1.63
984.617	-2.33
985.043	-4.03
985.47	4.27
985.897	-1.83
986.323	-2.53
986.75	6.27
987.176	1.77
987.603	2.67
988.029	-2.13
988.456	-4.73
988.882	1.57
989.308	-8.33
989.735	-7.03
990.161	3.67
990.587	-5.63
991.014	1.97
991.44	8.67
991.866	0.17
992.292	-6.33
992.719	-0.53
993.145	4.27
993.571	-8.03
993.997	-1.63
994.423	-4.03
994.849	1.47
995.275	-2.03
995.701	7.67
996.127	-2.93
996.553	4.77
996.979	-0.73
997.405	0.37
997.83	-3.73
998.256	-2.63
998.682	-4.03
999.108	-7.43
999.534	-2.63
999.959	0.27
1000.385	-3.83
1000.811	-2.63
1001.236	-8.03
1001.662	-10.73
1002.087	-8.93
1002.513	-0.53
1002.938	3.07
1003.364	-1.53
1003.789	-3.53
1004.215	3.67
1004.64	-1.03
1005.066	1.27
1005.491	2.77
1005.916	-1.43
1006.342	-4.03
1006.767	-5.23
1007.192	7.57
1007.617	-6.73
1008.042	-6.03
1008.468	-9.03
1008.893	-3.53
1009.318	-0.43
1009.743	-0.03
1010.168	0.37
1010.593	6.27
1011.018	-7.83
1011.443	-4.53
1011.868	3.77
1012.293	-2.43
1012.718	-2.03
1013.143	3.27
1013.567	0.57
1013.992	-1.03
1014.417	-9.83
1014.842	1.37
1015.267	-7.23
1015.691	-5.03
1016.116	6.57
1016.541	0.27
1016.965	6.37
1017.39	1.17
1017.814	4.47
1018.239	2.47
1018.663	-4.13
1019.088	-9.53
1019.512	-2.73
1019.937	0.67
1020.361	-1.63
1020.785	-6.43
1021.21	-9.03
1021.634	-2.63
1022.058	2.07
1022.483	3.57
1022.907	-0.23
1023.331	-6.53
1023.755	-3.83
1024.179	-4.53
1024.604	-8.43
1025.028	-5.13
1025.452	-3.13
1025.876	3.37
1026.3	-0.83
1026.724	-13.93
1027.148	-3.33
1027.572	-5.53
1027.996	-4.93
1028.42	-3.83
1028.843	-6.73
1029.267	-7.63
1029.691	-0.33
1030.115	-0.73
1030.539	-6.23
1030.962	-9.03
1031.386	-7.93
1031.81	1.47
1032.233	-1.33
1032.657	-0.83
1033.08	3.87
1033.504	-6.23
1033.927	-1.63
1034.351	-4.53
1034.774	-1.53
1035.198	-3.53
1035.621	-4.93
1036.045	-6.83
1036.468	-2.73
1036.891	-10.93
1037.315	-12.53
1037.738	-9.63
1038.161	-3.33
1038.584	-5.23
1039.008	-7.63
1039.431	-5.33
1039.854	-2.53
1040.277	-6.73
1040.7	-5.63
1041.123	4.07
1041.546	-4.03
1041.969	-10.23
1042.392	-0.93
1042.815	-2.53
1043.238	7.47
1043.661	0.77
1044.084	-8.83
1044.507	-4.83
1044.93	-3.03
1045.352	-4.73
1045.775	-2.53
1046.198	-0.93
1046.621	1.27
1047.043	-2.03
1047.466	9.17
1047.889	-4.83
1048.311	-1.03
1048.734	-4.63
1049.156	2.97
1049.579	-3.33
1050.001	-3.43
1050.424	-4.43
1050.846	-2.53
1051.269	-5.03
1051.691	-9.23
1052.113	-1.83
1052.536	-7.33
1052.958	0.07
1053.38	-9.33
1053.802	-9.53
1054.225	-1.03
1054.647	-8.73
1055.069	-6.43
1055.491	1.57
1055.913	-4.93
1056.335	-3.23
1056.757	-3.33
1057.179	-8.83
1057.601	-7.43
1058.023	-6.23
1058.445	-9.13
1058.867	-4.63
1059.289	-1.03
1059.711	-4.93
1060.133	-4.43
1060.555	-4.43
1060.976	-3.13
1061.398	-8.43
1061.82	-4.33
1062.241	-5.03
1062.663	-8.63
1063.085	-6.03
1063.506	-2.73
1063.928	0.47
1064.35	-2.13
1064.771	-5.13
1065.193	-4.03
1065.614	-10.43
1066.035	0.67
1066.457	-1.53
1066.878	-1.63
1067.3	-0.73
1067.721	-4.63
1068.142	-2.93
1068.564	-2.03
1068.985	-1.53
1069.406	-6.03
1069.827	-5.03
1070.248	0.07
1070.67	-5.63
1071.091	-6.73
1071.512	-0.53
1071.933	-4.73
1072.354	-5.33
1072.775	-3.33
1073.196	-2.03
1073.617	-1.93
1074.038	-6.53
1074.459	-3.63
1074.88	-3.23
1075.3	2.67
1075.721	-3.13
1076.142	0.37
1076.563	2.77
1076.983	-15.23
1077.404	-2.93
1077.825	-6.13
1078.246	-1.63
1078.666	-15.03
1079.087	-5.33
1079.507	-1.73
1079.928	1.37
1080.348	-1.03
1080.769	-4.03
1081.189	-1.33
1081.61	-4.13
1082.03	-2.93
1082.451	-10.33
1082.871	-4.63
1083.291	-7.33
1083.711	-6.93
1084.132	-0.73
1084.552	-2.03
1084.972	-0.13
1085.392	-12.23
1085.813	-12.03
1086.233	-8.33
1086.653	-0.03
1087.073	-1.63
1087.493	-7.03
1087.913	-4.93
1088.333	-11.83
1088.753	-3.33
1089.173	5.47
1089.593	-0.63
1090.013	4.17
1090.433	0.57
1090.852	-4.73
1091.272	-0.23
1091.692	-0.33
1092.112	-5.63
1092.531	-9.53
1092.951	-15.53
1093.371	-3.33
1093.79	-3.03
1094.21	-5.93
1094.63	0.57
1095.049	-5.83
1095.469	-0.83
1095.888	0.97
1096.308	3.97
1096.727	4.17
1097.146	-6.13
1097.566	-2.03
1097.985	-7.03
1098.405	2.07
1098.824	-7.13
1099.243	-5.83
1099.662	-4.93
1100.082	-0.73
1100.501	-5.13
1100.92	-8.33
1101.339	-9.23
1101.758	-4.53
