Data from 20171114-ORNL-Ar_H_NY_Subt18_08-04-31-817.txt Node
Date: Tue Nov 14 08:04:31 EST 2017
User: Ender
Spectrometer: HR+D1039
Trigger mode: 0
Integration Time (sec): 2.730000E-2
Scans to average: 10
Electric dark correction enabled: true
Nonlinearity correction enabled: false
Boxcar width: 0
XAxis mode: Wavelengths
Number of Pixels in Spectrum: 2048
>>>>>Begin Spectral Data<<<<<
187.836	-4.12
188.309	-4.12
188.782	-4.12
189.255	2.28
189.728	1.38
190.201	4.88
190.674	-0.12
191.147	5.58
191.619	-13.02
192.092	-1.82
192.565	5.98
193.038	-0.82
193.511	-0.42
193.984	1.18
194.456	-0.22
194.929	-0.62
195.402	-3.02
195.874	2.88
196.347	-5.72
196.82	-6.42
197.292	6.48
197.765	2.08
198.237	-5.52
198.71	0.48
199.182	-3.12
199.655	-2.72
200.127	2.28
200.6	0.28
201.072	-3.82
201.544	-8.62
202.017	3.68
202.489	2.88
202.961	-0.12
203.433	-4.32
203.906	-7.62
204.378	-6.62
204.85	-6.72
205.322	-10.92
205.794	-5.02
206.266	-1.22
206.739	-7.92
207.211	-1.92
207.683	-4.32
208.155	-5.62
208.627	-6.32
209.099	-2.52
209.57	-3.72
210.042	-9.62
210.514	-8.02
210.986	-2.82
211.458	-12.22
211.93	-5.92
212.402	5.28
212.873	-2.92
213.345	-6.42
213.817	-8.82
214.288	-6.52
214.76	-13.72
215.232	-5.52
215.703	-7.72
216.175	-1.52
216.646	-1.02
217.118	-5.72
217.589	-1.42
218.061	-4.22
218.532	-8.82
219.004	-1.42
219.475	-5.72
219.946	-5.42
220.418	-9.42
220.889	0.88
221.36	-1.22
221.832	-6.02
222.303	-12.62
222.774	-1.52
223.245	-12.52
223.717	-9.62
224.188	-5.92
224.659	-12.52
225.13	-8.72
225.601	-2.92
226.072	2.38
226.543	-0.92
227.014	-1.72
227.485	-4.52
227.956	-5.52
228.427	-0.62
228.898	0.18
229.369	4.08
229.839	-1.62
230.31	-5.62
230.781	0.28
231.252	-2.82
231.722	0.38
232.193	3.18
232.664	-2.92
233.135	1.68
233.605	-1.52
234.076	-5.02
234.546	8.68
235.017	7.58
235.487	-5.32
235.958	2.48
236.428	-3.62
236.899	0.28
237.369	3.58
237.84	-0.02
238.31	10.88
238.78	6.28
239.251	1.28
239.721	2.48
240.191	4.68
240.662	-1.62
241.132	1.28
241.602	-1.62
242.072	5.98
242.542	11.18
243.013	-0.42
243.483	9.78
243.953	8.28
244.423	-0.02
244.893	2.28
245.363	4.28
245.833	1.78
246.303	2.58
246.773	6.48
247.243	2.28
247.712	2.48
248.182	8.78
248.652	7.58
249.122	-6.02
249.592	15.28
250.061	28.88
250.531	32.28
251.001	16.28
251.471	21.88
251.94	23.58
252.41	7.88
252.879	-1.22
253.349	17.28
253.818	11.28
254.288	2.18
254.757	3.48
255.227	4.98
255.696	4.68
256.166	6.68
256.635	12.48
257.105	11.28
257.574	5.98
258.043	11.18
258.513	16.18
258.982	20.98
259.451	10.38
259.92	15.18
260.389	19.88
260.859	15.58
261.328	13.68
261.797	20.88
262.266	11.38
262.735	15.28
263.204	4.58
263.673	7.98
264.142	7.68
264.611	1.38
265.08	8.58
265.549	4.38
266.018	3.48
266.487	-1.12
266.955	-1.52
267.424	-0.42
267.893	6.98
268.362	1.98
268.83	1.88
269.299	12.38
269.768	8.38
270.236	9.78
270.705	6.88
271.174	4.18
271.642	8.18
272.111	12.18
272.579	14.28
273.048	26.58
273.516	25.38
273.985	32.58
274.453	26.58
274.922	18.98
275.39	12.68
275.858	3.48
276.327	15.38
276.795	20.28
277.263	5.88
277.731	33.58
278.2	58.08
278.668	62.58
279.136	50.78
279.604	23.08
280.072	21.28
280.54	15.28
281.008	9.38
281.477	19.58
281.945	15.38
282.413	19.88
282.881	15.78
283.348	11.78
283.816	17.08
284.284	16.78
284.752	16.18
285.22	9.48
285.688	16.88
286.156	20.88
286.623	46.88
287.091	55.48
287.559	37.08
288.026	20.08
288.494	11.68
288.962	9.48
289.429	5.98
289.897	14.48
290.364	15.78
290.832	15.98
291.3	21.98
291.767	26.08
292.234	18.38
292.702	15.98
293.169	16.88
293.637	29.88
294.104	27.88
294.571	11.98
295.039	15.68
295.506	16.88
295.973	19.78
296.44	13.68
296.908	21.58
297.375	19.78
297.842	22.38
298.309	24.28
298.776	11.98
299.243	23.08
299.71	7.38
300.177	23.48
300.644	26.78
301.111	18.88
301.578	19.78
302.045	19.98
302.512	26.38
302.979	27.58
303.446	18.48
303.913	22.68
304.379	17.48
304.846	27.08
305.313	26.78
305.78	25.38
306.246	26.38
306.713	24.28
307.18	23.18
307.646	28.78
308.113	29.18
308.579	27.38
309.046	24.18
309.512	25.18
309.979	12.48
310.445	27.98
310.912	26.38
311.378	34.48
311.845	34.28
312.311	25.08
312.777	34.78
313.244	34.58
313.71	39.98
314.176	31.08
314.642	32.18
315.109	30.08
315.575	39.38
316.041	35.18
316.507	34.98
316.973	38.48
317.439	30.08
317.905	35.18
318.371	39.18
318.837	34.08
319.303	38.78
319.769	37.98
320.235	36.48
320.701	35.78
321.167	42.28
321.633	32.08
322.099	42.98
322.564	42.48
323.03	42.18
323.496	36.68
323.962	42.78
324.427	37.98
324.893	41.78
325.359	38.18
325.824	38.28
326.29	35.68
326.755	35.98
327.221	39.48
327.686	36.78
328.152	45.38
328.617	41.48
329.083	48.48
329.548	48.98
330.014	49.28
330.479	47.18
330.944	47.78
331.41	47.38
331.875	40.98
332.34	40.58
332.805	44.18
333.271	49.98
333.736	40.88
334.201	53.48
334.666	54.88
335.131	52.58
335.596	48.78
336.061	48.58
336.526	40.08
336.991	44.28
337.456	53.48
337.921	51.88
338.386	40.18
338.851	43.58
339.316	44.28
339.781	41.48
340.246	51.38
340.711	51.68
341.175	56.78
341.64	45.58
342.105	51.98
342.569	52.08
343.034	58.68
343.499	55.98
343.963	55.88
344.428	64.58
344.893	59.88
345.357	61.38
345.822	59.78
346.286	67.38
346.751	66.78
347.215	67.08
347.679	73.08
348.144	91.38
348.608	80.68
349.073	73.18
349.537	79.08
350.001	75.48
350.465	88.28
350.93	79.08
351.394	84.98
351.858	69.98
352.322	81.28
352.786	80.48
353.25	97.68
353.715	108.08
354.179	96.98
354.643	123.78
355.107	120.58
355.571	102.88
356.035	103.18
356.498	108.08
356.962	113.58
357.426	124.68
357.89	112.28
358.354	89.78
358.818	75.58
359.281	77.98
359.745	73.98
360.209	73.68
360.673	76.48
361.136	75.48
361.6	84.28
362.064	82.98
362.527	82.98
362.991	86.78
363.454	83.28
363.918	75.68
364.381	77.28
364.845	80.78
365.308	81.68
365.772	83.98
366.235	80.48
366.698	83.98
367.162	83.78
367.625	82.78
368.088	88.98
368.552	83.78
369.015	78.98
369.478	94.58
369.941	94.58
370.404	91.48
370.867	96.78
371.331	103.28
371.794	111.48
372.257	98.98
372.72	109.78
373.183	102.78
373.646	100.38
374.109	98.38
374.572	99.08
375.035	96.98
375.497	99.38
375.96	102.68
376.423	95.18
376.886	108.48
377.349	105.28
377.811	95.48
378.274	100.18
378.737	100.18
379.199	103.88
379.662	101.38
380.125	111.08
380.587	107.78
381.05	116.58
381.512	118.58
381.975	125.28
382.437	123.68
382.9	125.18
383.362	120.88
383.825	132.68
384.287	132.38
384.75	129.18
385.212	138.68
385.674	128.88
386.136	130.08
386.599	119.28
387.061	120.78
387.523	120.18
387.985	121.98
388.447	143.78
388.91	133.98
389.372	143.38
389.834	136.08
390.296	132.68
390.758	151.38
391.22	156.48
391.682	191.38
392.144	273.28
392.606	216.28
393.068	156.18
393.529	155.48
393.991	145.38
394.453	139.28
394.915	147.08
395.377	179.68
395.838	201.68
396.3	142.68
396.762	128.88
397.224	121.68
397.685	121.98
398.147	127.08
398.608	122.18
399.07	114.88
399.531	124.98
399.993	132.08
400.454	142.58
400.916	132.68
401.377	138.58
401.839	137.18
402.3	142.28
402.762	153.88
403.223	174.08
403.684	161.68
404.145	152.48
404.607	152.78
405.068	157.18
405.529	157.18
405.99	180.88
406.451	164.88
406.913	162.98
407.374	152.98
407.835	146.18
408.296	159.18
408.757	161.28
409.218	174.18
409.679	166.88
410.14	162.48
410.601	167.38
411.062	167.78
411.522	179.28
411.983	174.68
412.444	162.28
412.905	163.88
413.366	167.98
413.826	179.18
414.287	201.28
414.748	241.88
415.208	235.98
415.669	199.38
416.13	194.98
416.59	181.18
417.051	202.78
417.511	206.38
417.972	221.28
418.432	222.38
418.893	267.48
419.353	238.68
419.814	187.38
420.274	168.58
420.734	168.98
421.195	183.98
421.655	175.08
422.115	171.88
422.576	176.28
423.036	186.08
423.496	196.88
423.956	208.98
424.416	211.08
424.876	250.18
425.336	241.78
425.797	241.08
426.257	236.18
426.717	222.28
427.177	218.78
427.637	208.18
428.097	217.18
428.556	230.38
429.016	247.68
429.476	246.58
429.936	253.88
430.396	247.28
430.856	262.48
431.315	296.08
431.775	316.88
432.235	347.18
432.694	326.78
433.154	337.08
433.614	354.38
434.073	303.38
434.533	264.08
434.993	253.28
435.452	256.48
435.912	263.48
436.371	264.08
436.83	257.68
437.29	245.68
437.749	227.88
438.209	221.98
438.668	246.88
439.127	260.98
439.587	240.28
440.046	224.98
440.505	238.08
440.964	252.38
441.424	289.18
441.883	281.78
442.342	233.58
442.801	213.18
443.26	205.68
443.719	206.78
444.178	199.68
444.637	194.88
445.096	203.98
445.555	209.48
446.014	202.98
446.473	206.38
446.932	203.88
447.391	200.18
447.849	213.98
448.308	199.08
448.767	206.18
449.226	213.48
449.685	216.88
450.143	229.38
450.602	222.08
451.061	212.48
451.519	220.78
451.978	216.78
452.436	215.88
452.895	223.68
453.353	230.58
453.812	224.88
454.27	219.58
454.729	221.98
455.187	222.58
455.646	230.08
456.104	220.28
456.562	234.68
457.021	247.48
457.479	239.48
457.937	254.08
458.395	244.58
458.854	230.48
459.312	234.68
459.77	247.48
460.228	238.78
460.686	224.58
461.144	230.08
461.602	229.98
462.06	221.58
462.518	229.08
462.976	235.88
463.434	242.68
463.892	243.68
464.35	247.98
464.808	260.88
465.266	240.78
465.724	247.58
466.181	254.88
466.639	255.28
467.097	267.68
467.555	280.68
468.012	282.78
468.47	287.18
468.928	306.28
469.385	323.68
469.843	314.68
470.3	319.38
470.758	336.68
471.215	350.08
471.673	376.58
472.13	365.08
472.588	386.78
473.045	338.58
473.503	354.48
473.96	362.18
474.417	371.18
474.875	402.48
475.332	431.78
475.789	434.48
476.246	440.58
476.704	453.88
477.161	459.98
477.618	480.38
478.075	514.08
478.532	567.88
478.989	633.28
479.446	740.58
479.903	718.18
480.36	752.28
480.817	799.48
481.274	905.18
481.731	1001.98
482.188	1086.58
482.645	1215.18
483.102	1311.68
483.558	1445.58
484.015	1497.38
484.472	1479.28
484.929	1431.88
485.385	1389.58
485.842	1335.78
486.299	1280.68
486.755	1212.18
487.212	1024.88
487.668	863.78
488.125	796.38
488.582	728.08
489.038	705.28
489.494	660.88
489.951	642.18
490.407	626.88
490.864	600.78
491.32	598.58
491.776	593.78
492.233	593.58
492.689	572.48
493.145	559.68
493.602	547.28
494.058	571.48
494.514	575.28
494.97	598.48
495.426	600.38
495.882	570.88
496.338	577.08
496.794	589.78
497.251	585.28
497.707	590.88
498.163	593.58
498.618	600.78
499.074	603.58
499.53	634.18
499.986	634.88
500.442	606.38
500.898	587.68
501.354	583.98
501.809	588.78
502.265	596.98
502.721	613.68
503.177	625.58
503.632	611.08
504.088	631.28
504.543	658.08
504.999	658.38
505.455	611.48
505.91	587.48
506.366	585.58
506.821	583.78
507.277	575.48
507.732	582.28
508.187	579.68
508.643	590.48
509.098	587.08
509.553	608.28
510.009	616.18
510.464	624.88
510.919	639.38
511.375	645.78
511.83	660.78
512.285	672.08
512.74	708.28
513.195	729.18
513.65	720.18
514.105	717.18
514.56	722.48
515.015	760.18
515.47	757.68
515.925	739.18
516.38	730.58
516.835	741.58
517.29	723.28
517.745	727.08
518.2	713.88
518.655	696.28
519.109	688.98
519.564	696.48
520.019	679.68
520.474	669.28
520.928	676.28
521.383	665.68
521.838	655.98
522.292	662.08
522.747	658.48
523.201	650.08
523.656	645.68
524.11	647.78
524.565	638.38
525.019	637.58
525.474	651.08
525.928	654.58
526.382	648.38
526.837	653.28
527.291	658.68
527.745	640.98
528.2	641.58
528.654	631.58
529.108	636.48
529.562	641.48
530.016	640.48
530.47	640.18
530.925	635.98
531.379	643.58
531.833	658.88
532.287	650.48
532.741	642.28
533.195	653.68
533.649	672.38
534.103	675.48
534.556	654.78
535.01	660.78
535.464	660.18
535.918	670.38
536.372	673.58
536.826	672.08
537.279	644.88
537.733	652.58
538.187	655.18
538.64	667.78
539.094	673.08
539.548	666.08
540.001	666.98
540.455	666.28
540.908	665.08
541.362	674.68
541.815	681.98
542.269	700.58
542.722	696.78
543.175	700.98
543.629	711.88
544.082	725.68
544.536	719.88
544.989	717.68
545.442	728.38
545.895	723.88
546.349	719.48
546.802	725.48
547.255	728.98
547.708	730.48
548.161	742.38
548.614	753.08
549.067	768.68
549.52	754.28
549.973	739.58
550.426	738.98
550.879	726.88
551.332	721.38
551.785	729.08
552.238	744.68
552.691	749.48
553.144	756.18
553.596	769.48
554.049	786.98
554.502	820.28
554.955	845.98
555.407	841.28
555.86	822.78
556.313	819.48
556.765	800.28
557.218	801.98
557.67	808.78
558.123	808.18
558.576	792.48
559.028	798.18
559.48	809.18
559.933	798.38
560.385	770.38
560.838	733.28
561.29	715.08
561.742	712.68
562.195	692.28
562.647	695.38
563.099	704.28
563.551	696.88
564.004	714.28
564.456	697.88
564.908	693.88
565.36	672.28
565.812	661.48
566.264	662.88
566.716	649.38
567.168	645.78
567.62	653.88
568.072	632.98
568.524	628.48
568.976	624.28
569.428	603.38
569.88	609.68
570.332	620.68
570.784	614.68
571.235	606.98
571.687	633.68
572.139	637.58
572.59	651.48
573.042	650.58
573.494	648.38
573.945	643.98
574.397	626.38
574.849	611.58
575.3	625.18
575.752	621.88
576.203	615.28
576.655	619.08
577.106	608.08
577.557	594.88
578.009	606.48
578.46	594.68
578.912	595.08
579.363	593.98
579.814	599.78
580.265	596.78
580.717	601.08
581.168	599.28
581.619	610.68
582.07	606.08
582.521	607.38
582.972	598.28
583.423	601.48
583.875	614.78
584.326	623.88
584.777	668.38
585.227	735.38
585.678	819.28
586.129	895.08
586.58	970.78
587.031	1041.88
587.482	1198.28
587.933	1377.78
588.384	1188.78
588.834	867.48
589.285	721.28
589.736	699.98
590.186	694.38
590.637	679.08
591.088	658.18
591.538	656.38
591.989	652.88
592.439	643.38
592.89	644.68
593.34	631.28
593.791	631.88
594.241	626.58
594.692	624.38
595.142	629.58
595.593	613.78
596.043	625.68
596.493	629.28
596.943	635.38
597.394	637.28
597.844	637.28
598.294	641.58
598.744	666.58
599.195	692.88
599.645	728.48
600.095	752.88
600.545	804.48
600.995	864.08
601.445	912.18
601.895	955.58
602.345	1004.18
602.795	977.98
603.245	940.68
603.695	905.68
604.145	849.48
604.594	803.98
605.044	763.18
605.494	706.38
605.944	666.58
606.393	650.28
606.843	641.58
607.293	650.18
607.743	644.18
608.192	655.38
608.642	663.88
609.091	671.38
609.541	679.78
609.99	677.98
610.44	670.98
610.889	637.78
611.339	614.58
611.788	617.98
612.238	615.78
612.687	633.98
613.136	636.08
613.586	644.28
614.035	653.08
614.484	657.78
614.933	659.98
615.383	658.08
615.832	645.48
616.281	626.58
616.73	608.78
617.179	582.78
617.628	570.38
618.077	550.88
618.526	545.28
618.975	540.38
619.424	533.38
619.873	537.88
620.322	537.98
620.771	523.28
621.22	528.48
621.669	512.38
622.118	517.18
622.567	510.88
623.015	496.78
623.464	503.68
623.913	490.08
624.361	486.08
624.81	482.98
625.259	488.38
625.707	486.68
626.156	481.58
626.604	493.28
627.053	484.58
627.501	488.58
627.95	490.48
628.398	505.28
628.847	493.98
629.295	494.18
629.744	500.28
630.192	495.28
630.64	491.58
631.089	480.18
631.537	496.08
631.985	509.18
632.433	523.28
632.881	523.08
633.33	558.28
633.778	540.48
634.226	486.58
634.674	486.18
635.122	493.58
635.57	512.18
636.018	532.88
636.466	512.88
636.914	486.48
637.362	490.28
637.81	497.88
638.258	505.18
638.705	494.68
639.153	527.28
639.601	523.28
640.049	552.78
640.497	582.68
640.944	601.38
641.392	550.88
641.84	528.68
642.287	511.58
642.735	487.68
643.182	495.38
643.63	482.58
644.078	487.58
644.525	504.18
644.973	515.88
645.42	521.68
645.867	529.68
646.315	540.58
646.762	571.78
647.21	593.58
647.657	609.28
648.104	644.38
648.551	671.88
648.999	721.28
649.446	782.68
649.893	859.08
650.34	986.28
650.787	1180.18
651.234	1451.38
651.682	1898.58
652.129	2614.08
652.576	3740.98
653.023	5515.68
653.47	7623.88
653.917	9648.58
654.363	11318.68
654.81	12736.28
655.257	12095.78
655.704	7804.28
656.151	4600.98
656.598	2974.28
657.044	2096.58
657.491	1621.68
657.938	1291.08
658.385	1079.98
658.831	933.08
659.278	831.48
659.724	730.78
660.171	683.38
660.618	623.58
661.064	584.58
661.511	570.58
661.957	555.18
662.404	541.18
662.85	546.58
663.296	528.08
663.743	474.38
664.189	454.98
664.635	462.68
665.082	458.68
665.528	455.58
665.974	446.28
666.42	433.58
666.867	431.08
667.313	416.78
667.759	406.68
668.205	407.08
668.651	417.58
669.097	410.68
669.543	433.28
669.989	404.98
670.435	382.68
670.881	378.38
671.327	392.18
671.773	399.28
672.219	418.68
672.665	460.58
673.11	495.98
673.556	538.98
674.002	575.68
674.448	553.98
674.893	471.08
675.339	401.48
675.785	376.28
676.23	357.68
676.676	329.48
677.122	322.38
677.567	310.78
678.013	315.08
678.458	303.18
678.904	305.18
679.349	289.38
679.794	295.28
680.24	298.18
680.685	291.88
681.131	292.58
681.576	292.58
682.021	302.08
682.466	295.78
682.912	289.78
683.357	295.08
683.802	322.78
684.247	338.08
684.692	384.58
685.137	410.78
685.583	450.78
686.028	478.78
686.473	436.38
686.918	377.08
687.363	347.88
687.807	334.08
688.252	310.98
688.697	303.98
689.142	287.28
689.587	278.68
690.032	274.78
690.477	289.78
690.921	295.08
691.366	310.08
691.811	334.48
692.255	357.68
692.7	388.18
693.145	416.58
693.589	570.78
694.034	927.18
694.478	1287.08
694.923	1494.28
695.367	1950.48
695.812	1023.28
696.256	417.18
696.701	308.28
697.145	290.68
697.59	275.78
698.034	272.58
698.478	271.98
698.922	276.58
699.367	270.08
699.811	289.28
700.255	302.58
700.699	331.28
701.143	352.28
701.588	401.38
702.032	434.08
702.476	430.98
702.92	418.28
703.364	412.98
703.808	518.68
704.252	841.28
704.696	1205.98
705.14	1425.38
705.584	1858.68
706.027	910.38
706.471	444.98
706.915	337.58
707.359	293.38
707.803	277.08
708.246	263.18
708.69	261.98
709.134	267.18
709.577	266.08
710.021	267.28
710.465	256.08
710.908	245.08
711.352	251.68
711.795	259.98
712.239	296.78
712.682	321.78
713.126	347.58
713.569	404.88
714.012	319.98
714.456	270.08
714.899	251.28
715.342	225.08
715.786	220.78
716.229	218.48
716.672	223.18
717.115	209.18
717.558	209.38
718.002	204.28
718.445	218.18
718.888	240.78
719.331	241.68
719.774	258.28
720.217	260.98
720.66	232.28
721.103	225.68
721.546	217.08
721.989	213.28
722.432	192.38
722.874	205.98
723.317	194.48
723.76	196.98
724.203	215.68
724.645	264.28
725.088	367.68
725.531	471.38
725.974	544.78
726.416	460.58
726.859	259.68
727.301	200.38
727.744	189.38
728.187	197.08
728.629	193.58
729.071	205.38
729.514	218.68
729.956	221.28
730.399	237.58
730.841	244.38
731.283	223.78
731.726	223.28
732.168	214.08
732.61	220.68
733.053	232.98
733.495	254.48
733.937	288.68
734.379	336.08
734.821	365.18
735.263	455.08
735.705	679.48
736.148	1282.88
736.59	2145.28
737.032	2642.28
737.474	2151.08
737.916	675.58
738.357	357.88
738.799	271.58
739.241	255.68
739.683	229.98
740.125	239.98
740.567	244.28
741.008	265.78
741.45	264.88
741.892	260.58
742.334	281.98
742.775	304.08
743.217	285.68
743.658	226.48
744.1	215.08
744.542	220.38
744.983	257.88
745.425	289.88
745.866	291.98
746.307	238.18
746.749	232.18
747.19	269.88
747.632	367.28
748.073	699.38
748.514	1517.98
748.956	2400.48
749.397	2989.18
749.838	2487.18
750.279	2570.08
750.72	1283.08
751.162	455.78
751.603	264.08
752.044	210.98
752.485	178.98
752.926	171.18
753.367	173.28
753.808	160.78
754.249	162.08
754.69	155.98
755.131	151.18
755.572	144.48
756.013	144.38
756.453	157.08
756.894	155.38
757.335	157.08
757.776	158.58
758.216	165.48
758.657	167.08
759.098	167.48
759.538	189.38
759.979	221.38
760.42	300.88
760.86	565.38
761.301	1461.88
761.741	3640.88
762.182	5633.48
762.622	3962.58
763.063	1130.78
763.503	460.98
763.943	290.98
764.384	291.38
764.824	346.48
765.264	382.48
765.705	261.68
766.145	175.28
766.585	159.68
767.025	149.28
767.465	151.58
767.906	194.98
768.346	272.88
768.786	284.88
769.226	213.08
769.666	255.78
770.106	491.78
770.546	1253.08
770.986	2240.08
771.426	2048.48
771.866	676.08
772.306	278.18
772.745	173.58
773.185	140.38
773.625	147.78
774.065	140.78
774.505	158.38
774.944	250.48
775.384	553.98
775.824	1050.68
776.263	1035.98
776.703	432.48
777.142	183.78
777.582	132.18
778.021	112.98
778.461	109.48
778.9	123.98
779.34	114.28
779.779	94.38
780.219	92.88
780.658	90.78
781.097	87.88
781.537	93.48
781.976	89.48
782.415	88.48
782.855	92.38
783.294	79.38
783.733	81.78
784.172	93.58
784.611	83.28
785.05	87.88
785.489	92.68
785.928	99.78
786.367	97.78
786.806	91.38
787.245	110.48
787.684	110.58
788.123	125.48
788.562	109.58
789.001	100.68
789.44	105.08
789.879	96.48
790.317	95.68
790.756	103.28
791.195	99.58
791.634	119.48
792.072	163.48
792.511	291.18
792.95	805.78
793.388	1813.68
793.827	1689.58
794.265	576.48
794.704	237.58
795.142	153.28
795.581	126.98
796.019	120.28
796.458	102.08
796.896	97.08
797.334	111.78
797.773	133.88
798.211	176.78
798.649	354.28
799.087	831.58
799.526	1336.38
799.964	1681.98
800.402	1741.68
800.84	642.88
801.278	249.58
801.716	158.38
802.154	128.18
802.592	119.68
803.03	116.88
803.468	112.18
803.906	124.08
804.344	123.98
804.782	119.68
805.22	114.68
805.658	108.28
806.096	123.38
806.533	129.48
806.971	138.78
807.409	182.78
807.847	251.18
808.284	531.18
808.722	1515.68
809.16	2810.88
809.597	2584.48
810.035	4582.58
810.472	5129.78
810.91	1817.18
811.347	676.78
811.785	346.28
812.222	215.68
812.66	155.88
813.097	135.98
813.535	119.98
813.972	102.68
814.409	99.98
814.846	89.08
815.284	92.18
815.721	83.38
816.158	86.08
816.595	101.28
817.032	154.78
817.47	174.48
817.907	144.98
818.344	124.78
818.781	94.88
819.218	80.98
819.655	98.68
820.092	159.58
820.529	188.68
820.966	156.18
821.403	109.18
821.839	89.68
822.276	84.98
822.713	109.28
823.15	112.38
823.587	96.68
824.023	123.08
824.46	240.68
824.897	739.18
825.333	1173.08
825.77	490.08
826.206	185.88
826.643	110.48
827.08	86.28
827.516	70.88
827.953	60.18
828.389	67.18
828.825	62.18
829.262	58.28
829.698	49.98
830.135	43.18
830.571	40.98
831.007	50.88
831.443	51.78
831.88	51.38
832.316	50.38
832.752	56.88
833.188	56.28
833.624	53.28
834.06	50.58
834.497	51.48
834.933	57.68
835.369	59.28
835.805	50.98
836.241	62.58
836.677	62.88
837.112	68.88
837.548	80.98
837.984	108.68
838.42	155.48
838.856	404.68
839.292	1254.28
839.727	2013.78
840.163	928.38
840.599	748.88
841.034	1705.28
841.47	1868.48
841.906	673.78
842.341	282.58
842.777	195.08
843.212	265.88
843.648	270.08
844.083	129.58
844.519	80.28
844.954	64.68
845.39	49.88
845.825	50.38
846.261	49.08
846.696	41.38
847.131	41.18
847.566	45.68
848.002	41.18
848.437	43.48
848.872	46.68
849.307	48.88
849.742	66.18
850.177	142.18
850.613	458.88
851.048	755.78
851.483	327.48
851.918	129.18
852.353	72.58
852.788	49.48
853.223	44.48
853.657	48.28
854.092	35.68
854.527	31.88
854.962	28.68
855.397	35.58
855.832	37.08
856.266	29.28
856.701	32.58
857.136	28.18
857.57	36.38
858.005	45.48
858.44	51.18
858.874	36.68
859.309	44.58
859.743	25.88
860.178	31.18
860.612	30.48
861.047	38.08
861.481	54.98
861.915	62.18
862.35	47.88
862.784	22.58
863.218	37.58
863.653	23.48
864.087	36.48
864.521	46.28
864.955	62.58
865.39	134.78
865.824	145.98
866.258	92.98
866.692	141.28
867.126	151.48
867.56	91.58
867.994	44.48
868.428	30.68
868.862	39.38
869.296	48.08
869.73	49.08
870.164	44.68
870.598	43.98
871.031	25.48
871.465	24.08
871.899	25.68
872.333	20.88
872.766	20.38
873.2	21.08
873.634	28.68
874.067	21.98
874.501	19.88
874.935	27.28
875.368	23.28
875.802	24.78
876.235	20.98
876.669	19.28
877.102	20.98
877.535	20.98
877.969	17.28
878.402	22.48
878.836	13.98
879.269	18.88
879.702	16.48
880.135	16.48
880.569	16.88
881.002	22.58
881.435	9.18
881.868	22.78
882.301	16.58
882.734	11.58
883.167	15.38
883.601	14.68
884.034	24.48
884.467	10.28
884.899	17.48
885.332	15.78
885.765	14.68
886.198	10.28
886.631	10.98
887.064	10.58
887.497	13.18
887.929	21.08
888.362	12.98
888.795	9.78
889.228	13.58
889.66	16.58
890.093	9.88
890.526	10.08
890.958	9.18
891.391	14.58
891.823	23.88
892.256	12.68
892.688	8.08
893.121	16.58
893.553	11.28
893.985	18.98
894.418	18.28
894.85	6.18
895.282	11.68
895.715	8.38
896.147	10.98
896.579	13.68
897.011	12.78
897.444	13.68
897.876	7.48
898.308	12.28
898.74	8.78
899.172	8.88
899.604	16.08
900.036	15.48
900.468	14.48
900.9	9.48
901.332	11.18
901.764	6.48
902.196	16.18
902.628	12.98
903.06	17.68
903.491	22.48
903.923	20.08
904.355	8.88
904.787	17.68
905.218	16.48
905.65	12.48
906.082	9.78
906.513	8.48
906.945	12.48
907.376	8.28
907.808	15.08
908.239	20.18
908.671	14.28
909.102	18.48
909.534	19.88
909.965	37.58
910.397	78.58
910.828	262.38
911.259	410.48
911.691	179.38
912.122	83.08
912.553	43.08
912.984	32.48
913.415	22.48
913.847	19.58
914.278	13.68
914.709	11.58
915.14	15.98
915.571	15.78
916.002	10.28
916.433	17.78
916.864	17.28
917.295	10.28
917.726	16.58
918.157	10.18
918.587	23.78
919.018	17.38
919.449	17.88
919.88	19.28
920.311	27.78
920.741	37.08
921.172	134.88
921.603	128.98
922.033	61.48
922.464	45.28
922.895	18.28
923.325	16.18
923.756	6.18
924.186	8.78
924.617	14.78
925.047	36.88
925.478	42.98
925.908	34.38
926.338	14.68
926.769	14.38
927.199	16.48
927.629	2.18
928.06	10.38
928.49	12.98
928.92	8.38
929.35	10.48
929.78	4.08
930.21	6.38
930.641	9.68
931.071	10.08
931.501	0.58
931.931	1.68
932.361	7.98
932.791	0.38
933.221	3.68
933.651	-1.62
934.08	7.48
934.51	25.38
934.94	6.18
935.37	2.38
935.8	3.38
936.229	1.08
936.659	1.68
937.089	0.78
937.519	7.98
937.948	24.38
938.378	9.98
938.807	5.28
939.237	1.58
939.666	7.58
940.096	-0.72
940.525	4.08
940.955	-0.02
941.384	0.88
941.814	-9.92
942.243	-1.82
942.672	0.18
943.102	-7.42
943.531	-1.12
943.96	2.08
944.39	2.58
944.819	-1.72
945.248	-3.42
945.677	-1.92
946.106	2.68
946.535	4.48
946.964	2.98
947.393	5.48
947.822	-1.92
948.251	-8.02
948.68	1.88
949.109	5.28
949.538	4.78
949.967	6.28
950.396	-0.72
950.825	0.18
951.254	-4.42
951.682	-1.62
952.111	0.18
952.54	4.78
952.969	-10.42
953.397	-5.42
953.826	-1.82
954.254	-7.72
954.683	5.08
955.112	-8.12
955.54	-2.22
955.969	1.58
956.397	2.58
956.826	-0.22
957.254	-5.72
957.682	-0.22
958.111	2.68
958.539	0.18
958.967	-1.72
959.396	-3.02
959.824	-0.42
960.252	-2.42
960.68	-7.52
961.109	-4.52
961.537	-2.02
961.965	-1.22
962.393	0.48
962.821	-2.52
963.249	-4.32
963.677	0.88
964.105	-0.32
964.533	34.28
964.961	36.08
965.389	19.78
965.817	8.78
966.245	0.68
966.672	-0.72
967.1	-4.02
967.528	1.98
967.956	-5.32
968.383	-1.52
968.811	-5.12
969.239	-0.42
969.666	-1.42
970.094	-1.52
970.522	-3.02
970.949	-4.72
971.377	-3.42
971.804	2.08
972.232	-5.72
972.659	-7.52
973.087	-4.52
973.514	-4.82
973.941	-6.02
974.369	1.38
974.796	2.78
975.223	-2.92
975.651	3.18
976.078	1.68
976.505	0.08
976.932	3.48
977.359	14.58
977.786	13.78
978.214	-1.92
978.641	-6.72
979.068	-3.62
979.495	-4.32
979.922	-0.72
980.349	-3.62
980.776	-1.02
981.202	-5.02
981.629	-0.12
982.056	5.28
982.483	-2.12
982.91	6.78
983.337	-4.82
983.763	3.28
984.19	-2.72
984.617	-1.52
985.043	-3.62
985.47	-2.92
985.897	-1.42
986.323	-10.42
986.75	1.08
987.176	-4.32
987.603	-5.22
988.029	0.98
988.456	0.18
988.882	0.48
989.308	-8.02
989.735	-8.52
990.161	-3.62
990.587	-6.02
991.014	-5.92
991.44	6.68
991.866	0.58
992.292	-5.92
992.719	-3.62
993.145	-0.52
993.571	-3.62
993.997	0.38
994.423	1.28
994.849	-6.72
995.275	2.58
995.701	-2.32
996.127	-0.52
996.553	2.48
996.979	-1.92
997.405	-1.92
997.83	-7.22
998.256	-6.62
998.682	-5.42
999.108	-7.52
999.534	-1.62
999.959	3.48
1000.385	-8.82
1000.811	1.38
1001.236	-9.42
1001.662	-9.12
1002.087	-7.12
1002.513	-1.42
1002.938	4.58
1003.364	-0.12
1003.789	-4.72
1004.215	6.78
1004.64	-8.32
1005.066	-0.72
1005.491	-1.02
1005.916	-3.42
1006.342	-5.32
1006.767	-7.72
1007.192	3.68
1007.617	-6.32
1008.042	-6.72
1008.468	-5.52
1008.893	-4.42
1009.318	-3.72
1009.743	-0.12
1010.168	1.48
1010.593	-0.92
1011.018	-7.52
1011.443	-10.62
1011.868	0.98
1012.293	-3.42
1012.718	-11.32
1013.143	2.88
1013.567	1.98
1013.992	-5.52
1014.417	-10.12
1014.842	4.68
1015.267	-9.52
1015.691	-6.12
1016.116	2.18
1016.541	0.68
1016.965	1.68
1017.39	-0.42
1017.814	-3.12
1018.239	-0.32
1018.663	-10.12
1019.088	-13.52
1019.512	-2.02
1019.937	1.18
1020.361	-8.22
1020.785	-13.12
1021.21	-2.02
1021.634	-5.62
1022.058	5.58
1022.483	5.08
1022.907	1.38
1023.331	-1.52
1023.755	-2.92
1024.179	-2.52
1024.604	-4.12
1025.028	-1.52
1025.452	-1.82
1025.876	-5.52
1026.3	3.08
1026.724	-8.32
1027.148	-12.32
1027.572	-7.62
1027.996	-4.32
1028.42	-4.02
1028.843	-7.52
1029.267	-6.52
1029.691	3.28
1030.115	-7.02
1030.539	-6.82
1030.962	-13.62
1031.386	-9.82
1031.81	4.28
1032.233	-2.52
1032.657	-5.52
1033.08	-5.12
1033.504	-6.82
1033.927	-5.22
1034.351	-3.72
1034.774	-5.22
1035.198	-1.72
1035.621	-4.22
1036.045	-8.82
1036.468	0.58
1036.891	-18.72
1037.315	-9.92
1037.738	-8.72
1038.161	-1.32
1038.584	-10.32
1039.008	-3.12
1039.431	-1.82
1039.854	-1.12
1040.277	-8.72
1040.7	-10.62
1041.123	-1.22
1041.546	-13.92
1041.969	-2.22
1042.392	-10.82
1042.815	-7.22
1043.238	-1.32
1043.661	3.38
1044.084	-6.62
1044.507	-5.02
1044.93	-4.82
1045.352	1.68
1045.775	-10.52
1046.198	-3.32
1046.621	-0.52
1047.043	-3.02
1047.466	0.48
1047.889	-7.02
1048.311	-5.52
1048.734	-6.82
1049.156	-3.52
1049.579	-0.92
1050.001	-1.02
1050.424	5.18
1050.846	-7.32
1051.269	-1.82
1051.691	-2.02
1052.113	-3.02
1052.536	-3.02
1052.958	-3.52
1053.38	-7.72
1053.802	-14.22
1054.225	1.48
1054.647	-12.32
1055.069	-3.72
1055.491	-3.72
1055.913	-12.92
1056.335	1.38
1056.757	-3.72
1057.179	-7.82
1057.601	-7.42
1058.023	-2.82
1058.445	-6.72
1058.867	1.28
1059.289	-4.32
1059.711	-8.22
1060.133	-1.82
1060.555	-3.22
1060.976	-6.62
1061.398	-7.02
1061.82	-5.12
1062.241	-3.92
1062.663	-10.62
1063.085	-2.42
1063.506	3.38
1063.928	-2.12
1064.35	-6.02
1064.771	-7.12
1065.193	-3.62
1065.614	-6.12
1066.035	-3.82
1066.457	-0.82
1066.878	-3.92
1067.3	-4.42
1067.721	-8.52
1068.142	-1.62
1068.564	-8.72
1068.985	-0.82
1069.406	-6.42
1069.827	-1.62
1070.248	0.38
1070.67	-5.82
1071.091	-0.72
1071.512	-2.82
1071.933	-3.62
1072.354	-8.72
1072.775	-0.72
1073.196	-2.72
1073.617	-2.92
1074.038	-12.92
1074.459	-9.92
1074.88	-7.32
1075.3	-0.12
1075.721	-8.12
1076.142	-1.52
1076.563	-5.52
1076.983	-10.72
1077.404	-10.72
1077.825	-14.92
1078.246	-9.42
1078.666	-8.22
1079.087	-3.92
1079.507	-3.92
1079.928	1.48
1080.348	0.28
1080.769	-8.02
1081.189	-0.52
1081.61	-0.02
1082.03	-7.32
1082.451	-8.42
1082.871	-6.42
1083.291	-7.72
1083.711	-8.72
1084.132	-4.02
1084.552	-4.92
1084.972	-9.52
1085.392	-13.32
1085.813	-12.12
1086.233	-8.52
1086.653	-7.42
1087.073	-5.22
1087.493	-8.72
1087.913	-9.92
1088.333	-11.72
1088.753	-11.12
1089.173	-4.02
1089.593	-3.82
1090.013	2.28
1090.433	-2.32
1090.852	-0.32
1091.272	2.48
1091.692	-3.82
1092.112	2.18
1092.531	-10.42
1092.951	-14.52
1093.371	-2.22
1093.79	2.28
1094.21	-4.52
1094.63	-7.62
1095.049	-4.62
1095.469	0.18
1095.888	-2.72
1096.308	-2.22
1096.727	0.18
1097.146	-8.52
1097.566	-2.32
1097.985	-13.02
1098.405	-2.72
1098.824	-1.52
1099.243	-7.02
1099.662	-14.42
1100.082	-5.52
1100.501	-2.22
1100.92	-8.12
1101.339	-3.02
1101.758	-8.92
