Data from 20171114-ORNL-Ar_H_NY_Subt18_08-06-26-466.txt Node
Date: Tue Nov 14 08:06:26 EST 2017
User: Ender
Spectrometer: HR+D1039
Trigger mode: 0
Integration Time (sec): 2.730000E-2
Scans to average: 10
Electric dark correction enabled: true
Nonlinearity correction enabled: false
Boxcar width: 0
XAxis mode: Wavelengths
Number of Pixels in Spectrum: 2048
>>>>>Begin Spectral Data<<<<<
187.836	-1.78
188.309	-1.78
188.782	-1.78
189.255	0.72
189.728	2.42
190.201	4.42
190.674	-2.68
191.147	0.72
191.619	-5.08
192.092	2.82
192.565	4.02
193.038	-2.78
193.511	-0.18
193.984	3.42
194.456	-3.18
194.929	-1.18
195.402	-0.78
195.874	-0.88
196.347	1.32
196.82	0.12
197.292	6.02
197.765	0.52
198.237	-9.08
198.71	2.52
199.182	3.02
199.655	5.62
200.127	6.22
200.6	0.22
201.072	2.22
201.544	-7.58
202.017	1.22
202.489	4.52
202.961	4.02
203.433	0.92
203.906	-5.48
204.378	-1.68
204.85	-8.98
205.322	-7.38
205.794	-2.48
206.266	-0.38
206.739	-4.68
207.211	2.62
207.683	-4.38
208.155	-2.18
208.627	-8.58
209.099	-1.08
209.57	-5.38
210.042	-0.48
210.514	-6.58
210.986	-3.68
211.458	-8.58
211.93	-2.08
212.402	0.12
212.873	-9.78
213.345	-6.88
213.817	-10.78
214.288	3.12
214.76	-11.08
215.232	-0.78
215.703	-2.88
216.175	2.02
216.646	-2.68
217.118	-2.08
217.589	-5.48
218.061	4.32
218.532	-6.08
219.004	-3.88
219.475	-0.18
219.946	-2.88
220.418	-2.38
220.889	7.02
221.36	0.22
221.832	-3.98
222.303	-5.68
222.774	0.12
223.245	-9.98
223.717	-3.78
224.188	-3.28
224.659	-4.48
225.13	-2.38
225.601	-0.38
226.072	0.32
226.543	-5.58
227.014	-4.08
227.485	0.72
227.956	-6.48
228.427	-5.28
228.898	4.02
229.369	5.82
229.839	-1.08
230.31	-5.78
230.781	-0.18
231.252	-2.98
231.722	-1.88
232.193	-1.18
232.664	3.22
233.135	2.12
233.605	-0.28
234.076	-0.98
234.546	6.92
235.017	0.62
235.487	-0.08
235.958	1.52
236.428	4.92
236.899	9.12
237.369	3.32
237.84	0.82
238.31	6.62
238.78	-2.78
239.251	-0.58
239.721	-1.08
240.191	-0.28
240.662	1.72
241.132	-6.38
241.602	-1.18
242.072	-0.38
242.542	8.12
243.013	0.92
243.483	2.22
243.953	0.02
244.423	2.02
244.893	-3.68
245.363	7.02
245.833	5.62
246.303	2.22
246.773	12.12
247.243	3.62
247.712	3.92
248.182	6.82
248.652	10.92
249.122	-5.68
249.592	12.02
250.061	20.22
250.531	33.92
251.001	15.22
251.471	17.12
251.94	16.82
252.41	2.92
252.879	2.82
253.349	14.52
253.818	10.12
254.288	8.32
254.757	8.22
255.227	5.02
255.696	2.92
256.166	4.32
256.635	6.52
257.105	10.22
257.574	8.22
258.043	8.02
258.513	10.22
258.982	13.62
259.451	1.62
259.92	9.22
260.389	12.62
260.859	17.32
261.328	9.82
261.797	14.32
262.266	10.62
262.735	14.92
263.204	7.12
263.673	3.82
264.142	4.22
264.611	-3.78
265.08	2.52
265.549	4.42
266.018	2.82
266.487	-3.18
266.955	2.22
267.424	6.82
267.893	8.82
268.362	1.72
268.83	7.52
269.299	9.62
269.768	8.22
270.236	8.72
270.705	3.02
271.174	7.02
271.642	13.22
272.111	18.52
272.579	15.82
273.048	20.92
273.516	29.42
273.985	26.72
274.453	28.62
274.922	19.12
275.39	18.42
275.858	-0.38
276.327	8.12
276.795	19.92
277.263	11.52
277.731	29.12
278.2	53.82
278.668	58.42
279.136	45.02
279.604	22.72
280.072	15.92
280.54	8.92
281.008	7.82
281.477	18.92
281.945	12.72
282.413	16.82
282.881	17.92
283.348	9.42
283.816	15.82
284.284	14.82
284.752	17.12
285.22	12.92
285.688	13.62
286.156	25.02
286.623	45.72
287.091	52.32
287.559	24.32
288.026	20.02
288.494	14.62
288.962	7.02
289.429	8.22
289.897	24.32
290.364	16.92
290.832	19.72
291.3	13.32
291.767	13.72
292.234	21.42
292.702	12.52
293.169	20.92
293.637	29.82
294.104	19.22
294.571	4.42
295.039	17.32
295.506	11.82
295.973	19.12
296.44	16.52
296.908	19.12
297.375	21.12
297.842	17.22
298.309	17.12
298.776	22.12
299.243	26.82
299.71	14.52
300.177	24.52
300.644	21.22
301.111	22.32
301.578	25.92
302.045	16.22
302.512	25.82
302.979	24.92
303.446	20.12
303.913	12.92
304.379	15.02
304.846	27.82
305.313	28.22
305.78	22.92
306.246	29.72
306.713	28.42
307.18	28.72
307.646	32.62
308.113	26.02
308.579	23.02
309.046	25.02
309.512	31.72
309.979	20.02
310.445	31.42
310.912	27.12
311.378	34.72
311.845	33.42
312.311	34.22
312.777	33.02
313.244	34.02
313.71	35.82
314.176	28.92
314.642	31.82
315.109	35.02
315.575	39.52
316.041	34.02
316.507	32.62
316.973	38.32
317.439	37.12
317.905	37.82
318.371	39.12
318.837	35.12
319.303	35.22
319.769	34.32
320.235	31.12
320.701	35.92
321.167	41.32
321.633	34.02
322.099	36.52
322.564	43.82
323.03	44.12
323.496	43.02
323.962	37.32
324.427	40.82
324.893	47.62
325.359	38.42
325.824	35.92
326.29	38.62
326.755	39.72
327.221	44.12
327.686	41.52
328.152	48.12
328.617	42.02
329.083	49.52
329.548	49.12
330.014	54.32
330.479	43.42
330.944	41.22
331.41	44.62
331.875	48.92
332.34	45.02
332.805	40.22
333.271	49.02
333.736	39.62
334.201	54.82
334.666	49.52
335.131	60.42
335.596	53.12
336.061	49.22
336.526	42.72
336.991	56.52
337.456	63.92
337.921	48.22
338.386	44.72
338.851	44.12
339.316	52.12
339.781	49.42
340.246	53.72
340.711	51.82
341.175	50.82
341.64	40.52
342.105	53.52
342.569	57.32
343.034	59.42
343.499	55.92
343.963	53.12
344.428	59.32
344.893	62.02
345.357	63.92
345.822	61.52
346.286	72.42
346.751	76.72
347.215	68.92
347.679	73.12
348.144	93.52
348.608	81.52
349.073	64.82
349.537	80.52
350.001	80.42
350.465	88.32
350.93	88.02
351.394	81.42
351.858	75.62
352.322	93.92
352.786	80.82
353.25	105.62
353.715	111.82
354.179	101.02
354.643	124.92
355.107	132.82
355.571	106.32
356.035	104.22
356.498	123.42
356.962	134.62
357.426	130.12
357.89	121.62
358.354	93.72
358.818	86.52
359.281	86.32
359.745	82.62
360.209	75.62
360.673	78.02
361.136	85.22
361.6	83.32
362.064	92.92
362.527	87.52
362.991	89.72
363.454	78.72
363.918	75.42
364.381	74.92
364.845	84.12
365.308	87.52
365.772	90.32
366.235	88.12
366.698	90.72
367.162	88.72
367.625	90.32
368.088	87.02
368.552	85.72
369.015	94.52
369.478	101.42
369.941	105.72
370.404	95.02
370.867	106.82
371.331	106.02
371.794	118.92
372.257	117.02
372.72	117.22
373.183	109.52
373.646	99.92
374.109	111.02
374.572	110.12
375.035	104.72
375.497	111.02
375.96	110.72
376.423	103.82
376.886	120.02
377.349	118.32
377.811	105.92
378.274	107.72
378.737	112.72
379.199	116.32
379.662	114.52
380.125	122.32
380.587	122.32
381.05	124.32
381.512	129.72
381.975	139.92
382.437	132.12
382.9	123.32
383.362	133.02
383.825	143.92
384.287	151.62
384.75	143.42
385.212	140.52
385.674	146.02
386.136	142.72
386.599	129.62
387.061	129.52
387.523	134.12
387.985	134.42
388.447	140.72
388.91	138.42
389.372	163.42
389.834	157.92
390.296	149.12
390.758	161.52
391.22	172.12
391.682	217.12
392.144	302.92
392.606	231.52
393.068	176.52
393.529	173.32
393.991	156.02
394.453	154.12
394.915	162.32
395.377	193.32
395.838	212.52
396.3	163.72
396.762	139.22
397.224	136.32
397.685	132.72
398.147	134.32
398.608	129.82
399.07	133.02
399.531	139.22
399.993	142.82
400.454	161.42
400.916	148.12
401.377	145.52
401.839	155.12
402.3	156.52
402.762	171.12
403.223	179.52
403.684	174.92
404.145	166.72
404.607	168.62
405.068	169.32
405.529	177.32
405.99	190.02
406.451	184.32
406.913	178.12
407.374	171.62
407.835	167.52
408.296	173.72
408.757	180.62
409.218	195.52
409.679	180.92
410.14	182.12
410.601	182.02
411.062	182.12
411.522	198.12
411.983	197.82
412.444	182.82
412.905	180.52
413.366	192.12
413.826	191.72
414.287	220.52
414.748	268.92
415.208	250.92
415.669	223.32
416.13	214.02
416.59	205.22
417.051	219.62
417.511	225.72
417.972	249.52
418.432	253.02
418.893	299.62
419.353	263.12
419.814	208.82
420.274	191.92
420.734	190.12
421.195	205.02
421.655	206.12
422.115	202.92
422.576	199.32
423.036	202.92
423.496	218.02
423.956	221.12
424.416	237.42
424.876	275.62
425.336	271.72
425.797	270.92
426.257	268.52
426.717	248.02
427.177	236.72
427.637	227.72
428.097	245.22
428.556	253.72
429.016	277.32
429.476	268.92
429.936	286.42
430.396	284.52
430.856	300.62
431.315	334.22
431.775	364.92
432.235	393.32
432.694	366.52
433.154	369.42
433.614	406.52
434.073	347.92
434.533	292.72
434.993	277.42
435.452	298.32
435.912	302.32
436.371	302.82
436.83	286.82
437.29	281.72
437.749	256.42
438.209	255.72
438.668	281.02
439.127	300.02
439.587	269.92
440.046	256.92
440.505	274.72
440.964	284.52
441.424	327.52
441.883	325.52
442.342	266.22
442.801	235.62
443.26	229.82
443.719	234.12
444.178	228.22
444.637	214.62
445.096	226.52
445.555	228.22
446.014	233.02
446.473	234.92
446.932	240.12
447.391	230.62
447.849	231.12
448.308	229.92
448.767	224.52
449.226	236.62
449.685	239.92
450.143	255.32
450.602	241.22
451.061	233.82
451.519	241.12
451.978	232.12
452.436	236.92
452.895	246.52
453.353	261.82
453.812	242.82
454.27	250.42
454.729	248.22
455.187	255.92
455.646	251.12
456.104	247.22
456.562	266.22
457.021	275.72
457.479	266.02
457.937	282.02
458.395	265.82
458.854	253.82
459.312	261.02
459.77	283.62
460.228	259.82
460.686	247.82
461.144	254.32
461.602	250.72
462.06	247.82
462.518	258.22
462.976	261.42
463.434	264.42
463.892	268.72
464.35	280.52
464.808	301.12
465.266	271.42
465.724	278.92
466.181	283.92
466.639	277.22
467.097	297.12
467.555	311.52
468.012	313.02
468.47	320.02
468.928	337.12
469.385	345.92
469.843	364.72
470.3	364.72
470.758	371.92
471.215	395.72
471.673	421.32
472.13	422.42
472.588	436.22
473.045	381.72
473.503	392.32
473.96	403.92
474.417	406.72
474.875	447.22
475.332	483.52
475.789	475.92
476.246	474.62
476.704	498.22
477.161	518.42
477.618	532.62
478.075	570.02
478.532	627.32
478.989	712.12
479.446	823.82
479.903	798.12
480.36	823.52
480.817	896.92
481.274	986.62
481.731	1087.72
482.188	1188.02
482.645	1327.22
483.102	1435.02
483.558	1565.42
484.015	1627.32
484.472	1601.62
484.929	1544.12
485.385	1499.42
485.842	1450.22
486.299	1389.72
486.755	1333.02
487.212	1128.12
487.668	944.22
488.125	872.32
488.582	797.62
489.038	770.32
489.494	738.02
489.951	700.82
490.407	675.12
490.864	659.12
491.32	660.92
491.776	660.22
492.233	655.02
492.689	627.02
493.145	620.22
493.602	613.32
494.058	623.62
494.514	631.72
494.97	660.82
495.426	667.52
495.882	636.82
496.338	622.12
496.794	637.02
497.251	628.42
497.707	642.72
498.163	645.82
498.618	652.92
499.074	654.92
499.53	682.92
499.986	698.12
500.442	671.12
500.898	644.82
501.354	635.42
501.809	640.42
502.265	657.02
502.721	671.72
503.177	689.42
503.632	676.92
504.088	688.02
504.543	721.02
504.999	724.02
505.455	672.52
505.91	644.92
506.366	637.92
506.821	641.92
507.277	638.02
507.732	640.52
508.187	639.02
508.643	645.72
509.098	652.02
509.553	671.52
510.009	685.22
510.464	686.72
510.919	700.82
511.375	707.62
511.83	725.32
512.285	730.82
512.74	770.52
513.195	801.22
513.65	785.72
514.105	772.72
514.56	786.42
515.015	815.32
515.47	820.52
515.925	798.12
516.38	799.72
516.835	802.32
517.29	797.52
517.745	793.12
518.2	774.62
518.655	763.92
519.109	749.72
519.564	756.22
520.019	746.52
520.474	746.92
520.928	742.42
521.383	739.32
521.838	722.52
522.292	714.02
522.747	714.62
523.201	724.02
523.656	711.92
524.11	702.32
524.565	704.72
525.019	713.22
525.474	722.02
525.928	710.52
526.382	702.32
526.837	710.22
527.291	713.72
527.745	706.62
528.2	714.62
528.654	706.72
529.108	709.02
529.562	709.92
530.016	705.42
530.47	705.72
530.925	715.32
531.379	714.32
531.833	716.22
532.287	712.02
532.741	719.82
533.195	719.22
533.649	727.82
534.103	721.92
534.556	714.92
535.01	725.42
535.464	717.12
535.918	742.52
536.372	727.72
536.826	732.22
537.279	718.92
537.733	718.82
538.187	726.62
538.64	732.72
539.094	733.02
539.548	744.42
540.001	729.62
540.455	745.82
540.908	744.62
541.362	751.82
541.815	765.32
542.269	764.92
542.722	770.82
543.175	781.02
543.629	793.32
544.082	809.12
544.536	805.72
544.989	804.12
545.442	804.12
545.895	809.12
546.349	810.62
546.802	797.52
547.255	811.12
547.708	820.02
548.161	835.52
548.614	847.72
549.067	826.92
549.52	838.12
549.973	826.12
550.426	825.02
550.879	808.62
551.332	805.22
551.785	811.02
552.238	837.52
552.691	832.32
553.144	841.22
553.596	863.52
554.049	880.12
554.502	909.32
554.955	931.52
555.407	931.12
555.86	914.62
556.313	908.12
556.765	901.72
557.218	906.82
557.67	903.22
558.123	878.72
558.576	885.52
559.028	892.82
559.48	893.02
559.933	882.52
560.385	855.52
560.838	829.42
561.29	789.52
561.742	800.72
562.195	779.92
562.647	770.12
563.099	786.62
563.551	776.32
564.004	793.32
564.456	785.12
564.908	785.52
565.36	769.52
565.812	738.22
566.264	728.52
566.716	726.72
567.168	726.82
567.62	737.92
568.072	712.42
568.524	717.82
568.976	694.12
569.428	677.22
569.88	678.92
570.332	700.32
570.784	693.22
571.235	705.02
571.687	704.22
572.139	709.12
572.59	721.02
573.042	725.52
573.494	719.12
573.945	719.82
574.397	701.82
574.849	702.82
575.3	699.82
575.752	696.92
576.203	686.72
576.655	696.52
577.106	680.42
577.557	676.92
578.009	678.32
578.46	690.52
578.912	668.42
579.363	679.82
579.814	682.42
580.265	678.02
580.717	679.02
581.168	682.62
581.619	688.82
582.07	688.42
582.521	686.32
582.972	686.12
583.423	693.72
583.875	693.02
584.326	711.92
584.777	754.62
585.227	829.32
585.678	910.42
586.129	1004.62
586.58	1068.82
587.031	1141.12
587.482	1292.22
587.933	1462.12
588.384	1278.42
588.834	968.62
589.285	808.72
589.736	795.32
590.186	782.22
590.637	784.92
591.088	764.42
591.538	753.22
591.989	747.82
592.439	739.32
592.89	727.62
593.34	718.52
593.791	716.02
594.241	718.92
594.692	720.32
595.142	715.42
595.593	709.42
596.043	720.42
596.493	728.32
596.943	735.52
597.394	742.92
597.844	730.92
598.294	747.42
598.744	761.52
599.195	800.62
599.645	822.42
600.095	864.92
600.545	916.62
600.995	971.32
601.445	1025.82
601.895	1101.32
602.345	1148.62
602.795	1120.32
603.245	1081.22
603.695	1024.12
604.145	969.72
604.594	925.72
605.044	870.52
605.494	803.42
605.944	763.62
606.393	750.92
606.843	737.72
607.293	738.72
607.743	745.52
608.192	752.72
608.642	752.12
609.091	773.22
609.541	788.42
609.99	781.92
610.44	783.52
610.889	728.32
611.339	708.72
611.788	701.62
612.238	711.92
612.687	724.72
613.136	725.92
613.586	740.02
614.035	739.62
614.484	751.32
614.933	760.12
615.383	753.72
615.832	737.22
616.281	734.02
616.73	694.12
617.179	674.22
617.628	655.72
618.077	643.32
618.526	629.02
618.975	629.52
619.424	629.52
619.873	618.52
620.322	629.42
620.771	613.82
621.22	615.92
621.669	604.42
622.118	584.52
622.567	572.62
623.015	570.92
623.464	578.62
623.913	560.92
624.361	556.22
624.81	555.32
625.259	564.32
625.707	566.52
626.156	566.92
626.604	571.82
627.053	562.52
627.501	564.32
627.95	571.32
628.398	579.92
628.847	570.32
629.295	578.52
629.744	572.32
630.192	572.52
630.64	576.42
631.089	576.82
631.537	583.42
631.985	597.92
632.433	591.82
632.881	605.22
633.33	654.02
633.778	637.92
634.226	575.42
634.674	574.22
635.122	576.42
635.57	598.82
636.018	624.32
636.466	580.22
636.914	566.32
637.362	571.92
637.81	585.42
638.258	574.92
638.705	583.72
639.153	610.82
639.601	629.92
640.049	641.72
640.497	674.42
640.944	695.62
641.392	649.82
641.84	615.72
642.287	593.62
642.735	575.12
643.182	582.62
643.63	584.02
644.078	576.12
644.525	590.22
644.973	610.42
645.42	610.82
645.867	633.12
646.315	648.12
646.762	658.52
647.21	693.72
647.657	720.42
648.104	762.32
648.551	790.42
648.999	845.12
649.446	933.92
649.893	1003.32
650.34	1162.22
650.787	1399.12
651.234	1740.12
651.682	2253.82
652.129	3086.52
652.576	4434.72
653.023	6562.82
653.47	9016.42
653.917	11238.82
654.363	12997.22
654.81	14359.22
655.257	13663.82
655.704	8931.42
656.151	5287.82
656.598	3424.82
657.044	2416.52
657.491	1875.42
657.938	1513.22
658.385	1255.62
658.831	1085.12
659.278	959.72
659.724	849.22
660.171	792.12
660.618	723.82
661.064	683.72
661.511	668.62
661.957	664.32
662.404	645.12
662.85	655.72
663.296	630.42
663.743	561.62
664.189	544.02
664.635	540.22
665.082	530.52
665.528	527.62
665.974	520.52
666.42	509.62
666.867	513.82
667.313	496.42
667.759	478.62
668.205	477.82
668.651	481.32
669.097	491.12
669.543	494.12
669.989	470.02
670.435	452.52
670.881	451.12
671.327	458.62
671.773	466.92
672.219	491.62
672.665	545.42
673.11	590.32
673.556	634.92
674.002	670.12
674.448	666.12
674.893	539.92
675.339	478.22
675.785	443.62
676.23	421.52
676.676	389.42
677.122	385.82
677.567	371.52
678.013	366.72
678.458	361.32
678.904	369.92
679.349	349.82
679.794	353.82
680.24	348.12
680.685	352.42
681.131	354.32
681.576	354.02
682.021	356.42
682.466	346.42
682.912	342.62
683.357	349.12
683.802	381.62
684.247	418.02
684.692	458.42
685.137	499.82
685.583	534.42
686.028	557.02
686.473	514.32
686.918	443.72
687.363	413.92
687.807	393.72
688.252	362.42
688.697	356.52
689.142	340.62
689.587	325.52
690.032	330.92
690.477	338.92
690.921	351.92
691.366	393.12
691.811	396.52
692.255	428.62
692.7	470.22
693.145	493.82
693.589	689.52
694.034	1114.32
694.478	1527.92
694.923	1731.22
695.367	2265.32
695.812	1196.82
696.256	493.02
696.701	373.22
697.145	342.02
697.59	327.62
698.034	320.42
698.478	327.72
698.922	322.42
699.367	327.42
699.811	342.62
700.255	353.92
700.699	387.22
701.143	430.92
701.588	470.92
702.032	516.92
702.476	516.92
702.92	480.82
703.364	488.12
703.808	636.32
704.252	1033.42
704.696	1449.72
705.14	1671.82
705.584	2123.32
706.027	1059.22
706.471	519.22
706.915	399.32
707.359	350.32
707.803	318.82
708.246	305.82
708.69	312.22
709.134	315.62
709.577	315.52
710.021	318.82
710.465	300.82
710.908	298.92
711.352	295.02
711.795	311.52
712.239	358.82
712.682	387.92
713.126	419.12
713.569	465.82
714.012	366.92
714.456	327.82
714.899	295.92
715.342	274.52
715.786	264.72
716.229	258.82
716.672	258.32
717.115	250.82
717.558	249.32
718.002	257.92
718.445	264.62
718.888	295.72
719.331	293.62
719.774	308.02
720.217	307.32
720.66	288.72
721.103	265.42
721.546	257.12
721.989	246.62
722.432	231.92
722.874	232.92
723.317	231.92
723.76	239.82
724.203	266.52
724.645	317.12
725.088	445.82
725.531	573.72
725.974	638.82
726.416	547.72
726.859	310.22
727.301	253.02
727.744	246.22
728.187	233.12
728.629	233.62
729.071	241.12
729.514	259.22
729.956	274.72
730.399	285.02
730.841	284.12
731.283	273.62
731.726	269.72
732.168	257.82
732.61	266.82
733.053	284.42
733.495	314.12
733.937	349.52
734.379	402.72
734.821	432.52
735.263	539.42
735.705	836.62
736.148	1565.82
736.59	2561.62
737.032	3037.02
737.474	2481.02
737.916	799.52
738.357	425.02
738.799	330.62
739.241	304.22
739.683	288.62
740.125	298.12
740.567	299.52
741.008	316.02
741.45	312.92
741.892	315.92
742.334	344.52
742.775	353.82
743.217	344.12
743.658	264.82
744.1	254.22
744.542	262.72
744.983	312.32
745.425	341.92
745.866	339.22
746.307	286.42
746.749	277.82
747.19	323.42
747.632	462.02
748.073	881.82
748.514	1847.72
748.956	2832.02
749.397	3519.22
749.838	2940.82
750.279	2954.32
750.72	1478.72
751.162	555.42
751.603	318.52
752.044	256.82
752.485	220.62
752.926	209.32
753.367	207.22
753.808	191.32
754.249	195.62
754.69	187.22
755.131	187.52
755.572	181.72
756.013	185.02
756.453	183.12
756.894	188.72
757.335	188.02
757.776	194.52
758.216	200.32
758.657	199.42
759.098	201.82
759.538	225.92
759.979	265.32
760.42	375.02
760.86	695.72
761.301	1801.82
761.741	4371.32
762.182	6408.52
762.622	4503.12
763.063	1305.82
763.503	533.62
763.943	350.62
764.384	332.62
764.824	398.12
765.264	419.22
765.705	297.42
766.145	212.12
766.585	187.02
767.025	182.62
767.465	183.52
767.906	243.82
768.346	316.82
768.786	339.32
769.226	259.62
769.666	318.12
770.106	617.22
770.546	1541.32
770.986	2634.72
771.426	2357.32
771.866	784.52
772.306	331.82
772.745	209.22
773.185	181.52
773.625	171.02
774.065	166.62
774.505	198.52
774.944	298.12
775.384	663.72
775.824	1183.32
776.263	1151.42
776.703	495.52
777.142	221.82
777.582	155.12
778.021	137.32
778.461	137.92
778.9	145.62
779.34	131.22
779.779	117.22
780.219	117.72
780.658	109.62
781.097	111.02
781.537	116.42
781.976	107.72
782.415	111.52
782.855	108.32
783.294	109.42
783.733	109.22
784.172	111.82
784.611	100.92
785.05	107.82
785.489	114.12
785.928	120.72
786.367	118.52
786.806	126.32
787.245	131.12
787.684	133.92
788.123	149.22
788.562	131.92
789.001	124.12
789.44	121.32
789.879	117.72
790.317	120.92
790.756	133.62
791.195	128.12
791.634	148.22
792.072	211.32
792.511	364.52
792.95	989.72
793.388	2111.12
793.827	1930.72
794.265	672.02
794.704	285.22
795.142	184.62
795.581	151.72
796.019	139.62
796.458	135.82
796.896	120.12
797.334	136.82
797.773	160.12
798.211	218.82
798.649	432.82
799.087	1018.62
799.526	1582.12
799.964	1986.12
800.402	2002.42
800.84	750.62
801.278	306.72
801.716	186.52
802.154	156.52
802.592	140.82
803.03	142.92
803.468	129.22
803.906	146.82
804.344	155.42
804.782	147.72
805.22	132.12
805.658	126.62
806.096	148.22
806.533	161.12
806.971	175.52
807.409	220.72
807.847	314.92
808.284	661.12
808.722	1847.12
809.16	3275.52
809.597	3090.92
810.035	5351.42
810.472	5729.52
810.91	2069.82
811.347	781.22
811.785	398.92
812.222	254.52
812.66	193.32
813.097	165.82
813.535	141.52
813.972	131.72
814.409	121.52
814.846	107.52
815.284	113.62
815.721	103.42
816.158	110.62
816.595	118.82
817.032	175.22
817.47	193.12
817.907	171.62
818.344	144.82
818.781	117.82
819.218	103.42
819.655	123.92
820.092	185.32
820.529	212.32
820.966	180.42
821.403	140.12
821.839	107.02
822.276	107.62
822.713	120.82
823.15	140.72
823.587	115.02
824.023	148.52
824.46	301.72
824.897	896.02
825.333	1351.02
825.77	582.12
826.206	226.22
826.643	131.42
827.08	106.02
827.516	82.52
827.953	81.72
828.389	85.22
828.825	73.72
829.262	67.72
829.698	63.92
830.135	63.92
830.571	62.22
831.007	66.92
831.443	67.12
831.88	59.42
832.316	70.92
832.752	64.32
833.188	68.22
833.624	65.22
834.06	68.82
834.497	71.32
834.933	73.02
835.369	73.42
835.805	68.72
836.241	76.32
836.677	79.82
837.112	89.52
837.548	106.82
837.984	128.42
838.42	195.42
838.856	485.52
839.292	1500.52
839.727	2287.42
840.163	1063.42
840.599	916.82
841.034	2014.42
841.47	2126.02
841.906	771.72
842.341	334.32
842.777	227.02
843.212	312.62
843.648	306.32
844.083	154.92
844.519	99.52
844.954	75.82
845.39	59.92
845.825	57.82
846.261	61.72
846.696	56.12
847.131	52.32
847.566	54.92
848.002	51.52
848.437	49.92
848.872	62.02
849.307	63.92
849.742	88.62
850.177	180.52
850.613	554.12
851.048	865.72
851.483	370.22
851.918	158.32
852.353	89.72
852.788	66.52
853.223	52.92
853.657	48.72
854.092	49.22
854.527	40.32
854.962	44.92
855.397	52.22
855.832	52.82
856.266	42.02
856.701	37.72
857.136	38.92
857.57	41.12
858.005	53.22
858.44	56.42
858.874	49.12
859.309	54.92
859.743	41.02
860.178	47.22
860.612	38.32
861.047	49.02
861.481	64.92
861.915	75.62
862.35	49.82
862.784	38.72
863.218	39.62
863.653	37.12
864.087	47.02
864.521	56.82
864.955	74.22
865.39	152.72
865.824	167.32
866.258	113.92
866.692	165.02
867.126	172.82
867.56	99.62
867.994	55.42
868.428	41.52
868.862	42.62
869.296	51.72
869.73	57.12
870.164	55.92
870.598	47.32
871.031	46.22
871.465	32.92
871.899	39.82
872.333	21.92
872.766	28.32
873.2	24.42
873.634	33.42
874.067	28.82
874.501	28.92
874.935	24.92
875.368	30.22
875.802	30.82
876.235	28.32
876.669	22.62
877.102	27.02
877.535	27.12
877.969	28.02
878.402	31.12
878.836	22.52
879.269	23.72
879.702	21.82
880.135	24.12
880.569	23.72
881.002	28.32
881.435	20.62
881.868	19.02
882.301	21.12
882.734	18.72
883.167	21.92
883.601	17.62
884.034	23.92
884.467	13.72
884.899	15.52
885.332	23.22
885.765	16.72
886.198	18.32
886.631	15.12
887.064	22.02
887.497	18.82
887.929	29.02
888.362	19.32
888.795	16.42
889.228	16.72
889.66	21.02
890.093	19.52
890.526	18.52
890.958	12.82
891.391	13.82
891.823	20.72
892.256	18.32
892.688	11.62
893.121	16.42
893.553	15.82
893.985	19.32
894.418	22.12
894.85	19.42
895.282	16.02
895.715	16.72
896.147	14.02
896.579	20.42
897.011	17.62
897.444	21.52
897.876	12.22
898.308	13.12
898.74	15.92
899.172	16.52
899.604	22.42
900.036	19.62
900.468	12.42
900.9	8.12
901.332	19.12
901.764	15.32
902.196	20.02
902.628	21.72
903.06	21.22
903.491	27.92
903.923	25.42
904.355	22.62
904.787	28.42
905.218	23.42
905.65	23.42
906.082	15.92
906.513	14.72
906.945	18.02
907.376	12.02
907.808	22.72
908.239	25.02
908.671	27.52
909.102	27.52
909.534	26.82
909.965	49.92
910.397	96.12
910.828	313.72
911.259	477.32
911.691	210.22
912.122	106.72
912.553	55.12
912.984	34.32
913.415	30.42
913.847	24.22
914.278	16.82
914.709	15.22
915.14	23.72
915.571	21.82
916.002	12.52
916.433	25.12
916.864	20.32
917.295	12.22
917.726	19.52
918.157	17.32
918.587	29.12
919.018	17.52
919.449	17.72
919.88	22.22
920.311	30.32
920.741	47.72
921.172	162.82
921.603	152.72
922.033	70.72
922.464	43.22
922.895	25.82
923.325	24.22
923.756	16.52
924.186	19.22
924.617	25.52
925.047	39.52
925.478	49.02
925.908	41.02
926.338	25.92
926.769	21.92
927.199	21.32
927.629	4.72
928.06	16.62
928.49	10.22
928.92	11.92
929.35	12.42
929.78	12.02
930.21	11.82
930.641	12.92
931.071	13.42
931.501	10.02
931.931	9.02
932.361	8.62
932.791	7.02
933.221	5.72
933.651	2.92
934.08	18.02
934.51	31.32
934.94	16.92
935.37	7.02
935.8	11.92
936.229	7.22
936.659	11.62
937.089	-1.98
937.519	15.72
937.948	21.82
938.378	17.02
938.807	2.82
939.237	-0.88
939.666	14.52
940.096	-0.18
940.525	6.32
940.955	11.22
941.384	3.42
941.814	-1.98
942.243	-3.88
942.672	4.62
943.102	-5.08
943.531	1.12
943.96	6.32
944.39	0.62
944.819	1.92
945.248	1.92
945.677	2.12
946.106	5.92
946.535	6.62
946.964	5.02
947.393	7.12
947.822	3.92
948.251	-3.98
948.68	4.92
949.109	6.52
949.538	1.92
949.967	1.62
950.396	1.62
950.825	-1.88
951.254	1.92
951.682	-5.98
952.111	0.02
952.54	5.32
952.969	-7.38
953.397	-2.08
953.826	-0.48
954.254	-1.48
954.683	0.32
955.112	2.52
955.54	1.42
955.969	2.12
956.397	2.02
956.826	2.22
957.254	2.32
957.682	2.02
958.111	6.82
958.539	2.32
958.967	-2.88
959.396	-5.08
959.824	3.92
960.252	1.92
960.68	-3.58
961.109	1.32
961.537	-1.08
961.965	7.52
962.393	4.52
962.821	-1.68
963.249	-1.68
963.677	5.52
964.105	0.22
964.533	45.72
964.961	44.72
965.389	25.62
965.817	9.52
966.245	5.72
966.672	1.02
967.1	-3.28
967.528	-0.18
967.956	-1.18
968.383	2.72
968.811	-3.88
969.239	-0.38
969.666	0.42
970.094	0.32
970.522	-0.38
970.949	-3.18
971.377	-2.98
971.804	-2.78
972.232	0.02
972.659	-0.98
973.087	-7.28
973.514	-5.18
973.941	-3.28
974.369	10.82
974.796	0.92
975.223	1.72
975.651	1.42
976.078	6.62
976.505	-2.88
976.932	-1.38
977.359	17.02
977.786	16.72
978.214	1.02
978.641	-2.58
979.068	-4.38
979.495	-4.28
979.922	4.52
980.349	0.42
980.776	4.52
981.202	4.92
981.629	7.32
982.056	5.62
982.483	1.32
982.91	8.92
983.337	-11.18
983.763	1.12
984.19	-5.28
984.617	-3.78
985.043	-7.88
985.47	-4.38
985.897	-6.88
986.323	-1.78
986.75	6.62
987.176	-3.08
987.603	1.42
988.029	1.62
988.456	-3.18
988.882	2.52
989.308	-7.58
989.735	-3.38
990.161	0.82
990.587	1.12
991.014	-4.88
991.44	6.82
991.866	-2.98
992.292	0.72
992.719	4.32
993.145	7.22
993.571	-5.88
993.997	-1.18
994.423	-2.38
994.849	-6.68
995.275	-0.68
995.701	-0.28
996.127	-2.88
996.553	4.92
996.979	1.22
997.405	-4.18
997.83	-0.18
998.256	-0.88
998.682	-3.88
999.108	-0.88
999.534	3.12
999.959	0.42
1000.385	-1.88
1000.811	4.52
1001.236	-8.58
1001.662	-11.58
1002.087	-7.18
1002.513	-4.48
1002.938	1.42
1003.364	-5.98
1003.789	-1.88
1004.215	7.72
1004.64	-1.78
1005.066	4.02
1005.491	5.22
1005.916	-0.68
1006.342	-2.28
1006.767	-8.08
1007.192	8.52
1007.617	-1.78
1008.042	2.32
1008.468	-3.58
1008.893	-6.38
1009.318	-4.38
1009.743	-5.18
1010.168	0.72
1010.593	-0.48
1011.018	0.42
1011.443	-4.28
1011.868	3.52
1012.293	-2.58
1012.718	-3.48
1013.143	2.02
1013.567	1.72
1013.992	0.02
1014.417	-8.88
1014.842	2.32
1015.267	-7.38
1015.691	-3.08
1016.116	5.92
1016.541	1.02
1016.965	7.02
1017.39	6.72
1017.814	8.22
1018.239	-1.58
1018.663	-6.38
1019.088	-12.68
1019.512	-3.58
1019.937	-3.48
1020.361	-4.78
1020.785	-10.08
1021.21	-5.48
1021.634	-0.88
1022.058	4.32
1022.483	3.72
1022.907	-1.18
1023.331	-1.98
1023.755	-4.48
1024.179	-1.28
1024.604	-10.18
1025.028	-5.28
1025.452	1.52
1025.876	-2.48
1026.3	2.32
1026.724	-8.28
1027.148	0.22
1027.572	0.22
1027.996	2.12
1028.42	-4.18
1028.843	-8.18
1029.267	-2.48
1029.691	-1.88
1030.115	-2.08
1030.539	-2.68
1030.962	-4.18
1031.386	-11.38
1031.81	0.72
1032.233	-0.98
1032.657	2.12
1033.08	-0.38
1033.504	0.12
1033.927	0.32
1034.351	0.42
1034.774	-3.88
1035.198	0.72
1035.621	-5.28
1036.045	-4.38
1036.468	2.22
1036.891	-5.58
1037.315	-3.58
1037.738	-5.28
1038.161	5.82
1038.584	-3.18
1039.008	-6.28
1039.431	1.02
1039.854	-5.18
1040.277	-11.98
1040.7	-8.88
1041.123	-0.68
1041.546	-3.58
1041.969	-3.18
1042.392	-4.58
1042.815	0.12
1043.238	1.22
1043.661	4.72
1044.084	-6.48
1044.507	-6.58
1044.93	-5.58
1045.352	-6.18
1045.775	-3.08
1046.198	4.52
1046.621	-1.08
1047.043	-0.08
1047.466	6.42
1047.889	-2.78
1048.311	-0.38
1048.734	5.02
1049.156	0.12
1049.579	-3.58
1050.001	3.12
1050.424	1.02
1050.846	-2.58
1051.269	-1.08
1051.691	-2.38
1052.113	-2.48
1052.536	2.92
1052.958	-1.18
1053.38	-3.08
1053.802	-11.98
1054.225	4.22
1054.647	-10.98
1055.069	-3.78
1055.491	1.62
1055.913	-6.58
1056.335	-2.68
1056.757	4.52
1057.179	-2.98
1057.601	-7.28
1058.023	-1.98
1058.445	-3.38
1058.867	-5.08
1059.289	-0.18
1059.711	-9.98
1060.133	-5.98
1060.555	-9.18
1060.976	-2.08
1061.398	-0.88
1061.82	-8.08
1062.241	-6.28
1062.663	-4.38
1063.085	-5.28
1063.506	-1.78
1063.928	-5.28
1064.35	-3.88
1064.771	-9.38
1065.193	-1.78
1065.614	-7.58
1066.035	-1.08
1066.457	-0.68
1066.878	3.42
1067.3	-6.28
1067.721	-3.48
1068.142	-7.58
1068.564	-6.18
1068.985	-7.98
1069.406	-5.98
1069.827	-5.78
1070.248	-0.88
1070.67	-4.18
1071.091	0.22
1071.512	-0.08
1071.933	-4.98
1072.354	-9.28
1072.775	-2.38
1073.196	-7.48
1073.617	-4.28
1074.038	-5.98
1074.459	-0.28
1074.88	-10.68
1075.3	3.12
1075.721	-0.48
1076.142	2.42
1076.563	0.52
1076.983	-13.58
1077.404	-2.78
1077.825	-9.98
1078.246	-0.68
1078.666	-2.08
1079.087	-7.28
1079.507	-4.28
1079.928	3.92
1080.348	-6.18
1080.769	-6.68
1081.189	0.02
1081.61	-3.58
1082.03	-5.18
1082.451	-3.58
1082.871	-1.98
1083.291	-4.58
1083.711	-9.98
1084.132	-8.78
1084.552	-1.78
1084.972	-2.28
1085.392	-13.18
1085.813	-6.98
1086.233	-0.48
1086.653	-8.28
1087.073	-0.78
1087.493	-3.68
1087.913	-5.88
1088.333	-2.28
1088.753	-4.28
1089.173	-1.68
1089.593	-7.38
1090.013	-0.38
1090.433	-0.58
1090.852	0.32
1091.272	-7.88
1091.692	-5.38
1092.112	-6.48
1092.531	-0.28
1092.951	-11.38
1093.371	3.62
1093.79	4.22
1094.21	-3.48
1094.63	-7.28
1095.049	-4.48
1095.469	-4.18
1095.888	-4.58
1096.308	-2.28
1096.727	4.82
1097.146	-8.58
1097.566	4.42
1097.985	1.32
1098.405	-2.68
1098.824	-11.18
1099.243	-8.88
1099.662	-4.68
1100.082	-2.28
1100.501	-0.58
1100.92	-4.08
1101.339	-1.28
1101.758	-7.98
