Data from 20171114-ORNL-Ar_H_NY_Subt18_08-06-37-931.txt Node
Date: Tue Nov 14 08:06:37 EST 2017
User: Ender
Spectrometer: HR+D1039
Trigger mode: 0
Integration Time (sec): 2.730000E-2
Scans to average: 10
Electric dark correction enabled: true
Nonlinearity correction enabled: false
Boxcar width: 0
XAxis mode: Wavelengths
Number of Pixels in Spectrum: 2048
>>>>>Begin Spectral Data<<<<<
187.836	-0.24
188.309	-0.24
188.782	-0.24
189.255	-0.54
189.728	1.96
190.201	2.06
190.674	-0.94
191.147	2.26
191.619	-5.14
192.092	2.86
192.565	1.36
193.038	-0.44
193.511	0.06
193.984	6.76
194.456	-5.24
194.929	-0.64
195.402	-6.44
195.874	2.26
196.347	-0.84
196.82	-2.64
197.292	1.16
197.765	-1.84
198.237	-7.44
198.71	5.16
199.182	0.06
199.655	1.26
200.127	2.26
200.6	-5.74
201.072	-4.64
201.544	-2.74
202.017	-3.94
202.489	3.96
202.961	-2.14
203.433	1.06
203.906	-5.94
204.378	-7.44
204.85	-6.04
205.322	-9.84
205.794	-6.74
206.266	-5.44
206.739	-11.64
207.211	2.26
207.683	-14.64
208.155	-6.14
208.627	-4.24
209.099	-7.94
209.57	-11.04
210.042	-6.24
210.514	-4.54
210.986	-8.64
211.458	-11.14
211.93	-7.74
212.402	1.96
212.873	-9.44
213.345	-10.04
213.817	-12.54
214.288	-4.74
214.76	-9.34
215.232	-1.04
215.703	-3.44
216.175	-3.14
216.646	0.56
217.118	-5.14
217.589	-1.94
218.061	2.16
218.532	-1.74
219.004	-1.34
219.475	-6.14
219.946	-2.24
220.418	-3.74
220.889	2.06
221.36	0.06
221.832	-6.44
222.303	-8.54
222.774	-5.94
223.245	-7.94
223.717	-7.64
224.188	-4.14
224.659	-2.44
225.13	-5.54
225.601	-4.14
226.072	-2.74
226.543	-1.24
227.014	-1.84
227.485	-1.74
227.956	-11.24
228.427	1.26
228.898	6.06
229.369	1.46
229.839	-2.34
230.31	-5.74
230.781	-1.04
231.252	-8.54
231.722	-8.54
232.193	-2.84
232.664	-4.14
233.135	-4.34
233.605	-3.34
234.076	-10.84
234.546	-4.04
235.017	5.66
235.487	0.06
235.958	0.06
236.428	-1.14
236.899	0.96
237.369	4.66
237.84	-9.04
238.31	-0.44
238.78	-6.04
239.251	2.26
239.721	2.36
240.191	-3.04
240.662	-9.34
241.132	-2.34
241.602	-0.14
242.072	0.46
242.542	1.06
243.013	-1.04
243.483	2.86
243.953	-1.94
244.423	-2.04
244.893	-10.74
245.363	2.06
245.833	6.56
246.303	-6.44
246.773	6.16
247.243	-1.64
247.712	-0.04
248.182	3.56
248.652	4.16
249.122	-10.04
249.592	1.56
250.061	6.86
250.531	10.46
251.001	-2.74
251.471	6.96
251.94	7.16
252.41	1.96
252.879	-2.64
253.349	14.96
253.818	7.06
254.288	-1.14
254.757	-3.34
255.227	-6.14
255.696	1.56
256.166	0.66
256.635	4.66
257.105	4.56
257.574	1.16
258.043	5.96
258.513	-4.04
258.982	5.76
259.451	2.36
259.92	6.36
260.389	3.76
260.859	9.46
261.328	0.66
261.797	8.26
262.266	5.06
262.735	3.26
263.204	7.66
263.673	0.26
264.142	4.06
264.611	-2.44
265.08	4.06
265.549	0.66
266.018	2.86
266.487	3.46
266.955	-0.44
267.424	2.76
267.893	5.16
268.362	-0.44
268.83	2.16
269.299	7.86
269.768	5.26
270.236	9.86
270.705	2.46
271.174	9.76
271.642	8.46
272.111	-0.34
272.579	6.46
273.048	10.96
273.516	6.46
273.985	9.36
274.453	12.76
274.922	15.06
275.39	7.46
275.858	0.86
276.327	6.76
276.795	8.96
277.263	7.66
277.731	12.76
278.2	10.96
278.668	14.96
279.136	16.46
279.604	10.76
280.072	9.66
280.54	11.26
281.008	13.06
281.477	18.36
281.945	8.66
282.413	15.96
282.881	13.56
283.348	10.06
283.816	13.06
284.284	8.26
284.752	21.66
285.22	12.66
285.688	18.36
286.156	14.46
286.623	26.26
287.091	11.56
287.559	11.36
288.026	9.96
288.494	16.46
288.962	5.76
289.429	6.96
289.897	18.86
290.364	14.46
290.832	13.56
291.3	9.26
291.767	17.36
292.234	18.16
292.702	11.46
293.169	12.86
293.637	18.76
294.104	21.46
294.571	10.26
295.039	16.36
295.506	15.36
295.973	18.16
296.44	11.16
296.908	16.16
297.375	17.26
297.842	24.46
298.309	18.76
298.776	13.46
299.243	19.66
299.71	13.96
300.177	19.96
300.644	16.46
301.111	22.46
301.578	24.36
302.045	16.06
302.512	21.46
302.979	26.66
303.446	25.76
303.913	12.56
304.379	21.36
304.846	32.66
305.313	26.06
305.78	19.16
306.246	28.06
306.713	26.36
307.18	24.86
307.646	29.26
308.113	24.26
308.579	27.76
309.046	30.76
309.512	25.76
309.979	15.96
310.445	34.46
310.912	38.46
311.378	37.56
311.845	31.06
312.311	34.76
312.777	37.86
313.244	27.36
313.71	38.76
314.176	29.46
314.642	30.46
315.109	27.46
315.575	37.96
316.041	41.26
316.507	29.56
316.973	40.86
317.439	33.66
317.905	39.56
318.371	39.46
318.837	35.26
319.303	38.06
319.769	41.76
320.235	37.36
320.701	35.56
321.167	38.56
321.633	34.56
322.099	32.56
322.564	40.76
323.03	38.26
323.496	45.06
323.962	42.76
324.427	38.66
324.893	44.46
325.359	33.56
325.824	37.36
326.29	39.36
326.755	37.66
327.221	43.56
327.686	38.26
328.152	51.76
328.617	47.56
329.083	44.96
329.548	49.46
330.014	47.26
330.479	40.66
330.944	39.56
331.41	45.66
331.875	44.06
332.34	44.26
332.805	42.16
333.271	45.76
333.736	45.46
334.201	53.86
334.666	54.56
335.131	53.66
335.596	53.86
336.061	50.46
336.526	42.46
336.991	54.26
337.456	53.86
337.921	51.06
338.386	43.16
338.851	55.06
339.316	48.36
339.781	51.66
340.246	52.76
340.711	56.16
341.175	52.86
341.64	48.26
342.105	59.26
342.569	62.96
343.034	60.56
343.499	64.26
343.963	62.26
344.428	64.66
344.893	64.66
345.357	58.56
345.822	62.66
346.286	69.06
346.751	73.76
347.215	73.36
347.679	80.56
348.144	97.86
348.608	89.26
349.073	75.36
349.537	77.36
350.001	84.46
350.465	95.56
350.93	85.46
351.394	81.96
351.858	79.66
352.322	85.06
352.786	84.66
353.25	104.06
353.715	115.66
354.179	109.36
354.643	128.76
355.107	123.96
355.571	112.06
356.035	103.76
356.498	129.56
356.962	121.56
357.426	128.96
357.89	117.56
358.354	94.66
358.818	83.96
359.281	75.06
359.745	78.06
360.209	76.46
360.673	78.76
361.136	80.96
361.6	86.16
362.064	85.86
362.527	89.86
362.991	94.06
363.454	78.66
363.918	76.06
364.381	83.66
364.845	86.26
365.308	89.86
365.772	92.16
366.235	87.86
366.698	88.66
367.162	89.46
367.625	89.36
368.088	89.36
368.552	93.06
369.015	93.66
369.478	99.66
369.941	102.06
370.404	100.06
370.867	97.66
371.331	106.36
371.794	114.96
372.257	100.06
372.72	107.36
373.183	103.76
373.646	95.96
374.109	101.26
374.572	100.36
375.035	104.36
375.497	108.96
375.96	109.96
376.423	108.06
376.886	110.86
377.349	114.46
377.811	106.56
378.274	109.26
378.737	107.06
379.199	112.86
379.662	108.06
380.125	111.96
380.587	108.86
381.05	114.46
381.512	114.96
381.975	132.56
382.437	123.46
382.9	120.76
383.362	127.76
383.825	133.16
384.287	129.46
384.75	128.06
385.212	132.06
385.674	140.06
386.136	132.76
386.599	125.76
387.061	128.16
387.523	128.56
387.985	129.86
388.447	135.76
388.91	128.96
389.372	133.86
389.834	139.06
390.296	138.16
390.758	140.36
391.22	142.56
391.682	156.66
392.144	162.56
392.606	156.16
393.068	149.06
393.529	160.66
393.991	148.86
394.453	138.66
394.915	144.06
395.377	141.96
395.838	139.56
396.3	138.46
396.762	147.96
397.224	144.46
397.685	137.56
398.147	140.36
398.608	137.46
399.07	135.36
399.531	136.86
399.993	153.96
400.454	161.36
400.916	157.26
401.377	148.46
401.839	161.36
402.3	166.56
402.762	172.06
403.223	187.86
403.684	175.56
404.145	163.86
404.607	167.56
405.068	170.16
405.529	172.26
405.99	193.96
406.451	190.76
406.913	184.66
407.374	176.26
407.835	161.86
408.296	177.06
408.757	177.66
409.218	199.66
409.679	185.26
410.14	184.86
410.601	175.86
411.062	186.86
411.522	189.36
411.983	185.66
412.444	185.76
412.905	184.56
413.366	198.46
413.826	209.26
414.287	235.26
414.748	283.06
415.208	272.56
415.669	228.26
416.13	217.26
416.59	215.46
417.051	234.06
417.511	245.36
417.972	260.06
418.432	259.46
418.893	313.36
419.353	269.36
419.814	216.96
420.274	196.96
420.734	194.06
421.195	209.56
421.655	209.66
422.115	209.46
422.576	213.16
423.036	211.16
423.496	221.96
423.956	233.46
424.416	243.86
424.876	285.06
425.336	276.86
425.797	276.26
426.257	264.06
426.717	254.66
427.177	251.26
427.637	236.86
428.097	255.36
428.556	256.36
429.016	281.06
429.476	271.26
429.936	281.96
430.396	287.46
430.856	301.76
431.315	329.36
431.775	367.06
432.235	398.16
432.694	365.26
433.154	376.26
433.614	403.16
434.073	357.96
434.533	299.06
434.993	287.06
435.452	301.26
435.912	317.56
436.371	302.96
436.83	292.06
437.29	288.86
437.749	265.46
438.209	261.86
438.668	294.26
439.127	306.46
439.587	283.06
440.046	268.16
440.505	280.56
440.964	298.26
441.424	358.46
441.883	330.66
442.342	282.56
442.801	248.86
443.26	232.86
443.719	248.26
444.178	237.66
444.637	227.76
445.096	244.06
445.555	243.46
446.014	247.26
446.473	250.86
446.932	250.36
447.391	242.86
447.849	244.36
448.308	244.16
448.767	239.96
449.226	263.66
449.685	265.56
450.143	268.46
450.602	255.96
451.061	255.86
451.519	256.86
451.978	251.66
452.436	252.16
452.895	261.66
453.353	271.66
453.812	256.36
454.27	256.56
454.729	268.66
455.187	262.96
455.646	267.26
456.104	266.26
456.562	282.26
457.021	289.86
457.479	282.86
457.937	300.16
458.395	278.56
458.854	271.36
459.312	277.16
459.77	295.56
460.228	287.16
460.686	267.86
461.144	271.66
461.602	266.66
462.06	263.26
462.518	270.76
462.976	273.66
463.434	283.46
463.892	287.86
464.35	306.56
464.808	314.76
465.266	301.26
465.724	299.96
466.181	297.36
466.639	295.46
467.097	314.86
467.555	324.46
468.012	324.46
468.47	333.56
468.928	354.66
469.385	367.26
469.843	378.56
470.3	378.66
470.758	392.86
471.215	418.06
471.673	441.26
472.13	438.76
472.588	455.66
473.045	406.76
473.503	410.36
473.96	429.66
474.417	435.66
474.875	471.06
475.332	509.86
475.789	502.16
476.246	506.96
476.704	521.56
477.161	556.66
477.618	573.26
478.075	602.96
478.532	656.66
478.989	728.06
479.446	842.26
479.903	805.56
480.36	844.36
480.817	890.76
481.274	983.56
481.731	1085.16
482.188	1163.26
482.645	1292.56
483.102	1383.76
483.558	1510.06
484.015	1542.06
484.472	1512.06
484.929	1478.66
485.385	1438.86
485.842	1399.36
486.299	1360.46
486.755	1305.76
487.212	1122.56
487.668	950.36
488.125	882.26
488.582	822.96
489.038	789.86
489.494	744.56
489.951	731.16
490.407	714.66
490.864	690.36
491.32	679.86
491.776	684.96
492.233	697.66
492.689	659.76
493.145	658.26
493.602	654.76
494.058	666.56
494.514	665.26
494.97	681.56
495.426	702.06
495.882	681.26
496.338	663.46
496.794	677.16
497.251	665.56
497.707	684.86
498.163	692.36
498.618	693.16
499.074	693.46
499.53	723.46
499.986	728.16
500.442	691.56
500.898	664.46
501.354	658.16
501.809	670.76
502.265	670.96
502.721	677.96
503.177	692.06
503.632	695.16
504.088	697.96
504.543	718.86
504.999	745.26
505.455	708.16
505.91	681.66
506.366	687.06
506.821	687.26
507.277	686.76
507.732	692.46
508.187	689.26
508.643	686.46
509.098	707.46
509.553	717.26
510.009	727.66
510.464	723.06
510.919	753.46
511.375	744.16
511.83	770.66
512.285	790.06
512.74	831.16
513.195	845.86
513.65	836.26
514.105	830.36
514.56	832.86
515.015	852.16
515.47	861.06
515.925	857.56
516.38	854.06
516.835	863.56
517.29	839.26
517.745	832.86
518.2	829.46
518.655	823.96
519.109	813.66
519.564	792.56
520.019	791.56
520.474	783.86
520.928	787.46
521.383	785.36
521.838	766.16
522.292	776.66
522.747	771.56
523.201	767.26
523.656	758.26
524.11	751.46
524.565	750.46
525.019	743.46
525.474	753.86
525.928	750.86
526.382	748.56
526.837	762.76
527.291	769.46
527.745	763.36
528.2	764.16
528.654	743.06
529.108	751.76
529.562	749.26
530.016	743.56
530.47	756.26
530.925	749.86
531.379	750.46
531.833	766.86
532.287	762.86
532.741	756.36
533.195	762.66
533.649	777.56
534.103	795.76
534.556	779.86
535.01	768.26
535.464	764.66
535.918	785.16
536.372	784.46
536.826	778.56
537.279	766.26
537.733	771.96
538.187	781.16
538.64	766.66
539.094	779.26
539.548	786.66
540.001	780.66
540.455	787.36
540.908	797.56
541.362	803.56
541.815	805.46
542.269	817.96
542.722	828.66
543.175	824.86
543.629	831.26
544.082	861.36
544.536	861.16
544.989	848.96
545.442	864.36
545.895	854.86
546.349	864.16
546.802	850.86
547.255	868.56
547.708	881.36
548.161	890.96
548.614	893.56
549.067	908.06
549.52	891.66
549.973	886.96
550.426	871.76
550.879	870.26
551.332	891.86
551.785	887.76
552.238	882.36
552.691	892.56
553.144	913.26
553.596	927.26
554.049	931.96
554.502	965.76
554.955	997.66
555.407	977.66
555.86	981.56
556.313	974.66
556.765	962.06
557.218	970.46
557.67	952.06
558.123	951.86
558.576	956.66
559.028	954.46
559.48	962.66
559.933	954.46
560.385	920.76
560.838	880.66
561.29	857.96
561.742	852.86
562.195	837.26
562.647	836.06
563.099	840.16
563.551	838.26
564.004	863.26
564.456	834.86
564.908	827.16
565.36	797.56
565.812	801.06
566.264	778.76
566.716	778.46
567.168	770.36
567.62	773.36
568.072	754.66
568.524	750.06
568.976	744.46
569.428	734.76
569.88	727.56
570.332	736.56
570.784	750.26
571.235	740.26
571.687	754.06
572.139	765.36
572.59	764.66
573.042	780.86
573.494	770.56
573.945	763.16
574.397	746.86
574.849	746.76
575.3	747.66
575.752	751.36
576.203	737.56
576.655	739.26
577.106	733.96
577.557	720.56
578.009	720.76
578.46	725.36
578.912	716.36
579.363	729.06
579.814	724.06
580.265	720.36
580.717	726.36
581.168	729.86
581.619	726.96
582.07	736.26
582.521	732.86
582.972	729.16
583.423	730.86
583.875	736.26
584.326	738.26
584.777	752.36
585.227	781.76
585.678	788.06
586.129	803.86
586.58	833.26
587.031	864.36
587.482	893.96
587.933	930.86
588.384	906.36
588.834	846.96
589.285	833.16
589.736	825.96
590.186	828.26
590.637	822.06
591.088	808.36
591.538	785.46
591.989	783.56
592.439	782.26
592.89	773.56
593.34	767.26
593.791	764.76
594.241	754.76
594.692	756.36
595.142	750.56
595.593	750.96
596.043	744.26
596.493	755.66
596.943	758.26
597.394	780.56
597.844	778.56
598.294	790.26
598.744	808.46
599.195	827.96
599.645	882.16
600.095	934.16
600.545	996.16
600.995	1035.96
601.445	1097.56
601.895	1166.06
602.345	1219.36
602.795	1189.36
603.245	1152.86
603.695	1101.76
604.145	1045.76
604.594	987.76
605.044	932.36
605.494	872.16
605.944	818.56
606.393	805.16
606.843	795.66
607.293	793.26
607.743	789.06
608.192	798.86
608.642	803.06
609.091	812.36
609.541	821.96
609.99	812.76
610.44	806.56
610.889	761.56
611.339	743.36
611.788	728.36
612.238	736.46
612.687	742.96
613.136	746.56
613.586	763.76
614.035	749.76
614.484	763.56
614.933	748.36
615.383	750.86
615.832	764.46
616.281	753.36
616.73	723.86
617.179	692.96
617.628	684.96
618.077	674.46
618.526	656.26
618.975	649.36
619.424	656.46
619.873	652.86
620.322	651.06
620.771	655.76
621.22	652.26
621.669	642.76
622.118	634.56
622.567	623.96
623.015	599.36
623.464	609.86
623.913	596.26
624.361	588.86
624.81	597.16
625.259	592.76
625.707	595.66
626.156	595.96
626.604	620.96
627.053	604.26
627.501	606.66
627.95	618.06
628.398	617.46
628.847	607.06
629.295	609.86
629.744	619.76
630.192	608.96
630.64	600.66
631.089	583.16
631.537	578.06
631.985	565.56
632.433	570.56
632.881	563.16
633.33	568.16
633.778	555.26
634.226	559.46
634.674	580.66
635.122	571.36
635.57	590.96
636.018	598.46
636.466	601.46
636.914	583.86
637.362	608.66
637.81	606.56
638.258	620.16
638.705	624.66
639.153	651.16
639.601	664.56
640.049	693.76
640.497	717.96
640.944	749.76
641.392	688.46
641.84	661.56
642.287	620.86
642.735	603.46
643.182	605.16
643.63	606.56
644.078	606.96
644.525	608.66
644.973	622.36
645.42	633.66
645.867	663.56
646.315	674.16
646.762	692.16
647.21	728.16
647.657	740.06
648.104	779.46
648.551	800.46
648.999	861.06
649.446	937.36
649.893	1018.26
650.34	1172.36
650.787	1384.56
651.234	1715.16
651.682	2192.76
652.129	2957.06
652.576	4197.76
653.023	6115.36
653.47	8264.86
653.917	10323.66
654.363	11879.46
654.81	13145.36
655.257	12435.86
655.704	8279.76
656.151	4993.86
656.598	3269.46
657.044	2354.96
657.491	1846.96
657.938	1480.56
658.385	1248.56
658.831	1086.06
659.278	980.76
659.724	876.86
660.171	817.56
660.618	746.36
661.064	712.56
661.511	693.46
661.957	688.16
662.404	677.96
662.85	685.76
663.296	654.26
663.743	586.36
664.189	562.96
664.635	571.96
665.082	569.16
665.528	558.46
665.974	548.16
666.42	535.76
666.867	542.46
667.313	519.76
667.759	498.76
668.205	474.96
668.651	492.46
669.097	482.56
669.543	468.26
669.989	466.76
670.435	477.46
670.881	476.76
671.327	489.26
671.773	508.96
672.219	524.36
672.665	576.06
673.11	632.26
673.556	678.36
674.002	708.46
674.448	707.76
674.893	585.46
675.339	513.36
675.785	479.96
676.23	451.56
676.676	419.36
677.122	413.06
677.567	393.56
678.013	395.46
678.458	385.26
678.904	390.56
679.349	372.16
679.794	381.66
680.24	380.06
680.685	372.36
681.131	379.46
681.576	374.86
682.021	378.46
682.466	378.76
682.912	375.96
683.357	376.56
683.802	412.86
684.247	440.26
684.692	494.76
685.137	530.46
685.583	578.86
686.028	599.86
686.473	553.96
686.918	476.26
687.363	443.86
687.807	418.66
688.252	393.86
688.697	387.76
689.142	359.66
689.587	357.86
690.032	352.86
690.477	365.06
690.921	378.66
691.366	405.86
691.811	431.06
692.255	457.46
692.7	490.16
693.145	537.06
693.589	742.16
694.034	1208.76
694.478	1666.76
694.923	1864.06
695.367	2427.46
695.812	1277.56
696.256	531.46
696.701	392.36
697.145	367.56
697.59	344.86
698.034	341.26
698.478	347.76
698.922	339.56
699.367	351.16
699.811	357.06
700.255	380.16
700.699	409.16
701.143	448.76
701.588	513.36
702.032	547.06
702.476	548.66
702.92	523.36
703.364	527.26
703.808	683.96
704.252	1118.56
704.696	1559.76
705.14	1791.26
705.584	2298.06
706.027	1144.66
706.471	558.96
706.915	428.36
707.359	376.56
707.803	339.16
708.246	330.06
708.69	333.26
709.134	335.96
709.577	333.36
710.021	339.36
710.465	331.76
710.908	321.26
711.352	323.36
711.795	337.36
712.239	377.56
712.682	412.16
713.126	448.66
713.569	487.46
714.012	379.86
714.456	331.86
714.899	302.06
715.342	291.06
715.786	280.76
716.229	276.66
716.672	270.76
717.115	266.66
717.558	263.16
718.002	265.16
718.445	283.26
718.888	299.06
719.331	309.86
719.774	320.76
720.217	326.86
720.66	301.56
721.103	282.56
721.546	276.66
721.989	262.66
722.432	250.96
722.874	253.46
723.317	240.46
723.76	244.76
724.203	268.26
724.645	334.56
725.088	472.96
725.531	605.86
725.974	693.86
726.416	587.96
726.859	329.06
727.301	264.16
727.744	252.06
728.187	239.56
728.629	252.06
729.071	262.96
729.514	276.86
729.956	288.36
730.399	306.36
730.841	306.06
731.283	293.76
731.726	286.16
732.168	280.56
732.61	287.86
733.053	306.86
733.495	341.06
733.937	360.76
734.379	429.26
734.821	465.26
735.263	580.26
735.705	892.16
736.148	1688.16
736.59	2776.76
737.032	3301.06
737.474	2669.96
737.916	863.36
738.357	461.46
738.799	348.66
739.241	319.66
739.683	312.16
740.125	314.86
740.567	316.86
741.008	330.66
741.45	342.36
741.892	340.46
742.334	378.16
742.775	386.26
743.217	371.66
743.658	300.86
744.1	274.96
744.542	286.56
744.983	342.26
745.425	369.96
745.866	371.96
746.307	304.06
746.749	295.76
747.19	346.36
747.632	486.66
748.073	933.56
748.514	2007.36
748.956	3053.26
749.397	3842.56
749.838	3200.16
750.279	3177.66
750.72	1615.16
751.162	580.36
751.603	342.56
752.044	280.06
752.485	239.46
752.926	222.36
753.367	213.16
753.808	205.26
754.249	203.16
754.69	199.66
755.131	190.96
755.572	187.26
756.013	189.56
756.453	202.26
756.894	203.16
757.335	203.56
757.776	212.06
758.216	208.26
758.657	221.86
759.098	219.86
759.538	242.56
759.979	282.76
760.42	401.76
760.86	754.36
761.301	1959.36
761.741	4759.96
762.182	6899.46
762.622	4864.96
763.063	1406.76
763.503	573.36
763.943	348.76
764.384	300.86
764.824	272.66
765.264	264.86
765.705	231.16
766.145	202.36
766.585	196.96
767.025	182.86
767.465	179.06
767.906	193.96
768.346	221.56
768.786	231.36
769.226	234.86
769.666	332.26
770.106	648.16
770.546	1667.36
770.986	2825.86
771.426	2528.46
771.866	851.66
772.306	345.56
772.745	223.06
773.185	178.46
773.625	172.56
774.065	160.66
774.505	174.16
774.944	221.06
775.384	382.66
775.824	623.36
776.263	606.16
776.703	303.56
777.142	168.76
777.582	146.46
778.021	130.56
778.461	133.76
778.9	137.56
779.34	135.56
779.779	125.36
780.219	114.86
780.658	117.86
781.097	120.96
781.537	115.26
781.976	113.26
782.415	111.06
782.855	109.16
783.294	112.36
783.733	110.56
784.172	114.26
784.611	106.66
785.05	113.46
785.489	117.26
785.928	127.36
786.367	132.66
786.806	126.86
787.245	138.16
787.684	142.26
788.123	155.86
788.562	141.76
789.001	135.96
789.44	121.36
789.879	127.96
790.317	131.86
790.756	142.76
791.195	136.46
791.634	157.26
792.072	216.66
792.511	394.06
792.95	1063.96
793.388	2254.86
793.827	2049.46
794.265	710.46
794.704	305.06
795.142	199.46
795.581	162.16
796.019	147.56
796.458	141.26
796.896	134.06
797.334	137.26
797.773	165.86
798.211	236.66
798.649	467.36
799.087	1096.46
799.526	1704.26
799.964	2150.26
800.402	2157.86
800.84	812.46
801.278	320.46
801.716	199.96
802.154	156.26
802.592	161.26
803.03	150.66
803.468	142.16
803.906	156.06
804.344	160.26
804.782	153.06
805.22	146.06
805.658	138.96
806.096	152.16
806.533	166.36
806.971	184.26
807.409	231.66
807.847	338.76
808.284	713.26
808.722	1990.26
809.16	3534.66
809.597	3366.46
810.035	5794.66
810.472	6184.46
810.91	2235.46
811.347	853.06
811.785	435.96
812.222	280.06
812.66	211.46
813.097	178.76
813.535	149.76
813.972	140.06
814.409	135.86
814.846	120.36
815.284	115.66
815.721	108.06
816.158	116.56
816.595	114.96
817.032	169.16
817.47	192.26
817.907	152.66
818.344	109.36
818.781	106.16
819.218	103.56
819.655	129.86
820.092	207.66
820.529	236.26
820.966	184.46
821.403	137.96
821.839	110.66
822.276	104.26
822.713	140.96
823.15	147.16
823.587	123.56
824.023	153.76
824.46	324.66
824.897	957.06
825.333	1444.66
825.77	625.96
826.206	250.96
826.643	145.66
827.08	108.46
827.516	85.56
827.953	84.66
828.389	84.26
828.825	76.86
829.262	76.16
829.698	72.66
830.135	72.16
830.571	66.46
831.007	64.46
831.443	67.16
831.88	64.96
832.316	64.86
832.752	68.66
833.188	67.46
833.624	73.76
834.06	75.06
834.497	70.56
834.933	76.86
835.369	84.06
835.805	72.96
836.241	83.06
836.677	87.66
837.112	99.86
837.548	113.26
837.984	144.46
838.42	213.06
838.856	537.06
839.292	1619.36
839.727	2460.26
840.163	1145.86
840.599	995.66
841.034	2154.26
841.47	2257.16
841.906	833.66
842.341	352.86
842.777	214.06
843.212	217.26
843.648	199.36
844.083	120.76
844.519	86.26
844.954	74.66
845.39	63.46
845.825	56.06
846.261	65.16
846.696	57.36
847.131	55.26
847.566	62.86
848.002	56.26
848.437	54.56
848.872	60.36
849.307	65.16
849.742	90.56
850.177	194.36
850.613	588.76
851.048	940.86
851.483	412.86
851.918	169.86
852.353	95.16
852.788	55.36
853.223	50.96
853.657	57.76
854.092	50.46
854.527	41.56
854.962	47.46
855.397	51.76
855.832	52.46
856.266	41.36
856.701	46.26
857.136	37.96
857.57	47.26
858.005	52.36
858.44	59.96
858.874	44.76
859.309	54.16
859.743	41.76
860.178	49.86
860.612	46.86
861.047	62.76
861.481	74.26
861.915	87.56
862.35	54.36
862.784	33.36
863.218	39.86
863.653	34.46
864.087	45.86
864.521	57.86
864.955	74.36
865.39	158.56
865.824	188.96
866.258	124.26
866.692	186.26
867.126	203.36
867.56	121.06
867.994	57.56
868.428	44.56
868.862	46.86
869.296	59.66
869.73	61.86
870.164	61.26
870.598	51.46
871.031	41.96
871.465	34.36
871.899	36.06
872.333	26.36
872.766	30.26
873.2	26.76
873.634	28.76
874.067	27.06
874.501	32.06
874.935	33.56
875.368	31.96
875.802	28.16
876.235	27.56
876.669	26.46
877.102	26.26
877.535	26.76
877.969	21.66
878.402	23.06
878.836	20.06
879.269	28.06
879.702	25.26
880.135	20.46
880.569	20.96
881.002	25.56
881.435	27.06
881.868	21.96
882.301	24.96
882.734	16.26
883.167	25.26
883.601	20.16
884.034	23.26
884.467	14.26
884.899	17.76
885.332	17.26
885.765	14.26
886.198	21.46
886.631	18.26
887.064	15.46
887.497	19.56
887.929	25.26
888.362	16.86
888.795	13.86
889.228	21.66
889.66	19.96
890.093	23.46
890.526	16.56
890.958	16.86
891.391	15.46
891.823	18.16
892.256	21.56
892.688	14.46
893.121	14.56
893.553	19.26
893.985	23.36
894.418	13.56
894.85	14.16
895.282	17.66
895.715	25.26
896.147	19.36
896.579	15.96
897.011	21.36
897.444	22.26
897.876	12.66
898.308	15.06
898.74	15.36
899.172	14.46
899.604	21.26
900.036	18.96
900.468	16.76
900.9	18.86
901.332	19.16
901.764	17.66
902.196	23.36
902.628	19.16
903.06	19.66
903.491	35.86
903.923	22.26
904.355	20.56
904.787	26.96
905.218	20.16
905.65	26.46
906.082	13.26
906.513	14.86
906.945	19.56
907.376	14.76
907.808	16.86
908.239	23.26
908.671	21.76
909.102	28.46
909.534	27.86
909.965	53.26
910.397	101.56
910.828	332.16
911.259	502.86
911.691	233.16
912.122	116.26
912.553	59.16
912.984	35.66
913.415	30.66
913.847	22.76
914.278	19.16
914.709	20.16
915.14	20.66
915.571	16.86
916.002	15.46
916.433	20.86
916.864	13.16
917.295	13.66
917.726	21.86
918.157	18.86
918.587	31.26
919.018	21.26
919.449	25.26
919.88	22.96
920.311	33.46
920.741	53.96
921.172	178.76
921.603	162.86
922.033	80.56
922.464	51.76
922.895	29.16
923.325	23.46
923.756	11.56
924.186	15.56
924.617	20.16
925.047	19.06
925.478	26.36
925.908	31.56
926.338	13.66
926.769	15.26
927.199	11.66
927.629	6.46
928.06	20.76
928.49	17.46
928.92	6.46
929.35	7.46
929.78	11.16
930.21	11.06
930.641	9.16
931.071	11.36
931.501	4.06
931.931	14.96
932.361	7.06
932.791	8.56
933.221	4.16
933.651	7.46
934.08	18.76
934.51	36.16
934.94	10.16
935.37	15.26
935.8	10.36
936.229	11.26
936.659	14.96
937.089	-0.54
937.519	15.46
937.948	22.26
938.378	21.56
938.807	7.96
939.237	7.56
939.666	8.76
940.096	0.46
940.525	4.96
940.955	-0.14
941.384	10.56
941.814	-0.74
942.243	-4.94
942.672	3.06
943.102	-2.44
943.531	1.46
943.96	4.36
944.39	4.46
944.819	-7.24
945.248	-0.14
945.677	4.56
946.106	5.66
946.535	4.76
946.964	-3.84
947.393	8.06
947.822	7.46
948.251	2.26
948.68	4.56
949.109	10.76
949.538	3.16
949.967	-0.64
950.396	6.76
950.825	2.16
951.254	-3.14
951.682	-2.64
952.111	9.96
952.54	6.26
952.969	1.36
953.397	-4.64
953.826	0.76
954.254	0.86
954.683	3.26
955.112	1.56
955.54	3.66
955.969	1.06
956.397	0.66
956.826	0.66
957.254	3.56
957.682	-0.04
958.111	5.76
958.539	-5.34
958.967	0.06
959.396	-5.14
959.824	1.56
960.252	0.06
960.68	-6.64
961.109	-3.34
961.537	0.56
961.965	-4.04
962.393	3.56
962.821	0.96
963.249	0.66
963.677	10.16
964.105	5.96
964.533	47.76
964.961	43.26
965.389	23.76
965.817	10.66
966.245	1.86
966.672	0.16
967.1	-5.14
967.528	-1.84
967.956	-1.94
968.383	-3.94
968.811	-0.44
969.239	-0.54
969.666	-7.24
970.094	1.86
970.522	-1.54
970.949	1.86
971.377	-8.54
971.804	-3.54
972.232	-4.04
972.659	-0.54
973.087	-1.34
973.514	-1.84
973.941	-6.64
974.369	1.76
974.796	0.46
975.223	0.86
975.651	3.86
976.078	2.36
976.505	-4.94
976.932	1.46
977.359	12.96
977.786	20.36
978.214	-2.64
978.641	0.26
979.068	-4.34
979.495	-7.54
979.922	-3.44
980.349	-4.64
980.776	5.56
981.202	-0.74
981.629	5.16
982.056	1.46
982.483	-7.04
982.91	6.36
983.337	-4.54
983.763	5.46
984.19	-4.44
984.617	-3.74
985.043	-8.84
985.47	3.76
985.897	-1.24
986.323	-4.24
986.75	6.36
987.176	-1.54
987.603	1.66
988.029	-6.34
988.456	-4.64
988.882	0.46
989.308	-5.54
989.735	-4.84
990.161	-4.44
990.587	-2.14
991.014	1.46
991.44	5.26
991.866	-3.94
992.292	-4.64
992.719	-7.14
993.145	4.36
993.571	-8.14
993.997	-7.74
994.423	-4.74
994.849	-1.94
995.275	10.36
995.701	-2.64
996.127	-3.34
996.553	5.06
996.979	-1.74
997.405	4.06
997.83	-5.04
998.256	-1.24
998.682	-2.14
999.108	-8.94
999.534	-5.34
999.959	-0.54
1000.385	-5.54
1000.811	-2.34
1001.236	-7.04
1001.662	-7.24
1002.087	-11.04
1002.513	0.26
1002.938	6.86
1003.364	-4.64
1003.789	0.86
1004.215	3.16
1004.64	-6.04
1005.066	3.06
1005.491	0.36
1005.916	-3.34
1006.342	-3.94
1006.767	-8.54
1007.192	3.16
1007.617	-5.34
1008.042	-5.34
1008.468	-5.94
1008.893	-5.14
1009.318	0.26
1009.743	-5.24
1010.168	4.16
1010.593	4.36
1011.018	-9.24
1011.443	-7.74
1011.868	4.16
1012.293	-4.94
1012.718	-2.64
1013.143	4.96
1013.567	0.96
1013.992	3.96
1014.417	-8.44
1014.842	3.06
1015.267	-3.94
1015.691	-1.64
1016.116	3.76
1016.541	-2.24
1016.965	3.76
1017.39	-1.04
1017.814	-6.94
1018.239	-0.24
1018.663	-3.14
1019.088	-10.44
1019.512	-2.74
1019.937	-0.94
1020.361	-1.64
1020.785	-10.24
1021.21	-1.54
1021.634	-5.94
1022.058	-3.34
1022.483	0.66
1022.907	-2.34
1023.331	-1.94
1023.755	1.26
1024.179	-0.74
1024.604	-7.74
1025.028	-7.04
1025.452	0.66
1025.876	2.06
1026.3	6.36
1026.724	-13.24
1027.148	-4.14
1027.572	-2.64
1027.996	1.46
1028.42	-1.74
1028.843	-1.74
1029.267	-6.84
1029.691	-5.74
1030.115	-7.24
1030.539	-6.24
1030.962	-4.94
1031.386	-10.94
1031.81	-0.04
1032.233	3.46
1032.657	-4.44
1033.08	1.46
1033.504	1.26
1033.927	-0.34
1034.351	0.06
1034.774	-8.04
1035.198	-0.14
1035.621	-8.84
1036.045	-9.74
1036.468	-0.04
1036.891	-7.84
1037.315	-8.94
1037.738	-4.74
1038.161	4.46
1038.584	-4.34
1039.008	-3.44
1039.431	3.16
1039.854	-5.64
1040.277	-5.34
1040.7	-1.94
1041.123	-3.34
1041.546	-4.94
1041.969	-5.34
1042.392	-4.84
1042.815	-1.34
1043.238	1.66
1043.661	2.16
1044.084	-3.84
1044.507	-2.04
1044.93	-6.74
1045.352	-2.84
1045.775	-2.44
1046.198	1.56
1046.621	-2.04
1047.043	2.86
1047.466	5.56
1047.889	-4.44
1048.311	-1.44
1048.734	2.26
1049.156	-0.34
1049.579	-3.34
1050.001	-2.84
1050.424	1.16
1050.846	-11.54
1051.269	-11.14
1051.691	-4.04
1052.113	-2.94
1052.536	-0.64
1052.958	3.26
1053.38	-0.74
1053.802	-7.84
1054.225	-1.24
1054.647	-10.64
1055.069	-6.44
1055.491	1.06
1055.913	-8.24
1056.335	-0.94
1056.757	0.66
1057.179	-10.84
1057.601	-10.14
1058.023	-2.64
1058.445	-5.14
1058.867	-7.04
1059.289	-10.24
1059.711	-5.74
1060.133	3.96
1060.555	0.56
1060.976	-6.74
1061.398	-7.44
1061.82	-8.74
1062.241	-4.44
1062.663	-9.44
1063.085	-2.44
1063.506	3.36
1063.928	-2.84
1064.35	-5.74
1064.771	-10.44
1065.193	-2.14
1065.614	-9.34
1066.035	-1.54
1066.457	-6.94
1066.878	1.26
1067.3	-3.84
1067.721	-1.04
1068.142	-4.14
1068.564	-5.54
1068.985	-1.94
1069.406	-10.54
1069.827	-3.24
1070.248	-1.94
1070.67	-3.04
1071.091	-7.34
1071.512	-8.54
1071.933	-7.34
1072.354	-6.44
1072.775	-2.34
1073.196	-4.14
1073.617	-1.84
1074.038	-4.54
1074.459	-3.94
1074.88	-7.04
1075.3	-2.04
1075.721	-5.24
1076.142	-6.44
1076.563	1.76
1076.983	-5.24
1077.404	-8.44
1077.825	-12.14
1078.246	-3.24
1078.666	-9.04
1079.087	-1.84
1079.507	-8.54
1079.928	-1.54
1080.348	-1.34
1080.769	-4.44
1081.189	-1.94
1081.61	-7.94
1082.03	-10.14
1082.451	-4.54
1082.871	-3.74
1083.291	-5.94
1083.711	-5.74
1084.132	-5.44
1084.552	-2.94
1084.972	6.46
1085.392	-12.14
1085.813	-8.94
1086.233	-6.94
1086.653	-7.54
1087.073	-1.84
1087.493	-3.14
1087.913	-7.14
1088.333	-7.74
1088.753	-6.34
1089.173	0.76
1089.593	-0.84
1090.013	-0.34
1090.433	-4.64
1090.852	-5.24
1091.272	-4.54
1091.692	0.26
1092.112	-5.54
1092.531	-11.14
1092.951	-10.54
1093.371	-0.04
1093.79	-3.24
1094.21	-11.64
1094.63	-9.24
1095.049	-3.84
1095.469	-7.54
1095.888	-7.84
1096.308	2.36
1096.727	3.56
1097.146	-10.44
1097.566	-1.44
1097.985	-8.84
1098.405	-4.54
1098.824	-8.84
1099.243	-12.14
1099.662	-11.94
1100.082	-5.44
1100.501	2.06
1100.92	-6.54
1101.339	-2.04
1101.758	-10.64
