Data from 20171114-ORNL-Ar_H_NY_Subt18_08-08-41-619.txt Node
Date: Tue Nov 14 08:08:41 EST 2017
User: Ender
Spectrometer: HR+D1039
Trigger mode: 0
Integration Time (sec): 2.730000E-2
Scans to average: 10
Electric dark correction enabled: true
Nonlinearity correction enabled: false
Boxcar width: 0
XAxis mode: Wavelengths
Number of Pixels in Spectrum: 2048
>>>>>Begin Spectral Data<<<<<
187.836	1.67
188.309	1.67
188.782	1.67
189.255	-1.73
189.728	0.77
190.201	5.17
190.674	4.07
191.147	4.67
191.619	-10.33
192.092	0.87
192.565	2.37
193.038	1.27
193.511	-2.93
193.984	4.67
194.456	-9.13
194.929	-0.13
195.402	0.37
195.874	-1.63
196.347	2.27
196.82	-6.13
197.292	4.77
197.765	-3.73
198.237	-8.43
198.71	2.57
199.182	-5.83
199.655	0.97
200.127	-3.13
200.6	1.47
201.072	-9.83
201.544	-4.73
202.017	-7.13
202.489	0.77
202.961	-2.93
203.433	-3.83
203.906	-9.23
204.378	-5.93
204.85	-2.93
205.322	-9.13
205.794	-7.43
206.266	-0.43
206.739	-3.93
207.211	4.47
207.683	-8.23
208.155	-5.03
208.627	-11.03
209.099	-5.93
209.57	-11.63
210.042	-5.93
210.514	-2.63
210.986	-7.03
211.458	-7.43
211.93	-1.93
212.402	4.47
212.873	-12.03
213.345	-11.83
213.817	-12.83
214.288	-11.23
214.76	-6.03
215.232	-2.73
215.703	-3.83
216.175	-4.13
216.646	-4.33
217.118	-13.63
217.589	0.87
218.061	-6.03
218.532	-9.63
219.004	-6.73
219.475	-9.03
219.946	-1.43
220.418	-5.53
220.889	1.17
221.36	-2.63
221.832	-9.23
222.303	-16.23
222.774	-7.53
223.245	-10.63
223.717	-11.03
224.188	-4.93
224.659	-3.23
225.13	-11.33
225.601	-7.23
226.072	0.07
226.543	-4.73
227.014	-6.33
227.485	-3.93
227.956	-5.83
228.427	-7.43
228.898	0.47
229.369	2.47
229.839	-3.03
230.31	-11.83
230.781	-1.93
231.252	-5.63
231.722	-1.33
232.193	-7.33
232.664	-7.63
233.135	-4.93
233.605	-6.53
234.076	-10.13
234.546	1.67
235.017	7.07
235.487	-1.73
235.958	-8.03
236.428	-4.83
236.899	-2.43
237.369	0.17
237.84	-3.93
238.31	-1.73
238.78	-5.63
239.251	-8.73
239.721	-0.93
240.191	-7.13
240.662	-7.73
241.132	-9.53
241.602	-3.93
242.072	-2.93
242.542	-0.73
243.013	-7.63
243.483	-2.73
243.953	-1.23
244.423	-1.93
244.893	-0.83
245.363	1.27
245.833	-5.43
246.303	-12.53
246.773	3.77
247.243	-3.13
247.712	-4.93
248.182	5.07
248.652	5.47
249.122	-13.13
249.592	0.37
250.061	2.57
250.531	7.67
251.001	-1.83
251.471	3.07
251.94	4.37
252.41	-5.33
252.879	-10.63
253.349	5.07
253.818	3.17
254.288	2.97
254.757	-0.53
255.227	-4.93
255.696	-0.03
256.166	2.47
256.635	6.37
257.105	-3.33
257.574	2.47
258.043	-3.63
258.513	-4.53
258.982	6.57
259.451	-4.03
259.92	-1.83
260.389	0.27
260.859	3.87
261.328	-2.33
261.797	8.47
262.266	-0.93
262.735	6.47
263.204	-5.13
263.673	-3.63
264.142	4.87
264.611	-6.03
265.08	-1.03
265.549	-1.43
266.018	1.57
266.487	-7.03
266.955	-2.73
267.424	-4.83
267.893	1.17
268.362	-0.73
268.83	-3.23
269.299	4.27
269.768	0.87
270.236	1.17
270.705	2.67
271.174	-1.43
271.642	-3.33
272.111	-2.93
272.579	4.57
273.048	2.07
273.516	2.27
273.985	2.47
274.453	9.57
274.922	9.27
275.39	-1.03
275.858	-0.63
276.327	2.27
276.795	9.07
277.263	-1.63
277.731	15.97
278.2	9.17
278.668	12.17
279.136	11.57
279.604	4.07
280.072	9.17
280.54	1.97
281.008	3.57
281.477	9.97
281.945	5.47
282.413	0.97
282.881	5.57
283.348	0.57
283.816	6.77
284.284	8.57
284.752	15.97
285.22	4.67
285.688	7.57
286.156	11.37
286.623	14.77
287.091	14.87
287.559	7.17
288.026	4.67
288.494	8.37
288.962	-1.03
289.429	4.07
289.897	8.97
290.364	14.57
290.832	9.17
291.3	3.67
291.767	14.77
292.234	8.27
292.702	0.67
293.169	1.37
293.637	11.87
294.104	16.17
294.571	4.27
295.039	0.17
295.506	8.67
295.973	9.07
296.44	-1.43
296.908	2.37
297.375	8.97
297.842	15.97
298.309	11.37
298.776	3.97
299.243	12.87
299.71	5.07
300.177	14.67
300.644	16.97
301.111	8.17
301.578	20.17
302.045	9.27
302.512	18.17
302.979	21.27
303.446	10.07
303.913	10.27
304.379	11.17
304.846	18.57
305.313	11.87
305.78	14.37
306.246	15.37
306.713	14.47
307.18	12.97
307.646	15.07
308.113	14.77
308.579	14.47
309.046	18.27
309.512	22.67
309.979	12.87
310.445	16.27
310.912	19.27
311.378	24.37
311.845	21.37
312.311	24.67
312.777	22.97
313.244	21.57
313.71	30.17
314.176	17.17
314.642	19.07
315.109	24.87
315.575	24.57
316.041	30.37
316.507	20.07
316.973	28.97
317.439	23.17
317.905	26.47
318.371	27.57
318.837	29.57
319.303	23.97
319.769	25.67
320.235	22.47
320.701	26.17
321.167	19.97
321.633	29.17
322.099	25.47
322.564	34.67
323.03	23.27
323.496	28.37
323.962	35.17
324.427	23.87
324.893	33.97
325.359	35.57
325.824	27.97
326.29	29.47
326.755	30.47
327.221	32.97
327.686	28.37
328.152	39.07
328.617	31.67
329.083	44.07
329.548	41.97
330.014	36.17
330.479	30.77
330.944	33.17
331.41	33.77
331.875	38.87
332.34	30.57
332.805	26.17
333.271	39.47
333.736	33.77
334.201	39.87
334.666	40.57
335.131	43.27
335.596	44.97
336.061	34.07
336.526	32.17
336.991	36.97
337.456	44.07
337.921	38.47
338.386	30.47
338.851	36.47
339.316	41.67
339.781	41.37
340.246	45.67
340.711	39.27
341.175	42.67
341.64	36.77
342.105	40.67
342.569	50.67
343.034	50.47
343.499	47.57
343.963	43.67
344.428	53.67
344.893	52.97
345.357	45.67
345.822	48.57
346.286	59.17
346.751	57.57
347.215	54.87
347.679	54.97
348.144	79.97
348.608	65.37
349.073	58.47
349.537	58.17
350.001	64.27
350.465	72.77
350.93	66.97
351.394	67.37
351.858	60.77
352.322	72.87
352.786	71.47
353.25	91.27
353.715	95.17
354.179	77.17
354.643	98.57
355.107	102.37
355.571	87.87
356.035	83.17
356.498	87.37
356.962	99.17
357.426	109.57
357.89	97.47
358.354	69.57
358.818	74.47
359.281	67.47
359.745	65.17
360.209	70.67
360.673	60.67
361.136	65.47
361.6	65.77
362.064	71.07
362.527	72.37
362.991	79.87
363.454	67.77
363.918	59.97
364.381	66.67
364.845	71.67
365.308	75.37
365.772	82.37
366.235	71.27
366.698	71.87
367.162	65.67
367.625	79.57
368.088	73.77
368.552	78.07
369.015	72.57
369.478	84.27
369.941	81.37
370.404	79.97
370.867	87.37
371.331	96.37
371.794	91.97
372.257	86.57
372.72	94.67
373.183	86.27
373.646	86.57
374.109	86.17
374.572	94.37
375.035	89.77
375.497	92.77
375.96	95.77
376.423	92.17
376.886	98.97
377.349	92.27
377.811	82.17
378.274	88.67
378.737	92.67
379.199	96.77
379.662	97.97
380.125	100.27
380.587	96.37
381.05	102.97
381.512	104.07
381.975	118.77
382.437	109.67
382.9	101.67
383.362	112.57
383.825	123.17
384.287	117.37
384.75	105.37
385.212	119.37
385.674	124.37
386.136	118.37
386.599	105.37
387.061	107.57
387.523	105.87
387.985	114.97
388.447	120.47
388.91	109.07
389.372	119.97
389.834	116.67
390.296	118.77
390.758	125.37
391.22	127.87
391.682	144.27
392.144	170.87
392.606	150.07
393.068	127.27
393.529	143.47
393.991	128.27
394.453	124.97
394.915	122.67
395.377	138.27
395.838	140.17
396.3	128.37
396.762	137.77
397.224	124.07
397.685	118.57
398.147	123.17
398.608	122.27
399.07	124.37
399.531	123.07
399.993	132.07
400.454	145.37
400.916	136.97
401.377	132.57
401.839	138.57
402.3	139.87
402.762	159.57
403.223	165.67
403.684	154.47
404.145	148.27
404.607	152.97
405.068	158.77
405.529	159.57
405.99	178.27
406.451	160.47
406.913	167.97
407.374	157.17
407.835	147.37
408.296	148.37
408.757	165.07
409.218	174.17
409.679	166.87
410.14	157.77
410.601	163.77
411.062	172.47
411.522	172.37
411.983	171.07
412.444	161.37
412.905	172.07
413.366	176.67
413.826	181.87
414.287	208.07
414.748	251.77
415.208	235.07
415.669	205.77
416.13	203.57
416.59	203.17
417.051	211.17
417.511	209.17
417.972	227.37
418.432	238.17
418.893	278.57
419.353	237.97
419.814	192.47
420.274	176.37
420.734	174.27
421.195	195.87
421.655	182.67
422.115	185.27
422.576	189.27
423.036	192.87
423.496	203.77
423.956	203.67
424.416	221.57
424.876	258.67
425.336	250.97
425.797	250.57
426.257	242.67
426.717	229.27
427.177	223.37
427.637	213.37
428.097	220.97
428.556	227.87
429.016	252.37
429.476	251.57
429.936	263.17
430.396	267.37
430.856	273.27
431.315	295.27
431.775	325.87
432.235	359.87
432.694	332.97
433.154	346.57
433.614	376.47
434.073	320.37
434.533	272.17
434.993	257.07
435.452	272.97
435.912	280.67
436.371	274.07
436.83	263.57
437.29	255.57
437.749	241.87
438.209	239.97
438.668	260.67
439.127	273.57
439.587	253.17
440.046	240.17
440.505	254.87
440.964	269.07
441.424	308.37
441.883	299.27
442.342	247.77
442.801	216.37
443.26	218.77
443.719	213.87
444.178	215.87
444.637	206.97
445.096	221.17
445.555	222.37
446.014	224.37
446.473	225.77
446.932	237.37
447.391	217.87
447.849	224.97
448.308	224.57
448.767	226.27
449.226	237.27
449.685	229.47
450.143	236.67
450.602	233.07
451.061	221.07
451.519	229.97
451.978	226.17
452.436	231.77
452.895	232.47
453.353	249.57
453.812	239.97
454.27	235.57
454.729	233.57
455.187	237.77
455.646	238.07
456.104	245.67
456.562	252.07
457.021	265.07
457.479	253.97
457.937	274.47
458.395	262.57
458.854	250.27
459.312	242.87
459.77	273.57
460.228	251.97
460.686	245.07
461.144	242.77
461.602	242.77
462.06	243.77
462.518	255.27
462.976	252.47
463.434	260.67
463.892	256.97
464.35	266.67
464.808	282.07
465.266	260.47
465.724	268.17
466.181	273.57
466.639	265.37
467.097	291.67
467.555	295.97
468.012	301.87
468.47	308.77
468.928	325.77
469.385	335.27
469.843	342.57
470.3	344.27
470.758	369.47
471.215	376.37
471.673	396.07
472.13	402.77
472.588	408.67
473.045	365.87
473.503	380.07
473.96	388.77
474.417	400.77
474.875	430.57
475.332	467.57
475.789	457.17
476.246	462.57
476.704	481.77
477.161	506.47
477.618	508.27
478.075	551.57
478.532	590.97
478.989	674.47
479.446	782.87
479.903	735.67
480.36	754.47
480.817	804.57
481.274	905.97
481.731	988.37
482.188	1059.17
482.645	1176.47
483.102	1267.97
483.558	1381.37
484.015	1424.17
484.472	1411.57
484.929	1366.27
485.385	1313.77
485.842	1302.27
486.299	1252.77
486.755	1214.17
487.212	1036.07
487.668	874.87
488.125	811.27
488.582	741.57
489.038	722.77
489.494	685.87
489.951	655.37
490.407	651.07
490.864	632.87
491.32	626.67
491.776	621.67
492.233	639.87
492.689	603.37
493.145	596.37
493.602	595.07
494.058	607.67
494.514	603.87
494.97	626.37
495.426	632.87
495.882	611.07
496.338	597.07
496.794	602.47
497.251	610.57
497.707	632.47
498.163	611.97
498.618	638.27
499.074	632.07
499.53	659.17
499.986	662.47
500.442	628.37
500.898	621.97
501.354	603.37
501.809	610.37
502.265	616.47
502.721	620.87
503.177	635.07
503.632	634.67
504.088	637.77
504.543	660.37
504.999	687.47
505.455	648.67
505.91	629.17
506.366	631.97
506.821	620.07
507.277	618.47
507.732	638.47
508.187	623.77
508.643	630.57
509.098	629.77
509.553	652.37
510.009	662.77
510.464	670.17
510.919	681.87
511.375	695.87
511.83	709.07
512.285	715.57
512.74	759.27
513.195	778.07
513.65	761.87
514.105	758.47
514.56	751.47
515.015	778.47
515.47	790.47
515.925	767.17
516.38	777.77
516.835	789.07
517.29	771.27
517.745	779.47
518.2	754.67
518.655	746.07
519.109	743.77
519.564	732.17
520.019	727.97
520.474	709.27
520.928	723.87
521.383	705.57
521.838	699.57
522.292	699.37
522.747	705.17
523.201	691.77
523.656	692.97
524.11	688.97
524.565	689.47
525.019	691.87
525.474	694.67
525.928	693.77
526.382	687.67
526.837	695.07
527.291	696.87
527.745	698.17
528.2	691.47
528.654	688.87
529.108	683.87
529.562	688.97
530.016	694.17
530.47	690.47
530.925	680.87
531.379	696.17
531.833	691.67
532.287	704.87
532.741	696.47
533.195	701.77
533.649	713.77
534.103	713.57
534.556	704.37
535.01	714.07
535.464	691.67
535.918	715.57
536.372	727.17
536.826	716.67
537.279	700.77
537.733	711.47
538.187	715.27
538.64	717.07
539.094	725.97
539.548	726.67
540.001	722.87
540.455	728.87
540.908	716.87
541.362	740.17
541.815	746.37
542.269	758.57
542.722	763.77
543.175	768.07
543.629	774.37
544.082	786.87
544.536	774.97
544.989	785.27
545.442	801.97
545.895	794.37
546.349	793.77
546.802	790.77
547.255	799.87
547.708	809.27
548.161	823.77
548.614	824.47
549.067	842.97
549.52	830.47
549.973	814.27
550.426	806.37
550.879	801.07
551.332	803.27
551.785	813.97
552.238	804.47
552.691	818.27
553.144	829.27
553.596	856.27
554.049	868.27
554.502	886.87
554.955	911.77
555.407	910.97
555.86	887.87
556.313	894.97
556.765	883.47
557.218	880.67
557.67	885.17
558.123	872.57
558.576	872.67
559.028	874.97
559.48	885.17
559.933	886.97
560.385	843.77
560.838	822.57
561.29	791.67
561.742	793.77
562.195	770.07
562.647	781.57
563.099	776.27
563.551	765.47
564.004	792.27
564.456	780.07
564.908	762.67
565.36	755.97
565.812	731.07
566.264	730.87
566.716	722.97
567.168	708.77
567.62	714.27
568.072	700.47
568.524	695.67
568.976	697.47
569.428	679.17
569.88	679.37
570.332	678.77
570.784	685.87
571.235	691.17
571.687	699.37
572.139	712.07
572.59	714.37
573.042	718.27
573.494	716.27
573.945	703.57
574.397	692.17
574.849	700.67
575.3	692.67
575.752	684.77
576.203	680.47
576.655	690.97
577.106	678.67
577.557	674.67
578.009	680.87
578.46	668.77
578.912	667.37
579.363	671.37
579.814	676.37
580.265	659.97
580.717	671.67
581.168	675.57
581.619	680.17
582.07	686.57
582.521	687.57
582.972	674.97
583.423	683.27
583.875	685.57
584.326	683.57
584.777	714.47
585.227	738.87
585.678	760.47
586.129	795.37
586.58	813.57
587.031	853.57
587.482	897.67
587.933	963.97
588.384	917.67
588.834	821.37
589.285	771.77
589.736	779.57
590.186	777.47
590.637	765.47
591.088	755.17
591.538	744.67
591.989	733.17
592.439	724.27
592.89	723.27
593.34	708.87
593.791	714.27
594.241	704.17
594.692	711.07
595.142	698.47
595.593	695.37
596.043	718.27
596.493	711.27
596.943	715.87
597.394	727.27
597.844	714.97
598.294	737.07
598.744	761.07
599.195	793.67
599.645	825.77
600.095	865.27
600.545	928.77
600.995	982.57
601.445	1032.87
601.895	1094.07
602.345	1135.57
602.795	1133.47
603.245	1070.47
603.695	1024.27
604.145	975.07
604.594	919.57
605.044	873.07
605.494	807.67
605.944	759.67
606.393	744.57
606.843	742.37
607.293	740.57
607.743	735.77
608.192	745.97
608.642	763.37
609.091	760.67
609.541	765.77
609.99	766.47
610.44	770.07
610.889	721.77
611.339	698.77
611.788	680.47
612.238	703.97
612.687	717.97
613.136	710.37
613.586	718.97
614.035	707.27
614.484	725.27
614.933	721.07
615.383	722.17
615.832	711.27
616.281	717.97
616.73	673.07
617.179	670.77
617.628	652.47
618.077	643.27
618.526	621.87
618.975	622.27
619.424	623.87
619.873	610.87
620.322	623.87
620.771	613.87
621.22	610.97
621.669	594.47
622.118	589.37
622.567	576.57
623.015	576.97
623.464	572.37
623.913	567.37
624.361	559.07
624.81	553.67
625.259	559.37
625.707	562.07
626.156	561.37
626.604	573.97
627.053	560.97
627.501	575.77
627.95	567.37
628.398	590.57
628.847	580.47
629.295	569.67
629.744	575.17
630.192	575.17
630.64	570.27
631.089	560.27
631.537	558.77
631.985	548.37
632.433	552.47
632.881	540.67
633.33	560.47
633.778	540.57
634.226	540.37
634.674	547.37
635.122	553.77
635.57	571.97
636.018	577.37
636.466	566.17
636.914	558.67
637.362	581.27
637.81	576.77
638.258	589.97
638.705	586.67
639.153	612.07
639.601	633.17
640.049	653.67
640.497	682.47
640.944	691.97
641.392	660.57
641.84	617.77
642.287	587.27
642.735	573.97
643.182	564.97
643.63	579.87
644.078	572.37
644.525	578.17
644.973	589.27
645.42	598.07
645.867	621.37
646.315	641.27
646.762	655.57
647.21	685.77
647.657	718.37
648.104	738.17
648.551	761.27
648.999	824.47
649.446	906.67
649.893	985.87
650.34	1131.87
650.787	1341.87
651.234	1655.47
651.682	2150.57
652.129	2914.57
652.576	4142.07
653.023	6041.67
653.47	8116.67
653.917	10048.17
654.363	11466.97
654.81	12653.17
655.257	11989.27
655.704	7951.77
656.151	4773.87
656.598	3127.57
657.044	2262.97
657.491	1734.97
657.938	1424.27
658.385	1196.37
658.831	1044.47
659.278	926.77
659.724	832.67
660.171	772.97
660.618	713.77
661.064	672.57
661.511	667.07
661.957	655.87
662.404	647.67
662.85	649.67
663.296	623.87
663.743	569.27
664.189	544.77
664.635	543.97
665.082	528.67
665.528	536.27
665.974	523.47
666.42	510.87
666.867	516.27
667.313	497.87
667.759	468.57
668.205	461.67
668.651	462.87
669.097	453.67
669.543	457.87
669.989	450.97
670.435	455.87
670.881	449.47
671.327	455.27
671.773	476.37
672.219	503.97
672.665	563.57
673.11	601.87
673.556	640.17
674.002	673.17
674.448	665.77
674.893	567.67
675.339	492.17
675.785	449.67
676.23	430.77
676.676	397.07
677.122	388.77
677.567	381.97
678.013	369.97
678.458	364.67
678.904	370.27
679.349	348.67
679.794	364.57
680.24	361.57
680.685	359.77
681.131	352.57
681.576	353.17
682.021	358.17
682.466	360.37
682.912	354.27
683.357	358.97
683.802	397.27
684.247	430.87
684.692	468.97
685.137	505.67
685.583	553.87
686.028	572.87
686.473	533.47
686.918	452.37
687.363	424.57
687.807	404.37
688.252	374.17
688.697	361.87
689.142	344.67
689.587	348.77
690.032	336.57
690.477	352.87
690.921	359.27
691.366	393.77
691.811	409.67
692.255	444.87
692.7	466.57
693.145	521.27
693.589	735.07
694.034	1188.17
694.478	1591.57
694.923	1766.77
695.367	2295.97
695.812	1234.97
696.256	502.17
696.701	374.67
697.145	353.07
697.59	337.67
698.034	329.47
698.478	332.57
698.922	327.27
699.367	330.17
699.811	342.27
700.255	368.67
700.699	397.87
701.143	435.17
701.588	483.37
702.032	516.77
702.476	524.57
702.92	502.47
703.364	506.27
703.808	671.87
704.252	1103.37
704.696	1523.97
705.14	1714.27
705.584	2172.37
706.027	1093.67
706.471	537.67
706.915	407.47
707.359	362.37
707.803	328.37
708.246	313.37
708.69	318.17
709.134	319.57
709.577	312.17
710.021	333.37
710.465	312.47
710.908	307.17
711.352	307.57
711.795	319.57
712.239	362.87
712.682	399.87
713.126	423.67
713.569	468.37
714.012	367.87
714.456	312.27
714.899	298.57
715.342	282.37
715.786	271.67
716.229	265.27
716.672	262.37
717.115	248.77
717.558	256.17
718.002	249.57
718.445	271.17
718.888	292.77
719.331	304.27
719.774	314.07
720.217	312.77
720.66	291.57
721.103	279.07
721.546	261.37
721.989	249.47
722.432	241.47
722.874	243.17
723.317	231.87
723.76	239.77
724.203	262.47
724.645	333.97
725.088	467.27
725.531	585.87
725.974	654.57
726.416	550.17
726.859	313.27
727.301	250.77
727.744	247.17
728.187	237.37
728.629	248.87
729.071	244.87
729.514	262.07
729.956	274.67
730.399	290.27
730.841	298.37
731.283	283.87
731.726	273.67
732.168	267.17
732.61	272.17
733.053	288.27
733.495	333.87
733.937	367.27
734.379	410.27
734.821	447.97
735.263	576.67
735.705	899.87
736.148	1685.67
736.59	2693.77
737.032	3109.97
737.474	2539.27
737.916	841.57
738.357	441.87
738.799	336.97
739.241	310.27
739.683	296.17
740.125	297.37
740.567	301.47
741.008	328.67
741.45	323.87
741.892	327.37
742.334	363.47
742.775	365.27
743.217	351.97
743.658	278.67
744.1	267.87
744.542	278.17
744.983	331.27
745.425	355.07
745.866	354.27
746.307	287.57
746.749	286.97
747.19	339.07
747.632	479.17
748.073	944.87
748.514	1995.17
748.956	2955.87
749.397	3746.67
749.838	3086.87
750.279	2994.37
750.72	1541.97
751.162	576.77
751.603	336.17
752.044	250.87
752.485	222.27
752.926	221.17
753.367	206.37
753.808	202.37
754.249	197.37
754.69	187.37
755.131	198.97
755.572	189.27
756.013	180.27
756.453	190.77
756.894	189.57
757.335	201.17
757.776	198.27
758.216	204.87
758.657	200.87
759.098	209.57
759.538	230.07
759.979	278.87
760.42	400.97
760.86	754.47
761.301	2000.77
761.741	4717.17
762.182	6517.07
762.622	4619.77
763.063	1358.97
763.503	558.77
763.943	335.87
764.384	289.67
764.824	275.07
765.264	278.87
765.705	229.97
766.145	191.37
766.585	181.37
767.025	176.97
767.465	171.57
767.906	204.57
768.346	221.07
768.786	236.37
769.226	240.67
769.666	325.47
770.106	675.57
770.546	1671.67
770.986	2705.77
771.426	2401.27
771.866	816.57
772.306	334.67
772.745	212.47
773.185	177.67
773.625	170.17
774.065	154.87
774.505	165.77
774.944	226.37
775.384	419.97
775.824	682.47
776.263	652.87
776.703	311.77
777.142	174.07
777.582	141.87
778.021	125.87
778.461	131.17
778.9	129.07
779.34	124.47
779.779	114.07
780.219	113.97
780.658	105.77
781.097	112.87
781.537	111.57
781.976	109.47
782.415	102.37
782.855	102.67
783.294	109.87
783.733	108.77
784.172	106.07
784.611	102.27
785.05	105.17
785.489	107.37
785.928	121.47
786.367	125.97
786.806	123.87
787.245	128.87
787.684	141.27
788.123	153.27
788.562	139.97
789.001	136.87
789.44	118.77
789.879	117.57
790.317	120.97
790.756	131.17
791.195	128.27
791.634	151.27
792.072	208.17
792.511	387.97
792.95	1079.07
793.388	2188.77
793.827	1936.37
794.265	696.87
794.704	291.77
795.142	184.77
795.581	156.57
796.019	136.97
796.458	130.07
796.896	129.37
797.334	129.27
797.773	167.87
798.211	230.47
798.649	474.77
799.087	1074.37
799.526	1653.77
799.964	2102.57
800.402	2037.47
800.84	784.87
801.278	311.27
801.716	194.37
802.154	157.27
802.592	152.57
803.03	143.07
803.468	137.97
803.906	149.77
804.344	155.87
804.782	143.47
805.22	133.97
805.658	138.27
806.096	154.37
806.533	164.87
806.971	175.37
807.409	231.17
807.847	343.17
808.284	725.17
808.722	2003.37
809.16	3383.47
809.597	3342.37
810.035	5681.37
810.472	5833.57
810.91	2166.07
811.347	836.97
811.785	424.67
812.222	271.37
812.66	205.57
813.097	168.47
813.535	148.67
813.972	133.07
814.409	117.47
814.846	113.67
815.284	104.57
815.721	105.67
816.158	109.17
816.595	111.77
817.032	157.67
817.47	185.67
817.907	128.27
818.344	110.47
818.781	102.57
819.218	96.97
819.655	127.17
820.092	199.57
820.529	216.57
820.966	174.97
821.403	123.97
821.839	99.87
822.276	104.97
822.713	128.57
823.15	139.17
823.587	118.77
824.023	150.87
824.46	320.77
824.897	950.97
825.333	1380.57
825.77	583.17
826.206	241.47
826.643	135.27
827.08	106.27
827.516	87.07
827.953	78.77
828.389	80.97
828.825	76.57
829.262	69.57
829.698	59.27
830.135	64.07
830.571	63.77
831.007	64.37
831.443	63.07
831.88	64.47
832.316	64.47
832.752	64.97
833.188	64.17
833.624	62.17
834.06	67.37
834.497	64.27
834.933	68.37
835.369	73.17
835.805	66.47
836.241	70.27
836.677	77.67
837.112	87.57
837.548	103.17
837.984	145.67
838.42	212.97
838.856	541.77
839.292	1595.57
839.727	2338.77
840.163	1099.47
840.599	997.57
841.034	2109.67
841.47	2147.37
841.906	795.37
842.341	339.57
842.777	218.07
843.212	216.87
843.648	208.17
844.083	114.67
844.519	84.07
844.954	69.77
845.39	58.87
845.825	53.37
846.261	59.57
846.696	58.27
847.131	52.17
847.566	56.77
848.002	47.17
848.437	54.17
848.872	63.17
849.307	63.47
849.742	86.87
850.177	193.57
850.613	583.77
851.048	898.27
851.483	390.77
851.918	158.07
852.353	89.57
852.788	53.07
853.223	53.07
853.657	49.67
854.092	47.57
854.527	44.37
854.962	38.67
855.397	42.87
855.832	47.97
856.266	40.87
856.701	42.27
857.136	39.67
857.57	41.27
858.005	51.27
858.44	67.97
858.874	43.97
859.309	55.27
859.743	42.27
860.178	46.67
860.612	41.37
861.047	50.17
861.481	69.97
861.915	71.27
862.35	51.47
862.784	30.67
863.218	42.07
863.653	34.87
864.087	46.47
864.521	53.57
864.955	77.87
865.39	162.97
865.824	177.27
866.258	125.07
866.692	177.97
867.126	189.27
867.56	113.77
867.994	58.77
868.428	40.67
868.862	44.47
869.296	56.87
869.73	56.27
870.164	54.17
870.598	49.97
871.031	39.07
871.465	27.37
871.899	28.27
872.333	23.17
872.766	22.37
873.2	18.87
873.634	27.27
874.067	27.27
874.501	29.97
874.935	37.87
875.368	32.17
875.802	23.07
876.235	23.97
876.669	25.17
877.102	20.37
877.535	20.07
877.969	19.47
878.402	20.07
878.836	18.47
879.269	22.37
879.702	23.57
880.135	18.67
880.569	24.67
881.002	23.97
881.435	21.07
881.868	16.77
882.301	23.37
882.734	15.27
883.167	20.77
883.601	18.57
884.034	21.97
884.467	13.77
884.899	19.07
885.332	15.57
885.765	20.17
886.198	13.27
886.631	20.37
887.064	20.37
887.497	23.17
887.929	23.97
888.362	13.77
888.795	8.87
889.228	15.97
889.66	19.37
890.093	11.27
890.526	15.27
890.958	12.67
891.391	18.77
891.823	18.27
892.256	19.17
892.688	12.27
893.121	16.47
893.553	14.87
893.985	22.27
894.418	23.87
894.85	9.47
895.282	24.07
895.715	13.57
896.147	18.07
896.579	13.27
897.011	10.67
897.444	15.27
897.876	18.27
898.308	21.27
898.74	14.87
899.172	16.87
899.604	21.27
900.036	18.57
900.468	14.77
900.9	11.47
901.332	19.47
901.764	11.67
902.196	17.27
902.628	17.87
903.06	16.17
903.491	28.87
903.923	25.97
904.355	26.07
904.787	20.47
905.218	21.27
905.65	21.87
906.082	17.97
906.513	16.67
906.945	14.57
907.376	15.77
907.808	19.77
908.239	12.97
908.671	16.07
909.102	22.17
909.534	26.37
909.965	51.97
910.397	94.77
910.828	326.77
911.259	479.87
911.691	220.27
912.122	106.17
912.553	51.87
912.984	35.07
913.415	20.77
913.847	27.77
914.278	20.47
914.709	17.17
915.14	14.37
915.571	15.67
916.002	14.07
916.433	17.47
916.864	13.17
917.295	11.07
917.726	25.57
918.157	13.77
918.587	32.17
919.018	19.87
919.449	22.57
919.88	21.27
920.311	29.97
920.741	55.87
921.172	166.67
921.603	153.57
922.033	72.27
922.464	45.17
922.895	21.57
923.325	20.67
923.756	12.87
924.186	10.07
924.617	20.27
925.047	19.87
925.478	23.77
925.908	21.07
926.338	12.57
926.769	11.67
927.199	13.67
927.629	6.87
928.06	20.17
928.49	14.57
928.92	7.67
929.35	7.97
929.78	10.37
930.21	10.77
930.641	4.57
931.071	5.37
931.501	5.67
931.931	2.07
932.361	5.97
932.791	7.57
933.221	6.17
933.651	5.67
934.08	19.67
934.51	24.87
934.94	14.17
935.37	5.47
935.8	14.97
936.229	6.57
936.659	3.27
937.089	6.67
937.519	11.87
937.948	21.37
938.378	14.67
938.807	4.47
939.237	1.67
939.666	8.07
940.096	-3.13
940.525	-3.53
940.955	-0.43
941.384	-1.43
941.814	-5.93
942.243	-9.63
942.672	2.77
943.102	-1.83
943.531	-4.43
943.96	5.97
944.39	1.17
944.819	3.97
945.248	2.77
945.677	5.67
946.106	3.37
946.535	4.97
946.964	-1.83
947.393	1.87
947.822	-4.43
948.251	-3.33
948.68	1.67
949.109	-3.93
949.538	8.07
949.967	-0.63
950.396	5.57
950.825	1.27
951.254	-0.33
951.682	-6.33
952.111	3.67
952.54	2.57
952.969	-6.73
953.397	-5.73
953.826	-1.33
954.254	-4.33
954.683	-2.93
955.112	-2.73
955.54	-2.03
955.969	2.27
956.397	-2.53
956.826	-2.83
957.254	-2.73
957.682	2.67
958.111	6.27
958.539	1.07
958.967	-0.53
959.396	-5.73
959.824	-0.13
960.252	4.97
960.68	-4.43
961.109	-1.63
961.537	-8.73
961.965	9.47
962.393	0.47
962.821	-7.13
963.249	-0.63
963.677	4.27
964.105	5.77
964.533	41.27
964.961	40.67
965.389	13.17
965.817	8.37
966.245	1.57
966.672	0.77
967.1	-9.53
967.528	0.77
967.956	-0.13
968.383	-8.13
968.811	-0.63
969.239	-5.43
969.666	-1.23
970.094	1.47
970.522	5.37
970.949	-0.53
971.377	0.27
971.804	-0.63
972.232	-6.53
972.659	1.67
973.087	-1.33
973.514	-2.93
973.941	-8.33
974.369	6.47
974.796	0.57
975.223	-0.83
975.651	-2.53
976.078	2.47
976.505	-4.63
976.932	-2.63
977.359	17.97
977.786	11.57
978.214	-3.13
978.641	-5.53
979.068	-2.43
979.495	-1.13
979.922	-3.33
980.349	-5.43
980.776	-1.53
981.202	-0.93
981.629	-2.13
982.056	-2.83
982.483	2.07
982.91	4.07
983.337	-3.73
983.763	-0.93
984.19	2.07
984.617	-6.43
985.043	-5.83
985.47	-2.13
985.897	-9.23
986.323	-8.53
986.75	-0.73
987.176	-0.33
987.603	-2.63
988.029	-3.63
988.456	-0.83
988.882	2.27
989.308	-8.43
989.735	-6.73
990.161	-1.43
990.587	-8.33
991.014	1.17
991.44	5.37
991.866	-0.93
992.292	-10.43
992.719	-4.73
993.145	2.97
993.571	-4.63
993.997	-0.13
994.423	1.57
994.849	-0.43
995.275	-0.13
995.701	-3.13
996.127	-1.83
996.553	1.17
996.979	-8.53
997.405	-5.43
997.83	-6.53
998.256	-6.03
998.682	-8.13
999.108	-8.43
999.534	-3.13
999.959	2.47
1000.385	-1.93
1000.811	-2.13
1001.236	-7.03
1001.662	-5.23
1002.087	-7.93
1002.513	-2.53
1002.938	-3.03
1003.364	-5.53
1003.789	0.07
1004.215	5.37
1004.64	-6.23
1005.066	-0.83
1005.491	-1.73
1005.916	-0.53
1006.342	-4.13
1006.767	-9.93
1007.192	5.37
1007.617	-5.13
1008.042	-4.83
1008.468	-10.43
1008.893	-6.83
1009.318	-3.73
1009.743	-3.23
1010.168	-0.43
1010.593	-1.63
1011.018	-9.73
1011.443	-6.63
1011.868	2.47
1012.293	-5.63
1012.718	-5.53
1013.143	1.87
1013.567	-0.43
1013.992	-6.03
1014.417	-8.73
1014.842	1.57
1015.267	-9.93
1015.691	1.27
1016.116	5.07
1016.541	1.77
1016.965	-0.33
1017.39	0.27
1017.814	-1.43
1018.239	-1.93
1018.663	-11.23
1019.088	-13.33
1019.512	-1.13
1019.937	-0.53
1020.361	3.07
1020.785	-11.13
1021.21	-0.23
1021.634	-3.63
1022.058	-0.33
1022.483	5.27
1022.907	-8.23
1023.331	-4.83
1023.755	-6.43
1024.179	-3.03
1024.604	-9.03
1025.028	-3.03
1025.452	-3.53
1025.876	-5.93
1026.3	2.37
1026.724	-14.83
1027.148	-6.63
1027.572	-10.13
1027.996	1.47
1028.42	-3.83
1028.843	-6.43
1029.267	-13.83
1029.691	-2.03
1030.115	-7.33
1030.539	-9.03
1030.962	-3.33
1031.386	-13.03
1031.81	0.17
1032.233	0.57
1032.657	-10.73
1033.08	-5.03
1033.504	-3.83
1033.927	-7.53
1034.351	-2.83
1034.774	-5.93
1035.198	-6.23
1035.621	-4.73
1036.045	-11.93
1036.468	-3.43
1036.891	-11.43
1037.315	-10.33
1037.738	-9.63
1038.161	-0.53
1038.584	-2.23
1039.008	-9.53
1039.431	-1.43
1039.854	-3.73
1040.277	-2.33
1040.7	-12.93
1041.123	-5.03
1041.546	-12.23
1041.969	-10.53
1042.392	-7.23
1042.815	-9.73
1043.238	-2.33
1043.661	-0.83
1044.084	-7.43
1044.507	-5.63
1044.93	-9.63
1045.352	-6.53
1045.775	-8.13
1046.198	-7.73
1046.621	-6.93
1047.043	-4.83
1047.466	-3.03
1047.889	-0.93
1048.311	-3.43
1048.734	-1.13
1049.156	-4.53
1049.579	-3.73
1050.001	-1.73
1050.424	-0.63
1050.846	-1.53
1051.269	-10.43
1051.691	-5.23
1052.113	-8.73
1052.536	-8.03
1052.958	-2.63
1053.38	-10.93
1053.802	-12.93
1054.225	-1.93
1054.647	-9.73
1055.069	-11.23
1055.491	-0.03
1055.913	-2.03
1056.335	-5.43
1056.757	-4.83
1057.179	-4.03
1057.601	-2.83
1058.023	-1.53
1058.445	-4.83
1058.867	-2.23
1059.289	-4.83
1059.711	-7.33
1060.133	-1.73
1060.555	-3.23
1060.976	-7.03
1061.398	-3.73
1061.82	-11.23
1062.241	-7.93
1062.663	-11.53
1063.085	-8.73
1063.506	0.67
1063.928	1.67
1064.35	-4.33
1064.771	-12.33
1065.193	-4.03
1065.614	-9.43
1066.035	-3.43
1066.457	-9.13
1066.878	0.07
1067.3	-5.63
1067.721	-5.33
1068.142	-0.23
1068.564	-0.63
1068.985	-3.33
1069.406	-2.73
1069.827	-9.93
1070.248	-4.73
1070.67	-3.93
1071.091	-4.93
1071.512	-2.63
1071.933	-13.33
1072.354	-5.93
1072.775	-3.53
1073.196	-11.73
1073.617	-7.93
1074.038	-7.43
1074.459	-4.13
1074.88	-11.83
1075.3	-0.53
1075.721	-3.53
1076.142	-8.93
1076.563	0.97
1076.983	-13.23
1077.404	-8.23
1077.825	-17.33
1078.246	-7.03
1078.666	-18.83
1079.087	-7.93
1079.507	-8.83
1079.928	3.57
1080.348	-8.63
1080.769	-10.13
1081.189	-5.73
1081.61	-6.63
1082.03	-7.33
1082.451	-9.23
1082.871	-4.23
1083.291	-7.03
1083.711	-12.03
1084.132	-5.63
1084.552	-7.13
1084.972	-2.13
1085.392	-8.23
1085.813	-12.33
1086.233	-8.13
1086.653	-9.63
1087.073	-2.63
1087.493	-8.53
1087.913	-2.83
1088.333	-6.43
1088.753	-2.83
1089.173	-1.43
1089.593	-8.83
1090.013	-5.63
1090.433	1.27
1090.852	-7.33
1091.272	-5.53
1091.692	-2.03
1092.112	-3.63
1092.531	-5.23
1092.951	-22.73
1093.371	-3.33
1093.79	-4.53
1094.21	-6.03
1094.63	-6.23
1095.049	-10.53
1095.469	0.17
1095.888	-6.33
1096.308	-1.93
1096.727	-1.23
1097.146	-8.93
1097.566	-5.43
1097.985	-5.43
1098.405	-4.73
1098.824	-10.13
1099.243	-10.13
1099.662	-13.23
1100.082	-0.43
1100.501	-6.53
1100.92	-6.43
1101.339	-6.93
1101.758	-1.83
