Data from 20171114-ORNL-Ar_H_NY_Subt18_08-09-25-871.txt Node
Date: Tue Nov 14 08:09:25 EST 2017
User: Ender
Spectrometer: HR+D1039
Trigger mode: 0
Integration Time (sec): 2.730000E-2
Scans to average: 10
Electric dark correction enabled: true
Nonlinearity correction enabled: false
Boxcar width: 0
XAxis mode: Wavelengths
Number of Pixels in Spectrum: 2048
>>>>>Begin Spectral Data<<<<<
187.836	-7.68
188.309	-7.68
188.782	-7.68
189.255	0.12
189.728	-3.88
190.201	0.52
190.674	-2.28
191.147	8.52
191.619	-6.68
192.092	2.22
192.565	1.52
193.038	1.72
193.511	7.62
193.984	-1.28
194.456	1.02
194.929	2.52
195.402	-1.48
195.874	-2.58
196.347	5.12
196.82	-6.78
197.292	2.82
197.765	1.42
198.237	-8.98
198.71	4.02
199.182	-3.18
199.655	1.12
200.127	5.52
200.6	-2.88
201.072	-3.88
201.544	-2.58
202.017	-2.98
202.489	2.52
202.961	-5.38
203.433	-3.18
203.906	-8.38
204.378	-5.28
204.85	-2.08
205.322	-9.48
205.794	-4.88
206.266	-12.48
206.739	-7.68
207.211	-2.08
207.683	-9.08
208.155	-6.58
208.627	-8.08
209.099	0.82
209.57	-9.98
210.042	-6.58
210.514	-5.58
210.986	-5.08
211.458	-9.38
211.93	-9.98
212.402	0.12
212.873	-13.08
213.345	-2.58
213.817	-10.78
214.288	-4.68
214.76	-10.78
215.232	-13.68
215.703	-5.78
216.175	-5.98
216.646	-5.68
217.118	-7.68
217.589	-2.58
218.061	-5.98
218.532	-2.68
219.004	-2.88
219.475	-4.68
219.946	-1.88
220.418	-9.38
220.889	2.72
221.36	0.82
221.832	-5.28
222.303	-4.78
222.774	-0.68
223.245	-8.58
223.717	-4.38
224.188	-7.18
224.659	-7.98
225.13	-2.78
225.601	-1.38
226.072	-0.98
226.543	-3.88
227.014	2.32
227.485	-2.58
227.956	-5.98
228.427	-4.78
228.898	-4.68
229.369	2.52
229.839	-10.38
230.31	-4.68
230.781	1.42
231.252	0.12
231.722	-4.68
232.193	-4.08
232.664	-6.98
233.135	-2.78
233.605	-4.18
234.076	-9.48
234.546	4.32
235.017	-3.38
235.487	-0.28
235.958	-9.18
236.428	-6.38
236.899	-0.48
237.369	-1.18
237.84	-8.98
238.31	4.72
238.78	-2.68
239.251	-1.58
239.721	-8.18
240.191	-1.88
240.662	-1.28
241.132	-6.18
241.602	-6.68
242.072	-5.18
242.542	-3.38
243.013	-3.58
243.483	-2.68
243.953	0.32
244.423	-0.28
244.893	-4.48
245.363	3.32
245.833	-0.48
246.303	-3.48
246.773	-0.78
247.243	-4.58
247.712	-3.98
248.182	-2.98
248.652	0.92
249.122	-3.38
249.592	-3.98
250.061	0.72
250.531	5.12
251.001	-0.78
251.471	3.12
251.94	0.92
252.41	-6.78
252.879	-6.78
253.349	1.42
253.818	6.92
254.288	-1.28
254.757	3.72
255.227	-8.68
255.696	4.22
256.166	-4.18
256.635	2.92
257.105	2.12
257.574	-6.98
258.043	-2.38
258.513	-3.58
258.982	0.12
259.451	-7.48
259.92	1.72
260.389	-4.58
260.859	3.12
261.328	-2.58
261.797	3.62
262.266	-0.28
262.735	6.22
263.204	-1.98
263.673	-2.08
264.142	4.62
264.611	-11.78
265.08	-3.18
265.549	-2.38
266.018	-4.98
266.487	-4.78
266.955	-5.68
267.424	-2.28
267.893	2.62
268.362	-7.08
268.83	-5.88
269.299	6.02
269.768	-2.88
270.236	3.62
270.705	-1.88
271.174	-3.58
271.642	-1.28
272.111	-4.48
272.579	3.42
273.048	0.52
273.516	-2.68
273.985	-1.48
274.453	1.42
274.922	4.72
275.39	0.62
275.858	0.42
276.327	-0.68
276.795	14.12
277.263	-1.78
277.731	9.92
278.2	3.42
278.668	8.02
279.136	12.32
279.604	3.82
280.072	3.12
280.54	-0.48
281.008	5.12
281.477	4.42
281.945	4.02
282.413	5.42
282.881	6.42
283.348	3.02
283.816	7.32
284.284	9.82
284.752	17.32
285.22	8.52
285.688	6.02
286.156	8.62
286.623	15.82
287.091	8.52
287.559	6.72
288.026	4.82
288.494	6.62
288.962	-1.38
289.429	5.82
289.897	7.52
290.364	6.82
290.832	11.82
291.3	6.12
291.767	6.22
292.234	13.42
292.702	4.22
293.169	10.22
293.637	16.12
294.104	7.82
294.571	5.32
295.039	3.22
295.506	2.92
295.973	2.42
296.44	7.42
296.908	5.62
297.375	-0.28
297.842	11.92
298.309	7.32
298.776	7.32
299.243	13.12
299.71	5.42
300.177	16.62
300.644	5.42
301.111	9.22
301.578	11.22
302.045	5.72
302.512	12.02
302.979	14.52
303.446	11.92
303.913	13.42
304.379	7.72
304.846	18.32
305.313	16.32
305.78	9.02
306.246	23.22
306.713	15.82
307.18	12.52
307.646	19.22
308.113	13.72
308.579	11.32
309.046	17.22
309.512	16.92
309.979	8.42
310.445	17.72
310.912	14.42
311.378	19.22
311.845	26.12
312.311	14.92
312.777	21.82
313.244	20.22
313.71	24.12
314.176	21.62
314.642	19.12
315.109	19.62
315.575	22.42
316.041	25.32
316.507	15.42
316.973	25.82
317.439	24.22
317.905	25.12
318.371	23.52
318.837	22.52
319.303	21.72
319.769	23.02
320.235	27.02
320.701	22.32
321.167	19.72
321.633	20.92
322.099	21.42
322.564	30.32
323.03	27.62
323.496	25.02
323.962	24.92
324.427	24.62
324.893	35.52
325.359	28.32
325.824	21.82
326.29	27.82
326.755	30.52
327.221	32.82
327.686	26.72
328.152	33.72
328.617	28.42
329.083	35.82
329.548	43.72
330.014	32.62
330.479	25.82
330.944	31.52
331.41	32.82
331.875	34.62
332.34	35.42
332.805	35.82
333.271	32.12
333.736	29.42
334.201	35.82
334.666	37.32
335.131	37.62
335.596	35.12
336.061	34.52
336.526	27.42
336.991	35.62
337.456	40.32
337.921	29.72
338.386	29.22
338.851	30.12
339.316	34.32
339.781	33.32
340.246	39.12
340.711	38.62
341.175	37.82
341.64	36.42
342.105	33.12
342.569	38.52
343.034	45.62
343.499	42.92
343.963	37.42
344.428	45.82
344.893	44.72
345.357	46.42
345.822	46.32
346.286	50.62
346.751	48.52
347.215	49.02
347.679	54.32
348.144	70.02
348.608	63.02
349.073	55.42
349.537	48.02
350.001	63.12
350.465	63.32
350.93	63.82
351.394	63.62
351.858	61.82
352.322	70.22
352.786	57.52
353.25	75.32
353.715	82.32
354.179	74.42
354.643	85.82
355.107	87.32
355.571	75.22
356.035	71.02
356.498	86.82
356.962	86.92
357.426	96.32
357.89	85.02
358.354	73.22
358.818	62.62
359.281	66.12
359.745	57.82
360.209	57.12
360.673	61.32
361.136	63.62
361.6	70.62
362.064	67.62
362.527	74.12
362.991	76.62
363.454	62.32
363.918	59.42
364.381	66.82
364.845	67.72
365.308	67.72
365.772	75.22
366.235	70.22
366.698	67.12
367.162	65.82
367.625	69.52
368.088	76.92
368.552	73.32
369.015	64.62
369.478	77.42
369.941	82.62
370.404	78.72
370.867	83.62
371.331	91.62
371.794	88.52
372.257	84.72
372.72	82.52
373.183	81.42
373.646	75.52
374.109	77.52
374.572	81.22
375.035	94.02
375.497	79.12
375.96	91.82
376.423	86.72
376.886	96.02
377.349	90.92
377.811	87.62
378.274	91.32
378.737	87.12
379.199	94.42
379.662	88.22
380.125	96.82
380.587	91.42
381.05	92.82
381.512	108.52
381.975	98.52
382.437	101.22
382.9	97.52
383.362	111.52
383.825	110.32
384.287	106.02
384.75	102.52
385.212	115.22
385.674	115.82
386.136	118.02
386.599	105.62
387.061	106.92
387.523	105.92
387.985	105.32
388.447	122.12
388.91	116.52
389.372	114.82
389.834	118.72
390.296	115.72
390.758	115.22
391.22	124.42
391.682	139.42
392.144	145.72
392.606	139.92
393.068	129.42
393.529	144.42
393.991	124.22
394.453	122.62
394.915	120.72
395.377	121.02
395.838	131.22
396.3	124.92
396.762	126.02
397.224	122.72
397.685	124.62
398.147	122.52
398.608	120.92
399.07	123.22
399.531	119.82
399.993	130.82
400.454	142.12
400.916	137.22
401.377	129.42
401.839	141.12
402.3	132.92
402.762	154.72
403.223	160.92
403.684	154.62
404.145	146.22
404.607	146.62
405.068	150.22
405.529	152.02
405.99	163.62
406.451	163.32
406.913	154.22
407.374	156.92
407.835	153.02
408.296	165.42
408.757	158.92
409.218	176.72
409.679	160.12
410.14	155.22
410.601	170.22
411.062	174.62
411.522	166.02
411.983	169.52
412.444	162.62
412.905	173.92
413.366	177.52
413.826	182.52
414.287	212.62
414.748	259.62
415.208	246.22
415.669	208.42
416.13	201.22
416.59	196.92
417.051	210.22
417.511	205.12
417.972	231.52
418.432	238.22
418.893	275.52
419.353	239.42
419.814	193.52
420.274	184.92
420.734	175.52
421.195	180.52
421.655	181.72
422.115	187.02
422.576	190.62
423.036	190.72
423.496	198.72
423.956	205.92
424.416	218.92
424.876	256.82
425.336	248.22
425.797	255.72
426.257	248.52
426.717	230.82
427.177	222.62
427.637	211.52
428.097	223.82
428.556	235.82
429.016	250.72
429.476	249.52
429.936	257.62
430.396	263.22
430.856	269.22
431.315	300.62
431.775	321.82
432.235	356.42
432.694	328.82
433.154	342.02
433.614	363.42
434.073	317.72
434.533	272.92
434.993	258.32
435.452	266.02
435.912	274.72
436.371	270.72
436.83	255.72
437.29	240.62
437.749	235.72
438.209	240.02
438.668	254.12
439.127	274.62
439.587	249.02
440.046	239.22
440.505	248.02
440.964	270.22
441.424	305.82
441.883	293.02
442.342	253.02
442.801	226.52
443.26	219.82
443.719	217.62
444.178	216.22
444.637	212.72
445.096	219.72
445.555	220.12
446.014	218.22
446.473	226.92
446.932	224.42
447.391	219.52
447.849	223.82
448.308	221.12
448.767	218.72
449.226	229.62
449.685	241.22
450.143	249.42
450.602	238.22
451.061	226.42
451.519	232.32
451.978	227.22
452.436	233.12
452.895	236.22
453.353	248.62
453.812	241.32
454.27	234.42
454.729	242.82
455.187	237.82
455.646	236.52
456.104	248.52
456.562	258.62
457.021	256.72
457.479	262.12
457.937	263.82
458.395	258.52
458.854	254.82
459.312	248.32
459.77	271.52
460.228	261.32
460.686	246.92
461.144	251.12
461.602	243.42
462.06	242.42
462.518	251.72
462.976	257.42
463.434	252.32
463.892	261.52
464.35	272.82
464.808	279.12
465.266	266.62
465.724	268.22
466.181	272.92
466.639	267.52
467.097	285.82
467.555	297.02
468.012	300.72
468.47	305.02
468.928	331.42
469.385	339.82
469.843	342.32
470.3	346.62
470.758	360.92
471.215	381.52
471.673	398.32
472.13	398.32
472.588	411.82
473.045	376.42
473.503	377.82
473.96	389.92
474.417	412.12
474.875	424.42
475.332	464.52
475.789	451.32
476.246	458.12
476.704	478.52
477.161	498.72
477.618	508.92
478.075	547.42
478.532	605.22
478.989	661.82
479.446	770.72
479.903	736.62
480.36	772.42
480.817	819.12
481.274	905.62
481.731	992.92
482.188	1069.52
482.645	1185.53
483.102	1265.62
483.558	1380.82
484.015	1425.32
484.472	1388.92
484.929	1361.82
485.385	1322.42
485.842	1284.12
486.299	1232.52
486.755	1183.32
487.212	1019.32
487.668	885.82
488.125	816.52
488.582	749.92
489.038	723.52
489.494	682.12
489.951	675.62
490.407	647.12
490.864	638.42
491.32	628.42
491.776	633.32
492.233	641.32
492.689	607.92
493.145	602.02
493.602	594.12
494.058	604.32
494.514	609.12
494.97	618.62
495.426	643.52
495.882	614.82
496.338	603.72
496.794	607.32
497.251	601.22
497.707	616.42
498.163	625.62
498.618	630.22
499.074	632.42
499.53	657.12
499.986	645.42
500.442	635.02
500.898	627.42
501.354	609.32
501.809	621.82
502.265	624.52
502.721	629.62
503.177	650.42
503.632	645.42
504.088	649.02
504.543	663.92
504.999	671.72
505.455	649.42
505.91	633.12
506.366	629.12
506.821	630.42
507.277	634.92
507.732	630.22
508.187	632.12
508.643	641.32
509.098	636.42
509.553	666.52
510.009	670.02
510.464	676.62
510.919	688.72
511.375	695.72
511.83	702.82
512.285	720.22
512.74	754.32
513.195	771.72
513.65	768.22
514.105	760.42
514.56	754.42
515.015	774.32
515.47	798.02
515.925	773.82
516.38	787.82
516.835	783.62
517.29	777.52
517.745	775.72
518.2	765.32
518.655	742.72
519.109	741.72
519.564	736.52
520.019	740.52
520.474	724.82
520.928	725.42
521.383	713.62
521.838	712.82
522.292	716.92
522.747	706.92
523.201	715.32
523.656	701.52
524.11	710.02
524.565	699.32
525.019	689.42
525.474	700.72
525.928	706.42
526.382	692.12
526.837	694.22
527.291	699.32
527.745	695.92
528.2	695.22
528.654	694.32
529.108	693.32
529.562	699.92
530.016	690.12
530.47	685.12
530.925	684.32
531.379	689.12
531.833	696.22
532.287	696.72
532.741	702.32
533.195	694.82
533.649	707.92
534.103	709.42
534.556	709.52
535.01	696.52
535.464	704.52
535.918	717.42
536.372	718.22
536.826	705.42
537.279	702.22
537.733	708.62
538.187	711.12
538.64	716.82
539.094	722.62
539.548	737.92
540.001	716.72
540.455	730.82
540.908	737.72
541.362	732.22
541.815	751.12
542.269	754.32
542.722	764.22
543.175	776.02
543.629	776.12
544.082	793.72
544.536	792.92
544.989	794.22
545.442	799.82
545.895	802.52
546.349	797.52
546.802	804.82
547.255	803.12
547.708	809.42
548.161	816.42
548.614	827.32
549.067	825.52
549.52	823.92
549.973	813.02
550.426	818.02
550.879	799.72
551.332	806.82
551.785	807.02
552.238	820.42
552.691	833.72
553.144	845.42
553.596	858.72
554.049	870.02
554.502	895.72
554.955	913.22
555.407	912.62
555.86	902.72
556.313	899.92
556.765	883.32
557.218	894.72
557.67	892.82
558.123	888.82
558.576	876.72
559.028	901.22
559.48	890.72
559.933	894.12
560.385	851.32
560.838	821.32
561.29	790.02
561.742	789.92
562.195	783.72
562.647	775.82
563.099	790.02
563.551	787.32
564.004	781.22
564.456	777.12
564.908	765.62
565.36	741.02
565.812	731.32
566.264	729.42
566.716	723.02
567.168	713.42
567.62	718.92
568.072	700.82
568.524	703.62
568.976	699.02
569.428	684.62
569.88	681.32
570.332	696.32
570.784	690.42
571.235	699.52
571.687	699.32
572.139	719.52
572.59	723.82
573.042	720.62
573.494	730.42
573.945	718.22
574.397	697.12
574.849	703.32
575.3	707.12
575.752	689.32
576.203	689.42
576.655	682.52
577.106	685.22
577.557	676.52
578.009	679.32
578.46	677.62
578.912	676.32
579.363	676.82
579.814	674.72
580.265	677.92
580.717	677.72
581.168	679.82
581.619	672.22
582.07	685.62
582.521	678.72
582.972	673.42
583.423	684.82
583.875	678.52
584.326	685.82
584.777	714.22
585.227	743.12
585.678	760.32
586.129	773.12
586.58	802.12
587.031	829.32
587.482	886.52
587.933	918.32
588.384	891.12
588.834	814.82
589.285	784.72
589.736	781.12
590.186	775.12
590.637	772.92
591.088	758.42
591.538	748.02
591.989	752.92
592.439	740.92
592.89	733.02
593.34	714.92
593.791	713.42
594.241	710.42
594.692	704.72
595.142	701.42
595.593	709.22
596.043	706.42
596.493	725.22
596.943	718.62
597.394	734.92
597.844	727.42
598.294	744.22
598.744	781.92
599.195	787.02
599.645	843.12
600.095	878.52
600.545	936.22
600.995	988.82
601.445	1039.92
601.895	1100.83
602.345	1145.82
602.795	1144.72
603.245	1084.62
603.695	1038.32
604.145	989.12
604.594	932.92
605.044	873.82
605.494	812.92
605.944	769.82
606.393	763.72
606.843	738.52
607.293	741.62
607.743	742.42
608.192	749.62
608.642	763.32
609.091	766.92
609.541	773.22
609.99	774.92
610.44	781.72
610.889	730.12
611.339	708.32
611.788	703.32
612.238	709.12
612.687	720.22
613.136	707.62
613.586	719.82
614.035	712.52
614.484	724.52
614.933	725.22
615.383	719.72
615.832	728.22
616.281	707.12
616.73	678.52
617.179	662.52
617.628	661.42
618.077	640.32
618.526	627.42
618.975	630.92
619.424	621.82
619.873	615.22
620.322	630.92
620.771	620.12
621.22	611.52
621.669	606.02
622.118	597.62
622.567	583.52
623.015	577.52
623.464	582.32
623.913	561.72
624.361	563.32
624.81	567.72
625.259	555.82
625.707	559.62
626.156	558.12
626.604	573.62
627.053	572.92
627.501	581.72
627.95	579.72
628.398	589.02
628.847	582.32
629.295	578.22
629.744	584.02
630.192	578.92
630.64	576.32
631.089	549.12
631.537	550.42
631.985	545.82
632.433	549.12
632.881	545.72
633.33	555.22
633.778	556.52
634.226	537.92
634.674	550.02
635.122	553.32
635.57	567.52
636.018	577.02
636.466	569.32
636.914	563.02
637.362	580.72
637.81	592.22
638.258	595.22
638.705	591.52
639.153	616.52
639.601	635.82
640.049	661.02
640.497	687.72
640.944	708.52
641.392	662.52
641.84	623.72
642.287	599.02
642.735	574.62
643.182	571.82
643.63	565.22
644.078	568.62
644.525	585.32
644.973	584.22
645.42	597.62
645.867	626.42
646.315	641.82
646.762	665.62
647.21	687.22
647.657	702.22
648.104	749.12
648.551	758.32
648.999	832.82
649.446	905.92
649.893	990.12
650.34	1133.02
650.787	1355.42
651.234	1663.62
651.682	2146.42
652.129	2929.32
652.576	4171.62
653.023	6068.43
653.47	8189.52
653.917	10098.73
654.363	11513.43
654.81	12600.52
655.257	11984.43
655.704	7930.93
656.151	4787.32
656.598	3126.82
657.044	2254.62
657.491	1738.62
657.938	1407.22
658.385	1186.92
658.831	1032.22
659.278	945.62
659.724	832.12
660.171	773.02
660.618	717.72
661.064	679.32
661.511	663.22
661.957	655.82
662.404	636.62
662.85	646.42
663.296	621.02
663.743	563.82
664.189	542.72
664.635	539.42
665.082	535.52
665.528	535.82
665.974	524.12
666.42	513.62
666.867	515.32
667.313	493.42
667.759	473.12
668.205	465.12
668.651	457.32
669.097	459.72
669.543	445.62
669.989	447.72
670.435	458.52
670.881	459.62
671.327	461.32
671.773	486.32
672.219	509.42
672.665	556.32
673.11	602.72
673.556	647.52
674.002	695.52
674.448	676.62
674.893	572.12
675.339	499.22
675.785	457.72
676.23	436.02
676.676	400.92
677.122	389.32
677.567	382.82
678.013	382.02
678.458	371.72
678.904	372.22
679.349	355.22
679.794	366.52
680.24	363.32
680.685	358.72
681.131	365.12
681.576	356.82
682.021	368.92
682.466	350.82
682.912	361.82
683.357	362.02
683.802	396.82
684.247	425.42
684.692	468.72
685.137	515.62
685.583	560.22
686.028	575.92
686.473	534.52
686.918	461.12
687.363	433.52
687.807	407.72
688.252	377.12
688.697	369.22
689.142	352.52
689.587	343.92
690.032	340.82
690.477	360.22
690.921	354.72
691.366	390.62
691.811	409.42
692.255	453.52
692.7	482.92
693.145	525.92
693.589	757.32
694.034	1223.03
694.478	1622.02
694.923	1801.72
695.367	2328.12
695.812	1246.32
696.256	519.52
696.701	376.42
697.145	351.72
697.59	338.62
698.034	330.82
698.478	339.52
698.922	332.62
699.367	332.02
699.811	344.82
700.255	368.12
700.699	406.32
701.143	440.32
701.588	492.82
702.032	535.62
702.476	531.82
702.92	510.32
703.364	519.62
703.808	697.82
704.252	1131.62
704.696	1549.62
705.14	1724.62
705.584	2204.32
706.027	1112.12
706.471	551.82
706.915	424.62
707.359	368.42
707.803	333.12
708.246	323.32
708.69	318.32
709.134	324.82
709.577	320.22
710.021	330.62
710.465	315.32
710.908	308.82
711.352	306.82
711.795	319.22
712.239	368.52
712.682	400.72
713.126	425.92
713.569	476.52
714.012	367.42
714.456	313.12
714.899	305.52
715.342	283.32
715.786	281.12
716.229	268.22
716.672	262.32
717.115	258.62
717.558	254.92
718.002	261.32
718.445	272.22
718.888	293.12
719.331	304.02
719.774	320.42
720.217	311.32
720.66	288.22
721.103	283.72
721.546	268.22
721.989	263.12
722.432	231.92
722.874	246.32
723.317	241.32
723.76	249.82
724.203	272.42
724.645	332.62
725.088	482.52
725.531	598.62
725.974	660.42
726.416	573.72
726.859	316.42
727.301	250.52
727.744	249.12
728.187	245.12
728.629	250.52
729.071	257.72
729.514	268.22
729.956	284.12
730.399	292.32
730.841	301.12
731.283	276.72
731.726	272.72
732.168	281.62
732.61	284.62
733.053	296.52
733.495	340.22
733.937	374.82
734.379	422.52
734.821	470.02
735.263	580.92
735.705	919.12
736.148	1742.53
736.59	2754.02
737.032	3141.32
737.474	2572.62
737.916	859.32
738.357	454.72
738.799	342.92
739.241	312.32
739.683	299.42
740.125	307.82
740.567	316.02
741.008	326.12
741.45	326.52
741.892	333.12
742.334	363.22
742.775	376.32
743.217	360.82
743.658	289.42
744.1	263.92
744.542	283.72
744.983	336.22
745.425	359.42
745.866	355.32
746.307	288.22
746.749	289.62
747.19	342.92
747.632	491.52
748.073	991.52
748.514	2051.73
748.956	3013.82
749.397	3815.92
749.838	3153.93
750.279	3043.72
750.72	1566.52
751.162	574.72
751.603	335.62
752.044	267.22
752.485	226.02
752.926	222.72
753.367	210.82
753.808	205.62
754.249	200.72
754.69	190.92
755.131	187.52
755.572	189.02
756.013	186.42
756.453	192.72
756.894	197.32
757.335	198.52
757.776	201.92
758.216	206.32
758.657	209.52
759.098	212.32
759.538	232.62
759.979	285.32
760.42	407.42
760.86	787.42
761.301	2079.92
761.741	4827.02
762.182	6624.12
762.622	4676.12
763.063	1394.72
763.503	563.42
763.943	339.32
764.384	295.82
764.824	277.22
765.264	260.02
765.705	228.12
766.145	189.02
766.585	180.82
767.025	174.62
767.465	177.42
767.906	197.22
768.346	211.32
768.786	221.12
769.226	233.62
769.666	334.92
770.106	700.22
770.546	1724.53
770.986	2747.02
771.426	2424.32
771.866	837.22
772.306	345.72
772.745	210.72
773.185	180.32
773.625	171.02
774.065	161.22
774.505	169.22
774.944	225.72
775.384	404.82
775.824	646.82
776.263	617.32
776.703	303.22
777.142	169.12
777.582	140.32
778.021	129.72
778.461	130.32
778.9	127.22
779.34	127.32
779.779	115.72
780.219	110.52
780.658	108.32
781.097	116.72
781.537	119.32
781.976	110.02
782.415	108.62
782.855	109.52
783.294	105.42
783.733	107.62
784.172	117.02
784.611	109.52
785.05	115.62
785.489	119.12
785.928	119.12
786.367	128.62
786.806	122.12
787.245	131.22
787.684	139.52
788.123	153.22
788.562	136.42
789.001	135.32
789.44	124.72
789.879	120.92
790.317	116.22
790.756	135.72
791.195	139.52
791.634	155.92
792.072	222.52
792.511	411.42
792.95	1126.72
793.388	2223.82
793.827	1946.42
794.265	704.82
794.704	293.92
795.142	195.82
795.581	164.32
796.019	143.42
796.458	133.32
796.896	124.72
797.334	144.02
797.773	159.92
798.211	233.42
798.649	489.32
799.087	1110.92
799.526	1706.03
799.964	2149.62
800.402	2071.93
800.84	786.22
801.278	317.82
801.716	191.22
802.154	163.92
802.592	152.92
803.03	146.42
803.468	137.52
803.906	152.62
804.344	155.42
804.782	144.72
805.22	138.92
805.658	133.32
806.096	160.12
806.533	164.62
806.971	185.32
807.409	236.92
807.847	355.82
808.284	752.42
808.722	2068.32
809.16	3429.43
809.597	3451.73
810.035	5843.43
810.472	5916.32
810.91	2196.53
811.347	853.62
811.785	427.52
812.222	276.92
812.66	201.02
813.097	171.72
813.535	150.92
813.972	137.32
814.409	124.62
814.846	114.52
815.284	117.12
815.721	108.92
816.158	107.52
816.595	114.22
817.032	156.32
817.47	189.22
817.907	137.22
818.344	106.82
818.781	108.72
819.218	102.52
819.655	132.72
820.092	204.42
820.529	221.72
820.966	181.12
821.403	134.62
821.839	107.72
822.276	102.42
822.713	128.02
823.15	143.02
823.587	129.32
824.023	161.32
824.46	343.12
824.897	982.02
825.333	1391.03
825.77	611.92
826.206	242.32
826.643	142.32
827.08	107.82
827.516	85.42
827.953	83.42
828.389	86.22
828.825	73.82
829.262	71.42
829.698	70.32
830.135	66.72
830.571	63.42
831.007	67.92
831.443	65.52
831.88	61.52
832.316	59.22
832.752	65.82
833.188	69.52
833.624	66.92
834.06	72.62
834.497	66.82
834.933	72.72
835.369	77.62
835.805	73.02
836.241	86.52
836.677	84.02
837.112	97.72
837.548	113.32
837.984	143.02
838.42	217.62
838.856	562.82
839.292	1662.12
839.727	2390.93
840.163	1129.52
840.599	1031.72
841.034	2191.62
841.47	2184.72
841.906	820.42
842.341	355.92
842.777	211.32
843.212	219.72
843.648	197.22
844.083	116.72
844.519	89.62
844.954	81.42
845.39	66.32
845.825	56.82
846.261	57.42
846.696	52.52
847.131	50.92
847.566	60.32
848.002	53.42
848.437	57.72
848.872	65.72
849.307	64.62
849.742	87.42
850.177	204.72
850.613	600.32
851.048	902.52
851.483	396.62
851.918	170.82
852.353	90.72
852.788	58.22
853.223	48.02
853.657	55.02
854.092	50.12
854.527	46.22
854.962	43.82
855.397	47.72
855.832	46.52
856.266	41.72
856.701	41.32
857.136	42.72
857.57	39.62
858.005	58.22
858.44	58.12
858.874	50.12
859.309	53.22
859.743	39.22
860.178	61.72
860.612	43.22
861.047	54.02
861.481	72.82
861.915	84.32
862.35	53.02
862.784	37.82
863.218	31.52
863.653	38.12
864.087	47.92
864.521	58.72
864.955	76.52
865.39	163.52
865.824	185.12
866.258	119.02
866.692	180.12
867.126	186.92
867.56	113.12
867.994	58.22
868.428	43.32
868.862	49.92
869.296	56.42
869.73	62.02
870.164	54.92
870.598	55.12
871.031	39.22
871.465	34.52
871.899	30.42
872.333	28.52
872.766	23.12
873.2	26.52
873.634	35.52
874.067	27.22
874.501	27.22
874.935	35.22
875.368	32.22
875.802	23.42
876.235	25.02
876.669	30.42
877.102	21.32
877.535	32.72
877.969	22.92
878.402	29.62
878.836	19.82
879.269	24.32
879.702	22.52
880.135	22.82
880.569	26.32
881.002	22.02
881.435	19.52
881.868	12.62
882.301	26.52
882.734	19.32
883.167	25.72
883.601	20.52
884.034	18.82
884.467	14.32
884.899	19.92
885.332	18.02
885.765	21.12
886.198	15.92
886.631	22.12
887.064	21.92
887.497	20.82
887.929	22.22
888.362	15.62
888.795	15.92
889.228	20.02
889.66	19.42
890.093	20.42
890.526	18.52
890.958	17.82
891.391	16.22
891.823	22.32
892.256	14.12
892.688	10.02
893.121	21.32
893.553	12.92
893.985	21.62
894.418	16.82
894.85	15.32
895.282	17.62
895.715	17.82
896.147	22.82
896.579	18.42
897.011	17.42
897.444	19.92
897.876	19.72
898.308	19.72
898.74	16.62
899.172	13.92
899.604	22.82
900.036	21.22
900.468	12.02
900.9	13.82
901.332	23.42
901.764	19.82
902.196	19.12
902.628	21.62
903.06	17.52
903.491	32.62
903.923	26.12
904.355	27.12
904.787	24.62
905.218	21.12
905.65	22.32
906.082	9.82
906.513	17.92
906.945	13.22
907.376	15.82
907.808	19.42
908.239	18.22
908.671	24.02
909.102	27.02
909.534	24.62
909.965	47.02
910.397	100.92
910.828	336.92
911.259	485.62
911.691	228.92
912.122	117.42
912.553	55.02
912.984	32.52
913.415	26.12
913.847	24.62
914.278	21.82
914.709	16.22
915.14	18.32
915.571	19.52
916.002	8.82
916.433	22.92
916.864	16.52
917.295	12.82
917.726	22.92
918.157	19.02
918.587	31.02
919.018	22.32
919.449	25.32
919.88	22.62
920.311	33.22
920.741	56.02
921.172	180.52
921.603	159.32
922.033	76.02
922.464	52.42
922.895	20.12
923.325	21.12
923.756	10.92
924.186	12.12
924.617	22.02
925.047	18.92
925.478	24.52
925.908	20.62
926.338	13.62
926.769	12.92
927.199	20.12
927.629	6.42
928.06	12.92
928.49	9.82
928.92	9.02
929.35	9.02
929.78	10.52
930.21	12.12
930.641	10.42
931.071	8.72
931.501	6.52
931.931	8.32
932.361	8.12
932.791	5.72
933.221	6.02
933.651	10.02
934.08	16.12
934.51	31.52
934.94	7.22
935.37	10.32
935.8	8.32
936.229	3.02
936.659	12.32
937.089	4.12
937.519	8.72
937.948	24.42
938.378	17.12
938.807	11.02
939.237	4.72
939.666	10.12
940.096	-2.48
940.525	5.22
940.955	1.92
941.384	2.52
941.814	-4.48
942.243	0.92
942.672	4.82
943.102	-1.48
943.531	-3.78
943.96	-0.78
944.39	-1.48
944.819	0.82
945.248	5.42
945.677	7.82
946.106	6.62
946.535	4.82
946.964	-2.68
947.393	-0.28
947.822	1.92
948.251	-2.28
948.68	3.02
949.109	5.92
949.538	3.32
949.967	2.12
950.396	2.32
950.825	1.52
951.254	1.32
951.682	-3.28
952.111	7.82
952.54	4.42
952.969	-4.48
953.397	-7.78
953.826	-0.48
954.254	-3.68
954.683	3.92
955.112	3.92
955.54	-1.48
955.969	2.12
956.397	-2.58
956.826	-4.28
957.254	3.12
957.682	6.22
958.111	8.42
958.539	-2.98
958.967	2.52
959.396	-5.58
959.824	-0.68
960.252	-0.58
960.68	-5.88
961.109	-3.28
961.537	-5.98
961.965	1.22
962.393	0.12
962.821	3.62
963.249	5.32
963.677	6.12
964.105	4.42
964.533	43.82
964.961	44.92
965.389	22.72
965.817	7.22
966.245	3.22
966.672	2.72
967.1	-4.48
967.528	-3.78
967.956	-2.88
968.383	-1.58
968.811	-1.48
969.239	-0.98
969.666	-3.98
970.094	-1.68
970.522	3.92
970.949	-2.88
971.377	-4.08
971.804	-6.48
972.232	0.02
972.659	-2.38
973.087	0.72
973.514	4.02
973.941	-8.28
974.369	-2.28
974.796	0.92
975.223	0.32
975.651	-4.38
976.078	6.02
976.505	-1.68
976.932	0.82
977.359	15.62
977.786	17.32
978.214	0.42
978.641	1.62
979.068	0.32
979.495	-5.28
979.922	0.62
980.349	-1.58
980.776	6.12
981.202	2.82
981.629	2.12
982.056	3.42
982.483	-10.28
982.91	3.52
983.337	-6.48
983.763	3.02
984.19	-6.88
984.617	-2.98
985.043	-5.88
985.47	-2.18
985.897	-3.58
986.323	-7.48
986.75	0.62
987.176	-5.78
987.603	2.22
988.029	-3.78
988.456	-5.58
988.882	3.02
989.308	-1.88
989.735	-3.68
990.161	1.32
990.587	-3.88
991.014	-2.68
991.44	8.52
991.866	-5.38
992.292	-1.48
992.719	-2.28
993.145	2.12
993.571	-11.78
993.997	-1.88
994.423	-5.38
994.849	-4.68
995.275	1.42
995.701	-0.48
996.127	-3.28
996.553	-0.08
996.979	-6.28
997.405	-2.68
997.83	-6.58
998.256	2.02
998.682	-3.88
999.108	-6.88
999.534	-7.48
999.959	-6.38
1000.385	-1.08
1000.811	1.72
1001.236	-7.08
1001.662	-9.08
1002.087	-10.18
1002.513	-4.88
1002.938	5.52
1003.364	-3.38
1003.789	-0.18
1004.215	8.02
1004.64	-0.18
1005.066	-0.68
1005.491	-0.08
1005.916	-1.38
1006.342	-8.48
1006.767	-5.18
1007.192	-1.78
1007.617	-8.28
1008.042	-3.28
1008.468	-2.48
1008.893	-4.28
1009.318	-2.08
1009.743	-2.48
1010.168	3.12
1010.593	4.62
1011.018	-6.68
1011.443	1.62
1011.868	4.42
1012.293	-2.88
1012.718	-5.58
1013.143	-0.68
1013.567	2.22
1013.992	-2.28
1014.417	-13.48
1014.842	0.62
1015.267	-2.98
1015.691	-6.68
1016.116	5.62
1016.541	3.72
1016.965	-2.38
1017.39	6.42
1017.814	2.02
1018.239	-1.28
1018.663	-8.68
1019.088	-9.38
1019.512	-5.08
1019.937	-6.58
1020.361	-5.18
1020.785	-7.68
1021.21	-3.38
1021.634	-6.08
1022.058	1.02
1022.483	3.82
1022.907	-3.68
1023.331	0.32
1023.755	-2.48
1024.179	2.52
1024.604	-10.28
1025.028	-8.38
1025.452	-8.08
1025.876	-0.18
1026.3	-3.28
1026.724	-9.08
1027.148	-7.28
1027.572	-14.48
1027.996	-12.98
1028.42	-2.88
1028.843	-4.18
1029.267	-2.68
1029.691	-1.18
1030.115	-5.28
1030.539	-3.88
1030.962	-2.68
1031.386	-9.88
1031.81	2.42
1032.233	2.42
1032.657	0.52
1033.08	4.52
1033.504	-2.48
1033.927	-9.98
1034.351	-1.28
1034.774	-8.38
1035.198	-1.58
1035.621	-8.48
1036.045	-6.68
1036.468	2.72
1036.891	-7.08
1037.315	-10.08
1037.738	-13.38
1038.161	-2.78
1038.584	-9.68
1039.008	-3.98
1039.431	-6.38
1039.854	-7.78
1040.277	-7.38
1040.7	-7.58
1041.123	-0.38
1041.546	-10.38
1041.969	-5.38
1042.392	-7.58
1042.815	-0.88
1043.238	5.92
1043.661	-4.58
1044.084	-4.78
1044.507	-5.48
1044.93	-1.98
1045.352	-9.08
1045.775	2.42
1046.198	-3.58
1046.621	-2.78
1047.043	-3.88
1047.466	5.92
1047.889	-4.08
1048.311	-9.38
1048.734	-2.28
1049.156	-3.78
1049.579	1.12
1050.001	-1.18
1050.424	0.62
1050.846	-6.58
1051.269	-2.28
1051.691	-5.08
1052.113	-4.08
1052.536	2.02
1052.958	-1.38
1053.38	-3.98
1053.802	-11.98
1054.225	2.62
1054.647	-11.78
1055.069	-7.48
1055.491	-5.88
1055.913	-10.08
1056.335	3.92
1056.757	-3.08
1057.179	-2.18
1057.601	-6.18
1058.023	-8.78
1058.445	-3.58
1058.867	-2.38
1059.289	-5.48
1059.711	-1.68
1060.133	0.12
1060.555	-5.68
1060.976	-5.88
1061.398	-8.58
1061.82	-5.88
1062.241	-5.18
1062.663	-6.18
1063.085	-4.68
1063.506	-1.48
1063.928	-4.18
1064.35	-1.38
1064.771	-8.48
1065.193	-4.98
1065.614	-5.88
1066.035	0.22
1066.457	-2.08
1066.878	3.22
1067.3	-0.28
1067.721	2.02
1068.142	-6.58
1068.564	-3.58
1068.985	-1.78
1069.406	-2.58
1069.827	0.52
1070.248	-1.48
1070.67	-2.08
1071.091	2.32
1071.512	-4.08
1071.933	-4.88
1072.354	-7.48
1072.775	-8.08
1073.196	-1.28
1073.617	2.02
1074.038	-6.78
1074.459	-7.08
1074.88	-10.98
1075.3	5.42
1075.721	-5.78
1076.142	8.52
1076.563	0.02
1076.983	-3.08
1077.404	-10.88
1077.825	-9.18
1078.246	-5.28
1078.666	-11.38
1079.087	-6.28
1079.507	-8.28
1079.928	5.02
1080.348	-4.18
1080.769	-7.88
1081.189	-0.88
1081.61	-4.98
1082.03	-1.38
1082.451	-6.08
1082.871	-0.98
1083.291	-6.58
1083.711	-10.08
1084.132	-4.68
1084.552	-9.08
1084.972	-1.18
1085.392	-14.68
1085.813	-12.58
1086.233	-10.38
1086.653	-8.38
1087.073	-2.98
1087.493	-6.78
1087.913	-6.78
1088.333	1.72
1088.753	-3.08
1089.173	2.62
1089.593	-4.28
1090.013	0.02
1090.433	3.62
1090.852	-7.08
1091.272	-1.78
1091.692	-1.58
1092.112	-2.38
1092.531	-10.68
1092.951	-14.98
1093.371	2.02
1093.79	-1.18
1094.21	-6.98
1094.63	-10.38
1095.049	-7.78
1095.469	-5.88
1095.888	-2.88
1096.308	1.92
1096.727	2.22
1097.146	-2.18
1097.566	-0.98
1097.985	-1.38
1098.405	-7.28
1098.824	-7.68
1099.243	-9.48
1099.662	-6.88
1100.082	-4.08
1100.501	-3.18
1100.92	-6.18
1101.339	-7.58
1101.758	-2.68
