Data from 20171114-ORNL-Ar_H_NY_Subt18_08-05-12-763.txt Node
Date: Tue Nov 14 08:05:12 EST 2017
User: Ender
Spectrometer: HR+D1039
Trigger mode: 0
Integration Time (sec): 2.730000E-2
Scans to average: 10
Electric dark correction enabled: true
Nonlinearity correction enabled: false
Boxcar width: 0
XAxis mode: Wavelengths
Number of Pixels in Spectrum: 2048
>>>>>Begin Spectral Data<<<<<
187.836	-1.03
188.309	-1.03
188.782	-1.03
189.255	-1.03
189.728	-1.83
190.201	4.07
190.674	3.07
191.147	-1.53
191.619	-9.33
192.092	1.67
192.565	3.97
193.038	-0.93
193.511	-0.23
193.984	4.57
194.456	-3.03
194.929	2.67
195.402	-0.43
195.874	-0.63
196.347	1.27
196.82	1.37
197.292	6.87
197.765	5.07
198.237	-5.43
198.71	-1.13
199.182	-2.43
199.655	1.47
200.127	3.97
200.6	-5.83
201.072	-5.33
201.544	-4.43
202.017	-0.83
202.489	5.27
202.961	-0.83
203.433	-4.93
203.906	-3.33
204.378	-4.03
204.85	-0.33
205.322	-4.13
205.794	7.07
206.266	-1.53
206.739	-4.93
207.211	-0.23
207.683	-6.53
208.155	-0.83
208.627	-5.03
209.099	-3.73
209.57	-2.83
210.042	-4.23
210.514	3.27
210.986	5.37
211.458	-8.23
211.93	-0.53
212.402	2.47
212.873	-8.63
213.345	-10.13
213.817	-13.03
214.288	-4.83
214.76	-13.13
215.232	2.07
215.703	-3.03
216.175	2.27
216.646	-1.53
217.118	-1.93
217.589	-0.33
218.061	-1.23
218.532	-4.73
219.004	-1.13
219.475	-6.83
219.946	-4.93
220.418	1.57
220.889	0.07
221.36	-2.43
221.832	1.77
222.303	-8.03
222.774	0.87
223.245	-6.83
223.717	-4.13
224.188	-3.13
224.659	-4.63
225.13	-4.23
225.601	2.37
226.072	0.67
226.543	2.07
227.014	5.87
227.485	-4.33
227.956	1.27
228.427	0.77
228.898	0.27
229.369	6.07
229.839	-5.33
230.31	-7.73
230.781	7.67
231.252	0.27
231.722	-1.03
232.193	-3.73
232.664	-3.53
233.135	2.17
233.605	3.27
234.076	-6.53
234.546	5.47
235.017	7.57
235.487	3.47
235.958	-0.33
236.428	1.47
236.899	5.97
237.369	8.57
237.84	-1.93
238.31	9.37
238.78	-0.63
239.251	0.27
239.721	10.07
240.191	1.77
240.662	-0.73
241.132	0.17
241.602	-2.73
242.072	6.97
242.542	9.17
243.013	5.07
243.483	7.47
243.953	3.97
244.423	5.07
244.893	0.27
245.363	4.77
245.833	1.07
246.303	-3.13
246.773	13.67
247.243	8.57
247.712	4.77
248.182	14.07
248.652	5.27
249.122	3.07
249.592	16.57
250.061	21.17
250.531	34.57
251.001	20.07
251.471	24.77
251.94	24.27
252.41	8.27
252.879	2.97
253.349	20.77
253.818	13.27
254.288	9.57
254.757	5.27
255.227	12.17
255.696	3.87
256.166	9.77
256.635	5.67
257.105	8.87
257.574	6.77
258.043	8.97
258.513	14.57
258.982	18.37
259.451	10.97
259.92	17.47
260.389	14.17
260.859	20.27
261.328	18.57
261.797	22.07
262.266	12.97
262.735	9.47
263.204	9.57
263.673	6.47
264.142	9.77
264.611	7.37
265.08	8.97
265.549	0.17
266.018	10.67
266.487	2.37
266.955	-5.53
267.424	1.97
267.893	11.17
268.362	3.37
268.83	4.67
269.299	14.77
269.768	8.67
270.236	8.57
270.705	11.47
271.174	9.67
271.642	13.57
272.111	11.77
272.579	19.77
273.048	28.17
273.516	31.07
273.985	29.97
274.453	26.67
274.922	32.07
275.39	16.07
275.858	11.87
276.327	16.67
276.795	18.77
277.263	14.87
277.731	37.87
278.2	58.77
278.668	65.47
279.136	49.87
279.604	24.27
280.072	13.57
280.54	19.87
281.008	16.17
281.477	16.57
281.945	17.17
282.413	16.57
282.881	20.47
283.348	14.97
283.816	21.57
284.284	15.27
284.752	22.97
285.22	15.77
285.688	18.07
286.156	29.57
286.623	45.67
287.091	52.87
287.559	33.37
288.026	22.37
288.494	18.97
288.962	13.57
289.429	15.27
289.897	20.77
290.364	16.37
290.832	19.17
291.3	11.67
291.767	19.17
292.234	23.07
292.702	18.87
293.169	16.67
293.637	25.47
294.104	26.27
294.571	16.77
295.039	17.67
295.506	19.47
295.973	22.17
296.44	15.27
296.908	24.87
297.375	21.67
297.842	22.57
298.309	22.87
298.776	21.27
299.243	23.17
299.71	19.47
300.177	25.07
300.644	22.77
301.111	27.27
301.578	27.57
302.045	20.97
302.512	29.57
302.979	26.77
303.446	27.57
303.913	20.17
304.379	29.57
304.846	28.17
305.313	27.57
305.78	30.27
306.246	27.47
306.713	31.57
307.18	29.37
307.646	29.47
308.113	32.47
308.579	25.17
309.046	38.17
309.512	36.87
309.979	22.97
310.445	28.57
310.912	34.27
311.378	33.27
311.845	34.67
312.311	33.37
312.777	37.87
313.244	32.87
313.71	43.07
314.176	29.47
314.642	33.37
315.109	30.87
315.575	39.87
316.041	46.67
316.507	39.67
316.973	43.77
317.439	34.37
317.905	36.77
318.371	37.67
318.837	37.47
319.303	32.37
319.769	37.27
320.235	39.57
320.701	42.37
321.167	46.97
321.633	36.97
322.099	47.07
322.564	52.57
323.03	44.37
323.496	45.47
323.962	50.27
324.427	44.27
324.893	53.17
325.359	39.17
325.824	40.67
326.29	40.47
326.755	42.87
327.221	49.67
327.686	45.77
328.152	48.87
328.617	49.37
329.083	56.47
329.548	58.37
330.014	47.67
330.479	44.37
330.944	50.27
331.41	42.17
331.875	47.57
332.34	47.37
332.805	50.67
333.271	50.07
333.736	45.37
334.201	54.47
334.666	54.97
335.131	56.07
335.596	56.87
336.061	52.87
336.526	47.67
336.991	56.87
337.456	60.57
337.921	53.17
338.386	48.97
338.851	49.57
339.316	52.27
339.781	54.07
340.246	53.07
340.711	55.17
341.175	54.27
341.64	48.17
342.105	53.17
342.569	58.37
343.034	63.47
343.499	61.07
343.963	58.47
344.428	65.27
344.893	64.47
345.357	68.27
345.822	61.67
346.286	67.07
346.751	74.27
347.215	67.17
347.679	80.07
348.144	102.37
348.608	93.27
349.073	75.67
349.537	85.37
350.001	84.87
350.465	98.27
350.93	84.97
351.394	90.27
351.858	74.27
352.322	91.97
352.786	89.17
353.25	104.17
353.715	111.67
354.179	102.07
354.643	125.67
355.107	130.47
355.571	113.97
356.035	108.97
356.498	117.57
356.962	131.67
357.426	139.07
357.89	119.87
358.354	94.57
358.818	88.37
359.281	80.97
359.745	79.87
360.209	82.27
360.673	81.27
361.136	83.07
361.6	88.17
362.064	88.57
362.527	90.77
362.991	95.77
363.454	84.97
363.918	83.27
364.381	81.67
364.845	89.67
365.308	91.07
365.772	91.37
366.235	92.47
366.698	83.77
367.162	89.17
367.625	87.67
368.088	90.67
368.552	91.07
369.015	96.27
369.478	105.17
369.941	107.47
370.404	95.77
370.867	104.37
371.331	115.57
371.794	118.37
372.257	116.67
372.72	122.67
373.183	113.27
373.646	104.07
374.109	102.07
374.572	109.17
375.035	111.47
375.497	110.77
375.96	108.27
376.423	103.87
376.886	117.47
377.349	113.17
377.811	113.77
378.274	109.47
378.737	106.77
379.199	115.87
379.662	115.97
380.125	124.27
380.587	120.17
381.05	128.67
381.512	132.67
381.975	141.67
382.437	134.17
382.9	128.67
383.362	133.47
383.825	143.17
384.287	144.07
384.75	138.47
385.212	144.17
385.674	138.97
386.136	138.07
386.599	123.97
387.061	133.87
387.523	117.37
387.985	136.37
388.447	152.37
388.91	149.07
389.372	156.47
389.834	157.07
390.296	148.77
390.758	158.27
391.22	167.67
391.682	204.37
392.144	285.57
392.606	223.37
393.068	167.17
393.529	169.47
393.991	156.97
394.453	145.47
394.915	153.67
395.377	186.87
395.838	211.97
396.3	156.97
396.762	138.17
397.224	132.97
397.685	128.87
398.147	136.27
398.608	129.47
399.07	133.07
399.531	131.87
399.993	147.07
400.454	155.37
400.916	141.87
401.377	153.27
401.839	158.07
402.3	155.87
402.762	166.97
403.223	182.87
403.684	171.47
404.145	164.17
404.607	161.77
405.068	169.47
405.529	172.77
405.99	193.07
406.451	178.57
406.913	173.07
407.374	166.47
407.835	163.07
408.296	165.67
408.757	169.97
409.218	185.57
409.679	179.77
410.14	176.17
410.601	178.07
411.062	183.67
411.522	198.77
411.983	193.57
412.444	183.07
412.905	180.17
413.366	187.77
413.826	197.17
414.287	215.07
414.748	262.77
415.208	244.17
415.669	211.97
416.13	204.47
416.59	208.47
417.051	210.27
417.511	220.77
417.972	237.97
418.432	248.37
418.893	280.97
419.353	244.47
419.814	204.37
420.274	177.77
420.734	179.57
421.195	206.87
421.655	193.17
422.115	193.27
422.576	191.77
423.036	198.67
423.496	208.17
423.956	215.67
424.416	231.17
424.876	268.57
425.336	266.57
425.797	263.57
426.257	261.77
426.717	242.37
427.177	234.67
427.637	222.67
428.097	242.67
428.556	249.67
429.016	275.57
429.476	267.17
429.936	274.17
430.396	277.27
430.856	292.27
431.315	314.17
431.775	353.47
432.235	382.57
432.694	353.77
433.154	362.57
433.614	390.77
434.073	344.27
434.533	284.17
434.993	272.47
435.452	281.47
435.912	296.47
436.371	295.37
436.83	290.17
437.29	265.07
437.749	249.37
438.209	237.57
438.668	271.17
439.127	295.37
439.587	269.67
440.046	247.57
440.505	259.97
440.964	281.97
441.424	330.47
441.883	319.57
442.342	261.57
442.801	226.47
443.26	223.27
443.719	230.87
444.178	220.87
444.637	205.87
445.096	219.07
445.555	225.07
446.014	226.27
446.473	229.87
446.932	240.17
447.391	222.57
447.849	228.57
448.308	226.77
448.767	223.87
449.226	234.47
449.685	237.17
450.143	249.17
450.602	238.47
451.061	237.37
451.519	230.77
451.978	234.17
452.436	234.47
452.895	237.07
453.353	253.77
453.812	243.97
454.27	234.37
454.729	234.87
455.187	245.07
455.646	241.57
456.104	248.97
456.562	266.47
457.021	272.87
457.479	260.67
457.937	273.77
458.395	263.17
458.854	247.97
459.312	255.07
459.77	271.17
460.228	256.07
460.686	243.07
461.144	250.27
461.602	247.97
462.06	246.37
462.518	256.17
462.976	256.57
463.434	258.77
463.892	258.37
464.35	278.97
464.808	295.37
465.266	265.27
465.724	268.47
466.181	276.17
466.639	274.77
467.097	296.87
467.555	301.57
468.012	303.57
468.47	307.97
468.928	327.77
469.385	350.07
469.843	358.17
470.3	352.47
470.758	364.77
471.215	384.47
471.673	408.47
472.13	404.27
472.588	406.77
473.045	374.37
473.503	381.27
473.96	391.27
474.417	402.97
474.875	424.57
475.332	477.17
475.789	459.17
476.246	462.17
476.704	482.57
477.161	513.97
477.618	520.77
478.075	563.27
478.532	614.77
478.989	690.77
479.446	808.67
479.903	766.17
480.36	807.87
480.817	867.97
481.274	968.97
481.731	1071.07
482.188	1173.07
482.645	1306.17
483.102	1406.97
483.558	1552.97
484.015	1604.07
484.472	1570.77
484.929	1533.57
485.385	1474.97
485.842	1429.27
486.299	1380.57
486.755	1302.87
487.212	1099.67
487.668	924.17
488.125	848.37
488.582	782.67
489.038	742.17
489.494	712.77
489.951	689.17
490.407	667.27
490.864	650.17
491.32	647.17
491.776	641.47
492.233	643.17
492.689	605.37
493.145	601.37
493.602	597.57
494.058	608.77
494.514	626.87
494.97	631.57
495.426	637.17
495.882	623.87
496.338	619.07
496.794	634.27
497.251	624.57
497.707	633.47
498.163	635.37
498.618	645.97
499.074	656.97
499.53	687.47
499.986	687.17
500.442	659.77
500.898	629.77
501.354	624.67
501.809	631.97
502.265	640.97
502.721	654.67
503.177	670.67
503.632	671.17
504.088	665.37
504.543	709.57
504.999	711.87
505.455	657.27
505.91	635.07
506.366	636.67
506.821	639.17
507.277	631.77
507.732	627.07
508.187	628.87
508.643	638.27
509.098	639.17
509.553	655.27
510.009	663.77
510.464	673.57
510.919	685.07
511.375	691.07
511.83	710.97
512.285	718.77
512.74	759.67
513.195	788.07
513.65	774.57
514.105	765.07
514.56	764.87
515.015	789.47
515.47	806.07
515.925	800.57
516.38	776.37
516.835	789.47
517.29	786.67
517.745	779.77
518.2	756.77
518.655	745.27
519.109	739.57
519.564	741.77
520.019	728.87
520.474	724.57
520.928	734.27
521.383	711.87
521.838	708.17
522.292	707.47
522.747	710.07
523.201	696.67
523.656	690.87
524.11	694.57
524.565	693.37
525.019	690.87
525.474	688.67
525.928	702.07
526.382	694.07
526.837	690.97
527.291	699.97
527.745	691.47
528.2	698.57
528.654	690.87
529.108	691.97
529.562	693.87
530.016	692.87
530.47	683.17
530.925	686.87
531.379	690.07
531.833	700.77
532.287	705.77
532.741	704.87
533.195	712.17
533.649	717.37
534.103	723.07
534.556	721.27
535.01	714.47
535.464	699.07
535.918	714.77
536.372	722.27
536.826	718.37
537.279	703.27
537.733	718.87
538.187	708.07
538.64	711.77
539.094	712.97
539.548	728.47
540.001	716.57
540.455	720.87
540.908	724.17
541.362	728.87
541.815	741.07
542.269	751.37
542.722	754.87
543.175	758.77
543.629	769.27
544.082	787.77
544.536	781.27
544.989	777.67
545.442	779.37
545.895	773.77
546.349	774.67
546.802	789.37
547.255	789.57
547.708	798.57
548.161	807.57
548.614	814.67
549.067	819.67
549.52	814.07
549.973	799.57
550.426	802.07
550.879	789.57
551.332	788.57
551.785	796.37
552.238	792.87
552.691	811.67
553.144	825.77
553.596	835.77
554.049	853.97
554.502	882.47
554.955	906.27
555.407	897.47
555.86	887.97
556.313	872.07
556.765	871.17
557.218	873.17
557.67	874.27
558.123	858.07
558.576	873.87
559.028	867.07
559.48	863.77
559.933	871.57
560.385	828.27
560.838	795.07
561.29	772.37
561.742	758.17
562.195	748.07
562.647	751.77
563.099	758.57
563.551	750.17
564.004	774.47
564.456	769.27
564.908	749.77
565.36	737.27
565.812	727.47
566.264	718.17
566.716	720.07
567.168	701.67
567.62	711.37
568.072	700.47
568.524	675.87
568.976	687.97
569.428	658.97
569.88	659.87
570.332	662.47
570.784	664.57
571.235	669.67
571.687	681.07
572.139	689.07
572.59	706.97
573.042	696.77
573.494	695.97
573.945	687.57
574.397	675.87
574.849	677.87
575.3	674.37
575.752	675.47
576.203	680.47
576.655	666.47
577.106	655.07
577.557	649.97
578.009	654.37
578.46	651.67
578.912	651.67
579.363	647.07
579.814	647.57
580.265	652.97
580.717	646.27
581.168	659.37
581.619	662.37
582.07	671.97
582.521	666.47
582.972	655.57
583.423	660.67
583.875	665.27
584.326	683.47
584.777	720.17
585.227	794.07
585.678	886.17
586.129	976.27
586.58	1025.07
587.031	1126.27
587.482	1269.57
587.933	1455.57
588.384	1267.57
588.834	930.17
589.285	772.97
589.736	764.67
590.186	745.77
590.637	750.57
591.088	729.47
591.538	722.67
591.989	716.47
592.439	712.57
592.89	701.17
593.34	683.37
593.791	686.07
594.241	686.67
594.692	692.17
595.142	673.67
595.593	682.47
596.043	684.37
596.493	688.47
596.943	693.87
597.394	694.87
597.844	683.07
598.294	707.67
598.744	724.77
599.195	751.67
599.645	786.27
600.095	824.67
600.545	885.77
600.995	928.97
601.445	995.07
601.895	1045.27
602.345	1110.87
602.795	1076.97
603.245	1032.67
603.695	973.37
604.145	922.57
604.594	880.57
605.044	834.27
605.494	774.87
605.944	731.17
606.393	728.87
606.843	699.57
607.293	711.47
607.743	710.67
608.192	720.17
608.642	730.27
609.091	744.27
609.541	754.27
609.99	741.37
610.44	746.67
610.889	697.17
611.339	674.27
611.788	663.87
612.238	673.87
612.687	693.47
613.136	699.57
613.586	706.47
614.035	707.27
614.484	730.67
614.933	723.67
615.383	719.27
615.832	713.17
616.281	701.67
616.73	661.17
617.179	638.47
617.628	620.57
618.077	614.97
618.526	599.37
618.975	590.97
619.424	595.67
619.873	596.87
620.322	590.47
620.771	581.17
621.22	577.87
621.669	572.17
622.118	566.17
622.567	564.37
623.015	546.47
623.464	551.97
623.913	538.07
624.361	523.47
624.81	521.87
625.259	523.07
625.707	533.17
626.156	534.87
626.604	551.17
627.053	530.27
627.501	540.87
627.95	538.07
628.398	554.07
628.847	545.07
629.295	542.37
629.744	540.47
630.192	545.87
630.64	541.17
631.089	541.67
631.537	538.37
631.985	556.37
632.433	568.77
632.881	576.47
633.33	629.77
633.778	614.47
634.226	539.97
634.674	539.57
635.122	553.17
635.57	573.97
636.018	594.77
636.466	554.07
636.914	533.27
637.362	537.87
637.81	542.27
638.258	547.67
638.705	556.27
639.153	579.57
639.601	587.77
640.049	607.97
640.497	651.17
640.944	664.97
641.392	620.27
641.84	585.37
642.287	556.87
642.735	542.37
643.182	545.57
643.63	535.77
644.078	544.57
644.525	559.77
644.973	564.47
645.42	573.57
645.867	586.47
646.315	612.67
646.762	624.07
647.21	651.37
647.657	679.07
648.104	706.37
648.551	727.47
648.999	778.87
649.446	865.57
649.893	940.47
650.34	1089.87
650.787	1291.77
651.234	1614.57
651.682	2111.87
652.129	2865.47
652.576	4135.87
653.023	6106.97
653.47	8387.87
653.917	10519.97
654.363	12315.27
654.81	13732.97
655.257	13051.97
655.704	8552.77
656.151	5004.97
656.598	3260.27
657.044	2311.17
657.491	1772.27
657.938	1423.27
658.385	1180.47
658.831	1027.47
659.278	919.17
659.724	811.57
660.171	741.87
660.618	681.47
661.064	646.67
661.511	632.97
661.957	616.97
662.404	605.67
662.85	619.17
663.296	587.37
663.743	525.67
664.189	502.77
664.635	507.97
665.082	496.17
665.528	502.47
665.974	491.17
666.42	485.97
666.867	480.67
667.313	466.57
667.759	449.77
668.205	446.77
668.651	453.87
669.097	458.27
669.543	464.47
669.989	445.57
670.435	422.47
670.881	424.47
671.327	435.27
671.773	447.07
672.219	455.47
672.665	516.67
673.11	551.37
673.556	597.47
674.002	631.77
674.448	619.47
674.893	513.27
675.339	448.07
675.785	412.57
676.23	387.67
676.676	368.97
677.122	361.17
677.567	355.87
678.013	337.37
678.458	336.47
678.904	336.07
679.349	331.37
679.794	326.27
680.24	331.97
680.685	329.07
681.131	323.97
681.576	330.77
682.021	332.07
682.466	330.37
682.912	327.17
683.357	327.47
683.802	351.57
684.247	387.07
684.692	431.07
685.137	466.97
685.583	505.77
686.028	530.37
686.473	487.17
686.918	415.57
687.363	388.27
687.807	370.97
688.252	334.97
688.697	337.77
689.142	317.57
689.587	312.47
690.032	306.57
690.477	329.47
690.921	322.17
691.366	354.97
691.811	379.57
692.255	400.27
692.7	427.27
693.145	468.07
693.589	641.87
694.034	1019.07
694.478	1418.47
694.923	1614.07
695.367	2135.07
695.812	1117.57
696.256	459.77
696.701	344.07
697.145	317.27
697.59	310.97
698.034	300.37
698.478	308.07
698.922	292.47
699.367	306.77
699.811	311.97
700.255	337.67
700.699	359.27
701.143	385.17
701.588	442.97
702.032	479.87
702.476	480.17
702.92	459.17
703.364	451.17
703.808	575.27
704.252	935.77
704.696	1336.37
705.14	1561.77
705.584	2000.67
706.027	995.07
706.471	478.67
706.915	361.27
707.359	327.47
707.803	293.97
708.246	290.27
708.69	295.17
709.134	287.97
709.577	286.47
710.021	291.97
710.465	284.37
710.908	271.27
711.352	270.57
711.795	288.67
712.239	320.57
712.682	354.97
713.126	394.67
713.569	432.17
714.012	349.17
714.456	295.77
714.899	284.97
715.342	259.57
715.786	243.77
716.229	242.67
716.672	234.07
717.115	232.87
717.558	231.97
718.002	230.77
718.445	247.87
718.888	267.37
719.331	273.47
719.774	286.97
720.217	282.27
720.66	263.67
721.103	246.27
721.546	229.27
721.989	235.57
722.432	217.17
722.874	225.07
723.317	221.17
723.76	219.57
724.203	238.37
724.645	289.67
725.088	399.97
725.531	528.07
725.974	604.57
726.416	511.47
726.859	286.57
727.301	234.07
727.744	220.47
728.187	220.87
728.629	224.57
729.071	231.07
729.514	243.57
729.956	251.57
730.399	263.97
730.841	262.97
731.283	251.17
731.726	249.57
732.168	245.97
732.61	247.57
733.053	263.37
733.495	282.87
733.937	325.67
734.379	364.37
734.821	399.37
735.263	499.57
735.705	747.37
736.148	1413.27
736.59	2352.57
737.032	2857.67
737.474	2312.17
737.916	748.57
738.357	394.07
738.799	299.47
739.241	279.87
739.683	270.47
740.125	267.87
740.567	272.07
741.008	294.47
741.45	290.97
741.892	290.37
742.334	322.27
742.775	336.67
743.217	319.47
743.658	251.37
744.1	234.57
744.542	242.77
744.983	291.27
745.425	319.27
745.866	324.57
746.307	263.57
746.749	263.77
747.19	302.37
747.632	417.67
748.073	788.17
748.514	1683.57
748.956	2612.07
749.397	3276.27
749.838	2733.47
750.279	2764.57
750.72	1407.17
751.162	521.07
751.603	300.47
752.044	236.07
752.485	201.07
752.926	196.97
753.367	193.57
753.808	183.57
754.249	173.97
754.69	172.97
755.131	170.37
755.572	166.37
756.013	165.47
756.453	171.97
756.894	170.57
757.335	176.77
757.776	184.77
758.216	181.97
758.657	183.57
759.098	190.57
759.538	201.77
759.979	245.87
760.42	341.17
760.86	635.27
761.301	1621.67
761.741	4001.37
762.182	6046.47
762.622	4272.57
763.063	1212.97
763.503	499.37
763.943	315.47
764.384	311.67
764.824	368.97
765.264	408.87
765.705	283.17
766.145	202.47
766.585	176.27
767.025	165.67
767.465	168.47
767.906	224.87
768.346	290.97
768.786	316.67
769.226	241.37
769.666	294.77
770.106	551.77
770.546	1390.17
770.986	2441.17
771.426	2223.87
771.866	737.77
772.306	301.07
772.745	195.57
773.185	161.17
773.625	150.27
774.065	145.17
774.505	183.27
774.944	277.67
775.384	604.47
775.824	1120.17
776.263	1097.67
776.703	464.07
777.142	207.07
777.582	144.47
778.021	124.27
778.461	126.57
778.9	126.57
779.34	123.37
779.779	110.67
780.219	105.27
780.658	102.87
781.097	102.07
781.537	108.67
781.976	100.97
782.415	100.27
782.855	91.37
783.294	96.57
783.733	93.37
784.172	101.47
784.611	98.57
785.05	99.57
785.489	108.77
785.928	107.77
786.367	110.87
786.806	108.67
787.245	117.67
787.684	122.47
788.123	136.57
788.562	125.47
789.001	115.97
789.44	111.97
789.879	109.37
790.317	107.07
790.756	123.57
791.195	119.87
791.634	138.07
792.072	187.37
792.511	330.27
792.95	890.57
793.388	1983.67
793.827	1814.37
794.265	632.47
794.704	262.17
795.142	172.07
795.581	144.47
796.019	123.37
796.458	115.77
796.896	114.47
797.334	124.77
797.773	141.47
798.211	195.87
798.649	379.57
799.087	921.47
799.526	1469.27
799.964	1843.57
800.402	1895.37
800.84	705.87
801.278	282.57
801.716	168.87
802.154	138.77
802.592	137.17
803.03	132.77
803.468	124.27
803.906	130.47
804.344	136.87
804.782	122.67
805.22	129.27
805.658	120.37
806.096	144.97
806.533	144.97
806.971	156.77
807.409	199.07
807.847	287.57
808.284	585.17
808.722	1673.57
809.16	3039.47
809.597	2818.37
810.035	4961.87
810.472	5455.97
810.91	1946.07
811.347	723.27
811.785	372.37
812.222	237.17
812.66	180.37
813.097	157.07
813.535	135.97
813.972	125.27
814.409	114.07
814.846	96.97
815.284	97.97
815.721	88.47
816.158	96.87
816.595	108.87
817.032	163.77
817.47	184.77
817.907	148.17
818.344	139.67
818.781	108.47
819.218	83.97
819.655	110.27
820.092	163.97
820.529	201.27
820.966	164.07
821.403	121.57
821.839	99.47
822.276	97.47
822.713	114.67
823.15	129.07
823.587	102.57
824.023	131.47
824.46	267.87
824.897	816.97
825.333	1263.17
825.77	540.17
826.206	214.87
826.643	120.37
827.08	95.97
827.516	81.67
827.953	72.77
828.389	75.77
828.825	72.07
829.262	63.77
829.698	50.47
830.135	57.47
830.571	60.97
831.007	59.67
831.443	63.67
831.88	64.27
832.316	56.87
832.752	58.87
833.188	61.67
833.624	61.77
834.06	61.67
834.497	62.07
834.933	65.87
835.369	69.37
835.805	57.27
836.241	73.57
836.677	75.87
837.112	79.17
837.548	94.87
837.984	114.57
838.42	184.47
838.856	431.67
839.292	1374.97
839.727	2151.47
840.163	993.87
840.599	832.27
841.034	1860.07
841.47	2007.97
841.906	726.97
842.341	309.77
842.777	216.37
843.212	293.47
843.648	288.47
844.083	147.27
844.519	96.57
844.954	70.17
845.39	50.97
845.825	46.77
846.261	51.57
846.696	47.27
847.131	53.07
847.566	59.77
848.002	45.77
848.437	56.17
848.872	57.17
849.307	52.17
849.742	80.77
850.177	158.37
850.613	500.77
851.048	805.67
851.483	354.97
851.918	145.57
852.353	82.47
852.788	52.67
853.223	50.27
853.657	47.07
854.092	49.37
854.527	39.87
854.962	35.27
855.397	46.67
855.832	43.67
856.266	35.97
856.701	41.07
857.136	41.67
857.57	40.47
858.005	53.37
858.44	52.37
858.874	40.77
859.309	52.77
859.743	36.97
860.178	42.47
860.612	39.47
861.047	49.27
861.481	62.87
861.915	66.87
862.35	49.37
862.784	30.07
863.218	33.77
863.653	28.97
864.087	43.47
864.521	53.67
864.955	66.67
865.39	145.17
865.824	160.17
866.258	103.87
866.692	153.77
867.126	166.97
867.56	90.97
867.994	46.47
868.428	38.87
868.862	44.07
869.296	56.07
869.73	61.57
870.164	46.47
870.598	42.77
871.031	35.67
871.465	37.77
871.899	30.37
872.333	23.57
872.766	23.97
873.2	21.87
873.634	27.27
874.067	27.17
874.501	26.87
874.935	34.47
875.368	24.97
875.802	28.67
876.235	20.27
876.669	23.17
877.102	17.27
877.535	23.07
877.969	19.07
878.402	21.87
878.836	18.87
879.269	25.97
879.702	22.37
880.135	21.47
880.569	20.47
881.002	28.37
881.435	23.47
881.868	20.07
882.301	25.07
882.734	15.17
883.167	25.47
883.601	17.97
884.034	22.67
884.467	12.67
884.899	19.97
885.332	18.87
885.765	14.27
886.198	18.87
886.631	21.27
887.064	22.67
887.497	17.37
887.929	22.37
888.362	11.87
888.795	13.87
889.228	18.27
889.66	19.97
890.093	9.97
890.526	15.07
890.958	16.07
891.391	20.27
891.823	26.17
892.256	15.77
892.688	13.37
893.121	15.87
893.553	18.67
893.985	24.07
894.418	11.17
894.85	16.27
895.282	10.67
895.715	19.57
896.147	16.57
896.579	17.97
897.011	8.87
897.444	20.17
897.876	13.87
898.308	17.07
898.74	22.87
899.172	15.87
899.604	26.57
900.036	25.07
900.468	21.97
900.9	14.47
901.332	21.57
901.764	16.57
902.196	16.17
902.628	20.47
903.06	12.07
903.491	24.07
903.923	20.17
904.355	22.67
904.787	31.37
905.218	23.07
905.65	17.47
906.082	13.87
906.513	14.67
906.945	16.57
907.376	12.57
907.808	16.57
908.239	20.27
908.671	23.57
909.102	19.67
909.534	25.37
909.965	38.37
910.397	83.97
910.828	291.87
911.259	444.27
911.691	203.77
912.122	97.57
912.553	51.17
912.984	30.97
913.415	24.67
913.847	20.57
914.278	17.77
914.709	13.77
915.14	16.67
915.571	16.27
916.002	7.17
916.433	17.87
916.864	16.57
917.295	9.77
917.726	17.17
918.157	20.67
918.587	29.57
919.018	22.47
919.449	27.17
919.88	19.07
920.311	28.97
920.741	42.27
921.172	154.27
921.603	137.27
922.033	61.87
922.464	40.47
922.895	25.97
923.325	25.97
923.756	15.87
924.186	21.37
924.617	22.87
925.047	40.07
925.478	50.17
925.908	46.77
926.338	24.47
926.769	19.27
927.199	18.57
927.629	10.57
928.06	16.47
928.49	15.17
928.92	17.67
929.35	10.67
929.78	10.37
930.21	5.37
930.641	12.37
931.071	4.87
931.501	1.57
931.931	7.17
932.361	13.47
932.791	-1.83
933.221	10.17
933.651	2.47
934.08	14.87
934.51	33.57
934.94	2.57
935.37	13.87
935.8	13.17
936.229	7.87
936.659	10.07
937.089	1.37
937.519	15.37
937.948	25.17
938.378	13.17
938.807	5.77
939.237	1.37
939.666	6.97
940.096	-1.13
940.525	2.87
940.955	6.27
941.384	3.77
941.814	0.17
942.243	-4.43
942.672	5.07
943.102	-3.93
943.531	3.67
943.96	4.57
944.39	6.47
944.819	3.57
945.248	2.17
945.677	4.57
946.106	4.17
946.535	0.57
946.964	-0.13
947.393	-1.63
947.822	1.17
948.251	-6.03
948.68	8.67
949.109	7.37
949.538	5.07
949.967	-1.83
950.396	-5.63
950.825	2.37
951.254	-1.43
951.682	-3.93
952.111	0.57
952.54	2.87
952.969	-7.53
953.397	-2.83
953.826	-3.73
954.254	-2.93
954.683	-0.63
955.112	-7.33
955.54	-4.03
955.969	2.67
956.397	2.77
956.826	-4.33
957.254	-0.43
957.682	0.57
958.111	10.57
958.539	-1.23
958.967	2.37
959.396	6.37
959.824	2.77
960.252	5.57
960.68	-7.33
961.109	-5.53
961.537	-8.03
961.965	1.57
962.393	3.67
962.821	4.97
963.249	4.97
963.677	5.27
964.105	3.87
964.533	44.47
964.961	43.97
965.389	26.57
965.817	9.57
966.245	-0.03
966.672	2.77
967.1	-8.13
967.528	-0.93
967.956	-6.23
968.383	-0.83
968.811	-0.93
969.239	-5.23
969.666	-5.53
970.094	-1.33
970.522	1.77
970.949	-0.43
971.377	-1.53
971.804	-2.83
972.232	0.97
972.659	-7.83
973.087	-1.93
973.514	-0.83
973.941	-1.13
974.369	6.17
974.796	6.77
975.223	3.27
975.651	-4.63
976.078	3.47
976.505	0.47
976.932	4.57
977.359	21.77
977.786	19.57
978.214	-3.13
978.641	1.07
979.068	-3.03
979.495	0.97
979.922	-1.13
980.349	-1.33
980.776	7.77
981.202	0.07
981.629	6.77
982.056	8.17
982.483	2.67
982.91	5.17
983.337	-9.23
983.763	2.77
984.19	-6.33
984.617	-4.73
985.043	-1.63
985.47	2.17
985.897	-3.83
986.323	-6.13
986.75	6.57
987.176	5.87
987.603	-4.43
988.029	0.67
988.456	1.07
988.882	0.57
989.308	-2.63
989.735	-3.93
990.161	1.87
990.587	-4.73
991.014	1.17
991.44	3.47
991.866	-1.53
992.292	-4.73
992.719	1.17
993.145	4.37
993.571	-3.33
993.997	1.07
994.423	0.97
994.849	-2.43
995.275	3.07
995.701	0.37
996.127	-1.83
996.553	5.17
996.979	-1.83
997.405	0.37
997.83	-1.93
998.256	-6.43
998.682	-6.43
999.108	-6.13
999.534	-2.33
999.959	-1.53
1000.385	-2.43
1000.811	-0.53
1001.236	-7.73
1001.662	-9.33
1002.087	-8.53
1002.513	-3.73
1002.938	1.57
1003.364	-3.13
1003.789	5.37
1004.215	3.87
1004.64	4.07
1005.066	1.67
1005.491	-1.53
1005.916	1.57
1006.342	-3.23
1006.767	-12.93
1007.192	5.67
1007.617	-0.33
1008.042	2.57
1008.468	-6.73
1008.893	1.87
1009.318	-4.33
1009.743	-4.73
1010.168	2.17
1010.593	-2.53
1011.018	-7.83
1011.443	-0.93
1011.868	2.77
1012.293	-3.83
1012.718	-4.23
1013.143	-0.23
1013.567	5.97
1013.992	-0.53
1014.417	-10.33
1014.842	7.87
1015.267	-1.53
1015.691	-0.93
1016.116	5.87
1016.541	-2.33
1016.965	3.47
1017.39	8.57
1017.814	4.27
1018.239	4.77
1018.663	-11.73
1019.088	-8.43
1019.512	-4.83
1019.937	3.97
1020.361	0.57
1020.785	-7.23
1021.21	-0.13
1021.634	2.37
1022.058	-4.73
1022.483	4.17
1022.907	-5.83
1023.331	-0.93
1023.755	-2.23
1024.179	-0.03
1024.604	-4.33
1025.028	0.07
1025.452	4.17
1025.876	0.77
1026.3	2.77
1026.724	-10.23
1027.148	-8.13
1027.572	-9.43
1027.996	-2.73
1028.42	-2.03
1028.843	-1.03
1029.267	-6.03
1029.691	-6.53
1030.115	-7.03
1030.539	-8.73
1030.962	-7.03
1031.386	-10.93
1031.81	6.77
1032.233	-3.13
1032.657	-1.23
1033.08	0.17
1033.504	-0.23
1033.927	-1.03
1034.351	-1.13
1034.774	-2.73
1035.198	3.07
1035.621	-7.33
1036.045	-6.63
1036.468	7.37
1036.891	-9.73
1037.315	-8.63
1037.738	-2.53
1038.161	1.57
1038.584	-8.03
1039.008	-5.23
1039.431	2.77
1039.854	-5.23
1040.277	-7.83
1040.7	-6.13
1041.123	-0.73
1041.546	-9.53
1041.969	-1.23
1042.392	-3.33
1042.815	-1.83
1043.238	6.57
1043.661	2.57
1044.084	-3.03
1044.507	-5.13
1044.93	-9.33
1045.352	-1.33
1045.775	-2.83
1046.198	3.57
1046.621	1.97
1047.043	-3.23
1047.466	7.47
1047.889	-3.83
1048.311	-1.03
1048.734	-0.93
1049.156	2.57
1049.579	1.27
1050.001	-2.93
1050.424	-0.73
1050.846	-4.73
1051.269	-2.13
1051.691	-4.83
1052.113	-6.53
1052.536	-3.23
1052.958	-1.93
1053.38	1.57
1053.802	-5.03
1054.225	0.97
1054.647	-6.83
1055.069	-8.13
1055.491	3.37
1055.913	-6.83
1056.335	-2.13
1056.757	-6.63
1057.179	-9.43
1057.601	-8.73
1058.023	-8.63
1058.445	-2.43
1058.867	1.97
1059.289	-0.83
1059.711	-3.83
1060.133	-4.13
1060.555	-11.43
1060.976	-1.83
1061.398	-3.43
1061.82	-4.43
1062.241	-6.93
1062.663	-2.83
1063.085	-2.93
1063.506	7.07
1063.928	-0.63
1064.35	0.87
1064.771	-14.83
1065.193	4.27
1065.614	-6.43
1066.035	3.57
1066.457	-2.33
1066.878	-4.53
1067.3	-3.43
1067.721	1.37
1068.142	-1.93
1068.564	-4.33
1068.985	-4.23
1069.406	-8.83
1069.827	-4.73
1070.248	-1.03
1070.67	-5.73
1071.091	-9.23
1071.512	1.47
1071.933	1.47
1072.354	-1.13
1072.775	-4.03
1073.196	-7.33
1073.617	-2.83
1074.038	-5.83
1074.459	1.97
1074.88	-4.23
1075.3	1.77
1075.721	-3.03
1076.142	1.67
1076.563	9.07
1076.983	-13.73
1077.404	-3.03
1077.825	-13.93
1078.246	0.27
1078.666	-1.83
1079.087	-1.83
1079.507	-8.73
1079.928	2.07
1080.348	4.47
1080.769	-1.43
1081.189	2.07
1081.61	-1.43
1082.03	-6.63
1082.451	-5.43
1082.871	-2.63
1083.291	-11.33
1083.711	-7.33
1084.132	-5.33
1084.552	-5.43
1084.972	1.87
1085.392	-9.33
1085.813	-7.03
1086.233	-0.23
1086.653	-9.53
1087.073	-2.53
1087.493	-7.63
1087.913	-3.73
1088.333	-1.53
1088.753	-1.93
1089.173	-0.33
1089.593	-0.93
1090.013	0.67
1090.433	1.37
1090.852	-0.13
1091.272	-0.53
1091.692	3.27
1092.112	-2.13
1092.531	-8.03
1092.951	-18.93
1093.371	-2.53
1093.79	-2.13
1094.21	-7.53
1094.63	-5.13
1095.049	-2.13
1095.469	-0.43
1095.888	-0.53
1096.308	8.17
1096.727	3.57
1097.146	5.17
1097.566	0.87
1097.985	-3.63
1098.405	-0.53
1098.824	-1.43
1099.243	-3.63
1099.662	-5.53
1100.082	4.47
1100.501	2.97
1100.92	-8.93
1101.339	-3.83
1101.758	-6.13
