Data from 20171114-ORNL-Ar_H_NY_Subt18_08-09-08-127.txt Node
Date: Tue Nov 14 08:09:08 EST 2017
User: Ender
Spectrometer: HR+D1039
Trigger mode: 0
Integration Time (sec): 2.730000E-2
Scans to average: 10
Electric dark correction enabled: true
Nonlinearity correction enabled: false
Boxcar width: 0
XAxis mode: Wavelengths
Number of Pixels in Spectrum: 2048
>>>>>Begin Spectral Data<<<<<
187.836	-1.78
188.309	-1.78
188.782	-1.78
189.255	2.42
189.728	-4.38
190.201	3.92
190.674	2.72
191.147	-0.08
191.619	-5.48
192.092	3.72
192.565	4.32
193.038	0.92
193.511	1.82
193.984	-1.18
194.456	-2.88
194.929	-1.48
195.402	-0.78
195.874	-1.78
196.347	-0.98
196.82	-4.18
197.292	2.12
197.765	-1.68
198.237	0.22
198.71	2.32
199.182	-3.88
199.655	1.52
200.127	5.52
200.6	0.42
201.072	-9.18
201.544	-1.78
202.017	0.42
202.489	-2.18
202.961	-1.68
203.433	-3.48
203.906	-4.98
204.378	-8.68
204.85	-4.88
205.322	-6.68
205.794	-5.28
206.266	-6.78
206.739	-10.28
207.211	-4.38
207.683	-12.18
208.155	-0.98
208.627	-5.48
209.099	-7.98
209.57	-12.08
210.042	-7.18
210.514	-2.88
210.986	-1.78
211.458	-6.78
211.93	0.72
212.402	5.72
212.873	-3.48
213.345	-6.18
213.817	-10.48
214.288	-1.08
214.76	-11.08
215.232	-6.58
215.703	2.82
216.175	-4.58
216.646	0.62
217.118	-9.18
217.589	-2.58
218.061	-9.88
218.532	-1.98
219.004	-4.58
219.475	-8.38
219.946	-0.68
220.418	-8.58
220.889	6.22
221.36	4.22
221.832	-1.88
222.303	-5.08
222.774	-5.38
223.245	-7.58
223.717	-0.88
224.188	1.12
224.659	-4.98
225.13	-6.48
225.601	-4.38
226.072	-0.48
226.543	-0.48
227.014	1.52
227.485	2.12
227.956	-9.08
228.427	-7.88
228.898	2.02
229.369	3.52
229.839	0.42
230.31	-10.38
230.781	3.82
231.252	-4.58
231.722	-2.88
232.193	-3.88
232.664	-1.48
233.135	-3.08
233.605	0.22
234.076	-6.38
234.546	-1.68
235.017	0.82
235.487	1.02
235.958	-3.58
236.428	-4.48
236.899	-4.28
237.369	0.22
237.84	-4.58
238.31	1.22
238.78	-3.48
239.251	-1.78
239.721	0.02
240.191	0.22
240.662	-1.58
241.132	3.12
241.602	-2.58
242.072	-1.28
242.542	4.42
243.013	-3.98
243.483	4.02
243.953	-1.48
244.423	1.42
244.893	-4.88
245.363	1.12
245.833	-3.08
246.303	-2.08
246.773	-1.38
247.243	1.62
247.712	-3.88
248.182	5.12
248.652	4.22
249.122	-7.68
249.592	4.72
250.061	4.32
250.531	13.02
251.001	-0.48
251.471	4.32
251.94	-1.08
252.41	-3.58
252.879	-9.98
253.349	6.12
253.818	3.62
254.288	-1.28
254.757	0.12
255.227	-4.78
255.696	3.72
256.166	5.52
256.635	-0.28
257.105	-2.58
257.574	-2.78
258.043	-2.18
258.513	-5.28
258.982	1.72
259.451	-6.18
259.92	6.52
260.389	4.92
260.859	8.02
261.328	4.22
261.797	5.22
262.266	1.02
262.735	-0.18
263.204	7.52
263.673	-0.08
264.142	-0.88
264.611	-9.98
265.08	-8.68
265.549	-1.78
266.018	-2.58
266.487	-2.98
266.955	-4.98
267.424	-5.08
267.893	5.72
268.362	0.12
268.83	-2.08
269.299	11.12
269.768	2.22
270.236	8.42
270.705	-0.78
271.174	3.82
271.642	4.52
272.111	-2.18
272.579	1.92
273.048	0.42
273.516	3.02
273.985	6.32
274.453	4.02
274.922	5.92
275.39	0.52
275.858	1.42
276.327	5.72
276.795	14.22
277.263	8.72
277.731	10.42
278.2	11.32
278.668	4.22
279.136	11.62
279.604	2.22
280.072	9.72
280.54	7.72
281.008	3.92
281.477	10.52
281.945	3.52
282.413	9.92
282.881	9.92
283.348	5.52
283.816	8.52
284.284	7.92
284.752	14.82
285.22	9.62
285.688	10.52
286.156	4.42
286.623	9.92
287.091	0.92
287.559	9.22
288.026	6.42
288.494	5.62
288.962	-0.98
289.429	2.92
289.897	8.42
290.364	7.42
290.832	11.82
291.3	10.72
291.767	10.72
292.234	12.22
292.702	2.72
293.169	11.92
293.637	12.02
294.104	8.32
294.571	4.22
295.039	0.92
295.506	5.72
295.973	12.32
296.44	8.02
296.908	13.62
297.375	7.02
297.842	10.82
298.309	9.82
298.776	3.72
299.243	14.12
299.71	7.32
300.177	11.62
300.644	16.52
301.111	9.82
301.578	14.02
302.045	11.72
302.512	15.22
302.979	17.62
303.446	19.32
303.913	10.22
304.379	15.02
304.846	16.12
305.313	16.22
305.78	11.82
306.246	17.02
306.713	19.82
307.18	14.22
307.646	19.82
308.113	23.72
308.579	16.62
309.046	16.52
309.512	18.42
309.979	13.82
310.445	19.32
310.912	13.72
311.378	26.72
311.845	18.82
312.311	18.42
312.777	25.82
313.244	22.62
313.71	26.62
314.176	23.32
314.642	23.62
315.109	19.42
315.575	26.42
316.041	23.92
316.507	20.12
316.973	17.72
317.439	22.02
317.905	23.62
318.371	26.92
318.837	23.12
319.303	24.92
319.769	21.02
320.235	21.62
320.701	23.72
321.167	26.42
321.633	19.52
322.099	31.82
322.564	30.82
323.03	29.62
323.496	22.82
323.962	24.92
324.427	26.62
324.893	31.02
325.359	30.02
325.824	26.22
326.29	25.92
326.755	27.12
327.221	29.92
327.686	28.12
328.152	35.22
328.617	33.32
329.083	30.92
329.548	40.82
330.014	37.02
330.479	20.62
330.944	36.92
331.41	34.02
331.875	38.12
332.34	31.22
332.805	29.32
333.271	34.22
333.736	23.92
334.201	36.02
334.666	38.52
335.131	45.52
335.596	37.32
336.061	37.32
336.526	27.92
336.991	37.52
337.456	43.72
337.921	44.82
338.386	35.32
338.851	38.22
339.316	30.82
339.781	34.22
340.246	42.42
340.711	35.82
341.175	46.62
341.64	37.12
342.105	35.92
342.569	43.92
343.034	42.82
343.499	42.02
343.963	41.62
344.428	54.32
344.893	44.02
345.357	49.72
345.822	46.92
346.286	56.12
346.751	54.62
347.215	49.42
347.679	52.52
348.144	73.02
348.608	60.42
349.073	59.02
349.537	59.52
350.001	63.72
350.465	64.12
350.93	59.32
351.394	64.12
351.858	54.32
352.322	66.22
352.786	72.02
353.25	75.92
353.715	85.32
354.179	78.32
354.643	100.82
355.107	90.72
355.571	82.82
356.035	79.82
356.498	85.62
356.962	90.32
357.426	93.22
357.89	88.32
358.354	73.12
358.818	63.62
359.281	62.42
359.745	60.92
360.209	55.92
360.673	62.72
361.136	65.22
361.6	66.22
362.064	66.52
362.527	69.82
362.991	82.02
363.454	60.62
363.918	61.62
364.381	66.32
364.845	67.42
365.308	71.32
365.772	76.32
366.235	72.82
366.698	68.32
367.162	67.42
367.625	73.42
368.088	71.02
368.552	74.52
369.015	66.92
369.478	77.22
369.941	83.12
370.404	80.42
370.867	83.42
371.331	88.72
371.794	93.62
372.257	89.12
372.72	91.12
373.183	90.42
373.646	84.72
374.109	84.82
374.572	92.82
375.035	89.12
375.497	85.42
375.96	87.82
376.423	92.42
376.886	95.12
377.349	94.32
377.811	85.32
378.274	89.82
378.737	87.32
379.199	97.32
379.662	90.62
380.125	96.32
380.587	84.22
381.05	100.72
381.512	106.52
381.975	115.32
382.437	110.02
382.9	102.22
383.362	110.52
383.825	116.62
384.287	113.82
384.75	108.22
385.212	111.12
385.674	108.22
386.136	119.52
386.599	107.72
387.061	111.22
387.523	107.42
387.985	113.62
388.447	125.42
388.91	116.22
389.372	121.22
389.834	120.92
390.296	119.02
390.758	116.12
391.22	123.92
391.682	129.72
392.144	138.62
392.606	138.32
393.068	129.82
393.529	141.62
393.991	129.12
394.453	122.22
394.915	115.12
395.377	123.52
395.838	129.02
396.3	119.32
396.762	129.82
397.224	123.42
397.685	119.12
398.147	119.02
398.608	114.12
399.07	120.92
399.531	121.12
399.993	132.52
400.454	136.92
400.916	135.02
401.377	132.32
401.839	132.82
402.3	134.22
402.762	157.92
403.223	163.92
403.684	154.52
404.145	146.72
404.607	143.72
405.068	150.22
405.529	152.52
405.99	171.02
406.451	159.12
406.913	151.92
407.374	152.82
407.835	147.82
408.296	152.72
408.757	154.42
409.218	160.22
409.679	165.82
410.14	160.62
410.601	162.32
411.062	170.32
411.522	167.82
411.983	163.92
412.444	163.32
412.905	172.62
413.366	172.72
413.826	179.92
414.287	208.82
414.748	254.32
415.208	238.42
415.669	203.62
416.13	200.02
416.59	189.42
417.051	207.22
417.511	208.52
417.972	229.52
418.432	239.72
418.893	274.22
419.353	244.12
419.814	195.02
420.274	178.42
420.734	172.22
421.195	187.22
421.655	179.32
422.115	183.82
422.576	184.82
423.036	190.22
423.496	202.72
423.956	208.02
424.416	219.12
424.876	253.72
425.336	249.32
425.797	241.52
426.257	241.12
426.717	230.52
427.177	218.02
427.637	213.02
428.097	217.42
428.556	233.62
429.016	251.92
429.476	239.62
429.936	254.32
430.396	260.32
430.856	264.92
431.315	289.62
431.775	326.12
432.235	353.62
432.694	324.02
433.154	331.02
433.614	362.22
434.073	305.02
434.533	265.52
434.993	256.32
435.452	264.52
435.912	274.52
436.371	275.02
436.83	262.82
437.29	251.52
437.749	236.22
438.209	227.82
438.668	257.92
439.127	276.72
439.587	248.42
440.046	232.22
440.505	247.42
440.964	260.82
441.424	303.72
441.883	291.72
442.342	252.32
442.801	215.82
443.26	218.82
443.719	217.12
444.178	213.92
444.637	204.42
445.096	221.62
445.555	218.12
446.014	216.02
446.473	219.32
446.932	222.02
447.391	218.82
447.849	226.62
448.308	223.12
448.767	217.02
449.226	234.12
449.685	231.12
450.143	253.42
450.602	233.82
451.061	221.82
451.519	231.72
451.978	233.42
452.436	229.12
452.895	232.02
453.353	249.02
453.812	230.72
454.27	240.72
454.729	234.62
455.187	237.02
455.646	239.52
456.104	242.62
456.562	251.32
457.021	260.62
457.479	257.62
457.937	266.12
458.395	256.12
458.854	248.12
459.312	252.42
459.77	268.62
460.228	251.22
460.686	240.72
461.144	252.62
461.602	254.62
462.06	246.82
462.518	250.72
462.976	256.32
463.434	257.62
463.892	259.42
464.35	266.02
464.808	279.42
465.266	262.12
465.724	270.72
466.181	282.12
466.639	269.62
467.097	291.42
467.555	303.42
468.012	296.62
468.47	307.82
468.928	323.12
469.385	332.82
469.843	343.12
470.3	342.62
470.758	355.32
471.215	371.02
471.673	399.72
472.13	401.82
472.588	407.52
473.045	375.82
473.503	375.32
473.96	384.92
474.417	398.02
474.875	432.62
475.332	462.32
475.789	453.32
476.246	458.62
476.704	475.62
477.161	491.82
477.618	512.72
478.075	545.32
478.532	598.02
478.989	660.92
479.446	758.82
479.903	727.62
480.36	766.52
480.817	813.42
481.274	890.32
481.731	978.02
482.188	1061.72
482.645	1172.12
483.102	1263.12
483.558	1368.42
484.015	1417.72
484.472	1392.72
484.929	1339.42
485.385	1307.12
485.842	1279.32
486.299	1235.82
486.755	1191.72
487.212	1017.42
487.668	870.72
488.125	810.02
488.582	738.62
489.038	715.42
489.494	690.62
489.951	659.22
490.407	647.92
490.864	629.02
491.32	621.42
491.776	616.22
492.233	627.62
492.689	602.12
493.145	597.82
493.602	587.22
494.058	595.52
494.514	594.82
494.97	627.02
495.426	645.72
495.882	607.72
496.338	602.82
496.794	612.82
497.251	607.92
497.707	618.02
498.163	626.92
498.618	623.22
499.074	628.22
499.53	658.52
499.986	667.42
500.442	644.12
500.898	616.62
501.354	613.52
501.809	618.22
502.265	615.12
502.721	620.82
503.177	624.32
503.632	632.22
504.088	636.62
504.543	663.22
504.999	677.82
505.455	647.32
505.91	634.62
506.366	630.62
506.821	629.72
507.277	632.02
507.732	638.42
508.187	626.92
508.643	641.82
509.098	637.32
509.553	657.32
510.009	658.42
510.464	677.32
510.919	689.42
511.375	696.42
511.83	708.42
512.285	712.62
512.74	754.62
513.195	775.12
513.65	767.32
514.105	758.12
514.56	760.72
515.015	781.52
515.47	792.72
515.925	774.22
516.38	771.82
516.835	785.52
517.29	768.22
517.745	780.32
518.2	758.82
518.655	749.12
519.109	739.52
519.564	743.62
520.019	727.62
520.474	723.92
520.928	737.52
521.383	727.42
521.838	710.82
522.292	704.22
522.747	712.62
523.201	710.22
523.656	700.82
524.11	696.42
524.565	693.72
525.019	691.82
525.474	694.62
525.928	702.22
526.382	693.72
526.837	697.12
527.291	692.72
527.745	697.52
528.2	698.72
528.654	696.02
529.108	683.12
529.562	696.72
530.016	688.72
530.47	698.32
530.925	688.42
531.379	692.72
531.833	704.62
532.287	718.02
532.741	699.12
533.195	695.22
533.649	704.32
534.103	724.32
534.556	701.32
535.01	710.42
535.464	707.82
535.918	716.42
536.372	713.42
536.826	711.02
537.279	714.22
537.733	714.42
538.187	717.32
538.64	721.92
539.094	716.02
539.548	731.22
540.001	722.42
540.455	718.22
540.908	740.92
541.362	742.62
541.815	747.92
542.269	762.12
542.722	767.42
543.175	775.12
543.629	779.72
544.082	792.72
544.536	791.82
544.989	797.52
545.442	806.22
545.895	803.02
546.349	805.52
546.802	797.32
547.255	810.42
547.708	815.12
548.161	819.02
548.614	827.32
549.067	832.72
549.52	832.62
549.973	816.42
550.426	809.92
550.879	799.82
551.332	813.42
551.785	822.42
552.238	807.22
552.691	827.02
553.144	839.52
553.596	857.22
554.049	873.72
554.502	911.32
554.955	917.82
555.407	917.52
555.86	894.32
556.313	897.92
556.765	894.42
557.218	891.62
557.67	891.82
558.123	876.32
558.576	879.42
559.028	883.12
559.48	891.32
559.933	886.32
560.385	854.32
560.838	815.62
561.29	791.32
561.742	800.92
562.195	782.52
562.647	774.92
563.099	786.12
563.551	788.82
564.004	788.02
564.456	781.72
564.908	767.62
565.36	746.22
565.812	742.42
566.264	727.72
566.716	731.72
567.168	714.02
567.62	722.72
568.072	716.92
568.524	709.12
568.976	699.82
569.428	689.32
569.88	692.22
570.332	689.52
570.784	703.92
571.235	692.42
571.687	710.72
572.139	718.92
572.59	730.72
573.042	720.82
573.494	726.92
573.945	730.12
574.397	692.82
574.849	689.12
575.3	704.92
575.752	696.42
576.203	679.32
576.655	695.22
577.106	681.32
577.557	688.22
578.009	679.32
578.46	671.32
578.912	676.62
579.363	669.82
579.814	677.72
580.265	673.42
580.717	677.72
581.168	678.02
581.619	683.32
582.07	693.22
582.521	685.62
582.972	683.92
583.423	692.82
583.875	686.32
584.326	696.72
584.777	704.92
585.227	737.12
585.678	753.42
586.129	779.12
586.58	792.92
587.031	816.72
587.482	864.02
587.933	891.72
588.384	867.32
588.834	821.22
589.285	789.82
589.736	791.12
590.186	783.52
590.637	775.12
591.088	752.92
591.538	752.42
591.989	738.82
592.439	736.92
592.89	737.22
593.34	732.82
593.791	727.92
594.241	713.02
594.692	716.92
595.142	702.92
595.593	709.82
596.043	712.12
596.493	720.52
596.943	718.42
597.394	722.62
597.844	731.82
598.294	747.82
598.744	782.02
599.195	791.22
599.645	844.42
600.095	877.72
600.545	948.22
600.995	994.32
601.445	1046.02
601.895	1107.12
602.345	1154.22
602.795	1132.82
603.245	1093.52
603.695	1036.52
604.145	978.72
604.594	936.72
605.044	884.62
605.494	829.12
605.944	770.52
606.393	765.82
606.843	746.02
607.293	742.42
607.743	736.72
608.192	759.22
608.642	774.22
609.091	772.72
609.541	776.62
609.99	772.22
610.44	780.32
610.889	723.02
611.339	702.12
611.788	691.92
612.238	693.82
612.687	719.02
613.136	711.12
613.586	732.92
614.035	721.42
614.484	729.72
614.933	724.92
615.383	717.42
615.832	729.82
616.281	728.32
616.73	693.32
617.179	666.82
617.628	657.82
618.077	643.62
618.526	634.22
618.975	626.22
619.424	627.22
619.873	626.12
620.322	628.52
620.771	620.52
621.22	626.92
621.669	609.92
622.118	602.12
622.567	585.42
623.015	590.32
623.464	584.62
623.913	570.72
624.361	557.22
624.81	558.32
625.259	560.02
625.707	565.42
626.156	575.92
626.604	573.72
627.053	569.42
627.501	576.52
627.95	589.22
628.398	596.82
628.847	585.52
629.295	580.02
629.744	600.62
630.192	585.92
630.64	571.02
631.089	554.92
631.537	549.92
631.985	540.72
632.433	551.32
632.881	536.82
633.33	556.62
633.778	544.02
634.226	541.22
634.674	549.52
635.122	549.12
635.57	570.62
636.018	574.52
636.466	582.42
636.914	568.62
637.362	577.72
637.81	583.72
638.258	596.92
638.705	598.62
639.153	627.32
639.601	633.12
640.049	658.22
640.497	695.12
640.944	709.42
641.392	662.82
641.84	629.92
642.287	599.32
642.735	578.62
643.182	572.62
643.63	568.82
644.078	574.22
644.525	594.22
644.973	600.22
645.42	608.72
645.867	626.42
646.315	644.42
646.762	663.62
647.21	703.42
647.657	719.02
648.104	749.72
648.551	763.52
648.999	821.02
649.446	902.42
649.893	979.52
650.34	1129.92
650.787	1347.62
651.234	1667.22
651.682	2144.12
652.129	2926.52
652.576	4150.02
653.023	6068.02
653.47	8180.12
653.917	10048.02
654.363	11520.72
654.81	12632.02
655.257	11981.72
655.704	7944.92
656.151	4787.52
656.598	3141.82
657.044	2248.92
657.491	1754.02
657.938	1405.42
658.385	1199.32
658.831	1041.62
659.278	951.02
659.724	833.92
660.171	768.62
660.618	716.22
661.064	679.12
661.511	665.72
661.957	658.82
662.404	649.82
662.85	653.52
663.296	622.42
663.743	566.92
664.189	548.12
664.635	543.02
665.082	544.42
665.528	541.62
665.974	532.92
666.42	526.02
666.867	515.32
667.313	494.02
667.759	480.42
668.205	463.72
668.651	468.42
669.097	458.52
669.543	451.22
669.989	455.22
670.435	465.62
670.881	459.42
671.327	469.92
671.773	494.42
672.219	510.22
672.665	572.82
673.11	613.32
673.556	656.82
674.002	692.22
674.448	683.22
674.893	578.82
675.339	494.32
675.785	453.92
676.23	436.22
676.676	413.52
677.122	393.32
677.567	382.02
678.013	382.52
678.458	379.02
678.904	372.62
679.349	363.62
679.794	367.42
680.24	366.42
680.685	362.12
681.131	360.12
681.576	366.12
682.021	368.82
682.466	358.02
682.912	360.52
683.357	374.22
683.802	398.32
684.247	438.12
684.692	481.22
685.137	520.72
685.583	568.02
686.028	581.72
686.473	543.42
686.918	466.42
687.363	431.82
687.807	404.22
688.252	384.82
688.697	376.22
689.142	351.22
689.587	340.72
690.032	344.02
690.477	358.32
690.921	366.12
691.366	407.72
691.811	422.22
692.255	451.32
692.7	479.52
693.145	536.22
693.589	756.32
694.034	1230.12
694.478	1644.32
694.923	1808.62
695.367	2340.82
695.812	1250.02
696.256	518.52
696.701	389.42
697.145	359.72
697.59	345.42
698.034	332.72
698.478	337.32
698.922	326.12
699.367	338.02
699.811	351.42
700.255	375.42
700.699	396.72
701.143	447.12
701.588	498.22
702.032	527.12
702.476	539.22
702.92	516.72
703.364	521.62
703.808	691.02
704.252	1125.72
704.696	1556.42
705.14	1750.82
705.584	2197.42
706.027	1119.02
706.471	544.02
706.915	411.32
707.359	371.12
707.803	330.02
708.246	329.52
708.69	317.02
709.134	326.72
709.577	321.32
710.021	324.92
710.465	329.42
710.908	311.12
711.352	310.42
711.795	329.92
712.239	371.52
712.682	399.22
713.126	420.92
713.569	474.22
714.012	373.52
714.456	323.42
714.899	291.12
715.342	284.52
715.786	266.72
716.229	267.02
716.672	263.72
717.115	266.52
717.558	258.52
718.002	255.72
718.445	269.52
718.888	300.12
719.331	304.32
719.774	326.32
720.217	320.82
720.66	296.22
721.103	282.52
721.546	270.02
721.989	253.12
722.432	245.42
722.874	247.72
723.317	244.72
723.76	244.02
724.203	264.92
724.645	342.12
725.088	476.42
725.531	605.02
725.974	668.02
726.416	569.72
726.859	324.22
727.301	259.62
727.744	244.22
728.187	245.92
728.629	250.62
729.071	256.82
729.514	271.02
729.956	288.02
730.399	293.22
730.841	303.32
731.283	290.52
731.726	279.32
732.168	277.32
732.61	277.02
733.053	293.72
733.495	328.72
733.937	370.92
734.379	424.92
734.821	461.82
735.263	580.62
735.705	926.02
736.148	1730.02
736.59	2773.82
737.032	3172.62
737.474	2588.02
737.916	864.82
738.357	453.82
738.799	341.72
739.241	319.82
739.683	300.52
740.125	306.32
740.567	316.82
741.008	332.42
741.45	333.42
741.892	339.02
742.334	369.62
742.775	375.62
743.217	362.52
743.658	286.22
744.1	275.22
744.542	284.52
744.983	334.92
745.425	369.82
745.866	362.92
746.307	289.72
746.749	295.22
747.19	346.82
747.632	508.92
748.073	981.02
748.514	2053.92
748.956	3048.52
749.397	3814.62
749.838	3147.72
750.279	3066.02
750.72	1578.32
751.162	590.02
751.603	340.32
752.044	272.72
752.485	226.92
752.926	219.42
753.367	212.52
753.808	205.82
754.249	199.62
754.69	194.62
755.131	192.32
755.572	194.32
756.013	191.72
756.453	195.72
756.894	202.62
757.335	207.52
757.776	208.62
758.216	212.42
758.657	216.52
759.098	211.12
759.538	235.02
759.979	293.12
760.42	402.72
760.86	788.42
761.301	2069.52
761.741	4834.52
762.182	6633.72
762.622	4714.72
763.063	1390.12
763.503	555.82
763.943	347.02
764.384	292.32
764.824	273.52
765.264	257.92
765.705	222.02
766.145	188.52
766.585	190.12
767.025	180.62
767.465	171.62
767.906	189.82
768.346	217.22
768.786	224.32
769.226	223.92
769.666	334.42
770.106	688.12
770.546	1724.62
770.986	2769.12
771.426	2443.22
771.866	831.12
772.306	343.62
772.745	215.02
773.185	174.02
773.625	168.72
774.065	158.52
774.505	169.42
774.944	224.22
775.384	397.22
775.824	639.82
776.263	599.92
776.703	295.02
777.142	170.02
777.582	139.22
778.021	132.02
778.461	127.92
778.9	142.02
779.34	134.82
779.779	117.32
780.219	114.82
780.658	119.62
781.097	108.02
781.537	120.42
781.976	115.92
782.415	112.72
782.855	111.32
783.294	106.62
783.733	108.12
784.172	121.02
784.611	111.42
785.05	117.92
785.489	117.22
785.928	125.82
786.367	125.12
786.806	123.22
787.245	136.62
787.684	145.82
788.123	153.02
788.562	143.12
789.001	135.02
789.44	132.12
789.879	121.42
790.317	126.52
790.756	131.72
791.195	135.32
791.634	156.32
792.072	222.92
792.511	408.12
792.95	1113.82
793.388	2231.12
793.827	1969.62
794.265	706.82
794.704	300.12
795.142	188.52
795.581	160.82
796.019	143.82
796.458	131.72
796.896	135.82
797.334	140.12
797.773	168.42
798.211	238.42
798.649	490.02
799.087	1105.02
799.526	1720.72
799.964	2153.62
800.402	2079.82
800.84	806.92
801.278	330.12
801.716	201.22
802.154	167.22
802.592	157.82
803.03	144.92
803.468	141.72
803.906	146.12
804.344	155.72
804.782	148.82
805.22	141.02
805.658	134.62
806.096	159.12
806.533	164.52
806.971	190.32
807.409	233.72
807.847	354.32
808.284	747.82
808.722	2057.92
809.16	3495.92
809.597	3453.52
810.035	5839.72
810.472	5952.72
810.91	2216.52
811.347	854.02
811.785	424.72
812.222	274.22
812.66	208.42
813.097	172.82
813.535	158.02
813.972	133.62
814.409	132.12
814.846	121.72
815.284	113.92
815.721	103.12
816.158	108.92
816.595	118.52
817.032	166.52
817.47	182.82
817.907	131.92
818.344	114.42
818.781	106.22
819.218	101.72
819.655	140.52
820.092	210.12
820.529	226.72
820.966	172.12
821.403	142.92
821.839	101.92
822.276	103.22
822.713	127.72
823.15	138.92
823.587	124.42
824.023	166.32
824.46	340.42
824.897	975.32
825.333	1415.32
825.77	615.42
826.206	246.12
826.643	145.52
827.08	106.12
827.516	85.32
827.953	73.12
828.389	88.82
828.825	68.42
829.262	76.92
829.698	71.52
830.135	68.12
830.571	65.92
831.007	67.82
831.443	64.92
831.88	68.52
832.316	60.32
832.752	65.72
833.188	67.72
833.624	71.42
834.06	77.72
834.497	71.72
834.933	68.12
835.369	73.92
835.805	73.12
836.241	81.42
836.677	81.72
837.112	96.32
837.548	112.82
837.984	145.22
838.42	222.62
838.856	558.32
839.292	1648.02
839.727	2402.52
840.163	1135.62
840.599	1020.82
841.034	2192.22
841.47	2187.42
841.906	830.12
842.341	349.22
842.777	218.32
843.212	211.62
843.648	196.02
844.083	108.62
844.519	89.72
844.954	72.52
845.39	59.52
845.825	54.32
846.261	58.52
846.696	55.92
847.131	49.22
847.566	61.02
848.002	49.22
848.437	60.42
848.872	66.02
849.307	67.62
849.742	95.62
850.177	208.92
850.613	611.12
851.048	922.72
851.483	396.72
851.918	166.82
852.353	93.92
852.788	57.82
853.223	55.42
853.657	57.72
854.092	49.62
854.527	46.12
854.962	44.12
855.397	51.52
855.832	58.02
856.266	46.52
856.701	43.22
857.136	38.82
857.57	45.02
858.005	55.12
858.44	60.42
858.874	46.92
859.309	58.22
859.743	40.12
860.178	51.72
860.612	42.22
861.047	54.12
861.481	70.32
861.915	74.62
862.35	54.22
862.784	36.52
863.218	45.42
863.653	34.32
864.087	44.42
864.521	54.02
864.955	71.32
865.39	168.82
865.824	182.62
866.258	126.52
866.692	185.52
867.126	190.12
867.56	111.52
867.994	57.32
868.428	39.02
868.862	46.42
869.296	63.82
869.73	59.62
870.164	57.92
870.598	51.52
871.031	43.72
871.465	27.72
871.899	37.92
872.333	25.62
872.766	30.52
873.2	22.22
873.634	34.22
874.067	25.12
874.501	27.52
874.935	38.02
875.368	36.72
875.802	30.32
876.235	27.82
876.669	27.12
877.102	15.82
877.535	29.02
877.969	25.92
878.402	31.82
878.836	21.42
879.269	23.42
879.702	31.02
880.135	23.32
880.569	24.12
881.002	27.62
881.435	25.72
881.868	22.22
882.301	25.22
882.734	22.72
883.167	24.22
883.601	25.12
884.034	22.82
884.467	16.82
884.899	20.92
885.332	17.52
885.765	15.82
886.198	21.02
886.631	17.22
887.064	23.72
887.497	24.82
887.929	21.62
888.362	17.42
888.795	11.82
889.228	19.52
889.66	17.22
890.093	15.72
890.526	15.22
890.958	10.52
891.391	19.52
891.823	20.02
892.256	16.22
892.688	13.82
893.121	19.12
893.553	20.82
893.985	27.02
894.418	20.32
894.85	12.02
895.282	21.52
895.715	15.42
896.147	21.32
896.579	19.22
897.011	22.52
897.444	12.22
897.876	17.22
898.308	18.92
898.74	15.42
899.172	12.12
899.604	18.22
900.036	23.52
900.468	20.62
900.9	20.32
901.332	23.12
901.764	16.12
902.196	18.32
902.628	19.72
903.06	17.72
903.491	29.02
903.923	26.62
904.355	26.12
904.787	28.72
905.218	23.12
905.65	21.52
906.082	16.72
906.513	13.22
906.945	17.82
907.376	12.62
907.808	19.62
908.239	26.72
908.671	19.02
909.102	24.12
909.534	26.12
909.965	56.12
910.397	103.22
910.828	337.12
911.259	492.12
911.691	225.22
912.122	111.12
912.553	56.52
912.984	39.62
913.415	27.62
913.847	27.02
914.278	15.52
914.709	14.92
915.14	17.72
915.571	20.42
916.002	13.22
916.433	22.52
916.864	18.82
917.295	13.32
917.726	23.32
918.157	18.92
918.587	27.72
919.018	22.72
919.449	19.12
919.88	27.12
920.311	34.72
920.741	54.32
921.172	175.52
921.603	156.52
922.033	78.82
922.464	52.22
922.895	24.62
923.325	22.52
923.756	15.12
924.186	10.42
924.617	18.42
925.047	24.12
925.478	29.42
925.908	25.92
926.338	15.22
926.769	14.92
927.199	16.72
927.629	10.92
928.06	12.62
928.49	22.12
928.92	18.42
929.35	15.52
929.78	11.92
930.21	9.82
930.641	11.92
931.071	11.72
931.501	8.42
931.931	8.42
932.361	10.62
932.791	7.72
933.221	7.12
933.651	6.52
934.08	19.12
934.51	28.02
934.94	10.72
935.37	6.32
935.8	11.02
936.229	11.22
936.659	11.52
937.089	1.22
937.519	18.22
937.948	23.32
938.378	19.32
938.807	9.72
939.237	6.72
939.666	7.32
940.096	-6.18
940.525	6.52
940.955	5.02
941.384	5.22
941.814	-1.48
942.243	1.12
942.672	7.22
943.102	2.42
943.531	0.52
943.96	3.72
944.39	0.02
944.819	1.72
945.248	-0.98
945.677	2.62
946.106	4.42
946.535	10.12
946.964	-1.48
947.393	8.92
947.822	5.52
948.251	-4.38
948.68	1.72
949.109	2.62
949.538	5.62
949.967	1.32
950.396	5.32
950.825	-0.08
951.254	2.02
951.682	-6.48
952.111	1.92
952.54	8.72
952.969	-3.88
953.397	-3.78
953.826	0.02
954.254	-0.58
954.683	2.92
955.112	3.62
955.54	5.62
955.969	5.82
956.397	5.82
956.826	-5.38
957.254	1.32
957.682	-0.18
958.111	7.12
958.539	-1.68
958.967	4.42
959.396	0.32
959.824	3.82
960.252	4.42
960.68	-0.48
961.109	-0.88
961.537	-4.78
961.965	-0.68
962.393	4.12
962.821	0.22
963.249	3.12
963.677	6.52
964.105	4.02
964.533	44.12
964.961	44.72
965.389	21.92
965.817	14.22
966.245	2.92
966.672	-0.68
967.1	-1.88
967.528	0.92
967.956	-2.58
968.383	7.42
968.811	-0.48
969.239	0.92
969.666	1.32
970.094	2.12
970.522	6.72
970.949	-0.48
971.377	0.72
971.804	-3.28
972.232	-5.38
972.659	-5.98
973.087	-4.48
973.514	3.12
973.941	-4.98
974.369	6.52
974.796	5.12
975.223	-0.88
975.651	2.22
976.078	8.92
976.505	0.82
976.932	2.72
977.359	14.02
977.786	15.92
978.214	0.62
978.641	-1.38
979.068	-1.88
979.495	-2.18
979.922	-0.18
980.349	2.42
980.776	3.52
981.202	3.02
981.629	3.22
982.056	3.92
982.483	-3.78
982.91	1.32
983.337	-8.98
983.763	4.62
984.19	-5.58
984.617	-2.58
985.043	-2.68
985.47	0.32
985.897	-1.98
986.323	-10.28
986.75	5.12
987.176	-3.78
987.603	-3.28
988.029	3.72
988.456	-4.98
988.882	0.72
989.308	-11.58
989.735	1.22
990.161	1.02
990.587	1.42
991.014	0.52
991.44	9.32
991.866	3.72
992.292	-1.38
992.719	-5.78
993.145	1.42
993.571	-7.18
993.997	-2.88
994.423	-5.28
994.849	-0.28
995.275	6.52
995.701	2.52
996.127	-4.58
996.553	5.42
996.979	4.32
997.405	0.92
997.83	-6.58
998.256	-9.48
998.682	-1.48
999.108	1.92
999.534	-3.08
999.959	-2.38
1000.385	-1.28
1000.811	1.32
1001.236	-7.98
1001.662	-11.88
1002.087	-8.88
1002.513	2.82
1002.938	3.92
1003.364	-7.08
1003.789	0.92
1004.215	5.42
1004.64	0.92
1005.066	3.52
1005.491	0.12
1005.916	-4.78
1006.342	-2.98
1006.767	-0.78
1007.192	6.32
1007.617	-5.98
1008.042	-6.18
1008.468	-8.08
1008.893	-2.88
1009.318	-8.68
1009.743	-4.28
1010.168	2.62
1010.593	2.02
1011.018	-1.58
1011.443	-1.18
1011.868	1.62
1012.293	-1.08
1012.718	-4.48
1013.143	1.42
1013.567	-3.58
1013.992	-3.68
1014.417	-10.88
1014.842	-3.28
1015.267	-6.28
1015.691	-5.58
1016.116	0.32
1016.541	1.02
1016.965	-0.48
1017.39	4.12
1017.814	1.92
1018.239	5.02
1018.663	-4.58
1019.088	-11.58
1019.512	-0.18
1019.937	0.72
1020.361	0.32
1020.785	-11.68
1021.21	-2.58
1021.634	-0.38
1022.058	1.72
1022.483	1.32
1022.907	-3.08
1023.331	-0.38
1023.755	-3.78
1024.179	0.32
1024.604	-6.08
1025.028	-4.08
1025.452	-5.18
1025.876	-1.58
1026.3	-1.78
1026.724	-11.48
1027.148	-2.88
1027.572	-6.88
1027.996	-1.08
1028.42	1.82
1028.843	2.92
1029.267	-5.38
1029.691	2.82
1030.115	-2.38
1030.539	-5.18
1030.962	-3.18
1031.386	-10.68
1031.81	3.82
1032.233	-4.58
1032.657	-1.88
1033.08	2.52
1033.504	-1.08
1033.927	-6.48
1034.351	-6.38
1034.774	-6.28
1035.198	-3.28
1035.621	-7.78
1036.045	-9.08
1036.468	-1.48
1036.891	-14.48
1037.315	-4.88
1037.738	-7.48
1038.161	-1.58
1038.584	-6.58
1039.008	-0.48
1039.431	-2.08
1039.854	3.82
1040.277	-0.78
1040.7	-6.98
1041.123	-0.58
1041.546	-4.98
1041.969	-5.78
1042.392	-8.48
1042.815	1.82
1043.238	3.32
1043.661	-0.78
1044.084	-5.28
1044.507	-6.08
1044.93	-7.88
1045.352	-5.88
1045.775	-5.28
1046.198	-1.88
1046.621	2.82
1047.043	0.92
1047.466	7.32
1047.889	-1.68
1048.311	-7.38
1048.734	-5.98
1049.156	-3.18
1049.579	0.02
1050.001	-5.08
1050.424	-3.48
1050.846	0.32
1051.269	-3.08
1051.691	-3.88
1052.113	-11.78
1052.536	-1.38
1052.958	-3.18
1053.38	-6.78
1053.802	-8.08
1054.225	1.62
1054.647	-10.98
1055.069	-4.58
1055.491	5.22
1055.913	-5.88
1056.335	-2.58
1056.757	-1.48
1057.179	-7.38
1057.601	-7.18
1058.023	-5.18
1058.445	-0.38
1058.867	-5.58
1059.289	-5.28
1059.711	-3.78
1060.133	-2.68
1060.555	-1.78
1060.976	-8.28
1061.398	-4.58
1061.82	-1.68
1062.241	-3.28
1062.663	-6.38
1063.085	-3.78
1063.506	-2.98
1063.928	-1.08
1064.35	-0.78
1064.771	-13.78
1065.193	-0.48
1065.614	-1.98
1066.035	-1.78
1066.457	-4.88
1066.878	5.42
1067.3	-2.38
1067.721	-2.78
1068.142	-2.48
1068.564	-6.88
1068.985	-3.68
1069.406	-1.58
1069.827	-5.48
1070.248	-9.08
1070.67	-11.78
1071.091	-10.08
1071.512	-3.48
1071.933	-4.68
1072.354	-9.48
1072.775	-5.48
1073.196	-8.28
1073.617	-1.78
1074.038	-8.18
1074.459	3.92
1074.88	-11.78
1075.3	6.42
1075.721	-5.28
1076.142	-1.08
1076.563	3.02
1076.983	-11.58
1077.404	-6.88
1077.825	-10.48
1078.246	-0.48
1078.666	-14.18
1079.087	-6.38
1079.507	-3.88
1079.928	-1.28
1080.348	0.42
1080.769	-7.38
1081.189	6.52
1081.61	-1.48
1082.03	-3.38
1082.451	-7.08
1082.871	-7.38
1083.291	-7.18
1083.711	-6.98
1084.132	-1.48
1084.552	-4.58
1084.972	1.22
1085.392	-12.78
1085.813	-4.48
1086.233	-11.48
1086.653	-9.28
1087.073	-2.48
1087.493	-8.48
1087.913	-4.98
1088.333	-4.98
1088.753	-3.58
1089.173	2.32
1089.593	-1.28
1090.013	0.42
1090.433	3.92
1090.852	-5.18
1091.272	2.32
1091.692	-0.28
1092.112	-2.88
1092.531	-11.08
1092.951	-9.98
1093.371	-0.08
1093.79	-0.38
1094.21	-1.68
1094.63	-4.98
1095.049	-6.08
1095.469	4.42
1095.888	-1.18
1096.308	2.22
1096.727	6.02
1097.146	-2.78
1097.566	-4.78
1097.985	-6.68
1098.405	-4.28
1098.824	-3.08
1099.243	-0.78
1099.662	-6.48
1100.082	-1.18
1100.501	-4.28
1100.92	-9.28
1101.339	-8.38
1101.758	-7.88
