Data from 20171114-ORNL-Ar_H_NY_Subt18_08-09-15-498.txt Node
Date: Tue Nov 14 08:09:15 EST 2017
User: Ender
Spectrometer: HR+D1039
Trigger mode: 0
Integration Time (sec): 2.730000E-2
Scans to average: 10
Electric dark correction enabled: true
Nonlinearity correction enabled: false
Boxcar width: 0
XAxis mode: Wavelengths
Number of Pixels in Spectrum: 2048
>>>>>Begin Spectral Data<<<<<
187.836	-7.21
188.309	-7.21
188.782	-7.21
189.255	-0.31
189.728	1.09
190.201	6.29
190.674	4.69
191.147	3.79
191.619	-5.91
192.092	0.59
192.565	6.89
193.038	2.49
193.511	3.29
193.984	-4.71
194.456	-6.51
194.929	0.19
195.402	-2.41
195.874	-2.21
196.347	-0.21
196.82	-8.21
197.292	2.79
197.765	2.69
198.237	-8.41
198.71	5.59
199.182	-3.01
199.655	2.79
200.127	3.79
200.6	-1.71
201.072	-1.41
201.544	-4.71
202.017	-2.21
202.489	5.09
202.961	1.59
203.433	-8.71
203.906	-3.11
204.378	-1.31
204.85	-5.11
205.322	-5.91
205.794	1.29
206.266	-4.21
206.739	-10.21
207.211	9.59
207.683	-8.41
208.155	-2.41
208.627	-3.61
209.099	-1.41
209.57	-7.81
210.042	-5.11
210.514	-3.51
210.986	-8.31
211.458	-12.11
211.93	-6.51
212.402	0.59
212.873	-3.31
213.345	-5.21
213.817	-15.21
214.288	-4.81
214.76	-11.01
215.232	-5.11
215.703	-3.61
216.175	-8.31
216.646	-6.71
217.118	-3.41
217.589	-5.31
218.061	3.19
218.532	-3.81
219.004	1.99
219.475	-3.41
219.946	1.59
220.418	-1.71
220.889	1.89
221.36	-4.31
221.832	-2.81
222.303	0.29
222.774	0.29
223.245	-9.11
223.717	-3.51
224.188	-2.11
224.659	-6.21
225.13	-2.11
225.601	-6.61
226.072	-2.41
226.543	1.39
227.014	-2.31
227.485	-2.71
227.956	-5.11
228.427	2.39
228.898	2.09
229.369	3.39
229.839	-7.51
230.31	-6.71
230.781	2.09
231.252	-7.21
231.722	-1.21
232.193	-8.91
232.664	-3.31
233.135	-4.91
233.605	-6.51
234.076	-3.91
234.546	1.69
235.017	0.09
235.487	-9.21
235.958	-4.81
236.428	-6.11
236.899	-2.31
237.369	-1.91
237.84	-5.81
238.31	-0.01
238.78	-2.91
239.251	-4.41
239.721	-2.01
240.191	-2.01
240.662	-2.71
241.132	-5.41
241.602	-1.71
242.072	-0.21
242.542	4.99
243.013	-0.51
243.483	4.89
243.953	5.49
244.423	2.99
244.893	-7.31
245.363	4.49
245.833	-3.21
246.303	-3.21
246.773	-4.01
247.243	-0.71
247.712	-1.41
248.182	-3.41
248.652	2.09
249.122	-9.61
249.592	-1.31
250.061	-0.01
250.531	13.29
251.001	-5.61
251.471	5.49
251.94	10.89
252.41	-1.41
252.879	-0.01
253.349	5.69
253.818	11.19
254.288	-2.91
254.757	1.09
255.227	-5.41
255.696	-4.41
256.166	2.49
256.635	2.89
257.105	1.39
257.574	1.69
258.043	1.59
258.513	-6.01
258.982	-1.01
259.451	-2.41
259.92	-0.11
260.389	-2.41
260.859	1.59
261.328	1.99
261.797	-2.51
262.266	-2.31
262.735	0.59
263.204	8.59
263.673	-7.91
264.142	-1.01
264.611	-7.41
265.08	-4.71
265.549	-6.01
266.018	-0.11
266.487	-6.51
266.955	-8.91
267.424	-1.71
267.893	1.29
268.362	-4.31
268.83	-2.61
269.299	5.29
269.768	1.59
270.236	-5.61
270.705	-4.51
271.174	-4.41
271.642	-2.41
272.111	-3.41
272.579	1.79
273.048	-0.61
273.516	-3.01
273.985	0.79
274.453	-1.11
274.922	5.09
275.39	-1.01
275.858	-3.61
276.327	1.09
276.795	9.29
277.263	-0.71
277.731	12.59
278.2	8.09
278.668	3.89
279.136	10.29
279.604	1.09
280.072	7.29
280.54	0.89
281.008	2.49
281.477	8.19
281.945	4.99
282.413	7.09
282.881	12.89
283.348	2.49
283.816	3.29
284.284	5.19
284.752	13.99
285.22	7.59
285.688	6.89
286.156	4.29
286.623	19.29
287.091	6.99
287.559	13.19
288.026	11.89
288.494	11.99
288.962	5.39
289.429	3.99
289.897	14.19
290.364	7.99
290.832	6.69
291.3	8.19
291.767	10.99
292.234	6.69
292.702	4.39
293.169	7.69
293.637	11.99
294.104	15.39
294.571	11.09
295.039	-0.41
295.506	8.09
295.973	15.79
296.44	3.19
296.908	5.89
297.375	5.29
297.842	9.09
298.309	8.19
298.776	4.69
299.243	12.19
299.71	5.79
300.177	12.99
300.644	8.29
301.111	6.79
301.578	9.49
302.045	5.09
302.512	17.19
302.979	16.29
303.446	14.19
303.913	6.29
304.379	9.19
304.846	13.29
305.313	21.19
305.78	10.19
306.246	13.79
306.713	15.59
307.18	11.79
307.646	16.69
308.113	18.99
308.579	9.99
309.046	15.49
309.512	18.99
309.979	6.49
310.445	17.79
310.912	20.89
311.378	22.09
311.845	20.29
312.311	21.29
312.777	26.69
313.244	27.49
313.71	27.09
314.176	17.89
314.642	20.49
315.109	19.69
315.575	33.09
316.041	34.19
316.507	19.49
316.973	23.09
317.439	18.59
317.905	28.09
318.371	24.29
318.837	24.29
319.303	24.59
319.769	22.19
320.235	21.29
320.701	24.29
321.167	25.89
321.633	21.89
322.099	28.39
322.564	32.19
323.03	27.19
323.496	25.89
323.962	34.59
324.427	28.49
324.893	29.39
325.359	25.89
325.824	25.49
326.29	23.79
326.755	27.69
327.221	30.09
327.686	28.29
328.152	30.09
328.617	30.29
329.083	36.29
329.548	37.69
330.014	32.89
330.479	31.39
330.944	35.39
331.41	33.39
331.875	33.29
332.34	29.59
332.805	29.19
333.271	30.49
333.736	27.99
334.201	40.49
334.666	37.29
335.131	38.39
335.596	40.79
336.061	34.89
336.526	33.09
336.991	36.49
337.456	43.69
337.921	31.49
338.386	33.79
338.851	35.89
339.316	41.09
339.781	36.99
340.246	39.99
340.711	39.69
341.175	41.49
341.64	31.99
342.105	39.09
342.569	43.69
343.034	47.09
343.499	45.49
343.963	38.99
344.428	47.39
344.893	48.39
345.357	45.39
345.822	44.19
346.286	49.79
346.751	54.39
347.215	55.39
347.679	47.69
348.144	70.89
348.608	60.69
349.073	59.59
349.537	59.89
350.001	59.99
350.465	66.19
350.93	64.59
351.394	64.09
351.858	52.69
352.322	68.39
352.786	62.59
353.25	75.19
353.715	87.09
354.179	79.19
354.643	95.49
355.107	94.89
355.571	80.89
356.035	77.69
356.498	84.09
356.962	89.19
357.426	97.69
357.89	92.79
358.354	75.09
358.818	68.89
359.281	62.69
359.745	68.09
360.209	59.59
360.673	60.69
361.136	64.89
361.6	65.49
362.064	72.99
362.527	73.69
362.991	77.49
363.454	63.29
363.918	66.69
364.381	68.59
364.845	75.59
365.308	69.69
365.772	70.99
366.235	76.89
366.698	66.29
367.162	69.39
367.625	71.19
368.088	69.79
368.552	70.79
369.015	80.29
369.478	79.99
369.941	81.69
370.404	75.89
370.867	82.19
371.331	86.99
371.794	90.79
372.257	80.09
372.72	89.09
373.183	90.39
373.646	82.19
374.109	83.89
374.572	85.29
375.035	86.69
375.497	93.49
375.96	87.79
376.423	88.59
376.886	92.09
377.349	94.59
377.811	79.89
378.274	88.79
378.737	93.79
379.199	98.29
379.662	96.89
380.125	100.09
380.587	93.99
381.05	88.19
381.512	106.79
381.975	109.29
382.437	110.59
382.9	101.09
383.362	104.19
383.825	109.69
384.287	114.69
384.75	109.49
385.212	109.69
385.674	115.79
386.136	117.19
386.599	102.59
387.061	109.49
387.523	115.29
387.985	114.29
388.447	122.09
388.91	116.59
389.372	110.09
389.834	115.59
390.296	117.79
390.758	115.59
391.22	126.39
391.682	137.89
392.144	142.69
392.606	133.19
393.068	130.99
393.529	144.99
393.991	133.19
394.453	109.99
394.915	119.19
395.377	121.39
395.838	131.69
396.3	131.79
396.762	132.79
397.224	120.59
397.685	121.09
398.147	128.99
398.608	122.49
399.07	128.99
399.531	128.29
399.993	132.29
400.454	144.19
400.916	135.29
401.377	134.99
401.839	144.09
402.3	146.99
402.762	152.49
403.223	169.49
403.684	159.89
404.145	150.89
404.607	151.29
405.068	156.29
405.529	157.59
405.99	172.49
406.451	159.99
406.913	163.49
407.374	152.39
407.835	144.39
408.296	156.09
408.757	160.29
409.218	170.59
409.679	170.39
410.14	169.39
410.601	164.99
411.062	169.59
411.522	174.99
411.983	168.49
412.444	171.19
412.905	171.59
413.366	169.39
413.826	182.49
414.287	209.49
414.748	266.19
415.208	240.29
415.669	208.49
416.13	198.09
416.59	197.49
417.051	205.09
417.511	205.39
417.972	233.89
418.432	244.09
418.893	283.59
419.353	245.29
419.814	201.19
420.274	180.19
420.734	181.99
421.195	188.79
421.655	185.89
422.115	193.59
422.576	188.89
423.036	195.79
423.496	204.69
423.956	206.79
424.416	219.89
424.876	252.49
425.336	248.29
425.797	254.59
426.257	244.79
426.717	231.69
427.177	225.69
427.637	212.29
428.097	228.49
428.556	235.39
429.016	259.29
429.476	243.59
429.936	261.69
430.396	262.49
430.856	278.59
431.315	300.69
431.775	328.59
432.235	364.19
432.694	334.49
433.154	350.59
433.614	361.69
434.073	316.39
434.533	274.49
434.993	256.79
435.452	271.99
435.912	278.79
436.371	275.59
436.83	270.69
437.29	253.59
437.749	232.59
438.209	239.89
438.668	261.29
439.127	274.09
439.587	253.59
440.046	243.29
440.505	248.99
440.964	264.89
441.424	312.29
441.883	297.19
442.342	251.19
442.801	226.09
443.26	221.89
443.719	221.59
444.178	217.89
444.637	214.29
445.096	215.89
445.555	219.79
446.014	218.39
446.473	227.59
446.932	233.79
447.391	219.49
447.849	232.09
448.308	218.89
448.767	231.79
449.226	228.89
449.685	239.89
450.143	249.79
450.602	237.19
451.061	238.39
451.519	235.09
451.978	237.79
452.436	228.39
452.895	232.69
453.353	246.89
453.812	242.39
454.27	238.49
454.729	242.19
455.187	234.89
455.646	251.49
456.104	246.19
456.562	257.69
457.021	263.69
457.479	262.09
457.937	269.89
458.395	263.19
458.854	254.19
459.312	252.79
459.77	272.99
460.228	257.39
460.686	247.69
461.144	256.99
461.602	251.59
462.06	243.89
462.518	258.99
462.976	261.79
463.434	257.89
463.892	264.99
464.35	280.89
464.808	289.29
465.266	265.99
465.724	269.39
466.181	274.49
466.639	278.39
467.097	294.99
467.555	305.79
468.012	300.59
468.47	313.49
468.928	326.49
469.385	346.99
469.843	349.09
470.3	354.19
470.758	360.79
471.215	392.89
471.673	408.59
472.13	401.69
472.588	413.79
473.045	375.29
473.503	384.49
473.96	393.59
474.417	410.19
474.875	429.59
475.332	468.79
475.789	459.49
476.246	456.49
476.704	476.69
477.161	495.89
477.618	515.59
478.075	558.29
478.532	607.79
478.989	678.59
479.446	772.29
479.903	742.19
480.36	771.29
480.817	818.79
481.274	912.29
481.731	999.79
482.188	1072.79
482.645	1194.39
483.102	1275.59
483.558	1394.99
484.015	1426.89
484.472	1409.89
484.929	1364.79
485.385	1326.99
485.842	1299.39
486.299	1252.29
486.755	1203.09
487.212	1041.79
487.668	880.99
488.125	818.69
488.582	747.09
489.038	727.09
489.494	703.59
489.951	669.79
490.407	652.29
490.864	637.59
491.32	629.39
491.776	644.79
492.233	642.29
492.689	609.19
493.145	609.19
493.602	601.09
494.058	610.59
494.514	601.89
494.97	633.19
495.426	645.79
495.882	614.29
496.338	611.79
496.794	622.29
497.251	617.49
497.707	631.39
498.163	633.89
498.618	628.99
499.074	651.39
499.53	661.39
499.986	680.89
500.442	643.49
500.898	624.19
501.354	615.19
501.809	617.49
502.265	619.79
502.721	631.89
503.177	638.79
503.632	641.29
504.088	649.09
504.543	672.99
504.999	687.09
505.455	648.29
505.91	628.69
506.366	645.79
506.821	638.99
507.277	631.29
507.732	639.49
508.187	641.29
508.643	646.79
509.098	652.09
509.553	674.09
510.009	675.39
510.464	680.79
510.919	686.29
511.375	691.99
511.83	705.89
512.285	731.09
512.74	760.59
513.195	789.99
513.65	778.09
514.105	770.89
514.56	781.49
515.015	785.39
515.47	801.29
515.925	794.09
516.38	790.49
516.835	797.09
517.29	786.99
517.745	780.59
518.2	767.99
518.655	757.89
519.109	752.29
519.564	746.99
520.019	731.39
520.474	729.09
520.928	732.19
521.383	726.89
521.838	709.49
522.292	719.69
522.747	719.69
523.201	712.19
523.656	711.49
524.11	701.89
524.565	707.09
525.019	700.29
525.474	706.69
525.928	697.39
526.382	701.09
526.837	716.19
527.291	708.19
527.745	707.69
528.2	699.89
528.654	702.49
529.108	695.49
529.562	694.99
530.016	707.89
530.47	694.29
530.925	687.29
531.379	695.29
531.833	711.39
532.287	705.59
532.741	700.39
533.195	702.79
533.649	708.69
534.103	718.49
534.556	707.39
535.01	722.89
535.464	713.79
535.918	726.89
536.372	721.29
536.826	725.39
537.279	703.99
537.733	713.19
538.187	720.19
538.64	715.69
539.094	730.69
539.548	739.39
540.001	727.89
540.455	724.19
540.908	742.49
541.362	746.39
541.815	757.19
542.269	766.79
542.722	773.79
543.175	775.79
543.629	776.99
544.082	805.29
544.536	798.09
544.989	789.79
545.442	808.79
545.895	801.09
546.349	810.79
546.802	812.29
547.255	820.79
547.708	823.09
548.161	836.39
548.614	847.69
549.067	838.69
549.52	838.39
549.973	822.29
550.426	840.39
550.879	814.39
551.332	812.69
551.785	826.89
552.238	818.49
552.691	825.49
553.144	847.49
553.596	856.79
554.049	881.99
554.502	907.79
554.955	925.99
555.407	925.79
555.86	906.49
556.313	908.09
556.765	892.09
557.218	899.99
557.67	908.79
558.123	894.59
558.576	884.79
559.028	888.39
559.48	889.49
559.933	885.79
560.385	867.59
560.838	826.89
561.29	801.19
561.742	807.19
562.195	801.69
562.647	783.39
563.099	793.09
563.551	787.79
564.004	794.59
564.456	795.69
564.908	775.39
565.36	759.29
565.812	737.89
566.264	732.79
566.716	726.49
567.168	717.49
567.62	722.49
568.072	699.29
568.524	701.89
568.976	704.09
569.428	692.79
569.88	706.49
570.332	696.39
570.784	699.29
571.235	704.99
571.687	714.49
572.139	718.19
572.59	724.89
573.042	727.99
573.494	725.69
573.945	719.29
574.397	708.19
574.849	715.39
575.3	709.79
575.752	696.69
576.203	690.09
576.655	699.79
577.106	681.09
577.557	681.59
578.009	685.29
578.46	680.79
578.912	682.29
579.363	688.49
579.814	686.89
580.265	683.89
580.717	681.19
581.168	679.29
581.619	697.39
582.07	698.29
582.521	688.89
582.972	688.29
583.423	702.69
583.875	686.29
584.326	698.09
584.777	719.59
585.227	742.59
585.678	745.79
586.129	767.39
586.58	799.39
587.031	811.69
587.482	848.19
587.933	887.09
588.384	861.49
588.834	810.89
589.285	785.99
589.736	804.89
590.186	795.49
590.637	777.49
591.088	760.79
591.538	749.99
591.989	747.49
592.439	744.19
592.89	739.29
593.34	724.19
593.791	725.99
594.241	717.89
594.692	714.49
595.142	717.19
595.593	701.79
596.043	711.39
596.493	718.39
596.943	728.39
597.394	744.39
597.844	739.29
598.294	750.79
598.744	772.19
599.195	805.29
599.645	849.29
600.095	896.29
600.545	955.49
600.995	1001.79
601.445	1051.09
601.895	1122.79
602.345	1165.69
602.795	1144.29
603.245	1102.99
603.695	1052.79
604.145	988.59
604.594	941.49
605.044	886.19
605.494	824.79
605.944	772.19
606.393	764.79
606.843	757.29
607.293	745.19
607.743	752.09
608.192	766.19
608.642	775.89
609.091	774.49
609.541	783.29
609.99	782.49
610.44	777.89
610.889	739.79
611.339	719.39
611.788	699.39
612.238	702.29
612.687	724.49
613.136	714.99
613.586	723.19
614.035	715.89
614.484	731.19
614.933	732.99
615.383	722.09
615.832	721.89
616.281	721.79
616.73	696.19
617.179	665.49
617.628	662.69
618.077	653.39
618.526	645.69
618.975	635.79
619.424	635.29
619.873	630.59
620.322	635.19
620.771	619.19
621.22	614.09
621.669	602.09
622.118	603.29
622.567	599.69
623.015	582.09
623.464	580.69
623.913	563.69
624.361	571.09
624.81	570.09
625.259	566.29
625.707	573.29
626.156	578.39
626.604	592.69
627.053	579.49
627.501	580.89
627.95	590.19
628.398	602.29
628.847	577.49
629.295	595.19
629.744	595.09
630.192	586.59
630.64	570.59
631.089	565.39
631.537	559.99
631.985	550.89
632.433	550.39
632.881	543.39
633.33	546.79
633.778	544.49
634.226	532.89
634.674	540.19
635.122	548.09
635.57	558.69
636.018	582.19
636.466	584.49
636.914	570.19
637.362	585.59
637.81	596.49
638.258	594.89
638.705	599.99
639.153	631.79
639.601	641.39
640.049	655.79
640.497	689.49
640.944	716.49
641.392	660.49
641.84	620.99
642.287	595.69
642.735	578.19
643.182	584.09
643.63	579.69
644.078	588.69
644.525	589.09
644.973	594.49
645.42	604.39
645.867	626.99
646.315	650.89
646.762	675.39
647.21	700.69
647.657	713.79
648.104	758.89
648.551	782.49
648.999	834.89
649.446	909.29
649.893	997.99
650.34	1137.79
650.787	1349.39
651.234	1678.09
651.682	2158.39
652.129	2929.39
652.576	4164.29
653.023	6085.09
653.47	8198.19
653.917	10095.29
654.363	11581.59
654.81	12680.69
655.257	12038.29
655.704	7946.19
656.151	4788.39
656.598	3154.19
657.044	2275.99
657.491	1756.79
657.938	1413.89
658.385	1204.99
658.831	1051.19
659.278	947.69
659.724	849.09
660.171	782.69
660.618	715.59
661.064	688.69
661.511	663.39
661.957	652.79
662.404	649.89
662.85	652.29
663.296	634.09
663.743	571.49
664.189	552.69
664.635	551.59
665.082	538.29
665.528	538.79
665.974	534.99
666.42	529.09
666.867	518.49
667.313	492.69
667.759	481.79
668.205	470.19
668.651	459.59
669.097	458.99
669.543	466.49
669.989	455.29
670.435	461.69
670.881	463.79
671.327	472.69
671.773	486.29
672.219	510.39
672.665	563.69
673.11	601.49
673.556	652.19
674.002	690.89
674.448	694.99
674.893	567.99
675.339	501.29
675.785	459.69
676.23	432.69
676.676	411.99
677.122	402.29
677.567	394.79
678.013	378.29
678.458	376.59
678.904	375.99
679.349	367.89
679.794	370.99
680.24	361.99
680.685	358.49
681.131	367.19
681.576	358.79
682.021	368.39
682.466	368.49
682.912	364.69
683.357	363.29
683.802	400.39
684.247	431.69
684.692	484.49
685.137	522.79
685.583	557.89
686.028	588.89
686.473	533.99
686.918	459.09
687.363	439.49
687.807	412.69
688.252	378.79
688.697	366.99
689.142	361.29
689.587	350.19
690.032	347.89
690.477	353.59
690.921	370.69
691.366	409.89
691.811	422.99
692.255	453.99
692.7	478.89
693.145	541.19
693.589	763.79
694.034	1232.89
694.478	1647.89
694.923	1810.89
695.367	2373.29
695.812	1261.39
696.256	531.09
696.701	382.39
697.145	356.29
697.59	344.29
698.034	333.79
698.478	342.09
698.922	330.79
699.367	341.29
699.811	351.69
700.255	370.99
700.699	405.19
701.143	441.89
701.588	495.19
702.032	537.39
702.476	539.69
702.92	518.39
703.364	522.69
703.808	701.39
704.252	1152.29
704.696	1554.29
705.14	1750.39
705.584	2220.59
706.027	1132.29
706.471	555.39
706.915	416.79
707.359	373.79
707.803	329.69
708.246	328.69
708.69	319.69
709.134	327.39
709.577	327.89
710.021	325.49
710.465	320.49
710.908	308.59
711.352	318.69
711.795	334.29
712.239	375.39
712.682	411.29
713.126	425.89
713.569	476.19
714.012	381.59
714.456	326.09
714.899	308.19
715.342	292.79
715.786	269.49
716.229	268.89
716.672	260.19
717.115	260.99
717.558	263.09
718.002	262.99
718.445	279.59
718.888	302.09
719.331	311.49
719.774	315.99
720.217	320.29
720.66	298.79
721.103	282.19
721.546	266.49
721.989	261.19
722.432	241.39
722.874	253.39
723.317	237.69
723.76	246.99
724.203	278.69
724.645	341.89
725.088	478.19
725.531	603.29
725.974	675.79
726.416	574.69
726.859	325.29
727.301	260.29
727.744	248.09
728.187	243.09
728.629	245.79
729.071	250.09
729.514	274.39
729.956	287.79
730.399	294.69
730.841	303.19
731.283	292.79
731.726	278.39
732.168	274.09
732.61	280.59
733.053	300.29
733.495	333.59
733.937	385.39
734.379	423.29
734.821	470.99
735.263	593.69
735.705	928.59
736.148	1758.99
736.59	2782.69
737.032	3179.79
737.474	2614.29
737.916	870.49
738.357	453.59
738.799	347.69
739.241	314.69
739.683	300.09
740.125	313.19
740.567	308.49
741.008	337.09
741.45	334.99
741.892	335.69
742.334	373.59
742.775	386.49
743.217	366.99
743.658	291.19
744.1	272.79
744.542	287.29
744.983	332.89
745.425	360.59
745.866	362.09
746.307	297.79
746.749	302.09
747.19	344.89
747.632	502.49
748.073	997.09
748.514	2068.59
748.956	3032.89
749.397	3839.09
749.838	3165.59
750.279	3069.09
750.72	1587.89
751.162	586.79
751.603	334.39
752.044	272.89
752.485	225.79
752.926	224.79
753.367	212.69
753.808	209.89
754.249	193.69
754.69	193.69
755.131	193.99
755.572	191.69
756.013	190.69
756.453	185.59
756.894	203.39
757.335	201.99
757.776	209.29
758.216	205.49
758.657	209.59
759.098	216.39
759.538	234.59
759.979	280.09
760.42	409.29
760.86	796.69
761.301	2098.89
761.741	4882.69
762.182	6687.49
762.622	4712.69
763.063	1399.09
763.503	568.19
763.943	349.99
764.384	285.09
764.824	260.69
765.264	242.79
765.705	225.29
766.145	196.49
766.585	185.39
767.025	183.19
767.465	176.19
767.906	190.99
768.346	208.99
768.786	210.69
769.226	231.19
769.666	338.59
770.106	693.29
770.546	1732.69
770.986	2799.09
771.426	2457.69
771.866	835.19
772.306	340.49
772.745	218.79
773.185	172.49
773.625	167.49
774.065	164.29
774.505	173.49
774.944	216.69
775.384	398.29
775.824	636.59
776.263	596.19
776.703	297.99
777.142	169.59
777.582	144.79
778.021	128.09
778.461	129.89
778.9	129.89
779.34	131.99
779.779	122.79
780.219	112.39
780.658	108.99
781.097	116.39
781.537	115.29
781.976	111.79
782.415	109.09
782.855	110.29
783.294	106.49
783.733	110.69
784.172	116.49
784.611	108.09
785.05	115.89
785.489	116.09
785.928	130.09
786.367	129.09
786.806	126.59
787.245	136.49
787.684	142.09
788.123	152.09
788.562	144.09
789.001	138.49
789.44	126.19
789.879	121.39
790.317	125.09
790.756	143.59
791.195	136.09
791.634	153.59
792.072	218.29
792.511	414.89
792.95	1129.69
793.388	2259.89
793.827	1985.09
794.265	710.99
794.704	299.59
795.142	198.29
795.581	157.99
796.019	142.19
796.458	135.59
796.896	131.79
797.334	138.29
797.773	163.39
798.211	241.19
798.649	487.39
799.087	1108.99
799.526	1728.49
799.964	2150.79
800.402	2098.79
800.84	803.39
801.278	330.69
801.716	202.99
802.154	159.69
802.592	158.09
803.03	147.69
803.468	149.49
803.906	153.59
804.344	165.79
804.782	148.79
805.22	143.79
805.658	134.79
806.096	164.69
806.533	170.19
806.971	196.69
807.409	241.29
807.847	347.29
808.284	754.49
808.722	2095.49
809.16	3492.99
809.597	3489.99
810.035	5881.79
810.472	5996.89
810.91	2222.29
811.347	860.19
811.785	437.59
812.222	273.29
812.66	213.29
813.097	177.29
813.535	156.69
813.972	139.69
814.409	121.19
814.846	113.99
815.284	112.39
815.721	102.69
816.158	111.09
816.595	117.79
817.032	159.09
817.47	178.09
817.907	134.89
818.344	106.49
818.781	102.39
819.218	96.99
819.655	135.89
820.092	198.09
820.529	222.49
820.966	178.09
821.403	129.69
821.839	105.29
822.276	103.49
822.713	122.89
823.15	146.19
823.587	126.89
824.023	163.59
824.46	348.99
824.897	997.49
825.333	1418.89
825.77	603.09
826.206	245.39
826.643	151.49
827.08	110.59
827.516	87.39
827.953	83.59
828.389	90.09
828.825	77.89
829.262	74.39
829.698	69.09
830.135	68.89
830.571	69.99
831.007	69.19
831.443	60.39
831.88	63.79
832.316	65.59
832.752	60.69
833.188	62.59
833.624	66.69
834.06	71.19
834.497	73.79
834.933	69.79
835.369	77.89
835.805	72.69
836.241	79.09
836.677	91.39
837.112	98.59
837.548	116.69
837.984	144.79
838.42	222.29
838.856	567.69
839.292	1661.99
839.727	2415.09
840.163	1151.19
840.599	1044.39
841.034	2189.89
841.47	2212.19
841.906	826.69
842.341	349.19
842.777	217.29
843.212	212.39
843.648	186.89
844.083	113.39
844.519	86.39
844.954	70.99
845.39	61.59
845.825	59.39
846.261	63.39
846.696	58.69
847.131	56.49
847.566	59.89
848.002	52.29
848.437	55.39
848.872	64.79
849.307	65.59
849.742	92.99
850.177	200.79
850.613	614.49
851.048	922.09
851.483	404.59
851.918	167.09
852.353	91.89
852.788	58.69
853.223	50.99
853.657	60.39
854.092	47.79
854.527	40.99
854.962	41.99
855.397	52.89
855.832	48.39
856.266	43.09
856.701	44.19
857.136	37.09
857.57	44.89
858.005	57.99
858.44	64.49
858.874	49.89
859.309	53.19
859.743	43.19
860.178	45.59
860.612	47.99
861.047	48.49
861.481	78.99
861.915	71.89
862.35	51.59
862.784	38.79
863.218	39.19
863.653	31.99
864.087	47.19
864.521	56.09
864.955	74.19
865.39	168.59
865.824	188.39
866.258	128.89
866.692	182.19
867.126	185.09
867.56	108.19
867.994	59.39
868.428	35.09
868.862	54.59
869.296	55.89
869.73	66.49
870.164	54.29
870.598	49.09
871.031	36.59
871.465	33.29
871.899	29.59
872.333	25.19
872.766	27.69
873.2	23.59
873.634	29.39
874.067	28.39
874.501	30.49
874.935	37.29
875.368	32.89
875.802	35.29
876.235	24.89
876.669	27.99
877.102	19.59
877.535	24.49
877.969	22.69
878.402	29.49
878.836	19.19
879.269	24.29
879.702	27.79
880.135	15.89
880.569	21.89
881.002	25.29
881.435	19.99
881.868	15.59
882.301	25.39
882.734	12.99
883.167	23.39
883.601	23.59
884.034	20.69
884.467	14.69
884.899	20.19
885.332	19.09
885.765	15.19
886.198	15.79
886.631	17.69
887.064	20.09
887.497	23.19
887.929	23.29
888.362	16.49
888.795	10.79
889.228	17.89
889.66	23.09
890.093	17.29
890.526	12.99
890.958	17.19
891.391	20.09
891.823	21.79
892.256	14.59
892.688	7.39
893.121	13.69
893.553	16.79
893.985	27.49
894.418	18.09
894.85	13.29
895.282	17.09
895.715	13.39
896.147	19.39
896.579	19.79
897.011	15.19
897.444	19.09
897.876	16.59
898.308	16.69
898.74	7.99
899.172	18.19
899.604	21.39
900.036	20.09
900.468	18.79
900.9	20.39
901.332	14.09
901.764	12.89
902.196	19.49
902.628	15.39
903.06	18.49
903.491	30.99
903.923	24.29
904.355	22.09
904.787	24.19
905.218	22.89
905.65	20.09
906.082	19.89
906.513	12.79
906.945	13.79
907.376	12.59
907.808	22.09
908.239	21.69
908.671	24.19
909.102	21.49
909.534	30.39
909.965	49.89
910.397	101.29
910.828	343.99
911.259	492.79
911.691	230.79
912.122	116.29
912.553	62.69
912.984	38.89
913.415	24.29
913.847	20.69
914.278	12.69
914.709	11.59
915.14	22.09
915.571	19.49
916.002	13.79
916.433	20.59
916.864	13.99
917.295	13.49
917.726	20.99
918.157	16.89
918.587	25.69
919.018	22.69
919.449	26.49
919.88	25.89
920.311	32.49
920.741	53.29
921.172	171.59
921.603	160.49
922.033	74.09
922.464	45.69
922.895	24.69
923.325	25.49
923.756	16.49
924.186	17.19
924.617	17.79
925.047	24.29
925.478	26.19
925.908	27.09
926.338	14.19
926.769	5.79
927.199	19.49
927.629	3.19
928.06	11.59
928.49	8.69
928.92	10.09
929.35	14.79
929.78	12.49
930.21	5.69
930.641	4.59
931.071	7.89
931.501	3.29
931.931	7.79
932.361	7.79
932.791	2.39
933.221	4.09
933.651	3.89
934.08	19.89
934.51	25.39
934.94	8.39
935.37	12.99
935.8	17.29
936.229	7.79
936.659	10.89
937.089	-1.21
937.519	14.99
937.948	19.89
938.378	11.59
938.807	9.89
939.237	4.39
939.666	5.89
940.096	-4.81
940.525	3.59
940.955	0.69
941.384	7.79
941.814	-3.41
942.243	-4.01
942.672	4.39
943.102	-0.01
943.531	6.29
943.96	5.09
944.39	2.19
944.819	-1.01
945.248	5.69
945.677	7.59
946.106	3.59
946.535	1.59
946.964	-0.31
947.393	6.69
947.822	2.19
948.251	-2.31
948.68	0.19
949.109	3.49
949.538	11.49
949.967	0.09
950.396	8.49
950.825	2.39
951.254	5.69
951.682	-5.41
952.111	4.39
952.54	7.29
952.969	-4.11
953.397	-4.41
953.826	1.69
954.254	-4.91
954.683	4.39
955.112	-2.51
955.54	2.99
955.969	1.59
956.397	6.79
956.826	-0.91
957.254	1.19
957.682	1.29
958.111	6.19
958.539	-4.51
958.967	-0.41
959.396	-2.01
959.824	2.79
960.252	2.09
960.68	-4.91
961.109	-1.41
961.537	-6.01
961.965	-1.41
962.393	-0.81
962.821	0.59
963.249	0.09
963.677	8.69
964.105	0.89
964.533	50.39
964.961	47.29
965.389	12.69
965.817	8.39
966.245	2.69
966.672	-2.41
967.1	-7.51
967.528	2.19
967.956	-6.61
968.383	3.69
968.811	0.59
969.239	4.29
969.666	-1.91
970.094	0.19
970.522	5.69
970.949	1.39
971.377	-4.21
971.804	-3.31
972.232	2.39
972.659	-3.91
973.087	0.09
973.514	0.99
973.941	-4.51
974.369	5.09
974.796	0.99
975.223	6.79
975.651	-2.41
976.078	-2.01
976.505	0.79
976.932	3.89
977.359	17.09
977.786	17.89
978.214	4.89
978.641	-2.31
979.068	0.59
979.495	-3.11
979.922	-6.51
980.349	-4.01
980.776	1.79
981.202	-1.51
981.629	9.39
982.056	6.29
982.483	-4.91
982.91	3.79
983.337	-2.81
983.763	8.29
984.19	-7.31
984.617	-7.81
985.043	-9.61
985.47	0.09
985.897	-6.71
986.323	-9.01
986.75	2.49
987.176	-5.01
987.603	4.89
988.029	-0.61
988.456	-2.71
988.882	0.79
989.308	-10.61
989.735	-5.41
990.161	2.69
990.587	1.39
991.014	-3.51
991.44	4.39
991.866	-3.11
992.292	-6.81
992.719	-6.81
993.145	1.89
993.571	-4.21
993.997	-8.91
994.423	-1.91
994.849	-6.41
995.275	-3.01
995.701	-0.51
996.127	-5.61
996.553	0.29
996.979	-2.01
997.405	2.39
997.83	-4.61
998.256	-3.31
998.682	-1.71
999.108	-8.31
999.534	-3.71
999.959	-2.71
1000.385	-6.41
1000.811	-9.31
1001.236	-6.01
1001.662	-4.31
1002.087	-6.31
1002.513	-1.91
1002.938	-1.51
1003.364	-2.11
1003.789	1.29
1004.215	7.59
1004.64	-2.61
1005.066	7.19
1005.491	-0.41
1005.916	-0.21
1006.342	-3.11
1006.767	-1.61
1007.192	3.19
1007.617	-4.01
1008.042	-3.61
1008.468	-2.01
1008.893	-0.81
1009.318	-7.61
1009.743	-1.61
1010.168	1.89
1010.593	1.29
1011.018	-10.61
1011.443	0.09
1011.868	-1.41
1012.293	-8.11
1012.718	-1.81
1013.143	-4.81
1013.567	1.59
1013.992	-3.61
1014.417	-10.31
1014.842	3.49
1015.267	-3.71
1015.691	-2.41
1016.116	2.09
1016.541	-1.91
1016.965	1.49
1017.39	3.69
1017.814	0.79
1018.239	-0.01
1018.663	-5.11
1019.088	-5.71
1019.512	-1.41
1019.937	-6.81
1020.361	-5.01
1020.785	-13.71
1021.21	-3.31
1021.634	0.39
1022.058	-1.81
1022.483	2.49
1022.907	-7.51
1023.331	-4.81
1023.755	0.29
1024.179	-3.71
1024.604	-9.71
1025.028	-5.81
1025.452	-5.71
1025.876	-2.11
1026.3	-0.11
1026.724	-9.11
1027.148	-2.21
1027.572	-10.41
1027.996	-4.71
1028.42	-2.31
1028.843	-7.61
1029.267	-8.31
1029.691	1.39
1030.115	-6.11
1030.539	-5.21
1030.962	-7.01
1031.386	-11.21
1031.81	3.29
1032.233	-0.41
1032.657	-0.31
1033.08	-0.81
1033.504	-1.81
1033.927	-1.31
1034.351	-0.11
1034.774	2.99
1035.198	-1.61
1035.621	-11.01
1036.045	-11.41
1036.468	0.29
1036.891	-6.91
1037.315	-4.21
1037.738	-5.51
1038.161	3.39
1038.584	-8.61
1039.008	-2.61
1039.431	-2.81
1039.854	-3.31
1040.277	-5.61
1040.7	-15.61
1041.123	0.89
1041.546	-3.01
1041.969	-1.51
1042.392	-9.61
1042.815	-4.71
1043.238	-1.31
1043.661	-1.71
1044.084	-6.01
1044.507	-7.31
1044.93	-5.91
1045.352	-11.21
1045.775	3.39
1046.198	-8.81
1046.621	0.09
1047.043	2.59
1047.466	5.19
1047.889	-2.71
1048.311	-1.61
1048.734	-5.61
1049.156	-1.61
1049.579	2.79
1050.001	-6.21
1050.424	5.59
1050.846	-1.61
1051.269	-5.21
1051.691	-2.51
1052.113	-11.41
1052.536	-1.71
1052.958	-4.91
1053.38	-4.91
1053.802	-7.81
1054.225	-2.01
1054.647	-8.21
1055.069	-1.91
1055.491	4.89
1055.913	-8.91
1056.335	6.49
1056.757	-0.01
1057.179	-0.01
1057.601	-5.21
1058.023	-2.11
1058.445	-4.61
1058.867	-7.61
1059.289	-3.41
1059.711	-9.71
1060.133	1.49
1060.555	-7.11
1060.976	-9.81
1061.398	-10.51
1061.82	-5.91
1062.241	-4.01
1062.663	-7.61
1063.085	-2.51
1063.506	2.99
1063.928	-4.91
1064.35	-2.61
1064.771	-12.31
1065.193	-4.61
1065.614	-3.31
1066.035	-0.51
1066.457	-5.11
1066.878	6.29
1067.3	-5.81
1067.721	1.69
1068.142	-4.21
1068.564	-3.51
1068.985	-3.11
1069.406	-1.11
1069.827	-5.11
1070.248	1.29
1070.67	-2.51
1071.091	-8.71
1071.512	0.79
1071.933	-2.81
1072.354	-4.01
1072.775	-5.21
1073.196	-1.11
1073.617	-0.91
1074.038	-3.01
1074.459	-4.41
1074.88	-5.01
1075.3	0.99
1075.721	-4.31
1076.142	3.29
1076.563	-9.01
1076.983	-7.21
1077.404	-6.11
1077.825	-4.51
1078.246	-4.71
1078.666	-7.51
1079.087	-6.31
1079.507	-9.21
1079.928	-4.71
1080.348	-3.71
1080.769	-3.41
1081.189	-1.61
1081.61	-6.41
1082.03	-6.11
1082.451	-10.21
1082.871	-1.81
1083.291	-7.81
1083.711	-7.01
1084.132	-7.01
1084.552	-2.91
1084.972	-2.31
1085.392	-13.41
1085.813	-10.31
1086.233	-2.41
1086.653	-2.01
1087.073	-7.41
1087.493	-4.31
1087.913	-7.61
1088.333	-4.51
1088.753	2.89
1089.173	3.69
1089.593	-2.11
1090.013	0.79
1090.433	-1.31
1090.852	-3.41
1091.272	-3.21
1091.692	-2.21
1092.112	0.19
1092.531	-5.81
1092.951	-11.81
1093.371	-6.41
1093.79	0.59
1094.21	-5.61
1094.63	-4.51
1095.049	-6.51
1095.469	-6.41
1095.888	-3.41
1096.308	2.19
1096.727	1.59
1097.146	-5.51
1097.566	1.39
1097.985	-1.71
1098.405	-1.71
1098.824	-11.41
1099.243	-3.01
1099.662	-4.01
1100.082	-8.91
1100.501	-2.11
1100.92	-4.81
1101.339	-3.21
1101.758	-8.01
