Data from 20171114-ORNL-Ar_H_NY_Subt18_08-07-33-619.txt Node
Date: Tue Nov 14 08:07:33 EST 2017
User: Ender
Spectrometer: HR+D1039
Trigger mode: 0
Integration Time (sec): 2.730000E-2
Scans to average: 10
Electric dark correction enabled: true
Nonlinearity correction enabled: false
Boxcar width: 0
XAxis mode: Wavelengths
Number of Pixels in Spectrum: 2048
>>>>>Begin Spectral Data<<<<<
187.836	-2.31
188.309	-2.31
188.782	-2.31
189.255	0.19
189.728	4.19
190.201	2.79
190.674	-3.01
191.147	1.99
191.619	-7.41
192.092	-0.41
192.565	6.19
193.038	1.89
193.511	-1.01
193.984	3.19
194.456	-5.01
194.929	0.39
195.402	-3.61
195.874	1.99
196.347	0.99
196.82	-4.81
197.292	-0.31
197.765	-3.01
198.237	-6.31
198.71	4.39
199.182	-0.91
199.655	0.79
200.127	5.89
200.6	2.49
201.072	-5.41
201.544	-7.21
202.017	-4.81
202.489	-0.01
202.961	-3.01
203.433	-1.51
203.906	-3.51
204.378	-10.21
204.85	-2.61
205.322	-8.51
205.794	-3.81
206.266	-7.91
206.739	-8.41
207.211	1.79
207.683	-8.01
208.155	1.49
208.627	-3.21
209.099	-3.31
209.57	-9.81
210.042	-4.51
210.514	-2.21
210.986	0.89
211.458	-7.71
211.93	-2.81
212.402	-1.11
212.873	0.89
213.345	-7.71
213.817	-11.91
214.288	-9.51
214.76	-9.81
215.232	-4.11
215.703	-3.61
216.175	-1.31
216.646	-9.01
217.118	-10.41
217.589	-4.51
218.061	-3.31
218.532	-5.41
219.004	-5.91
219.475	1.59
219.946	-6.51
220.418	-5.21
220.889	1.99
221.36	-4.11
221.832	-2.31
222.303	-4.31
222.774	-2.51
223.245	-10.51
223.717	-6.81
224.188	-5.71
224.659	-4.91
225.13	-10.31
225.601	-7.11
226.072	0.69
226.543	-2.41
227.014	-4.11
227.485	-10.21
227.956	-6.21
228.427	-3.71
228.898	-1.51
229.369	3.89
229.839	-3.71
230.31	-7.81
230.781	3.29
231.252	-6.81
231.722	-7.21
232.193	-2.21
232.664	-3.31
233.135	-1.61
233.605	-0.21
234.076	-6.61
234.546	-0.31
235.017	3.19
235.487	0.59
235.958	-2.11
236.428	-6.91
236.899	0.59
237.369	5.09
237.84	-5.01
238.31	3.39
238.78	-0.31
239.251	1.89
239.721	1.09
240.191	-1.41
240.662	-1.01
241.132	-0.81
241.602	-6.61
242.072	-0.91
242.542	-0.71
243.013	-0.91
243.483	1.89
243.953	2.39
244.423	-1.81
244.893	-2.51
245.363	2.29
245.833	4.89
246.303	-5.31
246.773	8.79
247.243	3.39
247.712	-2.61
248.182	6.49
248.652	5.09
249.122	-0.21
249.592	3.49
250.061	11.99
250.531	18.39
251.001	10.99
251.471	15.59
251.94	13.59
252.41	4.69
252.879	-5.81
253.349	5.09
253.818	3.39
254.288	-1.71
254.757	3.69
255.227	-1.51
255.696	0.79
256.166	7.49
256.635	7.19
257.105	4.49
257.574	6.09
258.043	3.99
258.513	7.09
258.982	11.59
259.451	3.29
259.92	9.49
260.389	6.09
260.859	13.69
261.328	4.29
261.797	14.19
262.266	-2.41
262.735	5.69
263.204	1.19
263.673	-1.61
264.142	2.59
264.611	-4.61
265.08	-3.61
265.549	1.09
266.018	3.79
266.487	-5.11
266.955	-3.21
267.424	-4.01
267.893	5.09
268.362	3.29
268.83	-1.21
269.299	6.49
269.768	6.19
270.236	4.99
270.705	-0.31
271.174	3.09
271.642	2.09
272.111	10.19
272.579	8.79
273.048	13.69
273.516	15.69
273.985	19.09
274.453	16.29
274.922	11.29
275.39	6.09
275.858	-1.41
276.327	11.29
276.795	11.19
277.263	1.89
277.731	19.89
278.2	46.79
278.668	45.99
279.136	37.19
279.604	17.99
280.072	8.29
280.54	9.69
281.008	9.79
281.477	11.69
281.945	7.09
282.413	11.89
282.881	10.69
283.348	4.29
283.816	12.79
284.284	6.89
284.752	21.09
285.22	8.29
285.688	9.69
286.156	14.69
286.623	32.89
287.091	38.59
287.559	21.09
288.026	13.79
288.494	5.99
288.962	0.89
289.429	-3.61
289.897	18.59
290.364	6.59
290.832	16.69
291.3	5.79
291.767	6.29
292.234	9.49
292.702	11.79
293.169	8.19
293.637	13.69
294.104	11.99
294.571	-0.61
295.039	9.09
295.506	8.09
295.973	10.69
296.44	11.39
296.908	12.59
297.375	10.99
297.842	13.39
298.309	15.09
298.776	11.09
299.243	14.19
299.71	5.99
300.177	16.09
300.644	10.99
301.111	7.29
301.578	20.29
302.045	14.99
302.512	17.39
302.979	14.19
303.446	20.09
303.913	18.69
304.379	17.69
304.846	27.69
305.313	16.59
305.78	11.49
306.246	20.19
306.713	21.39
307.18	16.99
307.646	19.19
308.113	24.19
308.579	22.69
309.046	17.79
309.512	13.49
309.979	12.19
310.445	16.39
310.912	21.99
311.378	21.89
311.845	22.29
312.311	25.29
312.777	27.19
313.244	24.89
313.71	32.69
314.176	21.09
314.642	24.39
315.109	25.29
315.575	30.99
316.041	34.19
316.507	20.89
316.973	31.99
317.439	23.79
317.905	31.19
318.371	29.69
318.837	26.39
319.303	31.49
319.769	29.19
320.235	27.19
320.701	22.59
321.167	31.29
321.633	27.69
322.099	24.39
322.564	38.39
323.03	28.99
323.496	29.79
323.962	31.29
324.427	26.19
324.893	28.79
325.359	31.49
325.824	30.89
326.29	21.39
326.755	32.59
327.221	32.89
327.686	28.49
328.152	25.89
328.617	28.49
329.083	39.99
329.548	43.39
330.014	34.49
330.479	28.29
330.944	35.89
331.41	31.29
331.875	37.39
332.34	31.49
332.805	35.39
333.271	32.89
333.736	32.09
334.201	40.89
334.666	45.59
335.131	47.29
335.596	41.19
336.061	38.29
336.526	28.89
336.991	36.99
337.456	47.29
337.921	44.69
338.386	37.89
338.851	33.69
339.316	35.49
339.781	36.79
340.246	41.59
340.711	35.79
341.175	40.99
341.64	33.29
342.105	44.79
342.569	40.99
343.034	43.89
343.499	41.59
343.963	39.19
344.428	50.49
344.893	47.69
345.357	51.59
345.822	48.59
346.286	53.49
346.751	56.29
347.215	55.09
347.679	55.69
348.144	77.79
348.608	58.99
349.073	56.49
349.537	62.79
350.001	62.69
350.465	70.99
350.93	66.59
351.394	66.09
351.858	53.49
352.322	66.39
352.786	65.39
353.25	81.59
353.715	91.29
354.179	79.19
354.643	99.39
355.107	99.49
355.571	92.59
356.035	87.19
356.498	99.89
356.962	96.09
357.426	100.69
357.89	90.79
358.354	72.29
358.818	67.59
359.281	64.09
359.745	68.49
360.209	65.39
360.673	59.29
361.136	63.69
361.6	64.89
362.064	70.89
362.527	68.19
362.991	78.09
363.454	64.89
363.918	67.99
364.381	66.89
364.845	68.49
365.308	70.59
365.772	65.19
366.235	72.59
366.698	67.59
367.162	76.49
367.625	71.29
368.088	69.59
368.552	74.49
369.015	72.39
369.478	79.59
369.941	84.69
370.404	77.19
370.867	88.59
371.331	92.99
371.794	85.89
372.257	88.09
372.72	99.89
373.183	95.59
373.646	90.69
374.109	88.89
374.572	93.49
375.035	92.09
375.497	99.69
375.96	87.89
376.423	89.69
376.886	92.59
377.349	88.49
377.811	85.19
378.274	95.49
378.737	95.39
379.199	99.59
379.662	98.59
380.125	108.09
380.587	100.29
381.05	100.19
381.512	112.89
381.975	116.59
382.437	108.19
382.9	103.29
383.362	107.19
383.825	123.09
384.287	124.89
384.75	123.09
385.212	121.49
385.674	122.49
386.136	119.19
386.599	109.29
387.061	113.89
387.523	114.79
387.985	123.59
388.447	126.19
388.91	133.89
389.372	144.59
389.834	133.49
390.296	125.49
390.758	137.59
391.22	149.69
391.682	191.19
392.144	264.89
392.606	206.19
393.068	152.29
393.529	149.89
393.991	136.99
394.453	131.69
394.915	137.19
395.377	175.39
395.838	192.89
396.3	139.19
396.762	127.09
397.224	116.29
397.685	118.79
398.147	110.79
398.608	115.79
399.07	111.39
399.531	121.49
399.993	118.19
400.454	135.09
400.916	126.19
401.377	127.39
401.839	134.29
402.3	132.29
402.762	137.89
403.223	158.39
403.684	159.89
404.145	145.49
404.607	146.99
405.068	145.39
405.529	153.19
405.99	166.49
406.451	156.59
406.913	157.59
407.374	140.99
407.835	143.59
408.296	152.39
408.757	152.59
409.218	166.69
409.679	162.59
410.14	153.89
410.601	167.59
411.062	162.39
411.522	170.89
411.983	171.39
412.444	161.09
412.905	161.29
413.366	162.79
413.826	169.69
414.287	197.69
414.748	228.49
415.208	220.59
415.669	194.59
416.13	186.59
416.59	175.49
417.051	199.79
417.511	204.39
417.972	223.29
418.432	225.09
418.893	258.79
419.353	227.29
419.814	182.99
420.274	165.99
420.734	161.49
421.195	182.49
421.655	177.39
422.115	179.79
422.576	174.69
423.036	185.19
423.496	187.19
423.956	201.69
424.416	208.89
424.876	239.99
425.336	241.49
425.797	236.29
426.257	229.59
426.717	218.29
427.177	218.49
427.637	200.79
428.097	215.79
428.556	222.79
429.016	251.19
429.476	244.89
429.936	255.79
430.396	258.09
430.856	268.09
431.315	288.49
431.775	320.39
432.235	351.69
432.694	326.39
433.154	329.19
433.614	361.69
434.073	307.39
434.533	262.99
434.993	247.49
435.452	255.89
435.912	275.29
436.371	269.39
436.83	264.19
437.29	248.99
437.749	233.39
438.209	220.59
438.668	255.79
439.127	259.49
439.587	243.99
440.046	230.09
440.505	238.99
440.964	249.19
441.424	294.69
441.883	277.19
442.342	238.49
442.801	208.79
443.26	207.59
443.719	207.99
444.178	202.39
444.637	193.29
445.096	201.09
445.555	203.19
446.014	205.49
446.473	215.39
446.932	217.09
447.391	206.09
447.849	206.29
448.308	202.89
448.767	211.19
449.226	218.89
449.685	226.39
450.143	230.89
450.602	218.69
451.061	208.59
451.519	215.89
451.978	217.49
452.436	215.79
452.895	224.09
453.353	232.69
453.812	226.09
454.27	224.59
454.729	222.19
455.187	228.19
455.646	226.69
456.104	225.89
456.562	237.89
457.021	252.19
457.479	241.99
457.937	253.99
458.395	247.99
458.854	228.49
459.312	240.69
459.77	253.49
460.228	237.89
460.686	222.39
461.144	230.39
461.602	226.79
462.06	229.69
462.518	237.69
462.976	234.89
463.434	238.09
463.892	246.69
464.35	255.09
464.808	259.89
465.266	251.29
465.724	248.09
466.181	260.09
466.639	261.39
467.097	273.19
467.555	284.69
468.012	280.89
468.47	283.49
468.928	294.49
469.385	321.09
469.843	320.09
470.3	330.79
470.758	342.99
471.215	359.69
471.673	380.69
472.13	379.99
472.588	399.39
473.045	350.29
473.503	354.39
473.96	373.29
474.417	384.89
474.875	396.89
475.332	439.79
475.789	433.49
476.246	444.29
476.704	458.09
477.161	485.59
477.618	493.49
478.075	525.89
478.532	583.09
478.989	654.49
479.446	761.79
479.903	730.19
480.36	761.49
480.817	813.29
481.274	906.29
481.731	1009.09
482.188	1090.09
482.645	1230.69
483.102	1321.49
483.558	1450.19
484.015	1497.69
484.472	1485.09
484.929	1428.39
485.385	1387.79
485.842	1337.79
486.299	1262.89
486.755	1219.59
487.212	1030.29
487.668	876.69
488.125	796.19
488.582	731.09
489.038	709.59
489.494	672.39
489.951	655.69
490.407	632.09
490.864	627.39
491.32	602.09
491.776	594.39
492.233	607.49
492.689	577.69
493.145	567.09
493.602	564.69
494.058	579.69
494.514	579.99
494.97	596.69
495.426	612.69
495.882	586.89
496.338	568.89
496.794	585.29
497.251	588.39
497.707	596.59
498.163	599.69
498.618	604.69
499.074	611.59
499.53	634.29
499.986	640.99
500.442	613.89
500.898	603.89
501.354	584.39
501.809	600.99
502.265	608.29
502.721	625.89
503.177	642.09
503.632	628.99
504.088	650.89
504.543	675.19
504.999	665.79
505.455	619.99
505.91	597.39
506.366	613.39
506.821	583.49
507.277	599.79
507.732	595.99
508.187	586.79
508.643	593.19
509.098	606.09
509.553	621.59
510.009	630.09
510.464	645.49
510.919	657.99
511.375	663.29
511.83	677.39
512.285	690.49
512.74	722.99
513.195	746.39
513.65	725.99
514.105	726.89
514.56	729.89
515.015	744.39
515.47	763.39
515.925	746.69
516.38	755.79
516.835	756.49
517.29	744.09
517.745	736.89
518.2	716.49
518.655	708.59
519.109	703.69
519.564	705.79
520.019	693.49
520.474	690.19
520.928	693.89
521.383	684.59
521.838	688.19
522.292	681.09
522.747	676.29
523.201	676.89
523.656	670.89
524.11	663.29
524.565	665.69
525.019	654.19
525.474	670.69
525.928	667.09
526.382	652.49
526.837	668.49
527.291	660.09
527.745	664.39
528.2	678.99
528.654	664.49
529.108	665.29
529.562	662.19
530.016	657.59
530.47	665.89
530.925	666.69
531.379	667.09
531.833	661.09
532.287	665.19
532.741	662.89
533.195	673.69
533.649	674.79
534.103	681.49
534.556	676.79
535.01	679.39
535.464	665.59
535.918	684.69
536.372	678.19
536.826	691.09
537.279	670.79
537.733	678.99
538.187	691.09
538.64	684.89
539.094	694.79
539.548	696.69
540.001	701.49
540.455	693.69
540.908	697.59
541.362	702.89
541.815	713.29
542.269	722.69
542.722	732.59
543.175	739.09
543.629	732.69
544.082	747.59
544.536	755.49
544.989	753.89
545.442	759.79
545.895	742.39
546.349	760.79
546.802	760.39
547.255	773.79
547.708	773.99
548.161	780.89
548.614	791.49
549.067	794.69
549.52	787.09
549.973	782.59
550.426	769.29
550.879	765.59
551.332	766.69
551.785	770.29
552.238	777.19
552.691	781.79
553.144	801.69
553.596	809.39
554.049	834.29
554.502	849.29
554.955	873.09
555.407	868.09
555.86	859.89
556.313	857.49
556.765	848.19
557.218	853.89
557.67	848.39
558.123	836.09
558.576	835.19
559.028	835.59
559.48	856.39
559.933	841.49
560.385	806.59
560.838	778.59
561.29	759.39
561.742	738.79
562.195	739.19
562.647	730.49
563.099	748.99
563.551	751.59
564.004	748.19
564.456	738.19
564.908	732.99
565.36	717.49
565.812	703.29
566.264	705.19
566.716	698.09
567.168	691.49
567.62	691.79
568.072	684.79
568.524	670.19
568.976	668.89
569.428	655.29
569.88	654.49
570.332	660.39
570.784	664.19
571.235	659.19
571.687	665.29
572.139	680.69
572.59	684.79
573.042	683.39
573.494	684.49
573.945	684.89
574.397	661.69
574.849	664.19
575.3	659.99
575.752	653.49
576.203	652.29
576.655	662.69
577.106	650.79
577.557	652.39
578.009	640.09
578.46	642.19
578.912	638.39
579.363	641.89
579.814	642.69
580.265	639.09
580.717	643.39
581.168	640.79
581.619	651.49
582.07	662.29
582.521	658.29
582.972	643.99
583.423	659.69
583.875	659.89
584.326	687.49
584.777	720.99
585.227	802.19
585.678	882.39
586.129	966.19
586.58	1044.99
587.031	1114.89
587.482	1264.69
587.933	1423.49
588.384	1240.99
588.834	921.19
589.285	770.19
589.736	755.39
590.186	747.29
590.637	751.69
591.088	712.29
591.538	720.49
591.989	707.49
592.439	708.19
592.89	703.59
593.34	693.59
593.791	689.49
594.241	674.29
594.692	690.29
595.142	674.59
595.593	682.49
596.043	683.59
596.493	691.19
596.943	705.09
597.394	693.29
597.844	694.19
598.294	709.39
598.744	730.59
599.195	750.09
599.645	785.99
600.095	834.89
600.545	885.89
600.995	930.69
601.445	998.29
601.895	1051.99
602.345	1093.79
602.795	1082.69
603.245	1031.69
603.695	973.29
604.145	922.19
604.594	872.19
605.044	822.49
605.494	758.19
605.944	721.79
606.393	725.89
606.843	704.49
607.293	707.19
607.743	708.39
608.192	724.59
608.642	742.59
609.091	744.19
609.541	745.49
609.99	745.39
610.44	750.19
610.889	695.09
611.339	674.79
611.788	662.39
612.238	687.99
612.687	701.09
613.136	698.09
613.586	709.69
614.035	717.99
614.484	732.99
614.933	728.99
615.383	721.29
615.832	721.19
616.281	701.09
616.73	659.39
617.179	647.49
617.628	628.49
618.077	618.49
618.526	609.99
618.975	602.09
619.424	602.19
619.873	597.79
620.322	596.79
620.771	588.39
621.22	587.29
621.669	580.99
622.118	570.59
622.567	562.29
623.015	538.59
623.464	542.79
623.913	541.89
624.361	538.19
624.81	538.79
625.259	540.09
625.707	537.09
626.156	536.49
626.604	553.89
627.053	551.39
627.501	545.99
627.95	543.89
628.398	567.19
628.847	560.99
629.295	546.59
629.744	551.59
630.192	551.19
630.64	548.99
631.089	556.39
631.537	551.99
631.985	564.99
632.433	582.19
632.881	592.79
633.33	640.99
633.778	621.49
634.226	546.49
634.674	547.19
635.122	559.59
635.57	573.09
636.018	613.79
636.466	555.69
636.914	548.39
637.362	558.29
637.81	558.19
638.258	571.49
638.705	558.69
639.153	581.79
639.601	604.79
640.049	619.99
640.497	649.69
640.944	670.89
641.392	615.09
641.84	592.19
642.287	566.49
642.735	553.19
643.182	559.29
643.63	558.39
644.078	562.09
644.525	575.49
644.973	578.09
645.42	579.09
645.867	601.39
646.315	614.49
646.762	642.39
647.21	667.79
647.657	694.79
648.104	728.29
648.551	760.09
648.999	818.09
649.446	885.99
649.893	984.19
650.34	1132.89
650.787	1362.69
651.234	1690.99
651.682	2199.99
652.129	3035.49
652.576	4368.49
653.023	6444.79
653.47	8780.79
653.917	10932.49
654.363	12592.79
654.81	13877.39
655.257	13195.89
655.704	8629.89
656.151	5075.39
656.598	3299.39
657.044	2353.89
657.491	1788.29
657.938	1433.99
658.385	1202.79
658.831	1041.19
659.278	941.49
659.724	829.79
660.171	765.39
660.618	706.49
661.064	662.99
661.511	648.19
661.957	637.09
662.404	615.09
662.85	628.09
663.296	608.79
663.743	555.49
664.189	526.49
664.635	515.69
665.082	512.29
665.528	510.09
665.974	505.19
666.42	499.69
666.867	491.39
667.313	483.29
667.759	469.59
668.205	467.19
668.651	467.49
669.097	477.99
669.543	482.69
669.989	456.39
670.435	440.39
670.881	432.09
671.327	439.59
671.773	450.49
672.219	477.09
672.665	530.29
673.11	575.69
673.556	602.89
674.002	647.99
674.448	627.89
674.893	529.29
675.339	459.69
675.785	424.09
676.23	407.09
676.676	388.49
677.122	369.99
677.567	352.99
678.013	361.09
678.458	337.09
678.904	353.59
679.349	332.69
679.794	346.69
680.24	336.69
680.685	339.79
681.131	337.09
681.576	335.79
682.021	349.09
682.466	334.99
682.912	340.19
683.357	341.09
683.802	369.59
684.247	394.89
684.692	447.39
685.137	478.99
685.583	527.09
686.028	551.19
686.473	498.49
686.918	432.99
687.363	401.49
687.807	379.69
688.252	354.39
688.697	334.19
689.142	328.29
689.587	317.59
690.032	319.09
690.477	335.19
690.921	348.59
691.366	377.09
691.811	387.29
692.255	417.59
692.7	449.09
693.145	485.39
693.589	680.59
694.034	1111.19
694.478	1503.59
694.923	1678.29
695.367	2177.69
695.812	1160.89
696.256	481.19
696.701	361.49
697.145	337.89
697.59	327.99
698.034	316.49
698.478	319.49
698.922	320.49
699.367	316.79
699.811	329.69
700.255	346.89
700.699	376.99
701.143	414.49
701.588	465.09
702.032	499.59
702.476	504.39
702.92	476.99
703.364	480.59
703.808	622.29
704.252	1018.19
704.696	1419.59
705.14	1610.59
705.584	2054.09
706.027	1031.49
706.471	511.49
706.915	396.49
707.359	342.99
707.803	310.09
708.246	309.19
708.69	303.19
709.134	307.39
709.577	300.99
710.021	303.69
710.465	295.99
710.908	295.19
711.352	286.89
711.795	305.79
712.239	341.09
712.682	385.19
713.126	411.99
713.569	448.89
714.012	368.09
714.456	312.69
714.899	291.49
715.342	258.69
715.786	252.09
716.229	252.69
716.672	250.29
717.115	243.09
717.558	245.69
718.002	243.39
718.445	257.79
718.888	281.29
719.331	285.39
719.774	305.79
720.217	293.89
720.66	275.19
721.103	261.29
721.546	248.29
721.989	240.89
722.432	226.39
722.874	233.09
723.317	228.29
723.76	235.49
724.203	249.09
724.645	305.79
725.088	436.29
725.531	548.49
725.974	632.59
726.416	531.49
726.859	294.39
727.301	241.29
727.744	228.49
728.187	224.69
728.629	229.59
729.071	239.19
729.514	244.09
729.956	263.19
730.399	267.09
730.841	280.79
731.283	262.79
731.726	259.19
732.168	253.09
732.61	258.19
733.053	279.39
733.495	310.59
733.937	342.49
734.379	382.29
734.821	419.49
735.263	532.39
735.705	823.49
736.148	1556.59
736.59	2520.19
737.032	2920.89
737.474	2384.99
737.916	784.39
738.357	416.19
738.799	316.69
739.241	288.19
739.683	277.29
740.125	283.09
740.567	294.09
741.008	302.59
741.45	304.99
741.892	305.39
742.334	330.99
742.775	341.49
743.217	322.39
743.658	261.99
744.1	257.69
744.542	250.99
744.983	299.89
745.425	328.09
745.866	330.19
746.307	275.89
746.749	276.39
747.19	309.09
747.632	455.49
748.073	874.69
748.514	1837.99
748.956	2763.29
749.397	3470.79
749.838	2875.09
750.279	2865.99
750.72	1440.89
751.162	530.29
751.603	312.09
752.044	239.69
752.485	213.49
752.926	202.49
753.367	197.09
753.808	189.29
754.249	185.29
754.69	176.39
755.131	184.89
755.572	183.29
756.013	179.29
756.453	186.29
756.894	182.39
757.335	181.39
757.776	194.29
758.216	194.79
758.657	194.89
759.098	193.09
759.538	220.29
759.979	265.79
760.42	366.29
760.86	708.29
761.301	1801.39
761.741	4343.19
762.182	6181.19
762.622	4327.89
763.063	1260.89
763.503	529.59
763.943	335.99
764.384	325.79
764.824	380.99
765.264	421.79
765.705	290.79
766.145	193.59
766.585	177.19
767.025	167.89
767.465	185.39
767.906	234.09
768.346	309.19
768.786	321.79
769.226	249.09
769.666	312.99
770.106	607.79
770.546	1546.09
770.986	2548.09
771.426	2270.39
771.866	758.69
772.306	322.59
772.745	203.39
773.185	171.39
773.625	165.39
774.065	171.79
774.505	193.79
774.944	298.39
775.384	664.19
775.824	1160.29
776.263	1133.49
776.703	485.59
777.142	214.19
777.582	154.49
778.021	137.29
778.461	137.49
778.9	131.19
779.34	129.69
779.779	114.09
780.219	109.09
780.658	106.19
781.097	106.79
781.537	114.09
781.976	110.49
782.415	106.39
782.855	102.29
783.294	104.99
783.733	102.49
784.172	107.09
784.611	103.39
785.05	109.39
785.489	107.69
785.928	108.59
786.367	114.29
786.806	115.99
787.245	131.59
787.684	135.49
788.123	141.59
788.562	127.49
789.001	124.89
789.44	128.19
789.879	112.09
790.317	116.99
790.756	126.19
791.195	126.09
791.634	138.59
792.072	199.99
792.511	348.69
792.95	1003.29
793.388	2082.79
793.827	1849.29
794.265	658.49
794.704	277.19
795.142	177.49
795.581	147.99
796.019	128.99
796.458	127.89
796.896	118.59
797.334	120.59
797.773	153.09
798.211	216.09
798.649	437.69
799.087	1004.09
799.526	1561.59
799.964	1967.19
800.402	1941.79
800.84	729.69
801.278	288.89
801.716	178.19
802.154	145.79
802.592	145.29
803.03	135.49
803.468	129.99
803.906	139.69
804.344	143.39
804.782	136.39
805.22	126.89
805.658	126.49
806.096	144.69
806.533	149.49
806.971	172.19
807.409	205.79
807.847	312.19
808.284	658.19
808.722	1844.79
809.16	3213.39
809.597	3078.39
810.035	5297.79
810.472	5520.59
810.91	2021.79
811.347	774.39
811.785	397.09
812.222	251.89
812.66	191.39
813.097	156.99
813.535	139.39
813.972	122.59
814.409	114.29
814.846	105.39
815.284	104.99
815.721	98.69
816.158	98.79
816.595	117.39
817.032	175.79
817.47	195.99
817.907	148.49
818.344	137.19
818.781	110.79
819.218	91.29
819.655	123.29
820.092	177.89
820.529	211.69
820.966	164.29
821.403	129.69
821.839	101.89
822.276	98.99
822.713	117.69
823.15	131.99
823.587	112.69
824.023	140.99
824.46	297.99
824.897	873.49
825.333	1298.89
825.77	552.89
826.206	221.69
826.643	127.49
827.08	96.69
827.516	79.99
827.953	79.29
828.389	79.29
828.825	65.19
829.262	67.89
829.698	60.69
830.135	57.89
830.571	60.99
831.007	61.69
831.443	62.79
831.88	54.89
832.316	57.29
832.752	62.59
833.188	56.99
833.624	57.39
834.06	62.19
834.497	68.59
834.933	66.59
835.369	70.59
835.805	62.49
836.241	77.99
836.677	79.19
837.112	87.89
837.548	101.39
837.984	130.79
838.42	191.49
838.856	491.79
839.292	1501.89
839.727	2213.29
840.163	1037.89
840.599	910.39
841.034	1997.19
841.47	2039.39
841.906	751.39
842.341	327.19
842.777	224.39
843.212	315.39
843.648	295.19
844.083	149.79
844.519	102.19
844.954	77.39
845.39	58.89
845.825	57.79
846.261	61.39
846.696	55.69
847.131	50.89
847.566	52.59
848.002	49.59
848.437	52.09
848.872	57.99
849.307	56.69
849.742	82.29
850.177	178.69
850.613	547.69
851.048	854.39
851.483	374.49
851.918	146.59
852.353	86.19
852.788	60.99
853.223	62.89
853.657	55.89
854.092	44.19
854.527	41.49
854.962	40.99
855.397	38.39
855.832	49.59
856.266	41.89
856.701	45.29
857.136	36.99
857.57	39.49
858.005	50.99
858.44	54.69
858.874	40.59
859.309	48.09
859.743	42.09
860.178	43.79
860.612	48.89
861.047	45.79
861.481	71.19
861.915	66.99
862.35	46.39
862.784	33.49
863.218	39.39
863.653	28.69
864.087	43.99
864.521	47.99
864.955	66.59
865.39	149.49
865.824	166.29
866.258	119.19
866.692	161.89
867.126	168.49
867.56	97.69
867.994	48.89
868.428	36.09
868.862	48.49
869.296	59.69
869.73	55.69
870.164	51.09
870.598	50.09
871.031	33.19
871.465	30.09
871.899	26.99
872.333	24.19
872.766	22.49
873.2	24.59
873.634	26.09
874.067	25.89
874.501	25.29
874.935	33.29
875.368	27.29
875.802	20.09
876.235	28.29
876.669	19.89
877.102	21.19
877.535	26.59
877.969	21.29
878.402	23.59
878.836	20.39
879.269	29.29
879.702	26.99
880.135	19.89
880.569	17.79
881.002	31.49
881.435	14.09
881.868	16.29
882.301	21.09
882.734	15.79
883.167	18.29
883.601	21.39
884.034	13.49
884.467	9.69
884.899	15.89
885.332	16.39
885.765	14.69
886.198	19.89
886.631	18.19
887.064	21.79
887.497	12.39
887.929	25.79
888.362	17.99
888.795	9.69
889.228	20.19
889.66	20.29
890.093	15.99
890.526	15.99
890.958	9.49
891.391	10.59
891.823	20.39
892.256	11.29
892.688	10.39
893.121	16.69
893.553	19.59
893.985	26.19
894.418	16.39
894.85	14.59
895.282	14.69
895.715	18.19
896.147	17.19
896.579	18.79
897.011	18.09
897.444	19.79
897.876	11.69
898.308	19.39
898.74	8.89
899.172	9.99
899.604	24.99
900.036	23.69
900.468	9.89
900.9	12.59
901.332	17.99
901.764	9.59
902.196	14.49
902.628	15.39
903.06	22.49
903.491	27.49
903.923	26.09
904.355	16.69
904.787	21.59
905.218	23.59
905.65	23.49
906.082	14.79
906.513	12.69
906.945	15.39
907.376	13.79
907.808	11.89
908.239	25.99
908.671	15.59
909.102	18.69
909.534	22.09
909.965	44.89
910.397	88.79
910.828	317.69
911.259	459.19
911.691	204.59
912.122	101.39
912.553	46.49
912.984	34.79
913.415	23.09
913.847	23.29
914.278	14.79
914.709	10.69
915.14	15.59
915.571	17.59
916.002	14.49
916.433	23.79
916.864	18.09
917.295	11.09
917.726	19.19
918.157	15.39
918.587	23.49
919.018	18.89
919.449	18.69
919.88	23.79
920.311	32.39
920.741	46.19
921.172	165.19
921.603	149.99
922.033	62.49
922.464	42.69
922.895	16.69
923.325	19.49
923.756	16.59
924.186	14.19
924.617	28.99
925.047	40.19
925.478	56.29
925.908	42.99
926.338	21.39
926.769	21.69
927.199	18.99
927.629	6.29
928.06	5.69
928.49	15.79
928.92	15.29
929.35	9.49
929.78	5.59
930.21	3.89
930.641	9.29
931.071	6.89
931.501	1.69
931.931	5.39
932.361	8.99
932.791	-4.71
933.221	8.19
933.651	7.89
934.08	16.69
934.51	31.79
934.94	9.09
935.37	8.09
935.8	8.19
936.229	3.99
936.659	8.19
937.089	6.29
937.519	17.99
937.948	24.59
938.378	10.89
938.807	4.19
939.237	-0.21
939.666	7.49
940.096	-4.91
940.525	1.09
940.955	2.59
941.384	3.09
941.814	-6.51
942.243	-2.71
942.672	2.39
943.102	-3.41
943.531	-1.31
943.96	6.99
944.39	4.89
944.819	-0.81
945.248	2.29
945.677	6.29
946.106	2.59
946.535	12.09
946.964	-2.71
947.393	-3.41
947.822	-2.11
948.251	-5.11
948.68	-0.41
949.109	-2.61
949.538	0.39
949.967	0.59
950.396	-1.21
950.825	-1.31
951.254	5.29
951.682	-1.51
952.111	1.79
952.54	8.99
952.969	-4.71
953.397	-6.51
953.826	-3.61
954.254	-10.01
954.683	-3.11
955.112	-2.61
955.54	-4.91
955.969	0.59
956.397	6.09
956.826	-6.01
957.254	1.29
957.682	-1.41
958.111	3.39
958.539	1.99
958.967	1.89
959.396	-0.91
959.824	1.19
960.252	6.49
960.68	-4.21
961.109	-2.61
961.537	-5.11
961.965	-3.81
962.393	-1.71
962.821	-4.51
963.249	-1.31
963.677	-1.01
964.105	9.79
964.533	42.89
964.961	40.79
965.389	16.39
965.817	8.59
966.245	1.59
966.672	5.29
967.1	-2.61
967.528	-2.91
967.956	-7.71
968.383	-6.91
968.811	-1.81
969.239	0.29
969.666	-5.01
970.094	-2.61
970.522	-5.71
970.949	-5.01
971.377	-2.81
971.804	-5.51
972.232	-2.71
972.659	2.59
973.087	-2.51
973.514	-1.01
973.941	-5.01
974.369	4.49
974.796	-0.21
975.223	-2.01
975.651	0.39
976.078	-5.31
976.505	-2.01
976.932	1.89
977.359	15.19
977.786	7.79
978.214	-1.71
978.641	-3.11
979.068	-3.31
979.495	-3.41
979.922	-0.21
980.349	-2.01
980.776	4.59
981.202	-1.11
981.629	5.69
982.056	1.09
982.483	0.39
982.91	-0.51
983.337	-3.41
983.763	-6.41
984.19	-2.81
984.617	-0.31
985.043	-2.91
985.47	-3.11
985.897	-6.91
986.323	-6.21
986.75	0.99
987.176	0.29
987.603	-8.81
988.029	1.29
988.456	-6.01
988.882	5.49
989.308	-2.21
989.735	-5.51
990.161	-7.21
990.587	-13.71
991.014	3.79
991.44	9.99
991.866	-5.01
992.292	-8.51
992.719	-3.61
993.145	0.79
993.571	-7.71
993.997	-3.81
994.423	-6.41
994.849	-1.71
995.275	1.99
995.701	-2.11
996.127	-10.51
996.553	4.89
996.979	1.19
997.405	-3.71
997.83	-7.31
998.256	-7.31
998.682	-12.11
999.108	-10.91
999.534	3.99
999.959	-3.71
1000.385	-2.21
1000.811	0.89
1001.236	-6.01
1001.662	-9.31
1002.087	-13.51
1002.513	1.19
1002.938	-1.11
1003.364	-0.31
1003.789	-1.91
1004.215	4.29
1004.64	-5.91
1005.066	0.29
1005.491	5.69
1005.916	-4.11
1006.342	-7.91
1006.767	-8.11
1007.192	3.69
1007.617	-7.71
1008.042	-4.61
1008.468	-11.31
1008.893	-7.61
1009.318	-4.41
1009.743	-4.01
1010.168	1.39
1010.593	2.49
1011.018	-2.81
1011.443	-7.01
1011.868	4.09
1012.293	-5.31
1012.718	-2.41
1013.143	-0.31
1013.567	7.29
1013.992	0.79
1014.417	-13.11
1014.842	2.09
1015.267	-5.31
1015.691	-5.71
1016.116	0.79
1016.541	-1.91
1016.965	6.19
1017.39	0.79
1017.814	-0.51
1018.239	-2.91
1018.663	-3.51
1019.088	-13.81
1019.512	-5.31
1019.937	-7.01
1020.361	-6.91
1020.785	-9.11
1021.21	-1.81
1021.634	-7.71
1022.058	-0.81
1022.483	6.39
1022.907	-2.81
1023.331	-0.11
1023.755	-9.51
1024.179	-2.31
1024.604	-8.61
1025.028	-5.51
1025.452	-0.51
1025.876	-6.31
1026.3	-0.41
1026.724	-13.21
1027.148	-2.31
1027.572	-12.71
1027.996	-4.41
1028.42	-7.91
1028.843	-2.71
1029.267	-5.71
1029.691	-0.51
1030.115	-7.41
1030.539	-9.41
1030.962	-6.21
1031.386	-13.11
1031.81	0.19
1032.233	-3.71
1032.657	-3.71
1033.08	0.09
1033.504	-6.41
1033.927	-1.21
1034.351	-10.71
1034.774	-5.31
1035.198	-2.21
1035.621	-2.71
1036.045	-6.51
1036.468	2.59
1036.891	-14.71
1037.315	-9.31
1037.738	-11.81
1038.161	-4.81
1038.584	-5.41
1039.008	-9.71
1039.431	-3.61
1039.854	-10.01
1040.277	-5.01
1040.7	-16.01
1041.123	-5.41
1041.546	-7.11
1041.969	-5.71
1042.392	-9.01
1042.815	-5.01
1043.238	8.19
1043.661	1.49
1044.084	1.79
1044.507	-5.21
1044.93	-3.71
1045.352	-5.21
1045.775	-3.51
1046.198	0.99
1046.621	-11.71
1047.043	-2.51
1047.466	1.19
1047.889	-1.81
1048.311	-6.41
1048.734	-2.31
1049.156	0.09
1049.579	-2.71
1050.001	2.29
1050.424	-1.11
1050.846	-5.01
1051.269	-3.61
1051.691	-10.01
1052.113	-8.31
1052.536	-4.51
1052.958	1.29
1053.38	-3.91
1053.802	-15.31
1054.225	-10.11
1054.647	-9.01
1055.069	-9.61
1055.491	2.49
1055.913	-7.31
1056.335	-1.81
1056.757	-4.81
1057.179	-3.61
1057.601	-4.81
1058.023	-0.11
1058.445	-2.01
1058.867	-8.81
1059.289	-4.51
1059.711	-11.51
1060.133	-6.61
1060.555	-3.61
1060.976	-7.41
1061.398	-3.51
1061.82	-7.31
1062.241	-5.31
1062.663	-9.51
1063.085	-11.11
1063.506	-4.61
1063.928	-4.21
1064.35	-1.91
1064.771	-13.81
1065.193	-3.41
1065.614	-13.31
1066.035	-6.51
1066.457	-4.31
1066.878	4.89
1067.3	-5.01
1067.721	-5.81
1068.142	-7.51
1068.564	-0.71
1068.985	-4.51
1069.406	-11.51
1069.827	-3.51
1070.248	-3.31
1070.67	-8.41
1071.091	-7.21
1071.512	-2.81
1071.933	-7.81
1072.354	-11.21
1072.775	-9.31
1073.196	-11.61
1073.617	-1.31
1074.038	-12.31
1074.459	-1.51
1074.88	-8.71
1075.3	-2.11
1075.721	-11.41
1076.142	-4.11
1076.563	2.09
1076.983	-11.91
1077.404	-11.11
1077.825	-16.91
1078.246	-1.61
1078.666	-14.91
1079.087	-5.21
1079.507	-8.61
1079.928	-6.11
1080.348	-5.71
1080.769	-7.41
1081.189	-1.51
1081.61	-4.51
1082.03	-2.61
1082.451	-10.71
1082.871	-5.51
1083.291	-4.01
1083.711	-7.71
1084.132	-5.41
1084.552	1.49
1084.972	1.79
1085.392	-9.21
1085.813	-12.01
1086.233	-8.21
1086.653	-3.01
1087.073	-3.81
1087.493	-3.11
1087.913	-7.51
1088.333	-10.81
1088.753	0.39
1089.173	2.19
1089.593	-2.91
1090.013	-3.81
1090.433	-2.21
1090.852	-6.01
1091.272	-4.81
1091.692	-5.01
1092.112	-1.41
1092.531	-7.31
1092.951	-16.41
1093.371	-1.11
1093.79	-2.01
1094.21	-3.91
1094.63	-8.31
1095.049	-9.01
1095.469	-8.81
1095.888	-5.11
1096.308	-4.61
1096.727	0.99
1097.146	-5.21
1097.566	-3.71
1097.985	-7.81
1098.405	-2.21
1098.824	-1.61
1099.243	-4.21
1099.662	-10.31
1100.082	0.19
1100.501	-2.51
1100.92	-10.51
1101.339	-5.41
1101.758	-8.71
