Data from 20171114-ORNL-Ar_H_NY_Subt18_08-07-56-002.txt Node
Date: Tue Nov 14 08:07:56 EST 2017
User: Ender
Spectrometer: HR+D1039
Trigger mode: 0
Integration Time (sec): 2.730000E-2
Scans to average: 10
Electric dark correction enabled: true
Nonlinearity correction enabled: false
Boxcar width: 0
XAxis mode: Wavelengths
Number of Pixels in Spectrum: 2048
>>>>>Begin Spectral Data<<<<<
187.836	-6.21
188.309	-6.21
188.782	-6.21
189.255	-2.31
189.728	-3.51
190.201	1.49
190.674	3.19
191.147	5.39
191.619	-5.61
192.092	6.09
192.565	4.89
193.038	-3.31
193.511	3.59
193.984	-0.51
194.456	0.49
194.929	0.49
195.402	-3.61
195.874	-0.61
196.347	1.59
196.82	-7.21
197.292	6.89
197.765	-4.11
198.237	-1.51
198.71	4.39
199.182	-1.71
199.655	5.09
200.127	7.59
200.6	-3.21
201.072	-0.11
201.544	-1.41
202.017	-0.51
202.489	5.39
202.961	0.89
203.433	-3.41
203.906	-6.11
204.378	-2.51
204.85	-1.51
205.322	-13.21
205.794	-1.51
206.266	-4.01
206.739	-6.01
207.211	8.49
207.683	-1.41
208.155	-4.41
208.627	-5.71
209.099	-2.81
209.57	-4.11
210.042	2.69
210.514	-1.51
210.986	-2.21
211.458	-12.81
211.93	-4.51
212.402	0.09
212.873	-6.61
213.345	-9.31
213.817	-8.81
214.288	-3.41
214.76	-7.11
215.232	-0.81
215.703	-3.01
216.175	-6.01
216.646	-5.51
217.118	-7.71
217.589	-2.61
218.061	-6.21
218.532	-4.21
219.004	-1.41
219.475	0.69
219.946	-0.31
220.418	-3.31
220.889	0.89
221.36	0.99
221.832	-0.41
222.303	-8.51
222.774	-1.11
223.245	-12.21
223.717	-6.41
224.188	-7.51
224.659	-8.11
225.13	-7.51
225.601	-1.11
226.072	4.39
226.543	-3.01
227.014	-0.61
227.485	-1.51
227.956	-6.11
228.427	-8.91
228.898	-0.01
229.369	2.69
229.839	-0.41
230.31	-8.11
230.781	7.19
231.252	0.49
231.722	3.89
232.193	1.09
232.664	0.49
233.135	7.99
233.605	-5.91
234.076	-4.51
234.546	0.89
235.017	2.89
235.487	3.39
235.958	-2.51
236.428	2.69
236.899	8.29
237.369	5.19
237.84	-2.11
238.31	2.29
238.78	1.99
239.251	1.69
239.721	-2.61
240.191	3.29
240.662	2.69
241.132	-1.61
241.602	-5.71
242.072	2.69
242.542	5.09
243.013	4.59
243.483	0.39
243.953	2.19
244.423	0.49
244.893	-3.61
245.363	0.09
245.833	3.29
246.303	-1.91
246.773	8.79
247.243	2.19
247.712	-1.31
248.182	6.99
248.652	5.29
249.122	-2.71
249.592	15.89
250.061	21.09
250.531	33.89
251.001	14.89
251.471	27.59
251.94	18.59
252.41	3.59
252.879	2.39
253.349	12.79
253.818	7.19
254.288	4.89
254.757	-4.01
255.227	-7.11
255.696	1.79
256.166	4.99
256.635	8.49
257.105	9.59
257.574	1.09
258.043	11.49
258.513	13.89
258.982	8.19
259.451	6.89
259.92	13.99
260.389	11.69
260.859	13.39
261.328	8.19
261.797	16.09
262.266	9.79
262.735	8.89
263.204	7.29
263.673	7.19
264.142	3.99
264.611	3.59
265.08	5.29
265.549	-1.61
266.018	2.89
266.487	-0.61
266.955	-2.01
267.424	1.69
267.893	6.49
268.362	2.79
268.83	5.39
269.299	12.89
269.768	6.49
270.236	3.79
270.705	-0.41
271.174	5.39
271.642	8.59
272.111	11.19
272.579	15.69
273.048	21.69
273.516	23.29
273.985	24.09
274.453	20.19
274.922	16.09
275.39	6.99
275.858	5.69
276.327	14.29
276.795	10.99
277.263	13.39
277.731	28.29
278.2	54.09
278.668	49.19
279.136	39.39
279.604	16.39
280.072	12.69
280.54	13.19
281.008	8.39
281.477	15.89
281.945	16.99
282.413	14.49
282.881	11.29
283.348	2.59
283.816	13.49
284.284	15.19
284.752	19.99
285.22	9.49
285.688	16.09
286.156	19.99
286.623	46.69
287.091	48.99
287.559	25.79
288.026	17.09
288.494	18.79
288.962	6.59
289.429	4.19
289.897	13.69
290.364	14.79
290.832	13.69
291.3	16.09
291.767	20.09
292.234	17.89
292.702	16.89
293.169	21.39
293.637	19.09
294.104	22.29
294.571	7.79
295.039	12.09
295.506	11.49
295.973	17.59
296.44	16.29
296.908	15.99
297.375	18.99
297.842	21.69
298.309	19.29
298.776	12.59
299.243	15.69
299.71	7.49
300.177	16.19
300.644	14.49
301.111	17.69
301.578	21.79
302.045	15.29
302.512	22.49
302.979	22.39
303.446	15.69
303.913	18.19
304.379	13.09
304.846	28.69
305.313	21.09
305.78	22.19
306.246	21.59
306.713	28.69
307.18	21.09
307.646	25.89
308.113	38.09
308.579	22.59
309.046	24.99
309.512	22.29
309.979	20.69
310.445	30.09
310.912	29.29
311.378	30.89
311.845	26.79
312.311	28.19
312.777	34.79
313.244	26.39
313.71	39.19
314.176	26.29
314.642	32.79
315.109	34.59
315.575	35.99
316.041	37.79
316.507	35.39
316.973	39.39
317.439	31.19
317.905	36.99
318.371	40.49
318.837	28.99
319.303	31.09
319.769	29.69
320.235	39.19
320.701	38.99
321.167	37.69
321.633	30.99
322.099	41.99
322.564	48.09
323.03	34.29
323.496	34.09
323.962	33.19
324.427	38.49
324.893	41.59
325.359	43.09
325.824	30.39
326.29	38.39
326.755	35.29
327.221	38.89
327.686	39.69
328.152	43.29
328.617	37.19
329.083	39.29
329.548	50.49
330.014	45.19
330.479	42.09
330.944	37.59
331.41	40.59
331.875	43.99
332.34	40.59
332.805	40.09
333.271	48.49
333.736	42.19
334.201	48.19
334.666	48.79
335.131	51.89
335.596	50.09
336.061	48.29
336.526	40.19
336.991	48.59
337.456	52.99
337.921	49.49
338.386	36.59
338.851	47.19
339.316	47.59
339.781	39.99
340.246	49.59
340.711	47.19
341.175	51.29
341.64	43.79
342.105	53.79
342.569	55.69
343.034	54.39
343.499	48.79
343.963	54.39
344.428	61.49
344.893	59.39
345.357	53.69
345.822	58.99
346.286	64.29
346.751	69.79
347.215	69.79
347.679	75.49
348.144	95.49
348.608	76.29
349.073	57.59
349.537	74.79
350.001	75.39
350.465	83.59
350.93	78.49
351.394	83.69
351.858	66.49
352.322	82.89
352.786	84.59
353.25	90.39
353.715	110.79
354.179	94.69
354.643	119.89
355.107	129.59
355.571	110.19
356.035	98.89
356.498	119.49
356.962	120.09
357.426	128.39
357.89	112.69
358.354	88.29
358.818	87.79
359.281	75.19
359.745	73.49
360.209	76.19
360.673	74.99
361.136	76.49
361.6	79.19
362.064	77.09
362.527	80.29
362.991	94.69
363.454	76.79
363.918	70.19
364.381	82.69
364.845	80.19
365.308	85.29
365.772	85.59
366.235	82.69
366.698	83.79
367.162	88.19
367.625	85.49
368.088	82.89
368.552	84.79
369.015	83.29
369.478	89.39
369.941	95.29
370.404	91.29
370.867	105.39
371.331	108.49
371.794	110.79
372.257	103.39
372.72	110.39
373.183	102.99
373.646	104.69
374.109	100.89
374.572	110.89
375.035	104.59
375.497	112.39
375.96	107.89
376.423	103.29
376.886	106.59
377.349	107.49
377.811	98.49
378.274	104.19
378.737	106.89
379.199	104.49
379.662	112.29
380.125	114.99
380.587	117.49
381.05	121.89
381.512	125.99
381.975	132.19
382.437	133.79
382.9	131.49
383.362	127.59
383.825	143.89
384.287	144.49
384.75	143.69
385.212	140.19
385.674	144.39
386.136	139.99
386.599	120.49
387.061	131.59
387.523	137.09
387.985	136.09
388.447	139.39
388.91	145.99
389.372	164.29
389.834	152.49
390.296	139.99
390.758	155.29
391.22	168.49
391.682	207.69
392.144	295.39
392.606	217.39
393.068	170.49
393.529	172.79
393.991	153.59
394.453	149.49
394.915	154.29
395.377	192.19
395.838	217.39
396.3	151.59
396.762	142.59
397.224	140.59
397.685	130.89
398.147	130.99
398.608	128.39
399.07	126.89
399.531	137.39
399.993	143.19
400.454	154.89
400.916	148.79
401.377	146.49
401.839	149.89
402.3	152.09
402.762	167.59
403.223	173.39
403.684	175.49
404.145	158.49
404.607	162.29
405.068	167.79
405.529	174.49
405.99	186.49
406.451	180.99
406.913	179.39
407.374	166.69
407.835	162.49
408.296	163.19
408.757	172.49
409.218	187.19
409.679	181.39
410.14	176.89
410.601	177.39
411.062	189.59
411.522	198.29
411.983	195.69
412.444	174.39
412.905	183.09
413.366	178.99
413.826	190.29
414.287	217.39
414.748	258.79
415.208	239.99
415.669	207.69
416.13	203.29
416.59	203.29
417.051	208.19
417.511	216.29
417.972	243.59
418.432	248.69
418.893	286.09
419.353	242.09
419.814	198.69
420.274	177.19
420.734	181.59
421.195	191.79
421.655	190.09
422.115	200.69
422.576	190.29
423.036	194.89
423.496	204.49
423.956	215.69
424.416	229.49
424.876	267.99
425.336	258.79
425.797	262.89
426.257	251.89
426.717	238.59
427.177	238.49
427.637	229.59
428.097	231.69
428.556	248.89
429.016	271.39
429.476	261.19
429.936	273.89
430.396	278.39
430.856	292.09
431.315	320.99
431.775	350.09
432.235	379.29
432.694	349.89
433.154	372.39
433.614	397.29
434.073	338.19
434.533	286.89
434.993	272.69
435.452	286.79
435.912	288.29
436.371	289.39
436.83	288.79
437.29	278.69
437.749	253.29
438.209	238.99
438.668	272.99
439.127	293.69
439.587	265.09
440.046	240.39
440.505	261.99
440.964	275.39
441.424	323.39
441.883	312.69
442.342	265.39
442.801	228.09
443.26	229.09
443.719	225.09
444.178	217.59
444.637	212.09
445.096	219.79
445.555	214.09
446.014	221.49
446.473	225.99
446.932	238.39
447.391	226.19
447.849	221.69
448.308	220.49
448.767	224.09
449.226	231.39
449.685	232.89
450.143	251.19
450.602	238.09
451.061	224.79
451.519	228.79
451.978	234.59
452.436	237.49
452.895	239.29
453.353	252.99
453.812	241.79
454.27	235.89
454.729	233.29
455.187	239.89
455.646	251.09
456.104	249.09
456.562	257.99
457.021	267.49
457.479	259.29
457.937	265.29
458.395	261.19
458.854	255.99
459.312	254.79
459.77	274.89
460.228	255.39
460.686	242.39
461.144	250.59
461.602	247.09
462.06	250.19
462.518	255.89
462.976	257.89
463.434	262.09
463.892	265.69
464.35	276.19
464.808	286.79
465.266	271.79
465.724	270.79
466.181	272.49
466.639	272.69
467.097	287.79
467.555	291.59
468.012	299.99
468.47	312.39
468.928	320.79
469.385	343.79
469.843	350.79
470.3	352.69
470.758	359.99
471.215	379.09
471.673	405.79
472.13	413.79
472.588	420.29
473.045	371.59
473.503	380.99
473.96	396.29
474.417	403.19
474.875	431.39
475.332	475.09
475.789	458.99
476.246	461.09
476.704	485.39
477.161	502.89
477.618	527.39
478.075	565.79
478.532	607.99
478.989	681.49
479.446	808.89
479.903	767.29
480.36	789.59
480.817	855.49
481.274	952.89
481.731	1060.99
482.188	1148.09
482.645	1280.19
483.102	1401.99
483.558	1515.69
484.015	1572.49
484.472	1547.59
484.929	1507.99
485.385	1468.99
485.842	1402.39
486.299	1354.89
486.755	1283.19
487.212	1073.39
487.668	920.19
488.125	836.79
488.582	770.39
489.038	736.29
489.494	702.49
489.951	677.39
490.407	657.19
490.864	647.19
491.32	645.09
491.776	635.39
492.233	641.79
492.689	602.29
493.145	605.09
493.602	591.59
494.058	606.59
494.514	612.69
494.97	636.99
495.426	634.99
495.882	614.29
496.338	605.99
496.794	623.39
497.251	610.59
497.707	624.99
498.163	625.29
498.618	631.29
499.074	627.09
499.53	659.19
499.986	665.59
500.442	643.49
500.898	628.89
501.354	618.79
501.809	626.39
502.265	632.09
502.721	653.19
503.177	666.69
503.632	661.59
504.088	667.89
504.543	701.89
504.999	702.49
505.455	651.29
505.91	628.69
506.366	621.69
506.821	616.49
507.277	618.29
507.732	617.29
508.187	620.19
508.643	629.79
509.098	622.09
509.553	639.99
510.009	656.39
510.464	665.19
510.919	674.89
511.375	693.19
511.83	696.99
512.285	723.39
512.74	755.79
513.195	778.49
513.65	765.79
514.105	761.79
514.56	766.29
515.015	779.09
515.47	794.99
515.925	774.39
516.38	772.99
516.835	778.89
517.29	779.39
517.745	765.49
518.2	751.39
518.655	732.39
519.109	724.19
519.564	731.99
520.019	719.09
520.474	713.19
520.928	723.49
521.383	720.99
521.838	705.59
522.292	700.09
522.747	713.29
523.201	692.99
523.656	693.69
524.11	689.59
524.565	686.29
525.019	679.09
525.474	693.09
525.928	695.49
526.382	685.89
526.837	696.09
527.291	688.39
527.745	691.69
528.2	686.89
528.654	685.49
529.108	671.59
529.562	679.89
530.016	685.09
530.47	678.39
530.925	680.69
531.379	687.69
531.833	697.79
532.287	695.29
532.741	690.59
533.195	690.79
533.649	701.99
534.103	699.49
534.556	701.79
535.01	703.09
535.464	701.59
535.918	709.29
536.372	704.19
536.826	704.99
537.279	697.39
537.733	698.89
538.187	707.39
538.64	703.09
539.094	710.59
539.548	715.79
540.001	714.59
540.455	719.09
540.908	724.59
541.362	726.89
541.815	742.19
542.269	757.39
542.722	753.39
543.175	760.19
543.629	752.99
544.082	783.79
544.536	770.49
544.989	778.39
545.442	797.19
545.895	782.59
546.349	783.09
546.802	785.69
547.255	774.19
547.708	789.39
548.161	812.49
548.614	814.09
549.067	819.29
549.52	806.99
549.973	812.39
550.426	792.89
550.879	786.69
551.332	794.69
551.785	786.29
552.238	803.69
552.691	810.79
553.144	828.49
553.596	839.19
554.049	856.99
554.502	880.29
554.955	905.69
555.407	891.89
555.86	894.69
556.313	874.19
556.765	874.79
557.218	876.39
557.67	873.09
558.123	862.99
558.576	866.19
559.028	870.99
559.48	868.59
559.933	860.99
560.385	826.29
560.838	802.99
561.29	771.39
561.742	777.99
562.195	757.59
562.647	759.69
563.099	771.29
563.551	762.89
564.004	771.19
564.456	771.79
564.908	750.29
565.36	745.99
565.812	728.79
566.264	724.09
566.716	715.99
567.168	709.79
567.62	720.79
568.072	699.29
568.524	690.89
568.976	683.49
569.428	670.99
569.88	666.89
570.332	676.09
570.784	671.59
571.235	678.89
571.687	681.79
572.139	702.69
572.59	694.49
573.042	699.99
573.494	703.19
573.945	705.49
574.397	687.09
574.849	680.19
575.3	687.29
575.752	673.29
576.203	665.69
576.655	680.79
577.106	659.79
577.557	650.39
578.009	671.19
578.46	658.79
578.912	655.59
579.363	657.79
579.814	656.69
580.265	653.99
580.717	669.69
581.168	666.79
581.619	670.99
582.07	677.99
582.521	662.09
582.972	666.49
583.423	671.29
583.875	670.49
584.326	696.59
584.777	741.69
585.227	822.89
585.678	918.09
586.129	1005.39
586.58	1075.09
587.031	1161.69
587.482	1297.39
587.933	1489.79
588.384	1291.69
588.834	965.29
589.285	808.19
589.736	783.29
590.186	767.99
590.637	761.49
591.088	736.49
591.538	734.69
591.989	730.09
592.439	726.19
592.89	715.29
593.34	709.19
593.791	707.79
594.241	695.89
594.692	712.69
595.142	701.29
595.593	695.19
596.043	706.79
596.493	717.69
596.943	718.49
597.394	719.99
597.844	711.49
598.294	724.89
598.744	746.69
599.195	771.49
599.645	808.09
600.095	847.29
600.545	904.79
600.995	959.89
601.445	1028.89
601.895	1085.39
602.345	1121.29
602.795	1099.59
603.245	1053.89
603.695	1000.39
604.145	952.39
604.594	905.39
605.044	850.39
605.494	797.49
605.944	755.29
606.393	734.69
606.843	721.39
607.293	730.29
607.743	726.79
608.192	742.29
608.642	753.59
609.091	748.19
609.541	757.59
609.99	758.59
610.44	763.49
610.889	720.09
611.339	699.29
611.788	686.39
612.238	688.19
612.687	708.19
613.136	711.89
613.586	731.89
614.035	741.49
614.484	753.99
614.933	754.59
615.383	746.49
615.832	742.19
616.281	724.49
616.73	688.19
617.179	662.99
617.628	650.39
618.077	637.69
618.526	616.99
618.975	611.39
619.424	615.39
619.873	613.19
620.322	611.29
620.771	599.99
621.22	602.99
621.669	594.09
622.118	591.89
622.567	579.79
623.015	573.29
623.464	564.79
623.913	562.69
624.361	552.79
624.81	545.29
625.259	553.19
625.707	559.09
626.156	550.19
626.604	573.69
627.053	561.59
627.501	564.19
627.95	573.59
628.398	585.09
628.847	566.19
629.295	571.69
629.744	576.69
630.192	572.59
630.64	564.39
631.089	569.89
631.537	577.49
631.985	583.59
632.433	595.59
632.881	617.99
633.33	660.89
633.778	649.39
634.226	569.29
634.674	572.79
635.122	575.19
635.57	599.69
636.018	637.29
636.466	589.19
636.914	556.69
637.362	570.29
637.81	580.79
638.258	581.99
638.705	572.49
639.153	610.59
639.601	607.69
640.049	645.99
640.497	667.89
640.944	691.19
641.392	641.39
641.84	612.49
642.287	579.29
642.735	571.29
643.182	565.69
643.63	566.29
644.078	576.39
644.525	601.59
644.973	592.29
645.42	602.79
645.867	625.89
646.315	635.89
646.762	659.99
647.21	693.09
647.657	716.49
648.104	747.39
648.551	768.69
648.999	845.19
649.446	915.39
649.893	1005.89
650.34	1169.99
650.787	1405.19
651.234	1735.59
651.682	2255.29
652.129	3108.79
652.576	4532.19
653.023	6631.69
653.47	9041.19
653.917	11248.89
654.363	12909.89
654.81	14228.89
655.257	13512.59
655.704	8853.09
656.151	5200.19
656.598	3392.49
657.044	2402.69
657.491	1847.89
657.938	1493.09
658.385	1239.39
658.831	1066.09
659.278	961.49
659.724	845.59
660.171	795.69
660.618	717.79
661.064	689.49
661.511	669.39
661.957	655.59
662.404	634.49
662.85	656.89
663.296	629.49
663.743	559.79
664.189	547.19
664.635	539.29
665.082	535.19
665.528	529.29
665.974	521.99
666.42	504.99
666.867	502.99
667.313	492.19
667.759	480.89
668.205	481.29
668.651	477.89
669.097	487.09
669.543	499.39
669.989	466.29
670.435	441.19
670.881	451.49
671.327	447.79
671.773	467.29
672.219	487.69
672.665	536.29
673.11	583.09
673.556	626.59
674.002	665.69
674.448	651.79
674.893	541.49
675.339	474.69
675.785	439.49
676.23	423.69
676.676	387.49
677.122	391.69
677.567	376.99
678.013	364.99
678.458	362.19
678.904	359.29
679.349	353.59
679.794	350.39
680.24	351.69
680.685	349.99
681.131	344.99
681.576	346.39
682.021	357.09
682.466	348.39
682.912	349.69
683.357	349.09
683.802	379.59
684.247	407.49
684.692	455.69
685.137	502.69
685.583	536.49
686.028	554.89
686.473	516.69
686.918	445.99
687.363	420.99
687.807	389.19
688.252	367.29
688.697	348.99
689.142	335.59
689.587	329.09
690.032	327.19
690.477	347.09
690.921	355.89
691.366	380.09
691.811	403.49
692.255	429.49
692.7	459.79
693.145	507.19
693.589	696.19
694.034	1139.49
694.478	1528.09
694.923	1698.79
695.367	2213.99
695.812	1173.49
696.256	496.29
696.701	366.39
697.145	343.89
697.59	326.49
698.034	322.09
698.478	325.69
698.922	324.49
699.367	329.19
699.811	340.69
700.255	353.09
700.699	388.49
701.143	424.29
701.588	472.09
702.032	511.89
702.476	509.29
702.92	490.89
703.364	495.69
703.808	643.99
704.252	1056.39
704.696	1451.59
705.14	1648.49
705.584	2080.59
706.027	1057.09
706.471	519.29
706.915	402.19
707.359	348.39
707.803	316.59
708.246	309.89
708.69	314.39
709.134	306.19
709.577	311.29
710.021	315.89
710.465	306.09
710.908	303.09
711.352	297.39
711.795	311.49
712.239	358.39
712.682	386.29
713.126	418.39
713.569	460.59
714.012	369.09
714.456	322.19
714.899	297.59
715.342	272.99
715.786	256.99
716.229	254.99
716.672	248.39
717.115	251.59
717.558	249.69
718.002	262.49
718.445	264.19
718.888	285.69
719.331	294.19
719.774	309.09
720.217	298.79
720.66	282.99
721.103	269.89
721.546	255.99
721.989	249.69
722.432	231.09
722.874	233.49
723.317	233.49
723.76	236.09
724.203	261.19
724.645	323.19
725.088	454.29
725.531	570.69
725.974	639.09
726.416	542.69
726.859	309.69
727.301	237.59
727.744	233.69
728.187	230.79
728.629	238.69
729.071	246.79
729.514	256.69
729.956	269.19
730.399	285.79
730.841	294.09
731.283	267.79
731.726	260.89
732.168	260.29
732.61	269.49
733.053	285.69
733.495	314.19
733.937	352.39
734.379	398.89
734.821	433.69
735.263	544.09
735.705	839.79
736.148	1604.29
736.59	2561.89
737.032	2994.19
737.474	2435.09
737.916	803.49
738.357	425.29
738.799	335.19
739.241	304.59
739.683	290.69
740.125	293.59
740.567	298.79
741.008	313.39
741.45	320.59
741.892	317.49
742.334	350.59
742.775	354.59
743.217	328.29
743.658	270.79
744.1	252.99
744.542	262.29
744.983	305.99
745.425	340.49
745.866	334.09
746.307	280.99
746.749	284.19
747.19	330.09
747.632	470.19
748.073	901.19
748.514	1888.19
748.956	2822.49
749.397	3538.79
749.838	2949.59
750.279	2900.49
750.72	1473.59
751.162	546.99
751.603	314.89
752.044	255.09
752.485	219.29
752.926	208.89
753.367	196.79
753.808	194.29
754.249	184.29
754.69	186.29
755.131	187.99
755.572	184.09
756.013	182.99
756.453	184.89
756.894	182.29
757.335	193.69
757.776	198.99
758.216	199.09
758.657	203.39
759.098	204.29
759.538	225.89
759.979	267.59
760.42	379.89
760.86	724.19
761.301	1871.59
761.741	4461.69
762.182	6290.69
762.622	4388.09
763.063	1308.79
763.503	549.39
763.943	351.29
764.384	344.89
764.824	410.19
765.264	436.39
765.705	306.79
766.145	211.99
766.585	192.59
767.025	180.89
767.465	193.29
767.906	250.69
768.346	316.79
768.786	338.49
769.226	257.69
769.666	326.99
770.106	640.09
770.546	1577.69
770.986	2601.09
771.426	2299.69
771.866	778.59
772.306	330.49
772.745	208.99
773.185	175.19
773.625	170.69
774.065	165.39
774.505	205.49
774.944	312.19
775.384	682.29
775.824	1198.79
776.263	1163.19
776.703	503.89
777.142	219.29
777.582	157.59
778.021	134.49
778.461	145.39
778.9	144.39
779.34	133.09
779.779	119.79
780.219	111.29
780.658	109.99
781.097	107.09
781.537	112.99
781.976	104.09
782.415	113.09
782.855	106.19
783.294	106.89
783.733	106.79
784.172	105.09
784.611	94.29
785.05	109.59
785.489	112.19
785.928	114.49
786.367	122.99
786.806	118.29
787.245	130.09
787.684	135.19
788.123	146.79
788.562	126.69
789.001	123.79
789.44	116.79
789.879	116.89
790.317	119.19
790.756	123.39
791.195	133.89
791.634	149.69
792.072	212.99
792.511	374.39
792.95	1039.39
793.388	2116.69
793.827	1903.19
794.265	663.59
794.704	275.49
795.142	183.89
795.581	149.89
796.019	132.99
796.458	128.39
796.896	127.99
797.334	126.29
797.773	156.19
798.211	223.09
798.649	455.89
799.087	1031.39
799.526	1582.69
799.964	2005.19
800.402	1946.79
800.84	750.59
801.278	301.09
801.716	189.99
802.154	154.69
802.592	143.69
803.03	131.79
803.468	137.09
803.906	141.39
804.344	153.79
804.782	142.99
805.22	131.89
805.658	130.49
806.096	145.49
806.533	156.19
806.971	176.39
807.409	224.09
807.847	320.89
808.284	685.89
808.722	1898.29
809.16	3233.49
809.597	3150.29
810.035	5385.59
810.472	5604.09
810.91	2047.69
811.347	792.59
811.785	402.69
812.222	256.59
812.66	190.89
813.097	167.69
813.535	140.59
813.972	127.29
814.409	120.79
814.846	110.59
815.284	104.89
815.721	102.89
816.158	102.49
816.595	124.49
817.032	177.39
817.47	195.29
817.907	163.69
818.344	147.39
818.781	117.69
819.218	99.29
819.655	125.89
820.092	181.09
820.529	211.39
820.966	175.09
821.403	128.09
821.839	114.09
822.276	103.49
822.713	119.89
823.15	136.99
823.587	111.59
824.023	145.19
824.46	309.59
824.897	897.59
825.333	1315.99
825.77	569.99
826.206	224.69
826.643	133.69
827.08	102.99
827.516	90.49
827.953	82.79
828.389	79.69
828.825	74.29
829.262	69.79
829.698	63.69
830.135	63.49
830.571	63.09
831.007	63.69
831.443	64.09
831.88	57.79
832.316	68.49
832.752	65.89
833.188	63.69
833.624	64.59
834.06	66.19
834.497	72.69
834.933	69.89
835.369	80.59
835.805	60.59
836.241	76.39
836.677	79.29
837.112	86.19
837.548	105.99
837.984	130.69
838.42	202.59
838.856	506.99
839.292	1538.69
839.727	2257.29
840.163	1050.49
840.599	941.69
841.034	2024.19
841.47	2058.09
841.906	759.29
842.341	326.79
842.777	232.09
843.212	317.49
843.648	305.39
844.083	148.79
844.519	98.29
844.954	80.49
845.39	65.29
845.825	62.69
846.261	58.59
846.696	51.19
847.131	50.69
847.566	56.19
848.002	56.09
848.437	60.09
848.872	58.49
849.307	61.19
849.742	92.39
850.177	186.09
850.613	545.59
851.048	859.69
851.483	374.89
851.918	155.79
852.353	93.79
852.788	65.59
853.223	60.99
853.657	62.29
854.092	53.99
854.527	45.49
854.962	40.79
855.397	53.39
855.832	56.59
856.266	38.49
856.701	39.49
857.136	41.49
857.57	49.69
858.005	55.49
858.44	54.79
858.874	47.89
859.309	54.19
859.743	37.29
860.178	43.39
860.612	44.99
861.047	53.89
861.481	69.99
861.915	71.29
862.35	54.39
862.784	42.69
863.218	40.29
863.653	39.69
864.087	46.69
864.521	53.19
864.955	78.69
865.39	154.49
865.824	173.79
866.258	115.29
866.692	165.59
867.126	169.09
867.56	106.19
867.994	44.29
868.428	34.49
868.862	52.39
869.296	55.19
869.73	57.89
870.164	52.39
870.598	46.19
871.031	40.29
871.465	24.49
871.899	33.09
872.333	25.99
872.766	23.29
873.2	25.99
873.634	35.29
874.067	28.59
874.501	25.39
874.935	34.49
875.368	31.29
875.802	28.89
876.235	31.89
876.669	24.79
877.102	25.79
877.535	29.19
877.969	21.59
878.402	29.79
878.836	18.09
879.269	25.49
879.702	21.39
880.135	18.49
880.569	28.79
881.002	24.09
881.435	23.79
881.868	17.49
882.301	23.89
882.734	14.89
883.167	26.29
883.601	14.59
884.034	24.69
884.467	23.19
884.899	21.19
885.332	15.79
885.765	11.99
886.198	10.99
886.631	19.49
887.064	19.59
887.497	25.49
887.929	27.99
888.362	12.99
888.795	10.99
889.228	18.09
889.66	24.59
890.093	17.09
890.526	14.49
890.958	16.59
891.391	19.89
891.823	24.49
892.256	19.29
892.688	10.49
893.121	13.99
893.553	17.89
893.985	28.09
894.418	17.99
894.85	17.89
895.282	17.59
895.715	19.19
896.147	20.49
896.579	14.09
897.011	20.09
897.444	14.19
897.876	17.09
898.308	18.99
898.74	20.09
899.172	15.29
899.604	25.49
900.036	28.29
900.468	12.99
900.9	16.49
901.332	19.19
901.764	14.39
902.196	19.99
902.628	20.39
903.06	15.79
903.491	29.09
903.923	18.09
904.355	22.59
904.787	24.39
905.218	23.99
905.65	19.89
906.082	8.39
906.513	11.19
906.945	12.09
907.376	14.49
907.808	24.19
908.239	21.99
908.671	19.69
909.102	24.89
909.534	26.19
909.965	46.79
910.397	94.79
910.828	318.19
911.259	459.79
911.691	211.99
912.122	109.89
912.553	50.49
912.984	34.79
913.415	18.59
913.847	23.69
914.278	17.59
914.709	13.49
915.14	15.09
915.571	17.69
916.002	13.99
916.433	19.39
916.864	20.49
917.295	19.09
917.726	24.49
918.157	19.49
918.587	30.59
919.018	24.69
919.449	26.89
919.88	32.19
920.311	35.59
920.741	56.89
921.172	164.99
921.603	153.09
922.033	62.99
922.464	47.79
922.895	25.89
923.325	27.79
923.756	16.29
924.186	16.19
924.617	28.69
925.047	38.99
925.478	51.39
925.908	44.59
926.338	19.19
926.769	18.49
927.199	21.99
927.629	12.89
928.06	15.69
928.49	13.69
928.92	16.69
929.35	10.49
929.78	17.99
930.21	10.29
930.641	14.99
931.071	7.49
931.501	6.49
931.931	5.69
932.361	10.39
932.791	5.69
933.221	6.79
933.651	6.79
934.08	22.09
934.51	39.79
934.94	10.19
935.37	4.59
935.8	15.89
936.229	14.99
936.659	6.49
937.089	-0.61
937.519	15.99
937.948	23.69
938.378	24.29
938.807	9.89
939.237	7.89
939.666	6.79
940.096	-3.01
940.525	-0.21
940.955	6.39
941.384	7.09
941.814	-1.01
942.243	-2.11
942.672	1.59
943.102	-1.31
943.531	5.49
943.96	10.29
944.39	2.59
944.819	1.69
945.248	5.99
945.677	1.89
946.106	4.39
946.535	4.19
946.964	1.99
947.393	3.29
947.822	-0.41
948.251	-0.51
948.68	3.29
949.109	9.29
949.538	5.59
949.967	0.09
950.396	0.19
950.825	4.59
951.254	5.29
951.682	-5.51
952.111	6.89
952.54	7.19
952.969	-1.21
953.397	-2.11
953.826	3.09
954.254	-6.71
954.683	4.19
955.112	-3.71
955.54	1.99
955.969	5.69
956.397	4.39
956.826	-1.91
957.254	9.79
957.682	4.39
958.111	6.89
958.539	0.39
958.967	-0.01
959.396	-5.11
959.824	-0.11
960.252	3.89
960.68	-6.11
961.109	-1.51
961.537	-3.01
961.965	2.29
962.393	0.79
962.821	-1.91
963.249	3.29
963.677	1.89
964.105	4.49
964.533	39.39
964.961	42.89
965.389	21.89
965.817	6.89
966.245	0.19
966.672	-4.71
967.1	-7.51
967.528	-1.31
967.956	-0.91
968.383	5.19
968.811	-4.61
969.239	-5.71
969.666	-2.61
970.094	3.19
970.522	1.39
970.949	-1.91
971.377	-3.81
971.804	-3.01
972.232	0.69
972.659	2.09
973.087	0.19
973.514	3.49
973.941	2.19
974.369	3.69
974.796	6.39
975.223	1.29
975.651	1.19
976.078	-4.11
976.505	-4.41
976.932	4.49
977.359	15.09
977.786	14.99
978.214	6.69
978.641	3.29
979.068	-5.91
979.495	-1.31
979.922	6.49
980.349	-3.61
980.776	1.69
981.202	-4.41
981.629	9.09
982.056	3.39
982.483	3.29
982.91	1.29
983.337	-5.91
983.763	2.79
984.19	-1.81
984.617	-1.01
985.043	-6.71
985.47	0.19
985.897	-0.01
986.323	-3.71
986.75	6.29
987.176	-1.51
987.603	2.39
988.029	-3.21
988.456	-1.41
988.882	7.39
989.308	-5.31
989.735	3.49
990.161	1.19
990.587	-1.81
991.014	4.19
991.44	9.69
991.866	-0.91
992.292	-7.01
992.719	-1.11
993.145	2.59
993.571	-5.91
993.997	-4.51
994.423	-0.41
994.849	-3.81
995.275	1.39
995.701	-1.11
996.127	-1.51
996.553	1.19
996.979	-1.01
997.405	-3.41
997.83	-2.31
998.256	-1.91
998.682	-1.81
999.108	-4.91
999.534	1.09
999.959	-1.51
1000.385	-7.41
1000.811	-4.01
1001.236	-11.01
1001.662	-2.61
1002.087	-7.41
1002.513	0.59
1002.938	-2.11
1003.364	2.39
1003.789	-2.31
1004.215	6.09
1004.64	-0.91
1005.066	1.89
1005.491	0.79
1005.916	-1.61
1006.342	-1.61
1006.767	-8.71
1007.192	0.79
1007.617	-4.51
1008.042	-5.51
1008.468	-7.91
1008.893	-4.01
1009.318	-2.41
1009.743	-5.41
1010.168	5.49
1010.593	-2.71
1011.018	-6.61
1011.443	0.39
1011.868	4.19
1012.293	-6.51
1012.718	-8.11
1013.143	3.79
1013.567	-1.61
1013.992	0.89
1014.417	-13.91
1014.842	4.49
1015.267	-4.01
1015.691	-4.51
1016.116	1.59
1016.541	-0.21
1016.965	-0.81
1017.39	2.79
1017.814	-2.31
1018.239	-1.51
1018.663	-9.71
1019.088	-5.01
1019.512	6.19
1019.937	1.39
1020.361	-3.51
1020.785	-7.01
1021.21	1.09
1021.634	-5.51
1022.058	2.29
1022.483	0.29
1022.907	-3.71
1023.331	-0.81
1023.755	-3.81
1024.179	-4.41
1024.604	-4.81
1025.028	-2.71
1025.452	-3.71
1025.876	-3.21
1026.3	-1.11
1026.724	-11.31
1027.148	-4.61
1027.572	-5.31
1027.996	-3.11
1028.42	0.49
1028.843	-0.61
1029.267	-3.01
1029.691	-5.51
1030.115	-8.31
1030.539	-8.11
1030.962	-5.71
1031.386	-11.31
1031.81	-2.91
1032.233	1.59
1032.657	-0.81
1033.08	-1.31
1033.504	-3.41
1033.927	-9.51
1034.351	2.79
1034.774	-7.91
1035.198	-5.31
1035.621	-7.31
1036.045	-4.11
1036.468	-1.71
1036.891	-8.21
1037.315	-9.01
1037.738	-5.51
1038.161	-1.71
1038.584	-2.21
1039.008	-7.51
1039.431	-0.11
1039.854	-2.21
1040.277	-6.71
1040.7	-6.41
1041.123	-3.11
1041.546	-6.91
1041.969	-3.61
1042.392	-5.01
1042.815	-6.91
1043.238	-0.21
1043.661	2.49
1044.084	-2.41
1044.507	-2.31
1044.93	-2.11
1045.352	-2.81
1045.775	-5.21
1046.198	-3.81
1046.621	0.19
1047.043	1.39
1047.466	8.79
1047.889	-7.71
1048.311	-5.41
1048.734	-0.41
1049.156	-3.41
1049.579	-4.71
1050.001	-5.51
1050.424	-5.21
1050.846	0.19
1051.269	-2.51
1051.691	-9.41
1052.113	-1.71
1052.536	-2.51
1052.958	-0.31
1053.38	-2.01
1053.802	-10.21
1054.225	5.29
1054.647	-10.81
1055.069	-11.21
1055.491	2.89
1055.913	-10.11
1056.335	-3.51
1056.757	-0.51
1057.179	-4.61
1057.601	-6.11
1058.023	-3.51
1058.445	-3.51
1058.867	-2.71
1059.289	-0.41
1059.711	-3.11
1060.133	-5.11
1060.555	-4.11
1060.976	-4.31
1061.398	1.99
1061.82	-3.01
1062.241	-6.41
1062.663	-6.91
1063.085	-5.81
1063.506	3.09
1063.928	-5.61
1064.35	0.09
1064.771	-15.41
1065.193	-3.01
1065.614	-13.61
1066.035	-8.71
1066.457	-4.11
1066.878	-0.71
1067.3	-2.01
1067.721	0.19
1068.142	-8.01
1068.564	-4.61
1068.985	-5.11
1069.406	-6.71
1069.827	-5.01
1070.248	-0.71
1070.67	-6.11
1071.091	-4.81
1071.512	-0.91
1071.933	0.39
1072.354	-10.21
1072.775	-2.81
1073.196	-10.01
1073.617	-4.91
1074.038	-4.71
1074.459	-7.01
1074.88	-6.51
1075.3	-4.81
1075.721	0.29
1076.142	-5.21
1076.563	-1.81
1076.983	-6.91
1077.404	-4.01
1077.825	-11.81
1078.246	-2.31
1078.666	-11.91
1079.087	-4.61
1079.507	-9.71
1079.928	-0.51
1080.348	0.69
1080.769	-9.11
1081.189	-1.01
1081.61	-2.81
1082.03	-5.31
1082.451	-7.71
1082.871	-5.51
1083.291	-2.21
1083.711	-7.01
1084.132	-2.91
1084.552	-5.51
1084.972	0.79
1085.392	-16.21
1085.813	-12.11
1086.233	-9.11
1086.653	-7.41
1087.073	0.69
1087.493	-1.91
1087.913	-7.51
1088.333	-9.81
1088.753	-2.41
1089.173	1.19
1089.593	0.69
1090.013	2.19
1090.433	-0.31
1090.852	-2.01
1091.272	-0.81
1091.692	-3.41
1092.112	-1.11
1092.531	-10.01
1092.951	-9.31
1093.371	0.79
1093.79	1.69
1094.21	-8.31
1094.63	-4.21
1095.049	-7.51
1095.469	1.09
1095.888	-6.11
1096.308	2.69
1096.727	6.79
1097.146	-6.31
1097.566	-2.01
1097.985	-5.31
1098.405	-0.41
1098.824	-4.21
1099.243	-2.61
1099.662	-10.91
1100.082	-4.21
1100.501	-2.61
1100.92	-7.11
1101.339	-0.41
1101.758	-2.31
