Data from 20171114-ORNL-Ar_H_NY_Subt18_08-08-08-287.txt Node
Date: Tue Nov 14 08:08:08 EST 2017
User: Ender
Spectrometer: HR+D1039
Trigger mode: 0
Integration Time (sec): 2.730000E-2
Scans to average: 10
Electric dark correction enabled: true
Nonlinearity correction enabled: false
Boxcar width: 0
XAxis mode: Wavelengths
Number of Pixels in Spectrum: 2048
>>>>>Begin Spectral Data<<<<<
187.836	-7.07
188.309	-7.07
188.782	-7.07
189.255	-1.97
189.728	-1.87
190.201	-2.27
190.674	2.03
191.147	0.63
191.619	-2.17
192.092	1.13
192.565	7.63
193.038	3.33
193.511	-1.57
193.984	1.43
194.456	-2.37
194.929	1.23
195.402	1.53
195.874	0.33
196.347	-1.97
196.82	-11.87
197.292	3.63
197.765	-7.27
198.237	-9.27
198.71	-0.67
199.182	-3.37
199.655	0.23
200.127	5.83
200.6	-3.17
201.072	-1.77
201.544	-6.17
202.017	0.63
202.489	4.13
202.961	-3.47
203.433	-1.37
203.906	-11.17
204.378	-5.57
204.85	-1.87
205.322	-11.17
205.794	-3.97
206.266	-3.37
206.739	-7.97
207.211	1.93
207.683	-1.77
208.155	-3.37
208.627	-7.57
209.099	-5.07
209.57	-15.67
210.042	-5.47
210.514	-2.67
210.986	-0.67
211.458	-8.67
211.93	-1.57
212.402	-1.37
212.873	-7.37
213.345	-8.17
213.817	-6.07
214.288	-9.27
214.76	-5.87
215.232	-4.17
215.703	-0.77
216.175	-3.37
216.646	-5.87
217.118	-4.37
217.589	-4.87
218.061	-2.87
218.532	-2.37
219.004	-4.27
219.475	-2.77
219.946	2.83
220.418	-1.47
220.889	0.03
221.36	3.63
221.832	1.83
222.303	-11.27
222.774	-3.27
223.245	-13.07
223.717	-1.57
224.188	-4.37
224.659	-10.07
225.13	-6.27
225.601	-2.97
226.072	-4.27
226.543	-6.67
227.014	2.73
227.485	-3.87
227.956	-5.07
228.427	-0.87
228.898	-1.27
229.369	-0.27
229.839	-0.17
230.31	-7.57
230.781	1.83
231.252	-2.07
231.722	-0.47
232.193	-1.87
232.664	0.43
233.135	3.83
233.605	-0.07
234.076	-3.87
234.546	3.93
235.017	0.83
235.487	-4.07
235.958	-2.47
236.428	-0.77
236.899	3.73
237.369	7.43
237.84	-1.37
238.31	0.03
238.78	0.13
239.251	0.23
239.721	2.23
240.191	-0.17
240.662	-4.07
241.132	-2.57
241.602	-5.17
242.072	-0.87
242.542	4.93
243.013	-0.07
243.483	4.43
243.953	2.93
244.423	-8.97
244.893	-6.27
245.363	1.53
245.833	0.03
246.303	-5.87
246.773	6.13
247.243	-0.17
247.712	1.23
248.182	10.43
248.652	8.83
249.122	2.23
249.592	7.93
250.061	26.43
250.531	29.73
251.001	18.13
251.471	19.33
251.94	22.23
252.41	6.03
252.879	0.13
253.349	14.73
253.818	7.53
254.288	10.93
254.757	3.63
255.227	-4.27
255.696	4.73
256.166	6.33
256.635	5.43
257.105	10.53
257.574	5.03
258.043	5.73
258.513	9.43
258.982	13.13
259.451	6.33
259.92	12.43
260.389	10.23
260.859	19.53
261.328	11.23
261.797	15.33
262.266	6.53
262.735	11.23
263.204	3.33
263.673	1.23
264.142	2.93
264.611	-2.27
265.08	2.23
265.549	-2.87
266.018	2.23
266.487	-4.87
266.955	-0.47
267.424	-2.87
267.893	6.63
268.362	-0.17
268.83	3.03
269.299	8.73
269.768	3.03
270.236	7.53
270.705	6.03
271.174	12.43
271.642	5.63
272.111	7.53
272.579	16.53
273.048	22.53
273.516	28.53
273.985	26.63
274.453	21.63
274.922	23.93
275.39	12.83
275.858	5.73
276.327	11.43
276.795	18.13
277.263	11.93
277.731	29.83
278.2	49.23
278.668	57.93
279.136	44.83
279.604	17.73
280.072	13.33
280.54	16.23
281.008	9.73
281.477	14.23
281.945	9.13
282.413	17.13
282.881	17.33
283.348	8.43
283.816	13.23
284.284	10.53
284.752	25.53
285.22	12.73
285.688	13.03
286.156	17.03
286.623	41.13
287.091	50.13
287.559	32.03
288.026	16.93
288.494	17.13
288.962	7.23
289.429	12.63
289.897	17.83
290.364	11.33
290.832	17.03
291.3	14.23
291.767	19.43
292.234	12.73
292.702	20.93
293.169	24.33
293.637	23.23
294.104	21.33
294.571	13.13
295.039	15.13
295.506	16.13
295.973	20.43
296.44	10.33
296.908	15.13
297.375	13.63
297.842	20.13
298.309	14.63
298.776	10.33
299.243	18.03
299.71	11.03
300.177	18.23
300.644	18.43
301.111	16.13
301.578	30.13
302.045	16.23
302.512	29.83
302.979	26.63
303.446	22.53
303.913	13.13
304.379	13.13
304.846	31.03
305.313	21.13
305.78	27.03
306.246	21.63
306.713	24.53
307.18	22.83
307.646	26.13
308.113	24.03
308.579	23.13
309.046	27.73
309.512	24.53
309.979	20.73
310.445	28.73
310.912	26.73
311.378	33.03
311.845	25.53
312.311	34.63
312.777	31.73
313.244	28.23
313.71	34.43
314.176	34.43
314.642	30.23
315.109	28.23
315.575	35.33
316.041	41.43
316.507	28.73
316.973	36.63
317.439	26.43
317.905	37.93
318.371	29.93
318.837	36.43
319.303	31.13
319.769	30.23
320.235	37.53
320.701	37.53
321.167	41.43
321.633	35.73
322.099	34.03
322.564	42.03
323.03	37.93
323.496	36.13
323.962	41.73
324.427	39.33
324.893	45.13
325.359	37.03
325.824	36.63
326.29	32.93
326.755	40.33
327.221	34.93
327.686	41.33
328.152	44.03
328.617	37.03
329.083	43.13
329.548	46.53
330.014	47.73
330.479	37.33
330.944	40.73
331.41	46.63
331.875	44.83
332.34	40.83
332.805	42.63
333.271	44.93
333.736	39.83
334.201	52.93
334.666	53.33
335.131	53.63
335.596	49.63
336.061	52.03
336.526	42.63
336.991	51.43
337.456	60.93
337.921	47.23
338.386	44.83
338.851	40.63
339.316	45.73
339.781	47.23
340.246	51.83
340.711	45.63
341.175	52.03
341.64	41.33
342.105	47.53
342.569	55.93
343.034	58.63
343.499	57.23
343.963	48.93
344.428	65.13
344.893	63.53
345.357	62.13
345.822	66.03
346.286	69.53
346.751	73.83
347.215	67.13
347.679	73.43
348.144	102.63
348.608	84.23
349.073	68.43
349.537	69.23
350.001	84.43
350.465	84.63
350.93	72.53
351.394	89.33
351.858	72.53
352.322	85.53
352.786	83.03
353.25	104.73
353.715	114.73
354.179	106.43
354.643	118.03
355.107	120.33
355.571	112.83
356.035	108.43
356.498	118.33
356.962	128.13
357.426	123.53
357.89	115.23
358.354	89.83
358.818	82.23
359.281	82.33
359.745	77.93
360.209	82.83
360.673	70.93
361.136	78.43
361.6	78.13
362.064	86.13
362.527	87.83
362.991	97.73
363.454	83.23
363.918	84.63
364.381	77.33
364.845	81.33
365.308	87.33
365.772	83.03
366.235	80.63
366.698	88.63
367.162	85.63
367.625	86.63
368.088	85.73
368.552	91.53
369.015	87.43
369.478	95.13
369.941	97.23
370.404	96.33
370.867	100.53
371.331	104.43
371.794	113.93
372.257	108.83
372.72	117.73
373.183	111.33
373.646	104.13
374.109	104.93
374.572	106.23
375.035	109.23
375.497	109.73
375.96	100.03
376.423	101.33
376.886	113.63
377.349	106.83
377.811	102.13
378.274	106.73
378.737	111.73
379.199	108.83
379.662	110.93
380.125	115.33
380.587	124.23
381.05	125.03
381.512	132.63
381.975	136.73
382.437	136.23
382.9	132.43
383.362	135.23
383.825	146.63
384.287	151.63
384.75	141.63
385.212	139.03
385.674	144.13
386.136	141.83
386.599	125.63
387.061	134.83
387.523	134.23
387.985	139.23
388.447	147.33
388.91	149.13
389.372	164.13
389.834	149.93
390.296	148.33
390.758	160.33
391.22	176.43
391.682	213.83
392.144	302.83
392.606	237.33
393.068	170.33
393.529	170.13
393.991	158.73
394.453	153.23
394.915	157.13
395.377	203.33
395.838	223.03
396.3	157.23
396.762	142.23
397.224	137.53
397.685	131.53
398.147	131.73
398.608	132.33
399.07	128.03
399.531	141.93
399.993	140.83
400.454	154.43
400.916	150.93
401.377	148.43
401.839	156.13
402.3	153.93
402.762	168.83
403.223	179.03
403.684	176.73
404.145	156.53
404.607	160.23
405.068	169.43
405.529	175.13
405.99	194.83
406.451	176.43
406.913	181.93
407.374	172.33
407.835	163.63
408.296	168.73
408.757	182.33
409.218	194.33
409.679	188.53
410.14	177.83
410.601	183.43
411.062	195.93
411.522	197.63
411.983	199.93
412.444	184.23
412.905	183.23
413.366	182.83
413.826	196.63
414.287	212.13
414.748	263.33
415.208	253.73
415.669	213.63
416.13	208.13
416.59	205.73
417.051	219.83
417.511	229.63
417.972	237.33
418.432	254.63
418.893	299.33
419.353	256.23
419.814	205.23
420.274	195.23
420.734	185.53
421.195	199.03
421.655	196.83
422.115	201.73
422.576	196.53
423.036	200.53
423.496	211.53
423.956	218.13
424.416	237.83
424.876	280.33
425.336	266.83
425.797	271.53
426.257	263.63
426.717	244.93
427.177	239.03
427.637	227.43
428.097	247.43
428.556	253.53
429.016	277.63
429.476	276.23
429.936	285.93
430.396	289.63
430.856	304.33
431.315	325.73
431.775	366.63
432.235	389.73
432.694	356.13
433.154	372.63
433.614	400.83
434.073	344.23
434.533	294.03
434.993	285.43
435.452	290.23
435.912	301.33
436.371	294.23
436.83	291.13
437.29	277.33
437.749	255.53
438.209	255.53
438.668	278.03
439.127	303.83
439.587	272.23
440.046	254.63
440.505	269.53
440.964	287.83
441.424	333.13
441.883	317.23
442.342	267.33
442.801	229.43
443.26	225.43
443.719	226.83
444.178	226.73
444.637	211.33
445.096	218.83
445.555	227.93
446.014	230.33
446.473	234.83
446.932	246.53
447.391	235.63
447.849	232.83
448.308	218.63
448.767	233.23
449.226	239.43
449.685	240.23
450.143	259.53
450.602	248.33
451.061	235.53
451.519	241.33
451.978	231.63
452.436	241.43
452.895	245.13
453.353	264.23
453.812	240.93
454.27	242.73
454.729	238.63
455.187	246.33
455.646	250.33
456.104	257.93
456.562	264.43
457.021	274.83
457.479	269.53
457.937	273.03
458.395	267.43
458.854	254.73
459.312	255.83
459.77	276.63
460.228	266.63
460.686	238.13
461.144	258.43
461.602	259.33
462.06	251.43
462.518	255.43
462.976	258.63
463.434	260.43
463.892	269.73
464.35	281.73
464.808	291.93
465.266	271.63
465.724	274.23
466.181	275.03
466.639	268.03
467.097	294.43
467.555	300.13
468.012	313.93
468.47	319.03
468.928	337.93
469.385	349.53
469.843	344.33
470.3	359.33
470.758	374.93
471.215	393.73
471.673	420.53
472.13	418.33
472.588	430.53
473.045	379.63
473.503	388.83
473.96	400.53
474.417	413.03
474.875	440.93
475.332	490.33
475.789	470.73
476.246	479.73
476.704	496.83
477.161	522.33
477.618	536.73
478.075	563.53
478.532	632.63
478.989	703.33
479.446	825.43
479.903	779.73
480.36	825.83
480.817	867.73
481.274	973.73
481.731	1079.53
482.188	1166.53
482.645	1310.43
483.102	1405.63
483.558	1543.43
484.015	1600.43
484.472	1570.03
484.929	1524.63
485.385	1479.43
485.842	1429.43
486.299	1371.83
486.755	1314.13
487.212	1101.93
487.668	929.23
488.125	857.13
488.582	787.33
489.038	749.03
489.494	717.03
489.951	685.73
490.407	664.13
490.864	653.73
491.32	646.53
491.776	647.63
492.233	651.93
492.689	620.33
493.145	615.83
493.602	604.53
494.058	624.23
494.514	618.83
494.97	644.03
495.426	656.73
495.882	625.83
496.338	626.63
496.794	619.23
497.251	620.13
497.707	634.73
498.163	639.93
498.618	645.63
499.074	653.93
499.53	676.83
499.986	675.03
500.442	652.83
500.898	642.73
501.354	628.93
501.809	641.83
502.265	655.93
502.721	666.23
503.177	687.23
503.632	664.63
504.088	694.43
504.543	717.53
504.999	712.43
505.455	665.83
505.91	639.13
506.366	635.73
506.821	627.73
507.277	632.83
507.732	632.83
508.187	630.13
508.643	635.03
509.098	641.53
509.553	673.73
510.009	664.13
510.464	675.03
510.919	696.03
511.375	699.93
511.83	705.93
512.285	723.93
512.74	757.43
513.195	788.73
513.65	785.13
514.105	767.53
514.56	786.43
515.015	797.13
515.47	810.13
515.925	798.33
516.38	785.93
516.835	786.63
517.29	790.53
517.745	776.13
518.2	771.93
518.655	758.83
519.109	748.83
519.564	752.43
520.019	735.43
520.474	739.53
520.928	723.53
521.383	719.73
521.838	715.33
522.292	724.63
522.747	716.73
523.201	705.23
523.656	701.13
524.11	704.43
524.565	697.23
525.019	695.03
525.474	704.93
525.928	705.23
526.382	705.33
526.837	698.83
527.291	702.03
527.745	708.73
528.2	701.43
528.654	690.03
529.108	691.23
529.562	690.83
530.016	691.73
530.47	700.13
530.925	694.73
531.379	700.13
531.833	709.03
532.287	706.53
532.741	695.43
533.195	714.23
533.649	723.23
534.103	724.73
534.556	714.03
535.01	719.63
535.464	703.33
535.918	721.83
536.372	721.23
536.826	723.33
537.279	710.73
537.733	720.43
538.187	719.03
538.64	723.63
539.094	730.13
539.548	730.93
540.001	730.93
540.455	728.23
540.908	741.53
541.362	747.63
541.815	753.23
542.269	764.43
542.722	767.73
543.175	774.83
543.629	778.23
544.082	788.33
544.536	788.83
544.989	795.73
545.442	807.83
545.895	796.03
546.349	800.03
546.802	807.93
547.255	805.83
547.708	803.63
548.161	823.13
548.614	831.03
549.067	832.03
549.52	822.93
549.973	822.03
550.426	815.13
550.879	794.93
551.332	806.33
551.785	798.13
552.238	825.43
552.691	825.63
553.144	838.33
553.596	850.93
554.049	872.13
554.502	894.53
554.955	924.33
555.407	909.63
555.86	905.63
556.313	898.43
556.765	888.33
557.218	887.53
557.67	894.23
558.123	886.93
558.576	876.73
559.028	885.13
559.48	886.33
559.933	881.93
560.385	846.33
560.838	814.63
561.29	802.23
561.742	791.73
562.195	773.23
562.647	781.03
563.099	780.33
563.551	783.53
564.004	789.13
564.456	785.73
564.908	767.53
565.36	757.93
565.812	749.63
566.264	736.73
566.716	736.13
567.168	727.23
567.62	732.93
568.072	723.63
568.524	701.43
568.976	697.63
569.428	679.93
569.88	685.43
570.332	679.63
570.784	690.03
571.235	693.03
571.687	702.33
572.139	708.23
572.59	717.63
573.042	715.83
573.494	722.13
573.945	711.83
574.397	687.73
574.849	699.93
575.3	693.33
575.752	684.23
576.203	685.63
576.655	683.53
577.106	679.23
577.557	680.03
578.009	678.43
578.46	670.73
578.912	674.13
579.363	675.33
579.814	676.43
580.265	679.83
580.717	671.83
581.168	679.33
581.619	691.53
582.07	688.03
582.521	682.33
582.972	674.63
583.423	687.33
583.875	690.33
584.326	706.13
584.777	750.63
585.227	833.13
585.678	918.73
586.129	1005.43
586.58	1072.33
587.031	1157.83
587.482	1305.53
587.933	1488.53
588.384	1297.03
588.834	977.93
589.285	805.83
589.736	791.83
590.186	790.63
590.637	772.53
591.088	759.13
591.538	749.83
591.989	741.83
592.439	731.33
592.89	730.53
593.34	710.73
593.791	723.33
594.241	720.63
594.692	730.33
595.142	712.03
595.593	711.73
596.043	726.03
596.493	723.53
596.943	723.53
597.394	734.83
597.844	723.23
598.294	739.33
598.744	769.83
599.195	790.93
599.645	822.53
600.095	863.73
600.545	926.43
600.995	983.63
601.445	1046.63
601.895	1094.13
602.345	1142.63
602.795	1124.73
603.245	1086.63
603.695	1023.63
604.145	960.93
604.594	911.13
605.044	862.23
605.494	805.03
605.944	754.43
606.393	743.53
606.843	744.83
607.293	745.93
607.743	746.23
608.192	759.33
608.642	770.13
609.091	770.43
609.541	786.53
609.99	786.13
610.44	786.33
610.889	737.33
611.339	721.03
611.788	698.43
612.238	710.63
612.687	737.23
613.136	730.13
613.586	744.73
614.035	756.03
614.484	769.43
614.933	770.73
615.383	760.53
615.832	753.03
616.281	735.43
616.73	695.03
617.179	671.83
617.628	665.23
618.077	650.83
618.526	632.23
618.975	628.63
619.424	630.93
619.873	629.23
620.322	625.33
620.771	615.63
621.22	620.33
621.669	605.43
622.118	603.63
622.567	595.73
623.015	587.63
623.464	578.43
623.913	573.63
624.361	554.13
624.81	550.13
625.259	559.43
625.707	565.93
626.156	564.23
626.604	576.53
627.053	569.83
627.501	575.43
627.95	578.33
628.398	587.83
628.847	578.93
629.295	575.83
629.744	577.53
630.192	582.93
630.64	577.73
631.089	571.43
631.537	588.53
631.985	596.93
632.433	611.23
632.881	624.13
633.33	679.93
633.778	655.73
634.226	581.53
634.674	590.83
635.122	593.03
635.57	604.23
636.018	639.13
636.466	597.93
636.914	563.73
637.362	577.43
637.81	583.03
638.258	594.13
638.705	578.73
639.153	621.13
639.601	630.53
640.049	654.73
640.497	679.33
640.944	694.73
641.392	653.13
641.84	620.13
642.287	598.83
642.735	577.63
643.182	573.83
643.63	580.03
644.078	583.43
644.525	593.43
644.973	611.53
645.42	613.73
645.867	634.03
646.315	648.23
646.762	675.03
647.21	705.23
647.657	726.03
648.104	767.83
648.551	786.43
648.999	847.13
649.446	938.03
649.893	1026.13
650.34	1176.73
650.787	1417.63
651.234	1766.93
651.682	2312.33
652.129	3173.73
652.576	4580.03
653.023	6718.53
653.47	9174.73
653.917	11389.83
654.363	13053.53
654.81	14370.23
655.257	13632.23
655.704	8946.53
656.151	5313.43
656.598	3429.33
657.044	2440.83
657.491	1883.33
657.938	1498.73
658.385	1254.23
658.831	1101.03
659.278	972.13
659.724	867.53
660.171	803.23
660.618	736.53
661.064	700.93
661.511	676.43
661.957	665.23
662.404	649.43
662.85	651.23
663.296	635.03
663.743	572.93
664.189	548.73
664.635	543.73
665.082	540.03
665.528	540.73
665.974	519.73
666.42	525.13
666.867	518.03
667.313	504.53
667.759	487.73
668.205	484.13
668.651	498.03
669.097	495.53
669.543	510.33
669.989	483.63
670.435	458.83
670.881	450.33
671.327	455.43
671.773	483.83
672.219	492.73
672.665	558.63
673.11	588.83
673.556	633.83
674.002	676.33
674.448	663.43
674.893	552.33
675.339	478.93
675.785	438.93
676.23	428.93
676.676	404.13
677.122	389.83
677.567	379.43
678.013	377.43
678.458	355.23
678.904	370.13
679.349	356.33
679.794	363.03
680.24	362.63
680.685	346.23
681.131	357.43
681.576	362.03
682.021	357.33
682.466	353.13
682.912	353.33
683.357	357.93
683.802	382.23
684.247	410.63
684.692	458.73
685.137	503.03
685.583	539.83
686.028	562.23
686.473	527.73
686.918	449.53
687.363	427.03
687.807	399.93
688.252	372.63
688.697	358.83
689.142	345.23
689.587	344.23
690.032	331.73
690.477	353.63
690.921	361.33
691.366	383.93
691.811	412.23
692.255	446.03
692.7	473.53
693.145	518.53
693.589	728.33
694.034	1174.13
694.478	1578.43
694.923	1742.33
695.367	2261.03
695.812	1208.53
696.256	504.73
696.701	377.43
697.145	344.33
697.59	335.33
698.034	325.73
698.478	338.73
698.922	328.03
699.367	337.13
699.811	342.43
700.255	360.93
700.699	394.03
701.143	435.43
701.588	487.63
702.032	530.73
702.476	514.43
702.92	503.03
703.364	506.13
703.808	664.23
704.252	1076.23
704.696	1487.33
705.14	1693.93
705.584	2148.53
706.027	1075.03
706.471	526.73
706.915	395.03
707.359	353.83
707.803	322.33
708.246	317.03
708.69	317.83
709.134	324.73
709.577	309.43
710.021	321.53
710.465	310.93
710.908	301.13
711.352	309.03
711.795	322.23
712.239	355.93
712.682	392.03
713.126	428.13
713.569	472.93
714.012	370.13
714.456	320.33
714.899	313.93
715.342	278.03
715.786	277.13
716.229	263.03
716.672	256.73
717.115	261.43
717.558	255.43
718.002	251.73
718.445	265.83
718.888	294.83
719.331	294.93
719.774	309.83
720.217	308.23
720.66	280.83
721.103	271.63
721.546	255.53
721.989	254.13
722.432	237.03
722.874	237.13
723.317	234.13
723.76	238.43
724.203	267.33
724.645	328.23
725.088	464.33
725.531	587.03
725.974	652.03
726.416	558.43
726.859	306.33
727.301	249.63
727.744	239.63
728.187	236.63
728.629	249.63
729.071	245.43
729.514	266.23
729.956	287.73
730.399	289.23
730.841	292.43
731.283	275.13
731.726	268.43
732.168	265.33
732.61	271.13
733.053	292.03
733.495	324.23
733.937	355.23
734.379	397.33
734.821	447.13
735.263	561.13
735.705	867.03
736.148	1653.83
736.59	2626.33
737.032	3059.23
737.474	2486.13
737.916	826.23
738.357	433.03
738.799	327.03
739.241	299.83
739.683	291.03
740.125	292.73
740.567	301.33
741.008	320.03
741.45	322.93
741.892	328.43
742.334	349.33
742.775	363.63
743.217	343.23
743.658	269.23
744.1	255.53
744.542	262.03
744.983	320.73
745.425	347.23
745.866	345.23
746.307	294.63
746.749	289.63
747.19	330.53
747.632	471.53
748.073	929.43
748.514	1934.43
748.956	2873.53
749.397	3634.03
749.838	3013.23
750.279	2949.33
750.72	1485.23
751.162	550.53
751.603	328.23
752.044	260.23
752.485	218.93
752.926	211.83
753.367	204.13
753.808	194.03
754.249	192.23
754.69	188.43
755.131	183.43
755.572	189.93
756.013	183.53
756.453	191.73
756.894	191.13
757.335	193.13
757.776	199.43
758.216	194.43
758.657	196.73
759.098	195.73
759.538	230.13
759.979	267.93
760.42	388.43
760.86	757.43
761.301	1936.43
761.741	4558.93
762.182	6370.73
762.622	4487.63
763.063	1313.83
763.503	551.23
763.943	355.93
764.384	347.93
764.824	407.33
765.264	428.73
765.705	297.73
766.145	210.13
766.585	194.23
767.025	188.33
767.465	190.43
767.906	243.43
768.346	311.13
768.786	337.73
769.226	271.13
769.666	332.53
770.106	653.83
770.546	1630.93
770.986	2660.73
771.426	2366.13
771.866	795.53
772.306	332.03
772.745	210.23
773.185	180.53
773.625	171.93
774.065	171.43
774.505	193.23
774.944	317.83
775.384	673.93
775.824	1196.33
776.263	1153.83
776.703	501.53
777.142	221.73
777.582	160.23
778.021	136.93
778.461	141.33
778.9	144.03
779.34	136.13
779.779	115.33
780.219	107.43
780.658	114.93
781.097	113.23
781.537	117.83
781.976	108.93
782.415	107.63
782.855	102.53
783.294	102.03
783.733	111.23
784.172	110.53
784.611	112.63
785.05	112.83
785.489	112.73
785.928	121.53
786.367	125.83
786.806	112.13
787.245	137.23
787.684	138.03
788.123	150.73
788.562	137.93
789.001	129.33
789.44	117.63
789.879	120.83
790.317	118.23
790.756	128.23
791.195	132.13
791.634	148.33
792.072	208.53
792.511	386.03
792.95	1069.93
793.388	2149.63
793.827	1915.43
794.265	691.83
794.704	283.63
795.142	186.73
795.581	154.93
796.019	137.83
796.458	129.33
796.896	120.43
797.334	137.73
797.773	167.53
798.211	231.03
798.649	459.13
799.087	1050.73
799.526	1619.93
799.964	2040.63
800.402	1994.83
800.84	771.33
801.278	315.63
801.716	195.03
802.154	159.03
802.592	145.63
803.03	150.53
803.468	144.23
803.906	145.13
804.344	155.13
804.782	136.93
805.22	132.23
805.658	135.73
806.096	150.13
806.533	155.83
806.971	179.43
807.409	218.93
807.847	326.93
808.284	692.83
808.722	1929.13
809.16	3327.13
809.597	3225.03
810.035	5479.63
810.472	5702.73
810.91	2081.93
811.347	800.83
811.785	396.33
812.222	253.23
812.66	198.93
813.097	169.13
813.535	144.93
813.972	125.83
814.409	126.43
814.846	118.93
815.284	106.43
815.721	106.93
816.158	107.93
816.595	125.13
817.032	186.03
817.47	201.23
817.907	171.03
818.344	155.83
818.781	118.63
819.218	106.23
819.655	120.63
820.092	193.73
820.529	216.43
820.966	180.63
821.403	134.83
821.839	108.73
822.276	94.23
822.713	120.23
823.15	136.93
823.587	122.53
824.023	154.53
824.46	317.13
824.897	935.63
825.333	1355.43
825.77	573.73
826.206	233.03
826.643	139.63
827.08	96.63
827.516	83.93
827.953	73.13
828.389	73.53
828.825	69.03
829.262	60.83
829.698	61.13
830.135	62.03
830.571	63.43
831.007	66.53
831.443	67.03
831.88	65.23
832.316	66.63
832.752	61.03
833.188	67.03
833.624	68.63
834.06	67.33
834.497	69.43
834.933	70.33
835.369	74.83
835.805	67.83
836.241	77.33
836.677	89.53
837.112	89.73
837.548	108.53
837.984	139.33
838.42	207.93
838.856	517.83
839.292	1548.93
839.727	2296.13
840.163	1068.03
840.599	963.63
841.034	2083.23
841.47	2096.23
841.906	769.33
842.341	341.73
842.777	232.43
843.212	307.43
843.648	301.63
844.083	152.13
844.519	95.93
844.954	73.03
845.39	61.33
845.825	57.53
846.261	60.63
846.696	56.23
847.131	58.73
847.566	58.83
848.002	52.93
848.437	59.33
848.872	59.23
849.307	54.13
849.742	90.83
850.177	186.43
850.613	571.13
851.048	872.73
851.483	379.83
851.918	158.03
852.353	88.83
852.788	65.13
853.223	62.93
853.657	61.03
854.092	53.43
854.527	41.73
854.962	41.23
855.397	45.03
855.832	51.73
856.266	43.83
856.701	37.13
857.136	34.93
857.57	41.43
858.005	54.83
858.44	60.73
858.874	44.83
859.309	50.63
859.743	39.23
860.178	45.93
860.612	41.13
861.047	58.13
861.481	69.23
861.915	67.63
862.35	44.03
862.784	29.73
863.218	36.43
863.653	34.93
864.087	45.03
864.521	55.13
864.955	77.53
865.39	157.83
865.824	177.83
866.258	121.23
866.692	164.83
867.126	171.53
867.56	108.03
867.994	53.43
868.428	39.13
868.862	45.93
869.296	54.73
869.73	61.93
870.164	57.93
870.598	49.33
871.031	41.83
871.465	30.23
871.899	28.73
872.333	28.13
872.766	27.93
873.2	21.43
873.634	37.83
874.067	27.93
874.501	31.63
874.935	38.23
875.368	33.13
875.802	26.43
876.235	21.73
876.669	21.53
877.102	21.33
877.535	32.33
877.969	24.53
878.402	30.53
878.836	19.23
879.269	24.43
879.702	23.33
880.135	21.63
880.569	22.03
881.002	28.53
881.435	25.43
881.868	18.23
882.301	26.23
882.734	16.83
883.167	19.33
883.601	21.93
884.034	21.93
884.467	14.93
884.899	19.53
885.332	20.33
885.765	17.83
886.198	12.33
886.631	17.33
887.064	17.03
887.497	22.83
887.929	23.53
888.362	14.13
888.795	14.13
889.228	25.83
889.66	20.93
890.093	18.33
890.526	22.33
890.958	19.63
891.391	16.83
891.823	25.33
892.256	14.03
892.688	13.43
893.121	20.13
893.553	19.33
893.985	22.13
894.418	18.93
894.85	15.93
895.282	16.73
895.715	14.93
896.147	15.43
896.579	18.63
897.011	15.63
897.444	17.63
897.876	15.63
898.308	17.73
898.74	13.23
899.172	15.73
899.604	23.33
900.036	15.03
900.468	14.33
900.9	19.73
901.332	19.53
901.764	15.23
902.196	16.43
902.628	19.63
903.06	15.03
903.491	24.43
903.923	22.03
904.355	22.53
904.787	27.03
905.218	20.53
905.65	23.53
906.082	14.03
906.513	10.03
906.945	15.73
907.376	9.73
907.808	17.53
908.239	21.63
908.671	16.13
909.102	24.03
909.534	20.73
909.965	46.73
910.397	94.23
910.828	317.03
911.259	471.53
911.691	220.13
912.122	104.93
912.553	48.03
912.984	27.03
913.415	26.83
913.847	23.33
914.278	15.33
914.709	13.33
915.14	16.73
915.571	14.73
916.002	13.83
916.433	18.23
916.864	16.33
917.295	10.43
917.726	18.63
918.157	10.43
918.587	33.23
919.018	24.43
919.449	22.13
919.88	21.73
920.311	33.33
920.741	49.63
921.172	165.83
921.603	148.93
922.033	74.73
922.464	49.33
922.895	21.43
923.325	22.53
923.756	16.43
924.186	15.93
924.617	26.03
925.047	45.43
925.478	60.43
925.908	43.03
926.338	26.23
926.769	25.43
927.199	20.93
927.629	14.03
928.06	16.83
928.49	13.23
928.92	13.73
929.35	12.33
929.78	9.23
930.21	9.93
930.641	9.73
931.071	5.33
931.501	0.33
931.931	11.53
932.361	5.23
932.791	4.53
933.221	3.33
933.651	6.83
934.08	15.83
934.51	31.23
934.94	11.93
935.37	8.43
935.8	13.63
936.229	8.63
936.659	6.43
937.089	3.93
937.519	12.33
937.948	25.43
938.378	18.43
938.807	2.03
939.237	1.43
939.666	6.23
940.096	-2.07
940.525	5.93
940.955	3.53
941.384	6.13
941.814	-6.07
942.243	-2.17
942.672	-0.77
943.102	-0.67
943.531	2.93
943.96	6.33
944.39	0.13
944.819	3.13
945.248	3.13
945.677	1.73
946.106	5.63
946.535	3.03
946.964	-2.37
947.393	1.53
947.822	4.23
948.251	-2.67
948.68	2.93
949.109	5.33
949.538	1.73
949.967	-4.57
950.396	3.03
950.825	3.03
951.254	-2.97
951.682	-7.77
952.111	6.53
952.54	5.83
952.969	-0.47
953.397	-3.37
953.826	3.43
954.254	-1.67
954.683	9.23
955.112	-5.67
955.54	2.13
955.969	-2.27
956.397	-0.27
956.826	-3.67
957.254	5.03
957.682	2.93
958.111	6.33
958.539	-1.57
958.967	0.03
959.396	-0.27
959.824	2.33
960.252	3.63
960.68	0.43
961.109	-1.67
961.537	-2.17
961.965	-1.57
962.393	3.33
962.821	-1.77
963.249	1.93
963.677	4.23
964.105	1.03
964.533	41.93
964.961	41.13
965.389	13.63
965.817	5.53
966.245	0.83
966.672	-6.57
967.1	-12.77
967.528	3.03
967.956	-3.97
968.383	2.63
968.811	-5.97
969.239	-3.77
969.666	-4.07
970.094	1.93
970.522	2.33
970.949	1.53
971.377	-5.07
971.804	-1.97
972.232	-2.07
972.659	-3.47
973.087	1.33
973.514	-0.57
973.941	-4.17
974.369	1.23
974.796	0.23
975.223	4.93
975.651	-3.37
976.078	0.93
976.505	-4.57
976.932	6.03
977.359	20.03
977.786	18.63
978.214	1.53
978.641	3.43
979.068	-5.47
979.495	-4.47
979.922	-2.37
980.349	-2.07
980.776	-2.87
981.202	-1.67
981.629	3.13
982.056	1.43
982.483	0.63
982.91	6.93
983.337	-5.57
983.763	-1.57
984.19	-4.97
984.617	0.43
985.043	-10.57
985.47	0.13
985.897	2.13
986.323	-3.17
986.75	7.03
987.176	-2.27
987.603	-3.97
988.029	-1.97
988.456	0.73
988.882	6.33
989.308	-5.57
989.735	-1.37
990.161	3.03
990.587	-3.97
991.014	-0.07
991.44	5.63
991.866	-2.07
992.292	-4.57
992.719	-1.97
993.145	-0.27
993.571	-12.17
993.997	-3.27
994.423	-5.97
994.849	-4.17
995.275	-6.37
995.701	-1.37
996.127	-0.57
996.553	0.03
996.979	-3.67
997.405	4.73
997.83	-3.37
998.256	-8.57
998.682	-5.87
999.108	-10.87
999.534	-1.87
999.959	0.13
1000.385	-7.77
1000.811	-0.67
1001.236	-5.97
1001.662	-3.47
1002.087	-7.47
1002.513	-3.37
1002.938	2.93
1003.364	-4.07
1003.789	-6.27
1004.215	-1.47
1004.64	-3.57
1005.066	-1.87
1005.491	-2.87
1005.916	-4.07
1006.342	-4.37
1006.767	-9.47
1007.192	3.83
1007.617	-4.87
1008.042	-4.77
1008.468	-4.07
1008.893	-8.27
1009.318	-6.47
1009.743	0.93
1010.168	5.13
1010.593	1.03
1011.018	-7.57
1011.443	0.63
1011.868	5.23
1012.293	-2.37
1012.718	-7.77
1013.143	-2.87
1013.567	2.33
1013.992	-1.87
1014.417	-9.17
1014.842	-1.37
1015.267	-5.57
1015.691	-4.37
1016.116	1.03
1016.541	-2.07
1016.965	1.63
1017.39	2.93
1017.814	-0.17
1018.239	-2.87
1018.663	-13.37
1019.088	-9.57
1019.512	-8.17
1019.937	-4.57
1020.361	-6.97
1020.785	-16.77
1021.21	-11.87
1021.634	-2.77
1022.058	-1.57
1022.483	5.63
1022.907	-4.07
1023.331	-5.87
1023.755	1.13
1024.179	-2.47
1024.604	-8.97
1025.028	-9.17
1025.452	-6.77
1025.876	-0.77
1026.3	2.53
1026.724	-8.67
1027.148	-7.67
1027.572	-12.27
1027.996	-5.87
1028.42	-4.57
1028.843	-8.57
1029.267	-1.97
1029.691	-3.17
1030.115	-11.27
1030.539	-7.17
1030.962	-2.17
1031.386	-8.37
1031.81	-5.77
1032.233	1.03
1032.657	-4.47
1033.08	-3.47
1033.504	-0.17
1033.927	3.23
1034.351	3.93
1034.774	0.63
1035.198	-0.07
1035.621	-5.77
1036.045	-7.27
1036.468	-4.17
1036.891	-5.07
1037.315	-9.27
1037.738	-12.07
1038.161	5.03
1038.584	-7.17
1039.008	-5.17
1039.431	-6.17
1039.854	-1.57
1040.277	-6.17
1040.7	-8.57
1041.123	-1.97
1041.546	-6.17
1041.969	-2.17
1042.392	-7.27
1042.815	0.23
1043.238	1.43
1043.661	3.33
1044.084	-11.17
1044.507	-2.57
1044.93	-2.47
1045.352	-7.17
1045.775	-5.97
1046.198	-5.07
1046.621	0.43
1047.043	0.43
1047.466	8.13
1047.889	-8.67
1048.311	1.03
1048.734	-2.57
1049.156	-2.07
1049.579	-2.07
1050.001	2.03
1050.424	2.33
1050.846	-4.17
1051.269	-2.67
1051.691	-6.97
1052.113	-7.87
1052.536	-4.67
1052.958	-0.57
1053.38	-2.17
1053.802	-8.47
1054.225	4.03
1054.647	-7.07
1055.069	-3.67
1055.491	2.43
1055.913	-10.67
1056.335	-6.27
1056.757	-0.57
1057.179	-7.57
1057.601	-10.37
1058.023	-3.67
1058.445	-0.27
1058.867	-2.17
1059.289	-3.27
1059.711	-5.87
1060.133	-8.17
1060.555	-7.67
1060.976	-8.27
1061.398	-1.87
1061.82	-4.17
1062.241	-12.27
1062.663	-8.77
1063.085	-8.37
1063.506	2.33
1063.928	-3.57
1064.35	-3.37
1064.771	-15.07
1065.193	-7.17
1065.614	-6.27
1066.035	0.53
1066.457	-5.37
1066.878	5.33
1067.3	-5.47
1067.721	-0.97
1068.142	0.73
1068.564	-1.47
1068.985	-12.37
1069.406	-1.67
1069.827	-1.67
1070.248	-0.87
1070.67	-4.17
1071.091	-8.57
1071.512	-9.07
1071.933	-3.47
1072.354	-10.17
1072.775	-7.17
1073.196	-5.37
1073.617	0.03
1074.038	-2.77
1074.459	-5.57
1074.88	-3.77
1075.3	-3.27
1075.721	-4.37
1076.142	-3.47
1076.563	2.23
1076.983	-9.37
1077.404	-3.17
1077.825	-8.87
1078.246	2.33
1078.666	-12.17
1079.087	-2.57
1079.507	-9.27
1079.928	4.03
1080.348	-0.47
1080.769	-4.97
1081.189	-3.67
1081.61	-6.77
1082.03	-5.77
1082.451	-11.07
1082.871	-5.67
1083.291	-11.87
1083.711	-11.47
1084.132	-4.07
1084.552	-6.37
1084.972	1.93
1085.392	-11.97
1085.813	-12.47
1086.233	-8.47
1086.653	-9.07
1087.073	-0.97
1087.493	-9.27
1087.913	-14.57
1088.333	-10.27
1088.753	-8.77
1089.173	2.73
1089.593	-8.67
1090.013	1.43
1090.433	-1.97
1090.852	-2.67
1091.272	-4.77
1091.692	-0.57
1092.112	-6.37
1092.531	-13.37
1092.951	-15.87
1093.371	-6.17
1093.79	2.73
1094.21	-9.87
1094.63	-7.07
1095.049	-6.17
1095.469	-2.57
1095.888	-3.77
1096.308	0.93
1096.727	2.13
1097.146	-12.17
1097.566	-4.27
1097.985	-5.97
1098.405	-1.67
1098.824	-10.07
1099.243	-9.57
1099.662	-9.57
1100.082	-0.47
1100.501	-1.57
1100.92	-7.67
1101.339	2.53
1101.758	-4.27
