Data from 20171114-ORNL-Ar_H_NY_Subt18_08-07-27-340.txt Node
Date: Tue Nov 14 08:07:27 EST 2017
User: Ender
Spectrometer: HR+D1039
Trigger mode: 0
Integration Time (sec): 2.730000E-2
Scans to average: 10
Electric dark correction enabled: true
Nonlinearity correction enabled: false
Boxcar width: 0
XAxis mode: Wavelengths
Number of Pixels in Spectrum: 2048
>>>>>Begin Spectral Data<<<<<
187.836	-8.88
188.309	-8.88
188.782	-8.88
189.255	0.32
189.728	0.82
190.201	3.92
190.674	2.02
191.147	-2.28
191.619	-8.28
192.092	6.72
192.565	5.82
193.038	-2.38
193.511	-1.28
193.984	0.52
194.456	1.22
194.929	4.72
195.402	2.42
195.874	-5.38
196.347	0.62
196.82	-7.18
197.292	6.22
197.765	-4.48
198.237	-7.08
198.71	2.32
199.182	3.22
199.655	1.22
200.127	3.72
200.6	-9.88
201.072	-3.98
201.544	-7.98
202.017	-6.18
202.489	2.02
202.961	-3.58
203.433	-4.48
203.906	-5.88
204.378	-4.58
204.85	-5.18
205.322	-2.68
205.794	-2.48
206.266	-4.98
206.739	-11.98
207.211	1.22
207.683	-1.58
208.155	-1.98
208.627	-8.18
209.099	-3.08
209.57	-7.18
210.042	-3.98
210.514	-0.28
210.986	3.52
211.458	-14.08
211.93	-1.98
212.402	-0.28
212.873	-5.58
213.345	-10.58
213.817	-6.48
214.288	-2.98
214.76	-10.08
215.232	-0.08
215.703	1.62
216.175	-6.48
216.646	-3.98
217.118	-2.98
217.589	-4.08
218.061	2.62
218.532	-7.08
219.004	-7.88
219.475	-5.48
219.946	-11.78
220.418	-4.68
220.889	2.92
221.36	-0.28
221.832	-3.28
222.303	-9.08
222.774	1.12
223.245	-9.68
223.717	-10.28
224.188	-7.48
224.659	-4.98
225.13	-7.58
225.601	-1.38
226.072	-1.88
226.543	-0.18
227.014	-5.08
227.485	-2.58
227.956	-2.28
228.427	1.82
228.898	-2.78
229.369	5.52
229.839	-0.88
230.31	-10.98
230.781	-2.58
231.252	-5.38
231.722	-5.08
232.193	-3.58
232.664	-0.68
233.135	-0.88
233.605	2.42
234.076	-7.08
234.546	-0.68
235.017	5.52
235.487	-4.18
235.958	-3.48
236.428	-4.68
236.899	-0.58
237.369	0.52
237.84	-8.48
238.31	8.92
238.78	3.72
239.251	2.12
239.721	-7.48
240.191	-3.88
240.662	-1.78
241.132	2.32
241.602	-5.18
242.072	-2.98
242.542	7.12
243.013	0.72
243.483	-0.08
243.953	1.52
244.423	-1.28
244.893	-5.08
245.363	1.22
245.833	-0.78
246.303	0.32
246.773	4.42
247.243	-3.18
247.712	-1.88
248.182	0.72
248.652	7.62
249.122	-4.08
249.592	5.92
250.061	9.22
250.531	22.42
251.001	10.82
251.471	15.72
251.94	16.22
252.41	-0.78
252.879	-6.58
253.349	11.92
253.818	13.22
254.288	-1.48
254.757	0.62
255.227	-2.38
255.696	0.52
256.166	2.92
256.635	3.42
257.105	0.02
257.574	1.72
258.043	2.12
258.513	7.42
258.982	8.42
259.451	6.22
259.92	5.22
260.389	8.42
260.859	9.82
261.328	11.32
261.797	9.32
262.266	1.02
262.735	10.42
263.204	0.52
263.673	-3.88
264.142	2.72
264.611	-4.58
265.08	-2.48
265.549	-0.78
266.018	0.52
266.487	-3.58
266.955	-8.68
267.424	-0.08
267.893	6.02
268.362	0.62
268.83	-1.78
269.299	1.02
269.768	-1.38
270.236	-0.58
270.705	0.12
271.174	-3.48
271.642	2.32
272.111	7.02
272.579	8.12
273.048	17.82
273.516	23.72
273.985	12.12
274.453	13.02
274.922	16.02
275.39	9.22
275.858	0.42
276.327	4.02
276.795	14.92
277.263	10.42
277.731	23.92
278.2	39.22
278.668	42.42
279.136	39.62
279.604	12.22
280.072	13.52
280.54	12.12
281.008	4.42
281.477	10.02
281.945	1.92
282.413	12.22
282.881	9.92
283.348	4.82
283.816	7.02
284.284	13.72
284.752	9.92
285.22	10.22
285.688	8.62
286.156	6.82
286.623	34.22
287.091	34.92
287.559	22.42
288.026	13.12
288.494	11.42
288.962	-0.68
289.429	4.72
289.897	15.52
290.364	9.72
290.832	8.02
291.3	7.02
291.767	13.92
292.234	12.62
292.702	7.62
293.169	9.72
293.637	12.22
294.104	15.52
294.571	3.12
295.039	4.52
295.506	8.52
295.973	14.22
296.44	12.22
296.908	6.42
297.375	10.92
297.842	10.62
298.309	13.12
298.776	5.72
299.243	18.62
299.71	3.42
300.177	16.42
300.644	14.42
301.111	12.12
301.578	14.62
302.045	6.82
302.512	16.82
302.979	18.02
303.446	15.12
303.913	9.52
304.379	12.12
304.846	21.32
305.313	22.92
305.78	14.42
306.246	22.52
306.713	20.32
307.18	17.72
307.646	22.92
308.113	14.62
308.579	20.12
309.046	16.52
309.512	22.42
309.979	10.52
310.445	18.52
310.912	17.62
311.378	25.92
311.845	20.12
312.311	19.52
312.777	25.22
313.244	18.12
313.71	32.62
314.176	17.92
314.642	20.12
315.109	20.32
315.575	29.82
316.041	29.52
316.507	18.42
316.973	29.12
317.439	27.82
317.905	27.92
318.371	25.92
318.837	22.92
319.303	20.02
319.769	22.92
320.235	25.22
320.701	19.12
321.167	29.12
321.633	28.42
322.099	27.52
322.564	37.52
323.03	32.32
323.496	33.52
323.962	30.62
324.427	26.32
324.893	33.02
325.359	24.72
325.824	28.02
326.29	30.22
326.755	30.72
327.221	36.02
327.686	30.92
328.152	34.82
328.617	34.12
329.083	36.42
329.548	43.02
330.014	41.42
330.479	34.82
330.944	33.82
331.41	35.12
331.875	32.62
332.34	38.12
332.805	32.62
333.271	41.72
333.736	37.62
334.201	35.32
334.666	39.92
335.131	39.72
335.596	46.12
336.061	39.02
336.526	28.52
336.991	35.92
337.456	41.82
337.921	36.42
338.386	39.22
338.851	39.12
339.316	35.82
339.781	35.32
340.246	46.82
340.711	37.92
341.175	43.02
341.64	38.42
342.105	45.52
342.569	44.62
343.034	42.92
343.499	48.72
343.963	43.82
344.428	52.62
344.893	48.72
345.357	51.82
345.822	48.12
346.286	58.92
346.751	57.32
347.215	53.12
347.679	53.72
348.144	75.22
348.608	69.92
349.073	55.82
349.537	58.92
350.001	57.32
350.465	73.22
350.93	64.72
351.394	66.82
351.858	53.12
352.322	68.02
352.786	71.12
353.25	77.62
353.715	86.22
354.179	76.72
354.643	100.22
355.107	101.52
355.571	90.62
356.035	83.72
356.498	95.92
356.962	94.82
357.426	98.42
357.89	94.02
358.354	69.92
358.818	71.72
359.281	57.72
359.745	64.92
360.209	62.22
360.673	60.12
361.136	65.42
361.6	74.12
362.064	69.02
362.527	68.82
362.991	81.92
363.454	71.22
363.918	65.32
364.381	60.62
364.845	68.92
365.308	69.02
365.772	73.42
366.235	72.22
366.698	77.62
367.162	72.32
367.625	71.82
368.088	77.92
368.552	71.82
369.015	80.52
369.478	78.82
369.941	84.92
370.404	87.52
370.867	90.32
371.331	93.12
371.794	91.72
372.257	93.62
372.72	95.72
373.183	93.82
373.646	81.72
374.109	91.92
374.572	92.62
375.035	85.52
375.497	97.22
375.96	88.52
376.423	95.52
376.886	91.92
377.349	95.22
377.811	82.92
378.274	88.72
378.737	95.32
379.199	96.72
379.662	93.02
380.125	104.32
380.587	105.42
381.05	101.22
381.512	111.32
381.975	107.82
382.437	114.72
382.9	105.22
383.362	116.62
383.825	122.22
384.287	125.42
384.75	129.02
385.212	124.72
385.674	122.22
386.136	121.62
386.599	112.52
387.061	115.92
387.523	115.32
387.985	125.42
388.447	131.02
388.91	127.82
389.372	140.32
389.834	137.22
390.296	126.52
390.758	138.62
391.22	151.42
391.682	188.52
392.144	263.22
392.606	205.02
393.068	147.42
393.529	150.32
393.991	134.52
394.453	135.02
394.915	143.12
395.377	173.32
395.838	190.32
396.3	136.72
396.762	121.82
397.224	117.32
397.685	111.12
398.147	115.22
398.608	115.52
399.07	112.42
399.531	121.72
399.993	129.22
400.454	140.12
400.916	129.62
401.377	125.22
401.839	132.12
402.3	136.02
402.762	147.52
403.223	164.72
403.684	155.82
404.145	143.92
404.607	149.12
405.068	149.02
405.529	157.52
405.99	169.62
406.451	158.52
406.913	159.62
407.374	149.22
407.835	147.02
408.296	154.22
408.757	159.72
409.218	168.32
409.679	169.62
410.14	168.62
410.601	165.22
411.062	167.92
411.522	178.42
411.983	175.52
412.444	166.32
412.905	167.52
413.366	165.72
413.826	183.62
414.287	203.82
414.748	243.72
415.208	226.12
415.669	193.72
416.13	190.62
416.59	182.82
417.051	201.22
417.511	196.72
417.972	213.82
418.432	229.92
418.893	273.82
419.353	230.12
419.814	182.62
420.274	167.92
420.734	168.52
421.195	185.02
421.655	177.82
422.115	181.12
422.576	174.62
423.036	187.42
423.496	190.82
423.956	199.52
424.416	216.02
424.876	255.02
425.336	240.12
425.797	243.42
426.257	232.92
426.717	217.02
427.177	216.32
427.637	210.12
428.097	222.52
428.556	231.22
429.016	247.82
429.476	248.02
429.936	258.32
430.396	255.92
430.856	270.32
431.315	296.52
431.775	317.02
432.235	354.52
432.694	320.62
433.154	339.42
433.614	366.42
434.073	311.52
434.533	268.52
434.993	248.72
435.452	259.02
435.912	268.52
436.371	264.22
436.83	262.02
437.29	250.02
437.749	231.72
438.209	226.72
438.668	252.82
439.127	267.52
439.587	255.82
440.046	230.22
440.505	235.02
440.964	256.32
441.424	306.62
441.883	283.32
442.342	247.52
442.801	213.72
443.26	213.52
443.719	207.02
444.178	207.52
444.637	202.22
445.096	206.82
445.555	211.82
446.014	211.92
446.473	216.02
446.932	224.72
447.391	221.02
447.849	217.12
448.308	208.32
448.767	217.82
449.226	221.02
449.685	232.02
450.143	237.32
450.602	229.52
451.061	218.42
451.519	220.52
451.978	223.72
452.436	222.92
452.895	227.12
453.353	236.62
453.812	229.42
454.27	229.22
454.729	226.92
455.187	229.62
455.646	230.32
456.104	229.42
456.562	246.22
457.021	260.22
457.479	240.02
457.937	259.52
458.395	245.82
458.854	239.12
459.312	238.32
459.77	255.22
460.228	250.52
460.686	228.42
461.144	240.22
461.602	227.72
462.06	232.22
462.518	240.02
462.976	244.62
463.434	245.32
463.892	250.12
464.35	264.22
464.808	280.82
465.266	251.52
465.724	256.22
466.181	260.52
466.639	262.02
467.097	276.12
467.555	291.82
468.012	290.12
468.47	299.12
468.928	313.52
469.385	321.02
469.843	332.32
470.3	331.02
470.758	341.32
471.215	365.82
471.673	387.22
472.13	385.22
472.588	401.52
473.045	350.92
473.503	364.82
473.96	372.22
474.417	386.12
474.875	411.12
475.332	458.72
475.789	444.42
476.246	446.42
476.704	470.32
477.161	491.32
477.618	497.12
478.075	533.12
478.532	580.32
478.989	662.82
479.446	764.92
479.903	732.82
480.36	771.82
480.817	820.72
481.274	922.12
481.731	1030.22
482.188	1126.92
482.645	1242.42
483.102	1341.72
483.558	1485.32
484.015	1531.62
484.472	1493.52
484.929	1447.72
485.385	1396.02
485.842	1372.52
486.299	1294.42
486.755	1233.52
487.212	1045.22
487.668	878.02
488.125	813.92
488.582	750.02
489.038	718.22
489.494	685.72
489.951	654.62
490.407	636.72
490.864	619.62
491.32	624.12
491.776	612.62
492.233	612.82
492.689	585.52
493.145	578.72
493.602	573.12
494.058	596.12
494.514	584.32
494.97	612.82
495.426	627.92
495.882	600.42
496.338	593.02
496.794	596.32
497.251	600.32
497.707	601.12
498.163	610.52
498.618	617.02
499.074	636.12
499.53	639.22
499.986	657.52
500.442	624.62
500.898	609.52
501.354	597.52
501.809	613.42
502.265	626.82
502.721	634.22
503.177	638.02
503.632	642.12
504.088	640.82
504.543	673.52
504.999	680.92
505.455	635.02
505.91	612.02
506.366	609.02
506.821	605.82
507.277	597.52
507.732	601.32
508.187	607.52
508.643	618.62
509.098	624.52
509.553	638.02
510.009	639.92
510.464	644.12
510.919	666.62
511.375	670.22
511.83	688.52
512.285	699.42
512.74	744.12
513.195	758.82
513.65	740.92
514.105	746.22
514.56	746.62
515.015	768.92
515.47	789.32
515.925	767.62
516.38	764.12
516.835	769.82
517.29	763.42
517.745	755.22
518.2	744.12
518.655	725.82
519.109	716.92
519.564	713.62
520.019	705.02
520.474	703.62
520.928	711.42
521.383	705.02
521.838	696.82
522.292	689.32
522.747	696.52
523.201	697.22
523.656	682.62
524.11	675.62
524.565	674.72
525.019	671.12
525.474	688.12
525.928	679.92
526.382	681.32
526.837	681.42
527.291	684.92
527.745	675.82
528.2	679.32
528.654	684.62
529.108	674.22
529.562	675.72
530.016	671.82
530.47	671.02
530.925	668.22
531.379	685.42
531.833	688.12
532.287	678.62
532.741	678.82
533.195	687.72
533.649	690.52
534.103	698.62
534.556	683.62
535.01	684.72
535.464	698.42
535.918	701.72
536.372	707.12
536.826	696.62
537.279	685.32
537.733	687.02
538.187	701.22
538.64	697.72
539.094	703.32
539.548	718.12
540.001	705.42
540.455	709.62
540.908	710.82
541.362	735.32
541.815	737.32
542.269	738.22
542.722	745.52
543.175	751.62
543.629	753.02
544.082	771.22
544.536	770.02
544.989	761.12
545.442	778.22
545.895	775.72
546.349	775.32
546.802	772.72
547.255	780.42
547.708	785.42
548.161	795.72
548.614	801.42
549.067	810.92
549.52	798.52
549.973	798.32
550.426	785.02
550.879	776.22
551.332	769.62
551.785	781.12
552.238	795.12
552.691	801.52
553.144	819.02
553.596	828.42
554.049	846.22
554.502	872.72
554.955	902.72
555.407	885.22
555.86	883.92
556.313	870.82
556.765	862.92
557.218	865.52
557.67	874.62
558.123	861.12
558.576	849.72
559.028	852.32
559.48	861.62
559.933	857.22
560.385	816.62
560.838	804.12
561.29	777.72
561.742	767.92
562.195	756.12
562.647	746.22
563.099	764.32
563.551	752.22
564.004	760.52
564.456	757.02
564.908	754.32
565.36	732.62
565.812	718.72
566.264	702.72
566.716	711.42
567.168	701.52
567.62	707.12
568.072	684.32
568.524	678.92
568.976	676.92
569.428	662.52
569.88	659.82
570.332	670.82
570.784	670.62
571.235	674.82
571.687	679.32
572.139	693.62
572.59	701.22
573.042	697.92
573.494	695.02
573.945	692.72
574.397	673.22
574.849	669.12
575.3	673.12
575.752	676.22
576.203	665.02
576.655	668.72
577.106	659.32
577.557	661.52
578.009	658.22
578.46	655.32
578.912	649.72
579.363	651.12
579.814	653.92
580.265	644.22
580.717	646.52
581.168	648.42
581.619	672.42
582.07	673.32
582.521	664.32
582.972	663.12
583.423	658.12
583.875	669.92
584.326	692.22
584.777	730.72
585.227	778.32
585.678	879.22
586.129	961.92
586.58	1017.52
587.031	1087.02
587.482	1220.92
587.933	1390.82
588.384	1219.32
588.834	929.52
589.285	794.82
589.736	760.82
590.186	767.52
590.637	752.02
591.088	733.32
591.538	735.02
591.989	714.72
592.439	716.42
592.89	711.72
593.34	696.42
593.791	693.62
594.241	692.32
594.692	697.52
595.142	680.92
595.593	680.72
596.043	695.72
596.493	704.82
596.943	703.22
597.394	714.52
597.844	698.52
598.294	723.42
598.744	741.52
599.195	764.02
599.645	805.32
600.095	842.72
600.545	904.82
600.995	958.32
601.445	1005.92
601.895	1080.62
602.345	1118.22
602.795	1098.62
603.245	1045.52
603.695	996.32
604.145	938.12
604.594	900.72
605.044	842.32
605.494	784.42
605.944	747.82
606.393	727.72
606.843	716.12
607.293	715.52
607.743	731.02
608.192	729.22
608.642	745.02
609.091	760.12
609.541	757.92
609.99	753.22
610.44	751.92
610.889	720.22
611.339	688.82
611.788	673.72
612.238	692.62
612.687	717.32
613.136	710.62
613.586	718.62
614.035	727.52
614.484	742.42
614.933	746.82
615.383	736.62
615.832	721.92
616.281	710.52
616.73	675.62
617.179	649.02
617.628	634.62
618.077	630.22
618.526	618.82
618.975	600.32
619.424	616.62
619.873	613.12
620.322	603.62
620.771	605.12
621.22	592.32
621.669	588.92
622.118	579.32
622.567	578.32
623.015	562.32
623.464	553.72
623.913	549.22
624.361	547.42
624.81	541.42
625.259	544.02
625.707	547.42
626.156	537.82
626.604	556.32
627.053	552.52
627.501	554.32
627.95	559.52
628.398	572.12
628.847	554.42
629.295	569.52
629.744	566.92
630.192	554.42
630.64	552.22
631.089	550.02
631.537	562.22
631.985	565.02
632.433	574.32
632.881	582.22
633.33	623.72
633.778	606.82
634.226	557.92
634.674	560.62
635.122	560.42
635.57	576.72
636.018	602.62
636.466	570.52
636.914	555.32
637.362	559.82
637.81	568.62
638.258	568.62
638.705	568.72
639.153	597.82
639.601	612.72
640.049	634.62
640.497	670.02
640.944	694.32
641.392	635.72
641.84	608.52
642.287	570.22
642.735	565.72
643.182	568.22
643.63	565.42
644.078	562.52
644.525	586.72
644.973	580.42
645.42	586.72
645.867	604.92
646.315	618.72
646.762	646.92
647.21	679.92
647.657	703.22
648.104	742.42
648.551	766.02
648.999	813.22
649.446	894.42
649.893	986.62
650.34	1133.32
650.787	1363.72
651.234	1692.82
651.682	2206.42
652.129	3041.02
652.576	4396.82
653.023	6464.72
653.47	8894.52
653.917	11057.82
654.363	12712.22
654.81	14038.62
655.257	13341.72
655.704	8700.32
656.151	5119.02
656.598	3323.82
657.044	2344.22
657.491	1806.92
657.938	1444.72
658.385	1203.32
658.831	1055.82
659.278	939.12
659.724	826.42
660.171	782.52
660.618	710.12
661.064	669.62
661.511	660.92
661.957	640.22
662.404	624.82
662.85	640.42
663.296	612.32
663.743	546.52
664.189	529.12
664.635	521.62
665.082	522.82
665.528	513.72
665.974	508.22
666.42	497.22
666.867	510.82
667.313	479.02
667.759	476.12
668.205	469.02
668.651	474.32
669.097	475.42
669.543	482.72
669.989	458.82
670.435	440.22
670.881	441.22
671.327	436.72
671.773	468.52
672.219	487.62
672.665	552.82
673.11	581.52
673.556	620.92
674.002	662.92
674.448	643.92
674.893	542.22
675.339	455.22
675.785	436.92
676.23	407.72
676.676	383.12
677.122	379.02
677.567	367.32
678.013	365.22
678.458	354.32
678.904	349.02
679.349	338.92
679.794	350.62
680.24	343.02
680.685	347.02
681.131	346.82
681.576	333.92
682.021	346.62
682.466	335.32
682.912	349.42
683.357	348.22
683.802	385.62
684.247	413.62
684.692	455.92
685.137	488.92
685.583	528.02
686.028	563.02
686.473	518.12
686.918	454.12
687.363	414.42
687.807	388.12
688.252	363.02
688.697	353.32
689.142	331.12
689.587	333.52
690.032	305.22
690.477	340.32
690.921	352.42
691.366	379.62
691.811	403.52
692.255	431.62
692.7	457.42
693.145	498.52
693.589	708.12
694.034	1128.02
694.478	1534.02
694.923	1706.32
695.367	2235.02
695.812	1185.52
696.256	499.12
696.701	370.52
697.145	336.32
697.59	336.02
698.034	316.72
698.478	323.62
698.922	324.62
699.367	322.62
699.811	340.12
700.255	345.02
700.699	379.82
701.143	431.62
701.588	479.12
702.032	509.52
702.476	499.62
702.92	488.62
703.364	485.62
703.808	644.42
704.252	1053.32
704.696	1447.42
705.14	1649.02
705.584	2099.32
706.027	1045.02
706.471	513.82
706.915	389.32
707.359	341.22
707.803	308.62
708.246	304.02
708.69	307.92
709.134	302.32
709.577	303.22
710.021	310.02
710.465	302.12
710.908	289.62
711.352	293.82
711.795	307.22
712.239	341.62
712.682	376.42
713.126	409.42
713.569	462.92
714.012	358.12
714.456	314.72
714.899	293.22
715.342	270.42
715.786	252.72
716.229	252.62
716.672	259.92
717.115	252.42
717.558	248.92
718.002	249.22
718.445	257.62
718.888	284.32
719.331	290.42
719.774	297.92
720.217	295.32
720.66	282.92
721.103	264.12
721.546	248.12
721.989	245.12
722.432	234.42
722.874	237.82
723.317	229.92
723.76	234.22
724.203	255.72
724.645	315.82
725.088	441.22
725.531	569.32
725.974	638.02
726.416	543.12
726.859	304.92
727.301	239.42
727.744	232.32
728.187	223.12
728.629	236.32
729.071	242.22
729.514	254.12
729.956	266.72
730.399	280.22
730.841	288.02
731.283	255.32
731.726	263.12
732.168	253.52
732.61	269.82
733.053	288.72
733.495	315.52
733.937	347.62
734.379	400.52
734.821	432.62
735.263	541.92
735.705	847.72
736.148	1598.62
736.59	2586.62
737.032	3002.52
737.474	2439.82
737.916	798.72
738.357	424.02
738.799	329.42
739.241	289.02
739.683	278.32
740.125	284.12
740.567	294.42
741.008	309.92
741.45	314.02
741.892	313.12
742.334	338.82
742.775	355.02
743.217	330.52
743.658	266.32
744.1	248.52
744.542	258.72
744.983	306.82
745.425	343.42
745.866	336.42
746.307	273.92
746.749	277.42
747.19	327.52
747.632	459.22
748.073	902.02
748.514	1888.42
748.956	2854.92
749.397	3560.32
749.838	2957.52
750.279	2929.52
750.72	1473.22
751.162	545.72
751.603	322.72
752.044	252.82
752.485	216.52
752.926	209.42
753.367	200.72
753.808	189.52
754.249	192.12
754.69	191.22
755.131	180.22
755.572	180.22
756.013	180.32
756.453	182.92
756.894	185.82
757.335	190.52
757.776	191.22
758.216	194.72
758.657	198.02
759.098	200.22
759.538	227.42
759.979	264.22
760.42	382.42
760.86	712.02
761.301	1872.92
761.741	4470.32
762.182	6352.72
762.622	4474.92
763.063	1304.22
763.503	530.72
763.943	337.92
764.384	327.12
764.824	379.82
765.264	408.22
765.705	288.82
766.145	205.02
766.585	188.22
767.025	177.22
767.465	179.92
767.906	227.62
768.346	301.32
768.786	318.92
769.226	256.12
769.666	318.72
770.106	637.72
770.546	1581.32
770.986	2632.62
771.426	2337.22
771.866	781.72
772.306	330.72
772.745	203.42
773.185	179.22
773.625	174.42
774.065	164.82
774.505	187.52
774.944	297.82
775.384	649.42
775.824	1130.82
776.263	1098.72
776.703	483.62
777.142	217.02
777.582	152.82
778.021	140.92
778.461	139.02
778.9	133.92
779.34	134.22
779.779	114.92
780.219	110.42
780.658	107.72
781.097	113.12
781.537	117.52
781.976	109.72
782.415	105.52
782.855	108.92
783.294	103.32
783.733	104.52
784.172	107.92
784.611	107.52
785.05	108.12
785.489	114.42
785.928	117.42
786.367	125.12
786.806	116.12
787.245	133.92
787.684	133.22
788.123	145.82
788.562	137.02
789.001	125.82
789.44	122.22
789.879	121.42
790.317	121.92
790.756	126.72
791.195	123.52
791.634	140.42
792.072	200.52
792.511	363.42
792.95	1028.02
793.388	2132.82
793.827	1903.92
794.265	669.32
794.704	279.32
795.142	185.92
795.581	148.62
796.019	132.12
796.458	127.72
796.896	120.92
797.334	129.92
797.773	157.02
798.211	221.42
798.649	446.42
799.087	1030.72
799.526	1584.12
799.964	2008.62
800.402	1993.12
800.84	747.42
801.278	301.32
801.716	186.92
802.154	152.72
802.592	145.12
803.03	135.22
803.468	134.42
803.906	149.22
804.344	145.52
804.782	141.12
805.22	133.02
805.658	129.42
806.096	146.62
806.533	161.72
806.971	171.52
807.409	211.82
807.847	315.62
808.284	679.52
808.722	1883.42
809.16	3281.22
809.597	3125.32
810.035	5444.02
810.472	5724.92
810.91	2053.42
811.347	782.92
811.785	396.72
812.222	248.52
812.66	196.62
813.097	157.42
813.535	144.12
813.972	132.32
814.409	120.92
814.846	104.22
815.284	110.82
815.721	101.42
816.158	104.92
816.595	124.72
817.032	172.22
817.47	182.82
817.907	148.82
818.344	141.72
818.781	118.62
819.218	106.22
819.655	121.92
820.092	189.62
820.529	202.12
820.966	173.32
821.403	123.72
821.839	102.22
822.276	101.62
822.713	118.52
823.15	135.32
823.587	120.12
824.023	157.32
824.46	299.42
824.897	908.52
825.333	1349.22
825.77	570.72
826.206	231.62
826.643	132.72
827.08	98.62
827.516	87.22
827.953	73.72
828.389	86.82
828.825	72.22
829.262	69.62
829.698	59.52
830.135	64.42
830.571	63.42
831.007	62.12
831.443	66.22
831.88	58.22
832.316	60.82
832.752	67.42
833.188	65.12
833.624	60.72
834.06	67.52
834.497	65.92
834.933	72.52
835.369	70.92
835.805	70.42
836.241	78.22
836.677	77.52
837.112	91.22
837.548	104.62
837.984	135.92
838.42	199.42
838.856	507.62
839.292	1542.22
839.727	2287.02
840.163	1060.12
840.599	929.22
841.034	2042.32
841.47	2086.92
841.906	777.82
842.341	327.82
842.777	224.12
843.212	306.32
843.648	293.82
844.083	149.32
844.519	94.32
844.954	74.52
845.39	59.82
845.825	56.62
846.261	51.32
846.696	55.52
847.131	50.82
847.566	58.52
848.002	53.22
848.437	51.62
848.872	68.52
849.307	63.72
849.742	82.22
850.177	183.32
850.613	560.52
851.048	874.52
851.483	385.22
851.918	156.12
852.353	86.12
852.788	57.32
853.223	54.52
853.657	54.12
854.092	46.52
854.527	40.32
854.962	45.82
855.397	45.82
855.832	50.62
856.266	39.52
856.701	43.42
857.136	36.72
857.57	37.82
858.005	42.72
858.44	57.62
858.874	48.62
859.309	54.92
859.743	41.92
860.178	52.72
860.612	38.82
861.047	49.12
861.481	64.82
861.915	69.92
862.35	52.32
862.784	25.22
863.218	35.62
863.653	30.82
864.087	46.02
864.521	54.52
864.955	64.42
865.39	157.92
865.824	167.92
866.258	114.32
866.692	152.42
867.126	172.62
867.56	104.52
867.994	54.12
868.428	36.32
868.862	39.92
869.296	52.62
869.73	55.82
870.164	52.12
870.598	39.42
871.031	36.22
871.465	31.82
871.899	32.52
872.333	28.22
872.766	22.52
873.2	20.92
873.634	28.22
874.067	29.92
874.501	30.42
874.935	38.52
875.368	30.02
875.802	28.32
876.235	23.92
876.669	24.92
877.102	25.72
877.535	28.62
877.969	20.92
878.402	17.82
878.836	26.12
879.269	27.12
879.702	25.92
880.135	18.82
880.569	21.22
881.002	24.22
881.435	26.62
881.868	21.92
882.301	23.62
882.734	14.12
883.167	27.02
883.601	20.52
884.034	15.92
884.467	10.02
884.899	18.52
885.332	17.92
885.765	15.22
886.198	9.42
886.631	16.62
887.064	20.22
887.497	19.82
887.929	26.82
888.362	16.42
888.795	15.42
889.228	13.82
889.66	22.22
890.093	16.32
890.526	20.32
890.958	16.42
891.391	14.22
891.823	19.32
892.256	13.92
892.688	11.02
893.121	20.82
893.553	15.72
893.985	27.32
894.418	19.92
894.85	9.32
895.282	17.02
895.715	19.32
896.147	16.82
896.579	14.32
897.011	17.12
897.444	17.32
897.876	14.32
898.308	11.22
898.74	11.82
899.172	14.72
899.604	28.12
900.036	13.12
900.468	15.62
900.9	13.52
901.332	21.52
901.764	12.32
902.196	20.72
902.628	23.72
903.06	21.12
903.491	27.42
903.923	18.72
904.355	18.32
904.787	20.12
905.218	18.22
905.65	20.82
906.082	15.12
906.513	11.02
906.945	17.02
907.376	14.12
907.808	22.12
908.239	24.52
908.671	14.82
909.102	20.92
909.534	24.32
909.965	43.82
910.397	90.22
910.828	320.12
911.259	469.82
911.691	219.02
912.122	108.62
912.553	56.82
912.984	37.72
913.415	21.82
913.847	22.12
914.278	17.92
914.709	12.42
915.14	15.52
915.571	18.82
916.002	13.32
916.433	19.72
916.864	17.82
917.295	10.82
917.726	24.02
918.157	17.42
918.587	32.52
919.018	21.72
919.449	22.42
919.88	23.72
920.311	33.52
920.741	42.82
921.172	164.02
921.603	154.52
922.033	74.62
922.464	46.52
922.895	30.82
923.325	23.32
923.756	17.42
924.186	23.82
924.617	28.12
925.047	40.02
925.478	52.72
925.908	41.82
926.338	26.62
926.769	17.82
927.199	21.32
927.629	14.42
928.06	18.02
928.49	20.52
928.92	11.82
929.35	8.92
929.78	12.72
930.21	6.72
930.641	13.22
931.071	7.22
931.501	3.62
931.931	12.72
932.361	7.42
932.791	-3.28
933.221	5.42
933.651	2.72
934.08	23.22
934.51	28.52
934.94	5.52
935.37	9.32
935.8	11.02
936.229	12.92
936.659	11.92
937.089	3.52
937.519	16.92
937.948	21.82
938.378	13.82
938.807	10.92
939.237	1.82
939.666	7.32
940.096	-7.18
940.525	-0.18
940.955	7.02
941.384	6.62
941.814	-6.68
942.243	-3.58
942.672	6.62
943.102	-4.48
943.531	-1.98
943.96	9.42
944.39	-3.18
944.819	6.52
945.248	-2.28
945.677	2.42
946.106	9.22
946.535	4.12
946.964	1.42
947.393	7.92
947.822	2.92
948.251	-3.78
948.68	5.32
949.109	8.92
949.538	12.22
949.967	3.62
950.396	1.92
950.825	-4.98
951.254	-3.38
951.682	-3.98
952.111	6.52
952.54	3.52
952.969	-2.98
953.397	-2.68
953.826	-0.48
954.254	-5.28
954.683	-3.68
955.112	-0.08
955.54	-1.88
955.969	-6.38
956.397	-0.78
956.826	-0.08
957.254	5.62
957.682	0.92
958.111	7.02
958.539	-1.98
958.967	2.62
959.396	-0.88
959.824	5.22
960.252	6.32
960.68	-7.18
961.109	-0.38
961.537	-4.88
961.965	1.52
962.393	1.32
962.821	3.42
963.249	-2.08
963.677	6.82
964.105	9.12
964.533	44.82
964.961	40.32
965.389	23.82
965.817	9.72
966.245	-0.38
966.672	3.12
967.1	-1.38
967.528	4.32
967.956	-2.18
968.383	2.22
968.811	1.22
969.239	0.82
969.666	2.32
970.094	-0.18
970.522	-1.58
970.949	-2.18
971.377	-0.88
971.804	-2.58
972.232	-0.28
972.659	6.02
973.087	-9.48
973.514	-2.28
973.941	-3.98
974.369	9.22
974.796	1.92
975.223	-3.98
975.651	0.32
976.078	-2.48
976.505	3.52
976.932	1.12
977.359	17.12
977.786	20.62
978.214	3.72
978.641	-2.88
979.068	2.22
979.495	-2.48
979.922	-2.88
980.349	-1.18
980.776	-0.78
981.202	-3.88
981.629	2.92
982.056	9.42
982.483	-1.28
982.91	7.82
983.337	-7.28
983.763	2.92
984.19	-5.48
984.617	-5.98
985.043	-2.68
985.47	-2.38
985.897	4.22
986.323	-7.58
986.75	4.12
987.176	1.42
987.603	0.52
988.029	3.12
988.456	-2.88
988.882	8.02
989.308	-7.98
989.735	-4.18
990.161	-0.68
990.587	-0.28
991.014	1.82
991.44	5.82
991.866	-1.08
992.292	-6.38
992.719	6.82
993.145	1.92
993.571	-3.48
993.997	1.62
994.423	-2.38
994.849	-3.88
995.275	-2.98
995.701	2.32
996.127	-5.18
996.553	-0.68
996.979	-4.08
997.405	3.52
997.83	-3.28
998.256	-6.78
998.682	-9.68
999.108	-10.68
999.534	-3.28
999.959	0.82
1000.385	-5.28
1000.811	-4.88
1001.236	-12.78
1001.662	-10.58
1002.087	-5.08
1002.513	3.52
1002.938	3.02
1003.364	4.72
1003.789	-3.68
1004.215	4.62
1004.64	-1.48
1005.066	2.32
1005.491	-1.68
1005.916	1.02
1006.342	-1.98
1006.767	-9.48
1007.192	0.52
1007.617	-2.58
1008.042	-4.38
1008.468	-7.58
1008.893	-4.18
1009.318	-6.28
1009.743	-1.18
1010.168	-0.78
1010.593	1.02
1011.018	1.62
1011.443	-4.68
1011.868	4.62
1012.293	-4.48
1012.718	-8.18
1013.143	-1.28
1013.567	0.22
1013.992	-3.78
1014.417	-9.88
1014.842	5.42
1015.267	-5.68
1015.691	-5.88
1016.116	-1.28
1016.541	-0.08
1016.965	5.42
1017.39	6.22
1017.814	-1.08
1018.239	-0.58
1018.663	-11.78
1019.088	-9.78
1019.512	-2.98
1019.937	0.02
1020.361	0.82
1020.785	-12.08
1021.21	-0.58
1021.634	-1.08
1022.058	-1.88
1022.483	5.62
1022.907	-1.58
1023.331	-8.28
1023.755	-9.98
1024.179	-4.58
1024.604	-5.18
1025.028	-1.08
1025.452	-2.58
1025.876	-5.18
1026.3	3.42
1026.724	-13.88
1027.148	-6.28
1027.572	-9.78
1027.996	-3.58
1028.42	1.32
1028.843	-2.28
1029.267	-2.78
1029.691	-3.38
1030.115	-5.78
1030.539	-12.48
1030.962	-6.08
1031.386	-13.58
1031.81	2.52
1032.233	-3.18
1032.657	-5.28
1033.08	-5.08
1033.504	-4.78
1033.927	-2.68
1034.351	0.12
1034.774	-4.68
1035.198	1.52
1035.621	0.42
1036.045	-6.48
1036.468	0.02
1036.891	-10.68
1037.315	-12.38
1037.738	-4.68
1038.161	-1.28
1038.584	-4.28
1039.008	-5.88
1039.431	-2.28
1039.854	-4.28
1040.277	-2.98
1040.7	-9.68
1041.123	3.42
1041.546	-9.98
1041.969	-1.48
1042.392	-1.88
1042.815	-1.98
1043.238	3.52
1043.661	2.92
1044.084	-5.68
1044.507	-4.28
1044.93	-4.38
1045.352	-6.38
1045.775	-6.68
1046.198	2.02
1046.621	-6.68
1047.043	3.22
1047.466	5.02
1047.889	-3.88
1048.311	-2.18
1048.734	-2.98
1049.156	-2.18
1049.579	-3.78
1050.001	2.72
1050.424	-1.18
1050.846	-4.28
1051.269	-6.28
1051.691	-5.48
1052.113	-4.08
1052.536	-5.18
1052.958	0.52
1053.38	0.12
1053.802	-9.48
1054.225	-2.48
1054.647	-7.78
1055.069	-5.08
1055.491	-1.48
1055.913	-8.58
1056.335	-3.68
1056.757	2.92
1057.179	-5.68
1057.601	-1.78
1058.023	-3.28
1058.445	-1.18
1058.867	-4.48
1059.289	-8.08
1059.711	-7.18
1060.133	0.12
1060.555	-2.48
1060.976	-3.08
1061.398	-5.88
1061.82	-6.88
1062.241	-5.98
1062.663	-11.78
1063.085	-7.78
1063.506	0.32
1063.928	-5.38
1064.35	-2.38
1064.771	-14.88
1065.193	-2.08
1065.614	-4.48
1066.035	-1.88
1066.457	-4.78
1066.878	-0.58
1067.3	-2.28
1067.721	-8.78
1068.142	-8.58
1068.564	-5.28
1068.985	-5.98
1069.406	-0.98
1069.827	0.32
1070.248	-2.48
1070.67	-1.18
1071.091	-6.38
1071.512	-2.98
1071.933	-8.58
1072.354	-10.58
1072.775	-8.48
1073.196	-9.18
1073.617	1.82
1074.038	-13.78
1074.459	-1.58
1074.88	-6.38
1075.3	4.32
1075.721	-5.38
1076.142	-1.68
1076.563	1.42
1076.983	-12.28
1077.404	-10.98
1077.825	-12.38
1078.246	-3.98
1078.666	-8.48
1079.087	-5.08
1079.507	-5.38
1079.928	1.32
1080.348	1.02
1080.769	-3.28
1081.189	1.02
1081.61	-6.18
1082.03	-4.38
1082.451	-9.08
1082.871	-6.18
1083.291	-9.18
1083.711	-7.98
1084.132	-4.08
1084.552	0.02
1084.972	1.92
1085.392	-9.88
1085.813	-10.88
1086.233	-3.28
1086.653	0.62
1087.073	-0.68
1087.493	-9.08
1087.913	-4.58
1088.333	-4.98
1088.753	-8.18
1089.173	1.92
1089.593	0.82
1090.013	4.12
1090.433	-0.48
1090.852	-5.98
1091.272	-6.88
1091.692	-1.68
1092.112	-5.08
1092.531	-7.38
1092.951	-9.18
1093.371	0.62
1093.79	-2.58
1094.21	-7.98
1094.63	-5.58
1095.049	-4.28
1095.469	2.72
1095.888	-7.58
1096.308	2.12
1096.727	1.02
1097.146	-6.78
1097.566	1.32
1097.985	-6.28
1098.405	-1.28
1098.824	-8.98
1099.243	-15.08
1099.662	-7.28
1100.082	-7.18
1100.501	-4.28
1100.92	-6.58
1101.339	-4.28
1101.758	-3.28
