Data from 20171114-ORNL-Ar_H_NY_Subt18_08-08-43-265.txt Node
Date: Tue Nov 14 08:08:43 EST 2017
User: Ender
Spectrometer: HR+D1039
Trigger mode: 0
Integration Time (sec): 2.730000E-2
Scans to average: 10
Electric dark correction enabled: true
Nonlinearity correction enabled: false
Boxcar width: 0
XAxis mode: Wavelengths
Number of Pixels in Spectrum: 2048
>>>>>Begin Spectral Data<<<<<
187.836	-2.28
188.309	-2.28
188.782	-2.28
189.255	-0.78
189.728	-3.78
190.201	6.42
190.674	5.42
191.147	0.82
191.619	-7.98
192.092	-0.28
192.565	3.72
193.038	0.02
193.511	-3.18
193.984	0.92
194.456	0.52
194.929	2.22
195.402	-5.98
195.874	4.22
196.347	0.52
196.82	-2.68
197.292	4.92
197.765	-1.18
198.237	-4.78
198.71	-1.18
199.182	1.32
199.655	-0.28
200.127	3.42
200.6	0.72
201.072	-2.58
201.544	-6.38
202.017	-6.18
202.489	4.02
202.961	-2.58
203.433	-0.38
203.906	-2.38
204.378	-4.98
204.85	-2.68
205.322	-4.28
205.794	-1.28
206.266	-1.38
206.739	-8.98
207.211	-2.18
207.683	-10.68
208.155	-4.08
208.627	-5.88
209.099	-5.08
209.57	-9.18
210.042	-6.58
210.514	-4.18
210.986	-4.68
211.458	-9.48
211.93	-6.18
212.402	-2.98
212.873	-5.58
213.345	-9.58
213.817	-10.38
214.288	-7.08
214.76	-16.68
215.232	-6.28
215.703	-5.58
216.175	-2.58
216.646	-9.98
217.118	-13.38
217.589	-3.98
218.061	-0.08
218.532	-3.58
219.004	-3.08
219.475	-5.48
219.946	-13.18
220.418	-5.98
220.889	1.92
221.36	-4.88
221.832	-0.58
222.303	-10.78
222.774	-2.38
223.245	-8.58
223.717	-2.48
224.188	-1.88
224.659	-2.98
225.13	-4.68
225.601	-2.18
226.072	3.62
226.543	1.02
227.014	-0.08
227.485	0.92
227.956	-4.98
228.427	-4.08
228.898	-8.68
229.369	3.42
229.839	-5.18
230.31	-4.48
230.781	-0.58
231.252	-3.28
231.722	-7.18
232.193	-8.08
232.664	-5.58
233.135	-0.38
233.605	-2.38
234.076	-9.38
234.546	-1.08
235.017	2.62
235.487	1.52
235.958	-2.68
236.428	-5.18
236.899	-2.48
237.369	1.02
237.84	-8.28
238.31	1.42
238.78	-0.68
239.251	-5.48
239.721	-2.08
240.191	-4.98
240.662	-0.88
241.132	-2.08
241.602	-4.68
242.072	-5.58
242.542	3.72
243.013	-5.18
243.483	0.02
243.953	0.92
244.423	4.22
244.893	-1.68
245.363	2.22
245.833	-4.38
246.303	-9.08
246.773	2.62
247.243	-2.18
247.712	-0.98
248.182	2.32
248.652	-3.08
249.122	-2.38
249.592	3.72
250.061	6.52
250.531	11.12
251.001	6.72
251.471	6.12
251.94	10.82
252.41	1.42
252.879	-2.68
253.349	10.62
253.818	3.32
254.288	-3.28
254.757	-1.28
255.227	-6.88
255.696	1.62
256.166	9.42
256.635	1.52
257.105	5.32
257.574	-0.98
258.043	-1.48
258.513	-7.48
258.982	3.62
259.451	-2.88
259.92	7.92
260.389	-1.48
260.859	8.92
261.328	9.12
261.797	1.62
262.266	3.02
262.735	2.42
263.204	1.32
263.673	1.62
264.142	-4.48
264.611	-6.88
265.08	-1.48
265.549	0.02
266.018	5.12
266.487	-2.08
266.955	-5.28
267.424	1.42
267.893	2.12
268.362	-0.18
268.83	-2.98
269.299	13.92
269.768	5.02
270.236	9.72
270.705	-0.68
271.174	0.22
271.642	0.02
272.111	1.52
272.579	-2.58
273.048	10.12
273.516	3.72
273.985	9.82
274.453	11.32
274.922	9.12
275.39	9.72
275.858	4.62
276.327	9.32
276.795	6.22
277.263	-1.58
277.731	11.52
278.2	15.22
278.668	7.32
279.136	12.22
279.604	2.72
280.072	8.82
280.54	5.42
281.008	9.82
281.477	11.22
281.945	7.12
282.413	4.42
282.881	8.42
283.348	3.62
283.816	7.92
284.284	3.72
284.752	17.12
285.22	15.82
285.688	17.02
286.156	11.72
286.623	20.42
287.091	16.02
287.559	6.92
288.026	7.52
288.494	13.02
288.962	2.72
289.429	2.22
289.897	19.92
290.364	6.12
290.832	8.72
291.3	5.62
291.767	13.92
292.234	16.32
292.702	6.72
293.169	12.02
293.637	13.22
294.104	16.82
294.571	2.32
295.039	10.32
295.506	9.52
295.973	13.62
296.44	13.12
296.908	12.52
297.375	6.12
297.842	13.82
298.309	13.02
298.776	7.02
299.243	8.32
299.71	10.22
300.177	16.92
300.644	11.22
301.111	14.22
301.578	16.72
302.045	5.12
302.512	15.82
302.979	23.72
303.446	13.52
303.913	15.12
304.379	12.62
304.846	23.62
305.313	15.52
305.78	17.92
306.246	16.42
306.713	16.42
307.18	17.02
307.646	19.12
308.113	20.32
308.579	15.62
309.046	15.12
309.512	22.52
309.979	13.42
310.445	24.32
310.912	21.42
311.378	27.12
311.845	19.12
312.311	22.82
312.777	19.32
313.244	21.82
313.71	27.02
314.176	24.12
314.642	26.82
315.109	25.92
315.575	27.12
316.041	31.82
316.507	23.02
316.973	29.02
317.439	28.02
317.905	30.62
318.371	28.12
318.837	27.62
319.303	26.22
319.769	24.42
320.235	29.02
320.701	25.32
321.167	26.12
321.633	33.92
322.099	29.92
322.564	37.32
323.03	39.12
323.496	20.62
323.962	26.02
324.427	28.52
324.893	30.52
325.359	34.22
325.824	37.52
326.29	26.82
326.755	31.82
327.221	32.92
327.686	35.32
328.152	33.62
328.617	37.12
329.083	46.42
329.548	36.12
330.014	45.02
330.479	31.52
330.944	43.92
331.41	39.92
331.875	36.02
332.34	35.22
332.805	33.32
333.271	37.32
333.736	32.22
334.201	41.32
334.666	40.42
335.131	41.52
335.596	41.02
336.061	41.42
336.526	33.52
336.991	41.02
337.456	47.72
337.921	44.82
338.386	41.82
338.851	39.62
339.316	45.92
339.781	40.32
340.246	47.32
340.711	42.02
341.175	44.52
341.64	38.62
342.105	46.02
342.569	50.42
343.034	46.52
343.499	44.22
343.963	49.12
344.428	57.62
344.893	59.02
345.357	54.72
345.822	50.62
346.286	53.42
346.751	64.32
347.215	62.42
347.679	57.52
348.144	78.82
348.608	73.62
349.073	60.02
349.537	66.42
350.001	73.02
350.465	81.02
350.93	72.52
351.394	70.52
351.858	62.42
352.322	75.32
352.786	77.52
353.25	98.42
353.715	100.52
354.179	86.52
354.643	104.32
355.107	110.52
355.571	93.32
356.035	94.72
356.498	99.72
356.962	98.02
357.426	111.92
357.89	102.82
358.354	80.92
358.818	74.52
359.281	72.22
359.745	65.12
360.209	63.92
360.673	69.62
361.136	71.52
361.6	78.92
362.064	76.52
362.527	77.92
362.991	82.92
363.454	72.02
363.918	77.52
364.381	75.42
364.845	77.42
365.308	78.12
365.772	82.22
366.235	83.02
366.698	72.22
367.162	81.72
367.625	77.82
368.088	82.92
368.552	79.42
369.015	79.62
369.478	84.32
369.941	91.12
370.404	88.82
370.867	93.42
371.331	100.12
371.794	98.92
372.257	88.82
372.72	98.92
373.183	98.82
373.646	90.72
374.109	92.02
374.572	98.52
375.035	99.52
375.497	101.22
375.96	99.82
376.423	96.62
376.886	107.82
377.349	101.02
377.811	92.52
378.274	97.02
378.737	98.72
379.199	102.22
379.662	101.82
380.125	113.92
380.587	108.12
381.05	105.82
381.512	108.12
381.975	116.02
382.437	112.02
382.9	110.92
383.362	115.42
383.825	127.82
384.287	119.42
384.75	114.72
385.212	121.92
385.674	125.62
386.136	128.42
386.599	121.22
387.061	118.12
387.523	122.52
387.985	124.32
388.447	127.62
388.91	120.42
389.372	124.92
389.834	127.22
390.296	128.12
390.758	135.42
391.22	135.72
391.682	148.02
392.144	167.52
392.606	147.42
393.068	144.02
393.529	146.12
393.991	138.82
394.453	124.42
394.915	133.02
395.377	136.02
395.838	143.12
396.3	135.12
396.762	138.02
397.224	135.72
397.685	130.32
398.147	127.02
398.608	126.92
399.07	125.62
399.531	141.32
399.993	142.62
400.454	142.52
400.916	136.42
401.377	143.32
401.839	151.22
402.3	152.32
402.762	167.12
403.223	175.92
403.684	168.52
404.145	152.72
404.607	159.52
405.068	158.92
405.529	164.62
405.99	183.62
406.451	172.12
406.913	168.12
407.374	161.02
407.835	158.82
408.296	166.22
408.757	173.52
409.218	183.82
409.679	181.62
410.14	166.92
410.601	172.72
411.062	181.22
411.522	181.52
411.983	178.12
412.444	168.82
412.905	184.52
413.366	182.12
413.826	197.62
414.287	222.92
414.748	268.12
415.208	251.92
415.669	216.02
416.13	204.22
416.59	207.82
417.051	225.22
417.511	226.52
417.972	240.72
418.432	250.52
418.893	297.02
419.353	252.52
419.814	204.42
420.274	178.92
420.734	189.02
421.195	194.32
421.655	193.92
422.115	201.12
422.576	197.12
423.036	199.62
423.496	208.72
423.956	219.92
424.416	240.22
424.876	268.82
425.336	259.92
425.797	264.52
426.257	256.02
426.717	245.52
427.177	232.72
427.637	228.52
428.097	245.52
428.556	241.42
429.016	271.42
429.476	259.82
429.936	268.92
430.396	272.32
430.856	291.32
431.315	303.82
431.775	344.42
432.235	372.02
432.694	353.02
433.154	366.12
433.614	387.02
434.073	335.52
434.533	287.12
434.993	269.32
435.452	283.92
435.912	286.92
436.371	282.62
436.83	271.22
437.29	267.12
437.749	254.72
438.209	252.92
438.668	273.02
439.127	280.52
439.587	267.02
440.046	246.92
440.505	258.12
440.964	288.52
441.424	318.82
441.883	312.12
442.342	265.62
442.801	230.62
443.26	229.82
443.719	235.22
444.178	227.22
444.637	222.62
445.096	229.22
445.555	231.72
446.014	233.42
446.473	230.62
446.932	241.02
447.391	237.82
447.849	237.32
448.308	227.92
448.767	236.32
449.226	250.22
449.685	248.02
450.143	256.12
450.602	243.32
451.061	231.52
451.519	238.22
451.978	240.82
452.436	241.72
452.895	242.82
453.353	261.42
453.812	245.62
454.27	244.22
454.729	248.12
455.187	248.92
455.646	258.22
456.104	255.92
456.562	269.22
457.021	275.72
457.479	267.42
457.937	277.42
458.395	274.72
458.854	255.12
459.312	258.12
459.77	284.62
460.228	267.72
460.686	256.72
461.144	261.72
461.602	254.02
462.06	249.72
462.518	265.52
462.976	253.62
463.434	263.82
463.892	269.92
464.35	280.12
464.808	294.02
465.266	277.72
465.724	278.62
466.181	285.92
466.639	281.82
467.097	293.92
467.555	310.92
468.012	305.22
468.47	321.72
468.928	338.42
469.385	350.22
469.843	357.12
470.3	358.72
470.758	372.02
471.215	402.12
471.673	415.12
472.13	420.12
472.588	438.62
473.045	390.32
473.503	391.62
473.96	410.82
474.417	419.82
474.875	439.82
475.332	485.12
475.789	481.32
476.246	474.92
476.704	493.92
477.161	513.12
477.618	534.42
478.075	568.72
478.532	633.32
478.989	700.32
479.446	806.52
479.903	767.02
480.36	791.32
480.817	848.62
481.274	933.02
481.731	1030.42
482.188	1102.92
482.645	1226.42
483.102	1316.32
483.558	1436.92
484.015	1482.32
484.472	1455.62
484.929	1405.32
485.385	1371.92
485.842	1340.92
486.299	1289.32
486.755	1246.02
487.212	1071.42
487.668	917.92
488.125	841.72
488.582	785.12
489.038	752.92
489.494	721.72
489.951	687.02
490.407	674.42
490.864	657.72
491.32	657.32
491.776	656.12
492.233	656.92
492.689	623.12
493.145	616.82
493.602	615.22
494.058	629.42
494.514	632.42
494.97	654.22
495.426	660.32
495.882	636.32
496.338	627.12
496.794	632.52
497.251	629.52
497.707	643.52
498.163	645.42
498.618	653.12
499.074	656.22
499.53	678.72
499.986	678.32
500.442	661.92
500.898	637.12
501.354	633.62
501.809	634.22
502.265	644.12
502.721	653.72
503.177	657.52
503.632	665.22
504.088	668.72
504.543	697.82
504.999	720.62
505.455	679.12
505.91	654.72
506.366	650.82
506.821	659.52
507.277	641.22
507.732	653.32
508.187	647.32
508.643	655.32
509.098	659.62
509.553	676.52
510.009	699.72
510.464	692.22
510.919	718.82
511.375	724.22
511.83	730.02
512.285	745.62
512.74	774.22
513.195	799.72
513.65	792.72
514.105	781.32
514.56	785.82
515.015	806.72
515.47	809.92
515.925	809.62
516.38	804.32
516.835	808.42
517.29	812.32
517.745	798.12
518.2	784.32
518.655	777.72
519.109	764.62
519.564	766.02
520.019	757.42
520.474	746.22
520.928	740.82
521.383	741.42
521.838	736.82
522.292	741.82
522.747	735.82
523.201	729.82
523.656	722.72
524.11	721.02
524.565	722.92
525.019	712.12
525.474	720.22
525.928	712.92
526.382	728.02
526.837	717.52
527.291	730.92
527.745	724.92
528.2	728.22
528.654	707.62
529.108	712.22
529.562	712.42
530.016	717.02
530.47	717.62
530.925	713.12
531.379	719.42
531.833	719.62
532.287	711.12
532.741	726.12
533.195	714.62
533.649	726.92
534.103	739.92
534.556	718.62
535.01	736.02
535.464	720.62
535.918	731.22
536.372	738.42
536.826	744.72
537.279	730.72
537.733	733.92
538.187	735.42
538.64	735.32
539.094	749.92
539.548	746.12
540.001	742.52
540.455	747.12
540.908	753.92
541.362	762.62
541.815	765.12
542.269	785.82
542.722	790.72
543.175	798.82
543.629	794.62
544.082	817.02
544.536	817.92
544.989	810.52
545.442	825.22
545.895	826.92
546.349	827.82
546.802	822.92
547.255	818.72
547.708	840.62
548.161	852.92
548.614	853.72
549.067	857.32
549.52	854.52
549.973	848.62
550.426	832.42
550.879	818.92
551.332	835.02
551.785	840.22
552.238	841.12
552.691	855.12
553.144	868.12
553.596	880.32
554.049	899.92
554.502	931.82
554.955	936.32
555.407	940.62
555.86	932.32
556.313	932.62
556.765	918.92
557.218	920.72
557.67	913.72
558.123	906.12
558.576	912.62
559.028	909.02
559.48	913.32
559.933	902.32
560.385	874.52
560.838	848.22
561.29	817.52
561.742	804.92
562.195	810.72
562.647	798.72
563.099	811.02
563.551	808.02
564.004	819.62
564.456	796.72
564.908	787.32
565.36	772.42
565.812	753.12
566.264	743.32
566.716	751.82
567.168	738.42
567.62	737.82
568.072	719.12
568.524	719.82
568.976	713.82
569.428	699.62
569.88	712.82
570.332	701.72
570.784	711.02
571.235	717.22
571.687	720.02
572.139	725.72
572.59	736.22
573.042	738.22
573.494	742.42
573.945	740.52
574.397	712.12
574.849	720.62
575.3	717.32
575.752	714.72
576.203	708.42
576.655	714.62
577.106	699.62
577.557	687.32
578.009	694.22
578.46	693.32
578.912	694.02
579.363	688.32
579.814	711.72
580.265	686.82
580.717	690.72
581.168	699.12
581.619	705.82
582.07	716.22
582.521	694.22
582.972	702.02
583.423	706.82
583.875	707.22
584.326	713.12
584.777	738.82
585.227	764.32
585.678	788.72
586.129	810.62
586.58	844.12
587.031	870.22
587.482	930.52
587.933	976.42
588.384	926.12
588.834	844.82
589.285	804.92
589.736	810.82
590.186	804.72
590.637	795.42
591.088	781.42
591.538	769.42
591.989	757.52
592.439	761.02
592.89	741.02
593.34	755.82
593.791	738.02
594.241	728.02
594.692	728.22
595.142	720.32
595.593	730.82
596.043	738.12
596.493	735.12
596.943	735.42
597.394	751.32
597.844	746.82
598.294	759.22
598.744	786.82
599.195	808.42
599.645	860.02
600.095	893.72
600.545	962.42
600.995	1016.02
601.445	1067.42
601.895	1132.62
602.345	1181.52
602.795	1155.72
603.245	1119.02
603.695	1055.32
604.145	1000.02
604.594	957.92
605.044	896.42
605.494	841.32
605.944	784.52
606.393	782.22
606.843	758.72
607.293	767.82
607.743	759.92
608.192	771.52
608.642	789.92
609.091	795.22
609.541	789.52
609.99	797.92
610.44	794.02
610.889	741.12
611.339	711.12
611.788	701.12
612.238	712.92
612.687	739.82
613.136	727.82
613.586	748.12
614.035	733.62
614.484	750.72
614.933	734.12
615.383	731.02
615.832	741.72
616.281	734.82
616.73	695.42
617.179	678.22
617.628	668.82
618.077	661.12
618.526	648.32
618.975	643.02
619.424	637.22
619.873	637.82
620.322	643.12
620.771	635.42
621.22	628.02
621.669	619.22
622.118	606.22
622.567	603.92
623.015	593.62
623.464	590.22
623.913	584.92
624.361	575.32
624.81	575.92
625.259	581.72
625.707	587.52
626.156	583.72
626.604	591.32
627.053	580.22
627.501	586.12
627.95	594.12
628.398	602.32
628.847	593.42
629.295	596.32
629.744	593.32
630.192	594.82
630.64	590.02
631.089	575.02
631.537	565.22
631.985	552.82
632.433	561.52
632.881	551.32
633.33	566.12
633.778	567.32
634.226	554.72
634.674	561.22
635.122	565.92
635.57	579.22
636.018	586.82
636.466	590.62
636.914	579.92
637.362	592.42
637.81	605.22
638.258	600.92
638.705	606.82
639.153	636.12
639.601	654.22
640.049	667.92
640.497	696.42
640.944	726.12
641.392	668.12
641.84	637.12
642.287	606.82
642.735	591.62
643.182	584.62
643.63	584.52
644.078	588.22
644.525	607.62
644.973	603.82
645.42	616.62
645.867	634.22
646.315	658.52
646.762	675.62
647.21	706.92
647.657	736.72
648.104	766.02
648.551	782.12
648.999	852.42
649.446	922.02
649.893	1005.92
650.34	1168.02
650.787	1380.22
651.234	1700.22
651.682	2193.72
652.129	2999.52
652.576	4243.22
653.023	6208.02
653.47	8388.72
653.917	10339.92
654.363	11825.02
654.81	12968.32
655.257	12285.32
655.704	8141.22
656.151	4911.82
656.598	3219.62
657.044	2308.72
657.491	1798.32
657.938	1454.92
658.385	1225.82
658.831	1071.82
659.278	964.92
659.724	868.22
660.171	798.12
660.618	725.42
661.064	703.82
661.511	688.22
661.957	667.62
662.404	662.62
662.85	667.22
663.296	643.12
663.743	587.12
664.189	555.12
664.635	561.42
665.082	553.52
665.528	543.82
665.974	542.42
666.42	527.72
666.867	529.22
667.313	500.62
667.759	489.42
668.205	474.82
668.651	472.42
669.097	477.62
669.543	460.12
669.989	464.02
670.435	466.42
670.881	471.42
671.327	472.92
671.773	491.52
672.219	517.42
672.665	573.62
673.11	621.02
673.556	667.62
674.002	702.82
674.448	694.42
674.893	576.42
675.339	499.72
675.785	460.92
676.23	448.02
676.676	416.92
677.122	403.32
677.567	400.82
678.013	385.32
678.458	376.12
678.904	374.42
679.349	369.52
679.794	379.62
680.24	369.82
680.685	362.82
681.131	359.92
681.576	368.82
682.021	376.02
682.466	366.02
682.912	369.42
683.357	379.42
683.802	404.72
684.247	433.22
684.692	481.52
685.137	524.62
685.583	566.62
686.028	590.12
686.473	542.32
686.918	475.02
687.363	449.62
687.807	422.32
688.252	392.82
688.697	379.92
689.142	355.32
689.587	350.62
690.032	346.42
690.477	359.72
690.921	372.32
691.366	399.92
691.811	429.22
692.255	459.12
692.7	482.32
693.145	541.92
693.589	759.62
694.034	1216.42
694.478	1642.62
694.923	1831.72
695.367	2380.22
695.812	1269.62
696.256	529.52
696.701	390.82
697.145	360.12
697.59	355.42
698.034	346.52
698.478	344.42
698.922	337.02
699.367	341.22
699.811	354.12
700.255	375.52
700.699	413.42
701.143	442.82
701.588	497.62
702.032	538.62
702.476	539.72
702.92	528.12
703.364	529.52
703.808	691.22
704.252	1132.02
704.696	1569.22
705.14	1764.72
705.584	2225.72
706.027	1131.02
706.471	552.82
706.915	431.52
707.359	369.32
707.803	342.92
708.246	323.52
708.69	337.12
709.134	333.62
709.577	327.82
710.021	327.22
710.465	316.82
710.908	318.82
711.352	312.62
711.795	324.72
712.239	368.02
712.682	408.12
713.126	432.92
713.569	488.12
714.012	378.42
714.456	324.02
714.899	307.42
715.342	286.02
715.786	281.92
716.229	277.02
716.672	276.32
717.115	267.82
717.558	258.12
718.002	263.62
718.445	274.82
718.888	302.02
719.331	308.72
719.774	323.72
720.217	326.92
720.66	303.82
721.103	284.62
721.546	272.92
721.989	264.02
722.432	247.42
722.874	252.72
723.317	248.32
723.76	249.02
724.203	268.72
724.645	344.32
725.088	482.32
725.531	602.82
725.974	672.52
726.416	578.12
726.859	325.32
727.301	266.22
727.744	245.52
728.187	247.72
728.629	250.62
729.071	257.32
729.514	274.92
729.956	290.22
730.399	302.42
730.841	309.32
731.283	293.22
731.726	286.62
732.168	282.02
732.61	291.82
733.053	306.82
733.495	339.22
733.937	376.32
734.379	421.42
734.821	467.22
735.263	595.62
735.705	929.52
736.148	1737.52
736.59	2778.82
737.032	3196.52
737.474	2627.22
737.916	871.52
738.357	455.12
738.799	351.12
739.241	321.12
739.683	296.82
740.125	304.72
740.567	317.22
741.008	338.82
741.45	337.92
741.892	339.02
742.334	367.52
742.775	381.72
743.217	361.52
743.658	294.52
744.1	274.22
744.542	285.32
744.983	346.32
745.425	366.42
745.866	368.12
746.307	297.72
746.749	298.12
747.19	351.92
747.632	494.72
748.073	995.12
748.514	2057.52
748.956	3068.62
749.397	3855.42
749.838	3186.52
750.279	3114.42
750.72	1589.72
751.162	586.42
751.603	339.32
752.044	279.32
752.485	232.22
752.926	227.02
753.367	216.92
753.808	204.72
754.249	206.62
754.69	201.72
755.131	197.82
755.572	194.12
756.013	191.52
756.453	196.42
756.894	200.92
757.335	204.82
757.776	207.62
758.216	209.32
758.657	211.72
759.098	213.62
759.538	240.02
759.979	285.52
760.42	404.42
760.86	792.92
761.301	2075.32
761.741	4858.72
762.182	6720.02
762.622	4759.02
763.063	1408.62
763.503	567.42
763.943	350.62
764.384	295.92
764.824	288.82
765.264	284.72
765.705	234.42
766.145	200.82
766.585	188.22
767.025	186.02
767.465	177.52
767.906	197.22
768.346	232.22
768.786	234.32
769.226	235.72
769.666	341.12
770.106	695.92
770.546	1721.12
770.986	2791.32
771.426	2485.62
771.866	849.92
772.306	344.32
772.745	214.32
773.185	180.12
773.625	179.42
774.065	165.72
774.505	180.82
774.944	232.72
775.384	424.72
775.824	682.22
776.263	657.12
776.703	318.52
777.142	173.52
777.582	144.82
778.021	130.42
778.461	133.82
778.9	136.32
779.34	131.52
779.779	115.32
780.219	109.22
780.658	117.02
781.097	118.92
781.537	117.32
781.976	117.52
782.415	107.72
782.855	108.62
783.294	107.22
783.733	108.92
784.172	109.82
784.611	109.82
785.05	115.02
785.489	117.12
785.928	125.92
786.367	134.32
786.806	124.72
787.245	136.32
787.684	148.52
788.123	156.02
788.562	138.32
789.001	131.02
789.44	129.52
789.879	120.22
790.317	119.92
790.756	136.12
791.195	145.22
791.634	157.22
792.072	221.62
792.511	422.12
792.95	1122.52
793.388	2268.42
793.827	1988.72
794.265	713.52
794.704	303.82
795.142	200.52
795.581	166.72
796.019	145.32
796.458	134.42
796.896	131.72
797.334	139.52
797.773	165.22
798.211	240.72
798.649	502.62
799.087	1123.92
799.526	1723.82
799.964	2162.52
800.402	2095.42
800.84	809.52
801.278	328.12
801.716	199.02
802.154	165.72
802.592	157.42
803.03	153.02
803.468	143.62
803.906	145.42
804.344	161.62
804.782	151.62
805.22	138.52
805.658	140.72
806.096	155.72
806.533	170.12
806.971	192.62
807.409	234.72
807.847	352.62
808.284	751.72
808.722	2060.72
809.16	3499.12
809.597	3460.72
810.035	5862.72
810.472	6021.32
810.91	2215.82
811.347	857.22
811.785	432.62
812.222	274.42
812.66	202.22
813.097	172.12
813.535	160.52
813.972	135.82
814.409	129.82
814.846	114.12
815.284	116.12
815.721	110.82
816.158	106.02
816.595	119.02
817.032	163.72
817.47	199.82
817.907	140.92
818.344	112.82
818.781	106.82
819.218	98.72
819.655	127.92
820.092	202.72
820.529	225.42
820.966	179.72
821.403	137.12
821.839	107.72
822.276	105.42
822.713	133.92
823.15	142.42
823.587	130.32
824.023	158.32
824.46	343.32
824.897	979.52
825.333	1427.92
825.77	611.22
826.206	245.12
826.643	146.92
827.08	107.42
827.516	85.82
827.953	73.62
828.389	87.32
828.825	76.22
829.262	75.22
829.698	72.42
830.135	70.82
830.571	67.82
831.007	72.82
831.443	65.52
831.88	62.92
832.316	67.22
832.752	67.82
833.188	70.62
833.624	64.12
834.06	74.52
834.497	75.02
834.933	77.62
835.369	81.02
835.805	75.52
836.241	82.62
836.677	89.02
837.112	93.72
837.548	108.12
837.984	146.72
838.42	220.42
838.856	559.22
839.292	1659.02
839.727	2413.02
840.163	1133.02
840.599	1029.62
841.034	2178.62
841.47	2210.22
841.906	821.92
842.341	345.72
842.777	215.52
843.212	223.52
843.648	205.42
844.083	119.22
844.519	91.32
844.954	79.92
845.39	63.82
845.825	58.12
846.261	59.22
846.696	61.62
847.131	60.22
847.566	59.52
848.002	55.92
848.437	60.52
848.872	68.92
849.307	66.22
849.742	84.62
850.177	205.92
850.613	606.02
851.048	929.52
851.483	399.42
851.918	164.22
852.353	100.12
852.788	55.02
853.223	56.12
853.657	57.22
854.092	52.12
854.527	46.12
854.962	39.82
855.397	47.32
855.832	56.82
856.266	47.22
856.701	45.72
857.136	40.02
857.57	44.42
858.005	55.62
858.44	59.22
858.874	44.52
859.309	56.02
859.743	43.92
860.178	52.52
860.612	44.32
861.047	62.72
861.481	72.72
861.915	73.22
862.35	57.72
862.784	40.52
863.218	38.02
863.653	37.52
864.087	46.82
864.521	57.92
864.955	72.12
865.39	169.52
865.824	177.82
866.258	129.82
866.692	177.82
867.126	194.42
867.56	112.52
867.994	63.22
868.428	40.02
868.862	47.82
869.296	57.72
869.73	60.82
870.164	60.32
870.598	48.12
871.031	39.02
871.465	36.12
871.899	33.32
872.333	24.82
872.766	23.42
873.2	29.02
873.634	29.32
874.067	29.42
874.501	29.32
874.935	27.62
875.368	36.72
875.802	29.32
876.235	29.82
876.669	29.32
877.102	25.22
877.535	30.12
877.969	25.92
878.402	23.62
878.836	20.52
879.269	19.72
879.702	19.02
880.135	26.42
880.569	27.42
881.002	27.72
881.435	21.32
881.868	25.12
882.301	22.12
882.734	22.32
883.167	22.62
883.601	21.62
884.034	24.82
884.467	14.82
884.899	18.82
885.332	16.92
885.765	20.92
886.198	18.62
886.631	22.72
887.064	21.72
887.497	24.92
887.929	27.82
888.362	15.82
888.795	13.32
889.228	23.82
889.66	24.82
890.093	21.82
890.526	16.42
890.958	18.82
891.391	19.42
891.823	27.32
892.256	18.92
892.688	14.02
893.121	12.92
893.553	20.62
893.985	23.52
894.418	26.52
894.85	11.82
895.282	15.12
895.715	25.12
896.147	17.62
896.579	15.12
897.011	15.62
897.444	19.62
897.876	16.82
898.308	21.42
898.74	15.32
899.172	21.22
899.604	26.52
900.036	25.52
900.468	19.22
900.9	17.12
901.332	16.32
901.764	14.12
902.196	20.62
902.628	21.72
903.06	23.12
903.491	27.62
903.923	25.62
904.355	23.52
904.787	31.32
905.218	23.32
905.65	19.72
906.082	18.42
906.513	16.02
906.945	15.62
907.376	15.22
907.808	17.72
908.239	21.82
908.671	18.62
909.102	25.32
909.534	24.02
909.965	47.62
910.397	106.42
910.828	337.62
911.259	501.12
911.691	230.82
912.122	110.02
912.553	56.52
912.984	29.62
913.415	20.72
913.847	24.02
914.278	19.62
914.709	13.12
915.14	18.72
915.571	18.02
916.002	18.82
916.433	24.02
916.864	18.82
917.295	9.92
917.726	21.82
918.157	18.22
918.587	34.12
919.018	27.32
919.449	20.62
919.88	23.82
920.311	33.72
920.741	51.52
921.172	173.22
921.603	159.42
922.033	81.72
922.464	48.12
922.895	18.52
923.325	22.62
923.756	15.12
924.186	15.22
924.617	18.22
925.047	22.32
925.478	25.12
925.908	27.32
926.338	15.12
926.769	15.92
927.199	16.72
927.629	8.52
928.06	15.92
928.49	11.52
928.92	12.62
929.35	15.52
929.78	13.42
930.21	10.32
930.641	9.02
931.071	13.12
931.501	5.42
931.931	12.62
932.361	3.52
932.791	2.92
933.221	10.62
933.651	8.92
934.08	23.32
934.51	29.82
934.94	12.22
935.37	12.12
935.8	14.62
936.229	3.12
936.659	14.22
937.089	3.42
937.519	13.32
937.948	26.62
938.378	19.32
938.807	9.22
939.237	-0.88
939.666	4.42
940.096	-3.88
940.525	4.22
940.955	1.62
941.384	-0.28
941.814	-3.58
942.243	-2.78
942.672	5.32
943.102	1.62
943.531	4.62
943.96	4.02
944.39	-1.68
944.819	4.72
945.248	2.12
945.677	1.82
946.106	3.72
946.535	8.52
946.964	-2.78
947.393	5.12
947.822	3.12
948.251	-6.78
948.68	4.22
949.109	8.52
949.538	6.42
949.967	1.12
950.396	3.52
950.825	-0.28
951.254	-1.98
951.682	-10.08
952.111	8.22
952.54	0.62
952.969	-4.18
953.397	-0.78
953.826	4.62
954.254	-4.18
954.683	2.62
955.112	-3.68
955.54	5.52
955.969	4.02
956.397	-2.48
956.826	-7.08
957.254	1.42
957.682	-5.58
958.111	6.72
958.539	-0.08
958.967	6.62
959.396	0.42
959.824	2.12
960.252	4.32
960.68	-4.48
961.109	2.22
961.537	-3.18
961.965	3.42
962.393	5.72
962.821	0.92
963.249	4.32
963.677	0.22
964.105	10.42
964.533	47.22
964.961	47.72
965.389	23.42
965.817	9.92
966.245	0.72
966.672	0.82
967.1	-3.28
967.528	1.12
967.956	-2.08
968.383	3.72
968.811	-2.98
969.239	-2.48
969.666	2.12
970.094	-0.48
970.522	3.32
970.949	-8.58
971.377	-7.38
971.804	0.82
972.232	-4.98
972.659	-0.58
973.087	-7.28
973.514	-5.78
973.941	-8.48
974.369	6.62
974.796	-2.48
975.223	-0.38
975.651	-2.38
976.078	4.52
976.505	-1.48
976.932	2.62
977.359	14.02
977.786	16.12
978.214	-2.48
978.641	-5.48
979.068	-7.58
979.495	-4.08
979.922	-4.88
980.349	-3.38
980.776	3.62
981.202	-0.08
981.629	2.32
982.056	1.62
982.483	-2.28
982.91	-3.58
983.337	-9.08
983.763	-0.78
984.19	-5.48
984.617	-1.08
985.043	-4.58
985.47	-1.38
985.897	-4.88
986.323	-5.98
986.75	3.62
987.176	-0.88
987.603	-3.38
988.029	3.42
988.456	0.12
988.882	4.62
989.308	-9.68
989.735	-4.58
990.161	-0.08
990.587	-2.38
991.014	1.62
991.44	4.72
991.866	0.62
992.292	-2.28
992.719	-3.98
993.145	1.52
993.571	-3.78
993.997	-1.78
994.423	-4.98
994.849	0.52
995.275	-0.98
995.701	2.52
996.127	-3.68
996.553	3.22
996.979	-4.58
997.405	3.42
997.83	1.02
998.256	-7.38
998.682	-3.88
999.108	-7.28
999.534	-2.98
999.959	-1.78
1000.385	-5.18
1000.811	-1.18
1001.236	-9.18
1001.662	-9.08
1002.087	-9.38
1002.513	-2.98
1002.938	1.42
1003.364	-2.58
1003.789	-0.98
1004.215	3.92
1004.64	0.42
1005.066	2.32
1005.491	0.22
1005.916	-2.78
1006.342	-5.48
1006.767	-3.58
1007.192	8.52
1007.617	-3.58
1008.042	-5.78
1008.468	-8.38
1008.893	-8.98
1009.318	-3.38
1009.743	-1.48
1010.168	-0.48
1010.593	-3.18
1011.018	-7.18
1011.443	1.52
1011.868	3.32
1012.293	-5.58
1012.718	-5.98
1013.143	2.22
1013.567	0.32
1013.992	1.72
1014.417	-12.28
1014.842	2.92
1015.267	-6.88
1015.691	-5.18
1016.116	5.62
1016.541	1.52
1016.965	-1.78
1017.39	-2.58
1017.814	-1.18
1018.239	-4.58
1018.663	-3.68
1019.088	-5.88
1019.512	-3.38
1019.937	-2.88
1020.361	-7.88
1020.785	-10.98
1021.21	1.72
1021.634	-0.08
1022.058	-0.48
1022.483	3.52
1022.907	-2.98
1023.331	-1.38
1023.755	-2.18
1024.179	-3.68
1024.604	-9.58
1025.028	-1.38
1025.452	-8.58
1025.876	0.32
1026.3	0.32
1026.724	-11.08
1027.148	-1.48
1027.572	-5.08
1027.996	1.62
1028.42	-3.28
1028.843	-5.58
1029.267	-11.78
1029.691	-5.68
1030.115	-8.88
1030.539	-6.98
1030.962	-3.08
1031.386	-7.28
1031.81	0.12
1032.233	-1.78
1032.657	1.12
1033.08	-5.98
1033.504	-4.08
1033.927	1.52
1034.351	3.62
1034.774	-8.28
1035.198	-5.68
1035.621	-8.88
1036.045	-7.58
1036.468	3.02
1036.891	-6.48
1037.315	-7.48
1037.738	-10.68
1038.161	-1.28
1038.584	-6.28
1039.008	-10.58
1039.431	-1.88
1039.854	-1.68
1040.277	-8.48
1040.7	-15.08
1041.123	-4.48
1041.546	-4.98
1041.969	-4.38
1042.392	-6.78
1042.815	-1.88
1043.238	1.62
1043.661	2.32
1044.084	-7.48
1044.507	-6.58
1044.93	-2.38
1045.352	-3.48
1045.775	-1.38
1046.198	-6.58
1046.621	-4.58
1047.043	0.52
1047.466	4.92
1047.889	1.32
1048.311	-4.18
1048.734	-2.78
1049.156	-3.78
1049.579	0.52
1050.001	-6.88
1050.424	-2.68
1050.846	-9.88
1051.269	-2.18
1051.691	-5.68
1052.113	-1.08
1052.536	-2.88
1052.958	-6.68
1053.38	-5.48
1053.802	-11.38
1054.225	0.52
1054.647	-2.88
1055.069	-2.28
1055.491	1.72
1055.913	-11.68
1056.335	3.22
1056.757	-3.88
1057.179	-9.28
1057.601	-4.98
1058.023	-7.88
1058.445	-4.28
1058.867	-3.98
1059.289	-5.28
1059.711	-8.58
1060.133	2.22
1060.555	-7.68
1060.976	-8.98
1061.398	-1.08
1061.82	-8.08
1062.241	-2.38
1062.663	-12.48
1063.085	-8.08
1063.506	3.62
1063.928	-4.18
1064.35	-0.48
1064.771	-11.18
1065.193	-6.38
1065.614	-10.38
1066.035	-2.88
1066.457	-3.18
1066.878	1.12
1067.3	-7.38
1067.721	-8.68
1068.142	-7.68
1068.564	-2.38
1068.985	-9.68
1069.406	-0.78
1069.827	-7.38
1070.248	-3.18
1070.67	-1.68
1071.091	-4.88
1071.512	0.52
1071.933	-5.68
1072.354	-7.58
1072.775	-5.08
1073.196	-9.28
1073.617	-6.18
1074.038	-6.28
1074.459	-2.08
1074.88	-5.48
1075.3	-0.38
1075.721	-8.38
1076.142	-0.98
1076.563	-2.58
1076.983	-8.88
1077.404	-7.48
1077.825	-14.18
1078.246	-9.08
1078.666	-7.28
1079.087	-3.78
1079.507	-8.38
1079.928	0.52
1080.348	-2.68
1080.769	-2.38
1081.189	2.02
1081.61	-7.88
1082.03	-2.68
1082.451	-8.38
1082.871	-4.68
1083.291	-10.28
1083.711	-6.98
1084.132	-6.18
1084.552	-9.88
1084.972	-0.38
1085.392	-10.28
1085.813	-10.88
1086.233	-8.58
1086.653	-2.48
1087.073	-1.58
1087.493	-6.08
1087.913	-8.38
1088.333	-9.68
1088.753	-3.18
1089.173	-1.08
1089.593	-5.08
1090.013	1.52
1090.433	3.52
1090.852	-1.68
1091.272	-5.18
1091.692	-0.98
1092.112	-1.98
1092.531	-6.78
1092.951	-14.48
1093.371	-4.58
1093.79	-0.08
1094.21	-4.98
1094.63	-10.98
1095.049	-3.68
1095.469	-0.88
1095.888	0.72
1096.308	2.62
1096.727	-2.88
1097.146	-7.48
1097.566	-6.38
1097.985	-8.98
1098.405	-5.08
1098.824	-5.88
1099.243	-6.58
1099.662	-9.78
1100.082	-3.58
1100.501	-1.98
1100.92	-9.18
1101.339	-8.28
1101.758	-7.58
