Data from 20171114-ORNL-Ar_H_NY_Subt18_08-07-14-510.txt Node
Date: Tue Nov 14 08:07:14 EST 2017
User: Ender
Spectrometer: HR+D1039
Trigger mode: 0
Integration Time (sec): 2.730000E-2
Scans to average: 10
Electric dark correction enabled: true
Nonlinearity correction enabled: false
Boxcar width: 0
XAxis mode: Wavelengths
Number of Pixels in Spectrum: 2048
>>>>>Begin Spectral Data<<<<<
187.836	-10.28
188.309	-10.28
188.782	-10.28
189.255	2.12
189.728	-2.98
190.201	4.52
190.674	-2.88
191.147	2.72
191.619	-4.88
192.092	0.82
192.565	8.22
193.038	0.92
193.511	1.72
193.984	-0.58
194.456	4.32
194.929	0.83
195.402	-8.38
195.874	3.73
196.347	-0.48
196.82	-1.98
197.292	6.12
197.765	-0.27
198.237	-11.18
198.71	2.12
199.182	-3.18
199.655	2.32
200.127	0.32
200.6	-0.48
201.072	-0.18
201.544	-3.48
202.017	2.42
202.489	3.72
202.961	-0.38
203.433	-1.78
203.906	-8.98
204.378	-7.27
204.85	-5.08
205.322	-9.08
205.794	-0.58
206.266	-2.78
206.739	-14.68
207.211	-5.18
207.683	-4.58
208.155	-6.48
208.627	-4.28
209.099	-3.18
209.57	-8.98
210.042	-3.28
210.514	-3.98
210.986	-6.38
211.458	-9.48
211.93	1.02
212.402	8.32
212.873	-4.58
213.345	-6.77
213.817	-13.68
214.288	-7.18
214.76	-6.18
215.232	-1.88
215.703	-2.27
216.175	-7.98
216.646	-7.58
217.118	-6.38
217.589	-7.17
218.061	-5.98
218.532	-8.17
219.004	-1.28
219.475	-2.77
219.946	-9.28
220.418	-6.88
220.889	3.42
221.36	5.02
221.832	-7.18
222.303	-8.38
222.774	-1.28
223.245	-10.48
223.717	-6.58
224.188	-4.68
224.659	-5.48
225.13	-4.17
225.601	1.12
226.072	-2.38
226.543	-1.18
227.014	-4.58
227.485	-5.88
227.956	-2.88
228.427	-1.77
228.898	-3.68
229.369	2.62
229.839	-6.08
230.31	-8.78
230.781	2.12
231.252	-2.58
231.722	-9.98
232.193	-5.88
232.664	-4.18
233.135	-3.58
233.605	-5.58
234.076	-6.48
234.546	-1.28
235.017	4.23
235.487	0.32
235.958	-0.68
236.428	-5.28
236.899	-4.08
237.369	-5.88
237.84	-2.78
238.31	4.12
238.78	0.42
239.251	-10.88
239.721	-4.88
240.191	-2.58
240.662	-1.77
241.132	-4.78
241.602	-7.48
242.072	-10.38
242.542	5.23
243.013	0.22
243.483	1.12
243.953	0.23
244.423	-5.67
244.893	-6.48
245.363	-1.98
245.833	-6.78
246.303	-7.48
246.773	0.72
247.243	1.82
247.712	-2.88
248.182	-1.68
248.652	-0.18
249.122	-11.68
249.592	-1.88
250.061	4.22
250.531	0.62
251.001	-6.98
251.471	-0.58
251.94	4.32
252.41	-4.77
252.879	-5.27
253.349	7.52
253.818	1.42
254.288	-0.17
254.757	-3.08
255.227	-0.58
255.696	-3.38
256.166	-1.27
256.635	-2.58
257.105	2.02
257.574	-1.18
258.043	-0.67
258.513	-5.38
258.982	2.33
259.451	-1.18
259.92	0.22
260.389	-0.48
260.859	6.02
261.328	-1.27
261.797	-0.77
262.266	-4.48
262.735	6.02
263.204	-1.18
263.673	0.92
264.142	-1.98
264.611	-4.78
265.08	-3.68
265.549	-2.38
266.018	3.12
266.487	-3.58
266.955	-6.48
267.424	-3.38
267.893	5.33
268.362	-3.67
268.83	-0.68
269.299	2.02
269.768	1.52
270.236	-1.77
270.705	-0.78
271.174	-0.58
271.642	-2.28
272.111	6.42
272.579	-2.28
273.048	1.92
273.516	-0.38
273.985	5.73
274.453	5.32
274.922	14.92
275.39	-0.88
275.858	-0.38
276.327	2.02
276.795	7.52
277.263	1.02
277.731	6.22
278.2	4.72
278.668	4.12
279.136	1.02
279.604	-0.08
280.072	8.52
280.54	0.32
281.008	4.82
281.477	3.12
281.945	6.12
282.413	8.62
282.881	7.73
283.348	5.62
283.816	7.12
284.284	5.92
284.752	9.92
285.22	6.52
285.688	4.32
286.156	8.62
286.623	7.92
287.091	-0.98
287.559	9.12
288.026	7.82
288.494	10.82
288.962	1.32
289.429	8.82
289.897	13.83
290.364	10.32
290.832	7.92
291.3	13.12
291.767	8.23
292.234	12.52
292.702	8.23
293.169	7.62
293.637	12.52
294.104	11.92
294.571	-0.78
295.039	0.22
295.506	8.72
295.973	9.52
296.44	2.32
296.908	11.92
297.375	8.72
297.842	11.52
298.309	9.73
298.776	3.62
299.243	13.22
299.71	7.82
300.177	13.42
300.644	12.23
301.111	12.12
301.578	13.92
302.045	14.23
302.512	14.23
302.979	16.23
303.446	13.42
303.913	8.23
304.379	11.22
304.846	15.73
305.313	20.92
305.78	17.32
306.246	15.62
306.713	13.72
307.18	13.02
307.646	16.92
308.113	18.22
308.579	14.62
309.046	14.73
309.512	20.02
309.979	4.92
310.445	17.82
310.912	22.82
311.378	20.92
311.845	17.83
312.311	19.42
312.777	23.02
313.244	17.33
313.71	27.32
314.176	19.42
314.642	17.02
315.109	20.92
315.575	27.62
316.041	26.92
316.507	18.22
316.973	31.12
317.439	21.72
317.905	28.92
318.371	23.72
318.837	28.73
319.303	24.12
319.769	22.62
320.235	27.42
320.701	26.02
321.167	34.02
321.633	20.23
322.099	26.22
322.564	24.92
323.03	29.52
323.496	29.02
323.962	27.33
324.427	26.62
324.893	34.32
325.359	37.02
325.824	29.12
326.29	31.02
326.755	32.02
327.221	34.72
327.686	29.12
328.152	30.83
328.617	36.32
329.083	35.72
329.548	45.22
330.014	40.73
330.479	35.42
330.944	32.42
331.41	35.82
331.875	41.02
332.34	36.02
332.805	29.72
333.271	36.32
333.736	31.32
334.201	38.92
334.666	38.52
335.131	38.22
335.596	39.82
336.061	35.52
336.526	26.42
336.991	38.23
337.456	43.62
337.921	44.12
338.386	37.32
338.851	34.72
339.316	40.12
339.781	40.23
340.246	44.02
340.711	32.72
341.175	49.02
341.64	41.02
342.105	45.02
342.569	41.92
343.034	42.82
343.499	44.72
343.963	44.52
344.428	53.42
344.893	52.32
345.357	48.72
345.822	42.52
346.286	56.62
346.751	59.33
347.215	53.72
347.679	57.12
348.144	76.12
348.608	62.02
349.073	58.72
349.537	53.73
350.001	61.62
350.465	74.62
350.93	58.82
351.394	66.23
351.858	62.83
352.322	80.23
352.786	62.83
353.25	81.52
353.715	86.02
354.179	77.22
354.643	101.92
355.107	98.92
355.571	84.92
356.035	84.12
356.498	89.62
356.962	94.22
357.426	102.82
357.89	87.82
358.354	73.42
358.818	73.02
359.281	66.83
359.745	68.02
360.209	61.32
360.673	61.83
361.136	61.12
361.6	76.92
362.064	64.02
362.527	74.12
362.991	77.02
363.454	66.42
363.918	71.52
364.381	68.52
364.845	72.52
365.308	74.72
365.772	76.22
366.235	78.52
366.698	75.62
367.162	75.22
367.625	78.92
368.088	71.12
368.552	87.72
369.015	81.23
369.478	78.12
369.941	89.02
370.404	85.82
370.867	76.92
371.331	89.92
371.794	96.92
372.257	86.82
372.72	89.72
373.183	92.42
373.646	84.22
374.109	89.02
374.572	85.52
375.035	88.72
375.497	94.72
375.96	85.62
376.423	86.22
376.886	100.42
377.349	100.82
377.811	90.32
378.274	89.62
378.737	98.92
379.199	99.73
379.662	94.42
380.125	97.42
380.587	93.92
381.05	96.92
381.512	103.22
381.975	108.12
382.437	111.73
382.9	105.52
383.362	115.12
383.825	115.02
384.287	110.42
384.75	107.62
385.212	112.12
385.674	116.92
386.136	118.62
386.599	115.72
387.061	105.12
387.523	110.12
387.985	111.32
388.447	122.02
388.91	119.32
389.372	112.23
389.834	117.52
390.296	114.22
390.758	118.52
391.22	121.12
391.682	128.32
392.144	130.12
392.606	126.92
393.068	123.62
393.529	142.22
393.991	129.12
394.453	120.12
394.915	124.82
395.377	125.12
395.838	121.22
396.3	126.52
396.762	132.73
397.224	122.42
397.685	119.82
398.147	118.92
398.608	116.23
399.07	121.42
399.531	123.73
399.993	136.92
400.454	144.72
400.916	136.32
401.377	141.83
401.839	145.32
402.3	147.62
402.762	150.22
403.223	170.62
403.684	166.02
404.145	152.12
404.607	150.72
405.068	158.72
405.529	148.42
405.99	171.32
406.451	162.62
406.913	166.82
407.374	152.42
407.835	150.73
408.296	153.42
408.757	161.92
409.218	170.42
409.679	171.23
410.14	162.42
410.601	159.92
411.062	165.82
411.522	168.42
411.983	162.22
412.444	159.42
412.905	170.42
413.366	172.42
413.826	190.62
414.287	208.62
414.748	260.23
415.208	249.92
415.669	212.02
416.13	206.62
416.59	201.82
417.051	212.12
417.511	211.42
417.972	230.92
418.432	240.62
418.893	283.52
419.353	248.53
419.814	195.72
420.274	180.22
420.734	190.12
421.195	195.82
421.655	180.92
422.115	197.12
422.576	188.02
423.036	196.12
423.496	205.02
423.956	207.12
424.416	229.72
424.876	261.02
425.336	255.02
425.797	256.72
426.257	248.02
426.717	234.22
427.177	227.12
427.637	222.12
428.097	239.22
428.556	243.73
429.016	256.92
429.476	245.42
429.936	258.83
430.396	267.73
430.856	278.02
431.315	294.22
431.775	338.92
432.235	357.02
432.694	335.83
433.154	344.73
433.614	367.42
434.073	323.42
434.533	271.92
434.993	263.43
435.452	270.42
435.912	277.72
436.371	279.72
436.83	271.33
437.29	250.32
437.749	237.73
438.209	242.92
438.668	268.12
439.127	284.43
439.587	249.42
440.046	247.12
440.505	254.83
440.964	262.22
441.424	318.12
441.883	307.42
442.342	253.42
442.801	230.32
443.26	219.12
443.719	221.62
444.178	218.62
444.637	214.53
445.096	223.33
445.555	227.82
446.014	228.22
446.473	227.93
446.932	234.72
447.391	225.52
447.849	230.52
448.308	213.73
448.767	224.42
449.226	241.83
449.685	236.32
450.143	248.42
450.602	237.42
451.061	230.42
451.519	234.03
451.978	236.32
452.436	239.82
452.895	239.92
453.353	252.92
453.812	244.62
454.27	240.32
454.729	254.03
455.187	240.23
455.646	251.02
456.104	254.32
456.562	266.92
457.021	273.23
457.479	253.92
457.937	274.72
458.395	267.42
458.854	254.43
459.312	254.73
459.77	279.93
460.228	255.92
460.686	245.62
461.144	259.02
461.602	244.92
462.06	250.62
462.518	264.92
462.976	270.72
463.434	266.32
463.892	266.23
464.35	277.92
464.808	293.93
465.266	270.93
465.724	276.92
466.181	282.43
466.639	281.23
467.097	294.52
467.555	303.82
468.012	313.23
468.47	314.12
468.928	333.02
469.385	348.42
469.843	356.23
470.3	353.12
470.758	367.23
471.215	385.82
471.673	411.23
472.13	409.12
472.588	416.73
473.045	378.83
473.503	382.92
473.96	401.23
474.417	412.32
474.875	437.82
475.332	474.82
475.789	463.72
476.246	472.02
476.704	491.83
477.161	519.43
477.618	525.42
478.075	557.33
478.532	614.73
478.989	681.82
479.446	783.62
479.903	754.22
480.36	786.73
480.817	833.62
481.274	924.23
481.731	1014.02
482.188	1086.03
482.645	1212.82
483.102	1289.92
483.558	1416.83
484.015	1452.02
484.472	1425.62
484.929	1393.12
485.385	1343.12
485.842	1315.03
486.299	1260.22
486.755	1228.42
487.212	1047.62
487.668	897.32
488.125	814.23
488.582	773.12
489.038	740.82
489.494	710.02
489.951	686.52
490.407	664.42
490.864	648.33
491.32	645.23
491.776	645.23
492.233	651.92
492.689	627.43
493.145	618.22
493.602	612.92
494.058	621.02
494.514	626.03
494.97	641.42
495.426	644.82
495.882	630.43
496.338	618.43
496.794	633.73
497.251	630.12
497.707	638.03
498.163	641.32
498.618	639.32
499.074	647.62
499.53	672.92
499.986	679.22
500.442	652.53
500.898	639.42
501.354	625.12
501.809	634.92
502.265	634.02
502.721	650.52
503.177	651.33
503.632	643.42
504.088	652.62
504.543	671.92
504.999	697.23
505.455	658.32
505.91	656.73
506.366	649.42
506.821	652.32
507.277	643.52
507.732	649.52
508.187	644.73
508.643	656.62
509.098	650.32
509.553	681.82
510.009	683.12
510.464	688.92
510.919	712.62
511.375	724.83
511.83	726.42
512.285	743.22
512.74	778.82
513.195	800.52
513.65	783.03
514.105	786.62
514.56	794.12
515.015	811.42
515.47	808.12
515.925	798.22
516.38	806.02
516.835	810.23
517.29	794.53
517.745	791.62
518.2	788.32
518.655	773.92
519.109	757.33
519.564	753.42
520.019	748.02
520.474	739.92
520.928	736.52
521.383	737.92
521.838	727.23
522.292	728.32
522.747	737.02
523.201	723.52
523.656	729.93
524.11	707.83
524.565	712.73
525.019	712.52
525.474	717.12
525.928	716.53
526.382	718.42
526.837	719.32
527.291	722.52
527.745	722.12
528.2	711.33
528.654	703.43
529.108	706.92
529.562	712.73
530.016	707.72
530.47	708.73
530.925	702.73
531.379	714.23
531.833	717.42
532.287	716.22
532.741	721.12
533.195	720.02
533.649	720.23
534.103	734.43
534.556	727.32
535.01	724.42
535.464	716.42
535.918	734.03
536.372	742.72
536.826	736.33
537.279	720.92
537.733	727.73
538.187	732.12
538.64	737.52
539.094	739.12
539.548	740.22
540.001	737.02
540.455	744.52
540.908	749.52
541.362	761.43
541.815	765.62
542.269	776.72
542.722	783.42
543.175	793.73
543.629	786.12
544.082	806.82
544.536	812.43
544.989	817.03
545.442	821.73
545.895	805.52
546.349	818.62
546.802	821.22
547.255	810.02
547.708	839.52
548.161	841.52
548.614	850.72
549.067	844.23
549.52	852.43
549.973	844.42
550.426	837.22
550.879	823.02
551.332	819.52
551.785	838.62
552.238	839.42
552.691	849.03
553.144	862.02
553.596	881.72
554.049	887.42
554.502	904.92
554.955	939.42
555.407	937.82
555.86	925.12
556.313	914.43
556.765	907.02
557.218	911.02
557.67	907.32
558.123	902.22
558.576	888.52
559.028	905.33
559.48	924.12
559.933	902.73
560.385	882.42
560.838	846.92
561.29	809.02
561.742	817.72
562.195	785.52
562.647	781.62
563.099	805.12
563.551	799.32
564.004	815.62
564.456	792.52
564.908	792.22
565.36	759.82
565.812	746.92
566.264	740.33
566.716	737.33
567.168	727.42
567.62	737.12
568.072	715.82
568.524	709.42
568.976	713.92
569.428	699.12
569.88	696.73
570.332	699.12
570.784	700.62
571.235	712.72
571.687	714.43
572.139	724.72
572.59	734.42
573.042	730.02
573.494	730.83
573.945	730.62
574.397	707.73
574.849	716.92
575.3	707.52
575.752	706.82
576.203	696.82
576.655	701.62
577.106	697.43
577.557	678.72
578.009	688.72
578.46	684.42
578.912	675.52
579.363	680.23
579.814	687.92
580.265	674.72
580.717	683.82
581.168	691.62
581.619	690.22
582.07	703.53
582.521	693.62
582.972	687.33
583.423	692.52
583.875	695.73
584.326	699.42
584.777	710.42
585.227	734.62
585.678	741.73
586.129	749.52
586.58	765.42
587.031	775.62
587.482	801.52
587.933	811.23
588.384	798.12
588.834	794.32
589.285	802.02
589.736	803.82
590.186	785.42
590.637	778.42
591.088	761.33
591.538	752.02
591.989	746.23
592.439	748.42
592.89	739.62
593.34	720.42
593.791	725.82
594.241	712.42
594.692	706.32
595.142	706.82
595.593	710.52
596.043	716.62
596.493	726.82
596.943	721.22
597.394	739.43
597.844	737.52
598.294	751.33
598.744	773.82
599.195	802.43
599.645	840.43
600.095	887.83
600.545	939.92
600.995	988.92
601.445	1051.32
601.895	1110.33
602.345	1169.22
602.795	1137.12
603.245	1090.02
603.695	1037.92
604.145	985.02
604.594	942.33
605.044	887.73
605.494	831.12
605.944	775.23
606.393	760.22
606.843	738.62
607.293	743.42
607.743	740.82
608.192	757.72
608.642	767.43
609.091	772.22
609.541	783.12
609.99	776.92
610.44	780.72
610.889	722.72
611.339	711.02
611.788	689.33
612.238	699.62
612.687	718.42
613.136	705.23
613.586	711.22
614.035	714.12
614.484	726.42
614.933	715.92
615.383	716.02
615.832	728.03
616.281	709.03
616.73	691.32
617.179	672.02
617.628	654.02
618.077	638.73
618.526	631.42
618.975	627.12
619.424	641.62
619.873	624.22
620.322	616.92
620.771	618.52
621.22	617.22
621.669	605.03
622.118	590.33
622.567	586.12
623.015	577.73
623.464	585.52
623.913	565.12
624.361	567.22
624.81	562.12
625.259	569.22
625.707	560.33
626.156	566.32
626.604	577.52
627.053	568.62
627.501	582.62
627.95	574.03
628.398	604.62
628.847	571.83
629.295	577.43
629.744	576.12
630.192	580.72
630.64	561.42
631.089	559.02
631.537	554.32
631.985	537.62
632.433	547.73
632.881	533.62
633.33	536.02
633.778	536.02
634.226	532.12
634.674	548.62
635.122	552.12
635.57	556.42
636.018	570.62
636.466	571.32
636.914	564.32
637.362	579.62
637.81	581.42
638.258	591.03
638.705	601.23
639.153	625.02
639.601	628.23
640.049	653.72
640.497	683.92
640.944	706.33
641.392	670.52
641.84	625.92
642.287	589.32
642.735	578.12
643.182	573.12
643.63	571.73
644.078	562.22
644.525	577.42
644.973	593.23
645.42	595.72
645.867	623.43
646.315	641.62
646.762	659.72
647.21	682.12
647.657	715.92
648.104	745.32
648.551	760.73
648.999	811.62
649.446	889.82
649.893	975.62
650.34	1100.22
650.787	1321.43
651.234	1608.92
651.682	2099.12
652.129	2825.43
652.576	4022.52
653.023	5881.52
653.47	7950.62
653.917	9837.43
654.363	11338.43
654.81	12514.73
655.257	11861.93
655.704	7826.12
656.151	4741.92
656.598	3129.62
657.044	2227.52
657.491	1733.12
657.938	1398.73
658.385	1186.72
658.831	1037.92
659.278	927.82
659.724	834.92
660.171	765.42
660.618	715.52
661.064	673.22
661.511	656.12
661.957	651.12
662.404	634.12
662.85	639.72
663.296	621.02
663.743	560.92
664.189	535.32
664.635	532.42
665.082	528.52
665.528	534.62
665.974	519.73
666.42	515.22
666.867	506.52
667.313	494.32
667.759	475.12
668.205	454.92
668.651	453.53
669.097	452.52
669.543	456.42
669.989	450.32
670.435	452.33
670.881	457.22
671.327	458.02
671.773	480.72
672.219	502.42
672.665	564.22
673.11	593.72
673.556	641.73
674.002	677.23
674.448	672.32
674.893	562.73
675.339	488.33
675.785	460.12
676.23	429.33
676.676	409.62
677.122	399.83
677.567	386.32
678.013	377.73
678.458	364.12
678.904	360.42
679.349	351.82
679.794	370.12
680.24	357.83
680.685	354.02
681.131	346.23
681.576	356.52
682.021	359.23
682.466	347.33
682.912	357.52
683.357	356.52
683.802	389.42
684.247	417.52
684.692	463.92
685.137	504.52
685.583	550.02
686.028	573.02
686.473	531.52
686.918	453.52
687.363	424.02
687.807	403.42
688.252	378.02
688.697	363.33
689.142	346.52
689.587	342.92
690.032	338.42
690.477	348.02
690.921	361.33
691.366	384.92
691.811	411.33
692.255	439.93
692.7	465.02
693.145	510.92
693.589	729.72
694.034	1175.92
694.478	1597.82
694.923	1794.22
695.367	2334.82
695.812	1242.52
696.256	513.42
696.701	386.42
697.145	350.62
697.59	337.12
698.034	330.22
698.478	329.22
698.922	329.12
699.367	329.32
699.811	342.42
700.255	364.12
700.699	399.02
701.143	429.33
701.588	484.33
702.032	511.82
702.476	519.92
702.92	509.22
703.364	512.42
703.808	665.62
704.252	1084.03
704.696	1509.82
705.14	1717.53
705.584	2208.82
706.027	1101.72
706.471	539.42
706.915	409.33
707.359	364.73
707.803	329.82
708.246	317.53
708.69	318.83
709.134	318.12
709.577	319.32
710.021	322.83
710.465	309.83
710.908	303.73
711.352	309.73
711.795	322.22
712.239	360.82
712.682	394.62
713.126	422.92
713.569	463.52
714.012	365.62
714.456	308.42
714.899	298.93
715.342	281.83
715.786	270.23
716.229	261.92
716.672	267.73
717.115	257.32
717.558	251.72
718.002	264.12
718.445	271.93
718.888	299.42
719.331	302.83
719.774	317.02
720.217	314.52
720.66	289.12
721.103	275.22
721.546	258.53
721.989	253.72
722.432	236.52
722.874	243.62
723.317	225.23
723.76	240.23
724.203	259.62
724.645	317.73
725.088	456.82
725.531	594.83
725.974	663.52
726.416	564.62
726.859	314.52
727.301	248.02
727.744	239.22
728.187	237.62
728.629	245.02
729.071	251.52
729.514	265.42
729.956	279.52
730.399	288.23
730.841	297.22
731.283	283.53
731.726	273.03
732.168	268.23
732.61	270.92
733.053	298.83
733.495	323.62
733.937	359.22
734.379	407.72
734.821	448.12
735.263	559.62
735.705	862.02
736.148	1638.92
736.59	2700.12
737.032	3170.62
737.474	2572.42
737.916	852.43
738.357	441.62
738.799	342.02
739.241	311.92
739.683	295.82
740.125	294.92
740.567	303.12
741.008	323.22
741.45	327.23
741.892	324.93
742.334	360.83
742.775	370.42
743.217	362.02
743.658	280.12
744.1	270.83
744.542	271.43
744.983	323.62
745.425	358.83
745.866	352.73
746.307	282.02
746.749	287.43
747.19	333.92
747.632	476.12
748.073	921.92
748.514	1954.72
748.956	2964.62
749.397	3720.22
749.838	3096.43
750.279	3055.53
750.72	1551.82
751.162	574.43
751.603	334.02
752.044	260.12
752.485	223.73
752.926	218.42
753.367	208.02
753.808	198.92
754.249	192.32
754.69	187.52
755.131	189.73
755.572	186.22
756.013	182.42
756.453	191.62
756.894	194.92
757.335	194.92
757.776	191.22
758.216	207.42
758.657	211.03
759.098	212.93
759.538	232.52
759.979	268.02
760.42	396.23
760.86	738.62
761.301	1934.53
761.741	4649.72
762.182	6665.82
762.622	4698.12
763.063	1354.73
763.503	555.33
763.943	333.72
764.384	268.52
764.824	238.72
765.264	216.92
765.705	205.22
766.145	185.52
766.585	175.82
767.025	172.22
767.465	165.92
767.906	182.12
768.346	192.62
768.786	192.92
769.226	220.43
769.666	306.32
770.106	644.82
770.546	1625.32
770.986	2730.32
771.426	2447.32
771.866	830.22
772.306	340.32
772.745	206.73
773.185	173.72
773.625	163.02
774.065	153.32
774.505	161.32
774.944	209.72
775.384	351.83
775.824	572.03
776.263	558.62
776.703	275.02
777.142	158.73
777.582	139.82
778.021	127.23
778.461	120.83
778.9	123.12
779.34	129.33
779.779	110.62
780.219	110.02
780.658	110.52
781.097	114.12
781.537	117.12
781.976	117.82
782.415	109.82
782.855	107.42
783.294	104.33
783.733	105.42
784.172	110.72
784.611	104.62
785.05	111.22
785.489	109.73
785.928	114.32
786.367	116.02
786.806	120.72
787.245	131.02
787.684	139.52
788.123	148.52
788.562	135.82
789.001	131.83
789.44	122.23
789.879	123.62
790.317	115.22
790.756	125.23
791.195	125.92
791.634	150.83
792.072	206.03
792.511	376.72
792.95	1042.22
793.388	2187.43
793.827	1967.33
794.265	689.52
794.704	283.62
795.142	194.92
795.581	157.62
796.019	142.22
796.458	130.42
796.896	126.62
797.334	130.92
797.773	157.92
798.211	226.42
798.649	456.02
799.087	1052.22
799.526	1669.12
799.964	2085.12
800.402	2074.52
800.84	787.52
801.278	306.43
801.716	194.83
802.154	157.72
802.592	148.62
803.03	147.73
803.468	136.92
803.906	145.42
804.344	145.62
804.782	142.62
805.22	141.52
805.658	128.32
806.096	147.62
806.533	164.52
806.971	178.42
807.409	231.92
807.847	331.12
808.284	696.42
808.722	1958.33
809.16	3410.82
809.597	3296.73
810.035	5688.12
810.472	5971.12
810.91	2183.73
811.347	842.42
811.785	421.53
812.222	265.82
812.66	196.62
813.097	170.02
813.535	151.92
813.972	137.12
814.409	121.72
814.846	109.33
815.284	113.82
815.721	109.22
816.158	99.12
816.595	111.52
817.032	159.42
817.47	191.32
817.907	147.52
818.344	108.42
818.781	95.12
819.218	99.82
819.655	130.83
820.092	199.23
820.529	218.52
820.966	175.02
821.403	125.52
821.839	102.82
822.276	98.82
822.713	121.52
823.15	141.73
823.587	126.02
824.023	152.62
824.46	318.42
824.897	939.12
825.333	1402.02
825.77	602.82
826.206	241.02
826.643	137.92
827.08	100.32
827.516	81.33
827.953	79.12
828.389	78.52
828.825	74.62
829.262	73.72
829.698	66.42
830.135	63.73
830.571	60.92
831.007	66.02
831.443	56.72
831.88	61.92
832.316	64.92
832.752	63.52
833.188	59.62
833.624	63.62
834.06	68.62
834.497	70.42
834.933	71.73
835.369	73.72
835.805	67.72
836.241	83.42
836.677	88.62
837.112	93.22
837.548	104.32
837.984	142.62
838.42	212.42
838.856	524.12
839.292	1589.92
839.727	2394.62
840.163	1107.22
840.599	974.73
841.034	2106.33
841.47	2206.53
841.906	806.33
842.341	341.82
842.777	202.12
843.212	199.33
843.648	184.52
844.083	115.32
844.519	84.92
844.954	71.73
845.39	59.32
845.825	61.52
846.261	51.12
846.696	53.62
847.131	50.32
847.566	61.72
848.002	52.32
848.437	58.73
848.872	61.92
849.307	62.92
849.742	90.73
850.177	189.02
850.613	575.33
851.048	911.33
851.483	398.02
851.918	159.82
852.353	92.72
852.788	50.02
853.223	54.32
853.657	58.12
854.092	56.42
854.527	49.32
854.962	40.12
855.397	48.62
855.832	52.42
856.266	47.12
856.701	37.12
857.136	43.32
857.57	42.42
858.005	53.33
858.44	63.52
858.874	44.92
859.309	60.62
859.743	38.62
860.178	47.72
860.612	41.92
861.047	52.32
861.481	70.72
861.915	73.62
862.35	51.12
862.784	33.52
863.218	42.42
863.653	30.32
864.087	53.52
864.521	52.32
864.955	69.12
865.39	164.82
865.824	180.12
866.258	122.02
866.692	179.52
867.126	192.62
867.56	109.52
867.994	56.32
868.428	41.82
868.862	51.73
869.296	55.52
869.73	55.22
870.164	52.42
870.598	53.62
871.031	39.02
871.465	28.82
871.899	36.62
872.333	20.83
872.766	29.32
873.2	24.72
873.634	33.62
874.067	28.72
874.501	26.52
874.935	31.02
875.368	27.42
875.802	25.92
876.235	27.32
876.669	21.42
877.102	22.32
877.535	28.42
877.969	18.62
878.402	24.62
878.836	23.52
879.269	19.62
879.702	23.82
880.135	20.92
880.569	19.22
881.002	28.33
881.435	24.72
881.868	14.32
882.301	17.62
882.734	16.42
883.167	24.92
883.601	21.12
884.034	22.82
884.467	17.42
884.899	22.62
885.332	13.42
885.765	17.52
886.198	15.82
886.631	16.82
887.064	16.82
887.497	18.92
887.929	23.52
888.362	16.52
888.795	4.92
889.228	20.62
889.66	24.22
890.093	12.22
890.526	17.72
890.958	15.23
891.391	19.92
891.823	18.23
892.256	19.72
892.688	17.42
893.121	19.33
893.553	9.82
893.985	25.62
894.418	28.42
894.85	11.62
895.282	18.72
895.715	19.42
896.147	16.52
896.579	20.52
897.011	15.33
897.444	16.73
897.876	14.23
898.308	21.02
898.74	10.02
899.172	14.23
899.604	21.83
900.036	26.62
900.468	17.32
900.9	17.82
901.332	21.62
901.764	12.32
902.196	21.52
902.628	15.92
903.06	20.22
903.491	22.62
903.923	26.22
904.355	22.73
904.787	23.82
905.218	15.42
905.65	19.82
906.082	13.22
906.513	14.52
906.945	17.02
907.376	15.12
907.808	19.92
908.239	24.02
908.671	28.02
909.102	17.73
909.534	19.92
909.965	47.73
910.397	87.02
910.828	334.92
911.259	490.62
911.691	223.23
912.122	112.33
912.553	55.52
912.984	34.33
913.415	31.52
913.847	24.62
914.278	13.62
914.709	11.22
915.14	18.73
915.571	17.12
916.002	11.72
916.433	17.52
916.864	18.72
917.295	16.02
917.726	18.42
918.157	17.62
918.587	28.22
919.018	21.92
919.449	25.83
919.88	23.42
920.311	28.52
920.741	46.52
921.172	170.62
921.603	157.82
922.033	72.62
922.464	41.92
922.895	23.72
923.325	18.42
923.756	12.12
924.186	10.52
924.617	18.73
925.047	25.92
925.478	23.12
925.908	25.02
926.338	11.73
926.769	5.33
927.199	14.92
927.629	6.73
928.06	21.62
928.49	10.12
928.92	20.82
929.35	8.73
929.78	14.72
930.21	9.32
930.641	13.42
931.071	10.32
931.501	3.52
931.931	10.62
932.361	8.42
932.791	8.72
933.221	10.73
933.651	10.12
934.08	20.12
934.51	24.32
934.94	12.23
935.37	6.42
935.8	11.82
936.229	6.52
936.659	6.62
937.089	7.12
937.519	16.52
937.948	21.42
938.378	15.32
938.807	6.82
939.237	5.23
939.666	13.52
940.096	-1.18
940.525	9.32
940.955	-0.27
941.384	2.33
941.814	-4.18
942.243	-2.48
942.672	3.82
943.102	0.83
943.531	-2.38
943.96	5.32
944.39	-0.78
944.819	2.42
945.248	9.22
945.677	-0.88
946.106	-2.18
946.535	3.22
946.964	-2.08
947.393	1.52
947.822	1.02
948.251	0.52
948.68	3.52
949.109	4.72
949.538	4.52
949.967	-1.78
950.396	0.82
950.825	-4.08
951.254	1.23
951.682	-9.28
952.111	5.73
952.54	-1.88
952.969	-0.68
953.397	-3.88
953.826	2.22
954.254	-4.28
954.683	1.02
955.112	-2.58
955.54	0.83
955.969	5.82
956.397	-0.38
956.826	-1.98
957.254	1.83
957.682	4.52
958.111	7.52
958.539	-0.68
958.967	4.62
959.396	-2.48
959.824	-5.17
960.252	-2.18
960.68	-0.48
961.109	-3.78
961.537	-2.98
961.965	2.42
962.393	0.02
962.821	-3.58
963.249	-3.48
963.677	6.73
964.105	4.82
964.533	45.52
964.961	46.82
965.389	20.23
965.817	12.12
966.245	3.02
966.672	1.92
967.1	-6.88
967.528	-1.68
967.956	-4.48
968.383	-2.38
968.811	-3.88
969.239	3.22
969.666	-8.08
970.094	2.52
970.522	-0.98
970.949	-6.18
971.377	-4.27
971.804	-0.08
972.232	-0.48
972.659	-3.48
973.087	-2.78
973.514	-5.48
973.941	-7.48
974.369	1.92
974.796	6.02
975.223	0.52
975.651	1.42
976.078	2.73
976.505	0.82
976.932	-3.88
977.359	14.72
977.786	14.22
978.214	3.02
978.641	-0.18
979.068	-1.78
979.495	-7.48
979.922	-0.48
980.349	-1.38
980.776	5.02
981.202	1.32
981.629	1.52
982.056	0.12
982.483	-4.48
982.91	2.32
983.337	-7.68
983.763	4.72
984.19	-2.08
984.617	-1.88
985.043	-3.78
985.47	0.52
985.897	-3.58
986.323	-8.28
986.75	3.33
987.176	0.92
987.603	-0.78
988.029	3.42
988.456	-0.38
988.882	5.92
989.308	-6.18
989.735	-3.18
990.161	-2.88
990.587	-4.88
991.014	-0.58
991.44	7.02
991.866	0.83
992.292	-4.88
992.719	-5.28
993.145	1.73
993.571	-8.38
993.997	-5.78
994.423	-0.08
994.849	-5.98
995.275	0.62
995.701	-2.38
996.127	-5.08
996.553	-1.48
996.979	-4.27
997.405	2.42
997.83	-1.98
998.256	-8.18
998.682	-9.48
999.108	-3.98
999.534	-1.48
999.959	-1.68
1000.385	-7.78
1000.811	1.52
1001.236	-9.28
1001.662	-8.58
1002.087	-10.88
1002.513	-2.98
1002.938	8.92
1003.364	0.52
1003.789	2.23
1004.215	2.62
1004.64	-0.88
1005.066	3.73
1005.491	-2.98
1005.916	0.82
1006.342	-3.77
1006.767	-6.27
1007.192	3.82
1007.617	-5.28
1008.042	-8.38
1008.468	-8.48
1008.893	-4.08
1009.318	-7.78
1009.743	5.22
1010.168	4.82
1010.593	2.62
1011.018	-4.88
1011.443	1.52
1011.868	2.23
1012.293	4.33
1012.718	-9.98
1013.143	0.82
1013.567	1.02
1013.992	-5.18
1014.417	-15.58
1014.842	3.32
1015.267	-4.38
1015.691	-4.77
1016.116	4.42
1016.541	-3.08
1016.965	-5.98
1017.39	2.32
1017.814	0.92
1018.239	-4.28
1018.663	-8.58
1019.088	-7.78
1019.512	-5.98
1019.937	-1.98
1020.361	-2.88
1020.785	-10.08
1021.21	-6.08
1021.634	3.52
1022.058	-1.38
1022.483	4.12
1022.907	0.02
1023.331	-5.98
1023.755	-1.98
1024.179	0.92
1024.604	-5.27
1025.028	-8.18
1025.452	-4.18
1025.876	-0.78
1026.3	-1.08
1026.724	-7.48
1027.148	-12.98
1027.572	-9.68
1027.996	0.22
1028.42	-3.08
1028.843	-2.18
1029.267	-6.28
1029.691	-1.08
1030.115	-13.08
1030.539	-8.78
1030.962	-7.98
1031.386	-9.08
1031.81	-3.08
1032.233	-1.88
1032.657	-5.98
1033.08	1.02
1033.504	0.72
1033.927	1.12
1034.351	0.02
1034.774	-2.38
1035.198	0.12
1035.621	-8.67
1036.045	-7.98
1036.468	4.52
1036.891	-8.78
1037.315	-5.78
1037.738	-8.68
1038.161	6.22
1038.584	-7.58
1039.008	-6.68
1039.431	-5.08
1039.854	-6.18
1040.277	-8.18
1040.7	-7.18
1041.123	-2.78
1041.546	-5.58
1041.969	-6.48
1042.392	-2.28
1042.815	0.22
1043.238	4.52
1043.661	5.62
1044.084	-4.58
1044.507	-3.48
1044.93	-5.38
1045.352	-8.48
1045.775	-5.38
1046.198	-11.18
1046.621	-2.88
1047.043	-1.48
1047.466	5.32
1047.889	-0.18
1048.311	-6.27
1048.734	-2.58
1049.156	-5.77
1049.579	-6.48
1050.001	-5.98
1050.424	-5.58
1050.846	-2.18
1051.269	-2.17
1051.691	-6.77
1052.113	-9.58
1052.536	-2.18
1052.958	-8.98
1053.38	-2.48
1053.802	-11.78
1054.225	3.02
1054.647	-10.38
1055.069	-3.88
1055.491	-1.38
1055.913	-7.58
1056.335	0.32
1056.757	-11.08
1057.179	-6.88
1057.601	-7.68
1058.023	-0.77
1058.445	-4.28
1058.867	-6.18
1059.289	-6.98
1059.711	-9.77
1060.133	-6.48
1060.555	-8.88
1060.976	-7.78
1061.398	-5.48
1061.82	-1.88
1062.241	-2.68
1062.663	-6.08
1063.085	-3.48
1063.506	-0.38
1063.928	-5.58
1064.35	-6.77
1064.771	-8.88
1065.193	-6.08
1065.614	-8.78
1066.035	-7.17
1066.457	-4.28
1066.878	1.32
1067.3	-1.58
1067.721	-3.28
1068.142	-2.88
1068.564	-11.28
1068.985	-7.58
1069.406	-5.27
1069.827	-10.58
1070.248	-0.78
1070.67	-7.48
1071.091	-4.58
1071.512	-3.08
1071.933	-3.68
1072.354	-2.27
1072.775	-9.18
1073.196	-5.48
1073.617	-0.18
1074.038	-6.38
1074.459	-6.27
1074.88	-6.27
1075.3	-0.88
1075.721	-6.68
1076.142	-0.48
1076.563	-4.18
1076.983	-8.58
1077.404	-5.38
1077.825	-10.48
1078.246	-1.48
1078.666	-11.68
1079.087	-4.08
1079.507	-7.68
1079.928	0.42
1080.348	-4.88
1080.769	-4.68
1081.189	-5.48
1081.61	-2.68
1082.03	-11.48
1082.451	-7.08
1082.871	-2.38
1083.291	-9.08
1083.711	-12.88
1084.132	-10.38
1084.552	-0.98
1084.972	-5.68
1085.392	-7.18
1085.813	-12.78
1086.233	-8.18
1086.653	-9.38
1087.073	-6.98
1087.493	-2.48
1087.913	-10.78
1088.333	-7.98
1088.753	-3.08
1089.173	-0.68
1089.593	-4.38
1090.013	-0.68
1090.433	-7.68
1090.852	-5.18
1091.272	-7.88
1091.692	0.62
1092.112	-4.58
1092.531	-6.88
1092.951	-17.18
1093.371	-7.18
1093.79	-5.98
1094.21	-10.08
1094.63	-2.27
1095.049	-8.68
1095.469	-5.48
1095.888	0.62
1096.308	1.62
1096.727	5.23
1097.146	-3.77
1097.566	-2.08
1097.985	-6.58
1098.405	-1.38
1098.824	-9.48
1099.243	-0.77
1099.662	-3.98
1100.082	-2.77
1100.501	-1.98
1100.92	-9.68
1101.339	-4.38
1101.758	-3.67
