Data from 20171114-ORNL-Ar_H_NY_Subt18_08-09-04-579.txt Node
Date: Tue Nov 14 08:09:04 EST 2017
User: Ender
Spectrometer: HR+D1039
Trigger mode: 0
Integration Time (sec): 2.730000E-2
Scans to average: 10
Electric dark correction enabled: true
Nonlinearity correction enabled: false
Boxcar width: 0
XAxis mode: Wavelengths
Number of Pixels in Spectrum: 2048
>>>>>Begin Spectral Data<<<<<
187.836	-2.09
188.309	-2.09
188.782	-2.09
189.255	2.41
189.728	-3.19
190.201	-0.09
190.674	5.61
191.147	3.41
191.619	-8.69
192.092	1.81
192.565	2.81
193.038	-1.19
193.511	0.31
193.984	-0.59
194.456	0.81
194.929	-2.29
195.402	-0.49
195.874	1.41
196.347	5.61
196.82	-8.09
197.292	13.51
197.765	-2.99
198.237	-5.99
198.71	3.71
199.182	-0.29
199.655	3.01
200.127	-2.29
200.6	2.31
201.072	-3.49
201.544	-5.79
202.017	-2.39
202.489	4.21
202.961	3.91
203.433	2.41
203.906	-5.39
204.378	-5.99
204.85	-0.69
205.322	-8.79
205.794	0.01
206.266	-2.09
206.739	-0.89
207.211	0.71
207.683	-0.69
208.155	-5.79
208.627	-2.89
209.099	-4.29
209.57	-4.59
210.042	-0.69
210.514	-3.19
210.986	-3.99
211.458	-6.59
211.93	-1.19
212.402	4.21
212.873	-4.79
213.345	-4.59
213.817	-11.99
214.288	-1.39
214.76	-6.99
215.232	1.31
215.703	-3.49
216.175	-2.39
216.646	-2.29
217.118	-3.39
217.589	0.71
218.061	-2.09
218.532	-8.69
219.004	-8.99
219.475	-0.39
219.946	-2.29
220.418	-4.79
220.889	5.81
221.36	2.61
221.832	-6.39
222.303	-4.59
222.774	3.91
223.245	-5.29
223.717	-9.09
224.188	0.11
224.659	-4.49
225.13	-6.59
225.601	2.31
226.072	-0.99
226.543	-7.39
227.014	-3.89
227.485	-1.39
227.956	-2.19
228.427	2.01
228.898	3.71
229.369	0.61
229.839	-6.19
230.31	-6.49
230.781	2.81
231.252	-6.59
231.722	-6.39
232.193	-1.79
232.664	-0.99
233.135	0.81
233.605	0.11
234.076	-3.29
234.546	-3.09
235.017	-4.89
235.487	-8.29
235.958	-5.99
236.428	-1.79
236.899	-0.59
237.369	-0.39
237.84	-4.79
238.31	-3.69
238.78	-0.89
239.251	-5.99
239.721	-3.49
240.191	-6.19
240.662	-7.99
241.132	-1.89
241.602	-4.19
242.072	-3.59
242.542	3.81
243.013	-2.29
243.483	1.41
243.953	4.51
244.423	-0.59
244.893	-6.09
245.363	0.31
245.833	-2.29
246.303	-6.99
246.773	1.01
247.243	-3.19
247.712	-1.19
248.182	3.81
248.652	1.41
249.122	-7.79
249.592	-5.69
250.061	2.01
250.531	5.91
251.001	1.91
251.471	0.71
251.94	3.51
252.41	-0.99
252.879	-8.59
253.349	6.01
253.818	9.31
254.288	6.51
254.757	2.51
255.227	0.31
255.696	2.51
256.166	-0.99
256.635	6.91
257.105	-0.39
257.574	-0.69
258.043	0.61
258.513	-8.89
258.982	0.31
259.451	-3.59
259.92	-2.99
260.389	-0.39
260.859	6.81
261.328	-1.89
261.797	1.51
262.266	-0.89
262.735	4.11
263.204	-0.49
263.673	-6.19
264.142	4.71
264.611	-7.79
265.08	0.61
265.549	-3.59
266.018	3.91
266.487	-5.79
266.955	-6.79
267.424	-1.49
267.893	2.21
268.362	-0.59
268.83	-0.29
269.299	9.21
269.768	2.51
270.236	2.91
270.705	-2.99
271.174	3.41
271.642	5.61
272.111	4.51
272.579	1.61
273.048	0.81
273.516	0.51
273.985	5.51
274.453	7.91
274.922	6.51
275.39	6.21
275.858	-2.49
276.327	7.11
276.795	10.11
277.263	1.61
277.731	8.31
278.2	6.21
278.668	6.21
279.136	5.41
279.604	4.91
280.072	5.81
280.54	4.51
281.008	0.81
281.477	12.21
281.945	10.81
282.413	4.31
282.881	12.91
283.348	-1.09
283.816	12.01
284.284	13.71
284.752	23.11
285.22	5.71
285.688	10.11
286.156	9.61
286.623	14.41
287.091	12.01
287.559	11.21
288.026	8.51
288.494	10.31
288.962	-0.29
289.429	2.71
289.897	13.71
290.364	13.31
290.832	12.21
291.3	10.61
291.767	8.21
292.234	12.11
292.702	8.91
293.169	11.51
293.637	14.61
294.104	11.21
294.571	10.61
295.039	9.31
295.506	9.31
295.973	11.81
296.44	14.11
296.908	14.71
297.375	6.51
297.842	11.41
298.309	10.21
298.776	3.11
299.243	19.01
299.71	9.21
300.177	9.71
300.644	18.31
301.111	12.71
301.578	16.01
302.045	8.61
302.512	17.91
302.979	19.91
303.446	11.31
303.913	4.51
304.379	8.91
304.846	23.91
305.313	17.31
305.78	16.41
306.246	15.01
306.713	14.91
307.18	12.91
307.646	18.11
308.113	22.51
308.579	14.71
309.046	20.01
309.512	20.91
309.979	7.21
310.445	21.61
310.912	18.11
311.378	21.81
311.845	22.61
312.311	24.41
312.777	25.51
313.244	21.81
313.71	34.41
314.176	23.81
314.642	17.91
315.109	19.31
315.575	26.01
316.041	27.31
316.507	20.51
316.973	25.61
317.439	26.31
317.905	24.11
318.371	31.11
318.837	23.11
319.303	24.21
319.769	18.11
320.235	24.31
320.701	23.11
321.167	27.71
321.633	26.11
322.099	24.21
322.564	34.41
323.03	26.11
323.496	22.21
323.962	27.81
324.427	27.71
324.893	34.71
325.359	32.91
325.824	31.11
326.29	30.81
326.755	33.11
327.221	29.21
327.686	26.81
328.152	42.01
328.617	33.01
329.083	40.51
329.548	40.11
330.014	37.11
330.479	27.01
330.944	39.41
331.41	32.81
331.875	33.51
332.34	27.51
332.805	29.61
333.271	39.81
333.736	29.31
334.201	40.01
334.666	37.11
335.131	40.81
335.596	36.91
336.061	39.91
336.526	29.01
336.991	40.21
337.456	45.11
337.921	37.71
338.386	34.21
338.851	37.31
339.316	40.61
339.781	38.41
340.246	42.21
340.711	41.21
341.175	40.81
341.64	35.31
342.105	40.01
342.569	47.31
343.034	44.21
343.499	44.51
343.963	46.61
344.428	49.71
344.893	46.61
345.357	55.01
345.822	49.81
346.286	53.11
346.751	54.71
347.215	55.71
347.679	55.11
348.144	72.71
348.608	63.61
349.073	53.11
349.537	60.11
350.001	63.31
350.465	69.81
350.93	59.51
351.394	71.21
351.858	60.01
352.322	70.11
352.786	71.21
353.25	82.91
353.715	86.51
354.179	77.61
354.643	96.81
355.107	98.01
355.571	82.71
356.035	76.61
356.498	86.91
356.962	93.11
357.426	102.01
357.89	91.01
358.354	67.71
358.818	74.81
359.281	72.61
359.745	63.71
360.209	65.91
360.673	64.61
361.136	74.01
361.6	75.01
362.064	64.01
362.527	66.81
362.991	80.91
363.454	66.81
363.918	64.71
364.381	75.31
364.845	72.51
365.308	69.61
365.772	74.11
366.235	75.51
366.698	70.31
367.162	71.91
367.625	73.81
368.088	73.51
368.552	74.71
369.015	71.21
369.478	82.11
369.941	83.81
370.404	80.21
370.867	79.21
371.331	90.81
371.794	87.31
372.257	86.11
372.72	96.01
373.183	89.91
373.646	79.81
374.109	82.21
374.572	87.01
375.035	84.81
375.497	85.51
375.96	89.11
376.423	90.61
376.886	95.61
377.349	94.31
377.811	83.41
378.274	89.81
378.737	93.61
379.199	93.21
379.662	98.91
380.125	98.61
380.587	94.61
381.05	98.51
381.512	104.01
381.975	107.51
382.437	105.71
382.9	109.41
383.362	111.81
383.825	113.01
384.287	108.51
384.75	105.31
385.212	111.51
385.674	122.11
386.136	116.31
386.599	110.51
387.061	107.81
387.523	114.81
387.985	109.31
388.447	123.11
388.91	120.31
389.372	117.01
389.834	120.31
390.296	121.21
390.758	119.71
391.22	125.41
391.682	134.71
392.144	142.21
392.606	132.71
393.068	130.91
393.529	135.61
393.991	135.51
394.453	128.31
394.915	123.01
395.377	123.81
395.838	124.11
396.3	126.41
396.762	134.21
397.224	127.21
397.685	123.11
398.147	127.31
398.608	126.81
399.07	122.61
399.531	125.71
399.993	132.91
400.454	147.31
400.916	136.11
401.377	136.91
401.839	137.01
402.3	139.51
402.762	157.51
403.223	164.81
403.684	156.81
404.145	151.31
404.607	149.81
405.068	155.01
405.529	154.11
405.99	170.51
406.451	160.11
406.913	163.61
407.374	153.51
407.835	155.71
408.296	161.01
408.757	163.11
409.218	178.81
409.679	165.81
410.14	168.21
410.601	167.31
411.062	169.91
411.522	172.61
411.983	165.71
412.444	163.41
412.905	169.31
413.366	177.21
413.826	193.01
414.287	211.61
414.748	255.81
415.208	243.21
415.669	208.81
416.13	205.21
416.59	198.41
417.051	211.11
417.511	221.51
417.972	234.61
418.432	248.91
418.893	288.41
419.353	256.51
419.814	200.21
420.274	178.61
420.734	184.61
421.195	194.01
421.655	186.61
422.115	194.91
422.576	198.51
423.036	191.61
423.496	199.11
423.956	213.61
424.416	228.01
424.876	260.71
425.336	252.21
425.797	252.91
426.257	244.01
426.717	232.81
427.177	228.41
427.637	222.51
428.097	229.01
428.556	239.71
429.016	259.01
429.476	252.41
429.936	264.01
430.396	267.41
430.856	281.21
431.315	300.91
431.775	331.91
432.235	362.21
432.694	336.61
433.154	343.21
433.614	373.41
434.073	319.21
434.533	269.51
434.993	263.81
435.452	271.01
435.912	285.41
436.371	270.51
436.83	264.81
437.29	254.21
437.749	233.91
438.209	244.61
438.668	262.11
439.127	272.41
439.587	253.81
440.046	238.41
440.505	253.61
440.964	271.71
441.424	298.71
441.883	301.41
442.342	249.71
442.801	226.21
443.26	222.81
443.719	218.51
444.178	223.71
444.637	218.91
445.096	220.41
445.555	221.01
446.014	229.71
446.473	230.11
446.932	239.01
447.391	227.71
447.849	233.31
448.308	223.41
448.767	226.61
449.226	236.11
449.685	240.21
450.143	254.11
450.602	237.61
451.061	234.91
451.519	239.51
451.978	235.91
452.436	234.81
452.895	239.31
453.353	248.01
453.812	240.11
454.27	241.11
454.729	241.51
455.187	246.41
455.646	250.51
456.104	245.81
456.562	258.01
457.021	267.41
457.479	255.31
457.937	279.01
458.395	264.31
458.854	255.01
459.312	256.21
459.77	275.11
460.228	256.81
460.686	250.31
461.144	258.01
461.602	250.11
462.06	245.81
462.518	263.31
462.976	258.81
463.434	265.51
463.892	269.61
464.35	273.21
464.808	293.11
465.266	264.11
465.724	275.81
466.181	276.11
466.639	281.51
467.097	297.11
467.555	308.91
468.012	312.51
468.47	313.61
468.928	337.71
469.385	344.21
469.843	351.51
470.3	350.01
470.758	371.71
471.215	389.51
471.673	409.51
472.13	412.01
472.588	413.51
473.045	379.51
473.503	380.81
473.96	402.91
474.417	402.61
474.875	430.31
475.332	473.51
475.789	456.71
476.246	466.41
476.704	491.21
477.161	512.01
477.618	523.21
478.075	552.51
478.532	604.81
478.989	677.11
479.446	776.21
479.903	749.01
480.36	780.11
480.817	829.91
481.274	918.81
481.731	1008.71
482.188	1082.51
482.645	1200.51
483.102	1287.91
483.558	1404.51
484.015	1438.21
484.472	1407.21
484.929	1372.31
485.385	1330.91
485.842	1301.41
486.299	1261.51
486.755	1227.61
487.212	1038.11
487.668	893.31
488.125	826.51
488.582	760.81
489.038	731.21
489.494	703.31
489.951	669.51
490.407	654.51
490.864	639.11
491.32	643.71
491.776	646.41
492.233	650.41
492.689	619.51
493.145	607.81
493.602	607.71
494.058	618.91
494.514	615.81
494.97	630.31
495.426	644.61
495.882	621.61
496.338	613.71
496.794	621.91
497.251	621.21
497.707	630.11
498.163	633.51
498.618	650.41
499.074	650.71
499.53	670.31
499.986	670.61
500.442	656.11
500.898	626.21
501.354	617.11
501.809	620.01
502.265	625.31
502.721	632.41
503.177	643.61
503.632	654.51
504.088	656.11
504.543	674.01
504.999	687.31
505.455	661.01
505.91	643.31
506.366	651.81
506.821	650.81
507.277	635.11
507.732	637.91
508.187	640.31
508.643	653.01
509.098	654.41
509.553	667.31
510.009	679.31
510.464	681.21
510.919	693.71
511.375	707.61
511.83	722.51
512.285	732.01
512.74	770.71
513.195	801.91
513.65	780.51
514.105	779.71
514.56	781.81
515.015	798.01
515.47	803.51
515.925	799.61
516.38	790.21
516.835	799.71
517.29	781.61
517.745	794.21
518.2	774.91
518.655	755.81
519.109	758.41
519.564	753.41
520.019	740.61
520.474	745.21
520.928	745.81
521.383	743.21
521.838	714.51
522.292	727.41
522.747	729.11
523.201	727.71
523.656	719.61
524.11	717.41
524.565	702.41
525.019	698.21
525.474	715.31
525.928	697.61
526.382	704.31
526.837	709.91
527.291	719.21
527.745	722.61
528.2	713.81
528.654	706.91
529.108	707.81
529.562	713.61
530.016	708.01
530.47	702.81
530.925	703.81
531.379	706.31
531.833	709.81
532.287	722.21
532.741	714.91
533.195	717.71
533.649	714.31
534.103	736.11
534.556	723.41
535.01	716.71
535.464	716.01
535.918	729.61
536.372	728.91
536.826	731.91
537.279	713.41
537.733	735.51
538.187	730.21
538.64	737.51
539.094	736.61
539.548	741.91
540.001	739.71
540.455	743.91
540.908	757.51
541.362	756.91
541.815	775.01
542.269	774.51
542.722	774.91
543.175	790.31
543.629	787.61
544.082	814.81
544.536	810.61
544.989	804.01
545.442	816.21
545.895	804.81
546.349	803.91
546.802	806.61
547.255	826.91
547.708	832.11
548.161	838.51
548.614	848.71
549.067	852.51
549.52	848.11
549.973	843.41
550.426	838.61
550.879	821.81
551.332	816.01
551.785	836.51
552.238	834.11
552.691	839.71
553.144	861.01
553.596	869.01
554.049	890.61
554.502	922.01
554.955	927.11
555.407	932.81
555.86	923.51
556.313	915.71
556.765	903.11
557.218	896.71
557.67	911.01
558.123	900.01
558.576	903.41
559.028	910.81
559.48	912.91
559.933	899.21
560.385	861.21
560.838	844.31
561.29	824.51
561.742	805.61
562.195	793.11
562.647	785.91
563.099	807.51
563.551	795.51
564.004	807.61
564.456	785.81
564.908	779.81
565.36	758.71
565.812	748.81
566.264	742.51
566.716	734.81
567.168	724.81
567.62	731.71
568.072	720.41
568.524	710.81
568.976	714.61
569.428	705.81
569.88	698.01
570.332	713.51
570.784	707.31
571.235	715.71
571.687	720.31
572.139	729.21
572.59	735.11
573.042	730.51
573.494	731.31
573.945	732.41
574.397	713.11
574.849	704.51
575.3	711.81
575.752	705.41
576.203	706.91
576.655	710.01
577.106	692.61
577.557	688.91
578.009	700.71
578.46	696.21
578.912	682.81
579.363	696.51
579.814	694.21
580.265	693.11
580.717	686.71
581.168	695.11
581.619	710.91
582.07	716.71
582.521	699.41
582.972	700.71
583.423	699.11
583.875	702.11
584.326	709.71
584.777	715.71
585.227	746.31
585.678	760.01
586.129	776.91
586.58	801.61
587.031	821.51
587.482	861.31
587.933	894.41
588.384	870.71
588.834	828.61
589.285	804.11
589.736	802.71
590.186	794.81
590.637	787.81
591.088	765.01
591.538	755.61
591.989	751.81
592.439	744.01
592.89	746.51
593.34	732.41
593.791	732.51
594.241	722.41
594.692	732.61
595.142	722.01
595.593	719.41
596.043	733.91
596.493	729.11
596.943	733.31
597.394	739.51
597.844	748.71
598.294	756.21
598.744	789.41
599.195	816.41
599.645	865.51
600.095	897.91
600.545	953.91
600.995	1008.51
601.445	1062.91
601.895	1121.21
602.345	1168.81
602.795	1144.91
603.245	1113.71
603.695	1057.91
604.145	999.01
604.594	956.31
605.044	890.51
605.494	817.61
605.944	791.51
606.393	774.71
606.843	756.81
607.293	761.71
607.743	757.81
608.192	760.21
608.642	778.31
609.091	781.21
609.541	789.81
609.99	791.71
610.44	799.31
610.889	741.01
611.339	730.91
611.788	709.01
612.238	712.21
612.687	730.31
613.136	728.71
613.586	742.21
614.035	725.21
614.484	736.71
614.933	731.51
615.383	729.11
615.832	732.21
616.281	725.71
616.73	692.91
617.179	681.71
617.628	672.11
618.077	652.41
618.526	631.61
618.975	634.11
619.424	637.51
619.873	633.21
620.322	649.11
620.771	630.21
621.22	624.91
621.669	617.31
622.118	616.21
622.567	601.51
623.015	588.81
623.464	593.61
623.913	584.01
624.361	572.51
624.81	578.21
625.259	573.01
625.707	575.71
626.156	578.71
626.604	595.81
627.053	583.91
627.501	578.91
627.95	599.41
628.398	604.41
628.847	593.61
629.295	596.41
629.744	612.01
630.192	591.31
630.64	590.61
631.089	567.61
631.537	563.71
631.985	553.81
632.433	550.01
632.881	546.11
633.33	552.81
633.778	548.01
634.226	543.21
634.674	561.21
635.122	554.71
635.57	575.01
636.018	581.91
636.466	583.01
636.914	578.01
637.362	587.91
637.81	593.51
638.258	610.31
638.705	609.71
639.153	638.21
639.601	646.41
640.049	663.71
640.497	696.31
640.944	716.31
641.392	671.31
641.84	633.31
642.287	605.61
642.735	585.81
643.182	585.31
643.63	577.31
644.078	587.71
644.525	588.51
644.973	594.61
645.42	607.31
645.867	633.01
646.315	651.91
646.762	678.61
647.21	692.71
647.657	727.51
648.104	759.51
648.551	777.91
648.999	836.61
649.446	925.21
649.893	1002.51
650.34	1162.81
650.787	1371.31
651.234	1688.41
651.682	2195.31
652.129	2966.81
652.576	4220.81
653.023	6134.71
653.47	8263.21
653.917	10210.31
654.363	11628.21
654.81	12794.31
655.257	12107.81
655.704	8051.21
656.151	4838.61
656.598	3167.31
657.044	2293.11
657.491	1767.71
657.938	1431.51
658.385	1218.31
658.831	1062.61
659.278	948.41
659.724	847.01
660.171	791.01
660.618	729.51
661.064	700.41
661.511	687.61
661.957	658.91
662.404	647.61
662.85	657.11
663.296	645.41
663.743	578.31
664.189	551.51
664.635	552.11
665.082	544.31
665.528	551.31
665.974	538.21
666.42	531.91
666.867	519.81
667.313	504.91
667.759	478.01
668.205	475.61
668.651	473.41
669.097	472.51
669.543	462.11
669.989	466.51
670.435	469.81
670.881	465.91
671.327	469.61
671.773	496.51
672.219	514.91
672.665	576.51
673.11	624.11
673.556	664.71
674.002	695.31
674.448	687.91
674.893	580.11
675.339	500.51
675.785	460.81
676.23	449.71
676.676	414.71
677.122	405.81
677.567	391.71
678.013	386.11
678.458	378.21
678.904	372.71
679.349	371.71
679.794	380.21
680.24	373.51
680.685	372.21
681.131	374.51
681.576	371.61
682.021	372.61
682.466	364.11
682.912	370.01
683.357	387.21
683.802	410.71
684.247	440.01
684.692	476.51
685.137	521.21
685.583	563.11
686.028	597.41
686.473	551.61
686.918	469.61
687.363	434.81
687.807	414.61
688.252	381.41
688.697	370.71
689.142	358.21
689.587	354.81
690.032	342.71
690.477	360.61
690.921	362.61
691.366	407.31
691.811	430.81
692.255	451.71
692.7	489.61
693.145	540.31
693.589	764.11
694.034	1224.61
694.478	1651.31
694.923	1828.71
695.367	2357.71
695.812	1273.61
696.256	537.31
696.701	388.81
697.145	365.61
697.59	344.71
698.034	337.21
698.478	339.61
698.922	341.21
699.367	345.91
699.811	355.91
700.255	378.61
700.699	413.71
701.143	455.91
701.588	502.41
702.032	536.91
702.476	550.71
702.92	519.41
703.364	528.71
703.808	710.31
704.252	1150.71
704.696	1582.41
705.14	1768.21
705.584	2238.11
706.027	1139.91
706.471	553.41
706.915	430.31
707.359	379.61
707.803	339.81
708.246	322.41
708.69	332.01
709.134	334.21
709.577	325.91
710.021	336.81
710.465	328.41
710.908	322.71
711.352	318.41
711.795	329.01
712.239	378.11
712.682	416.21
713.126	450.71
713.569	487.01
714.012	377.51
714.456	320.11
714.899	306.61
715.342	290.71
715.786	275.61
716.229	273.11
716.672	272.71
717.115	268.01
717.558	266.61
718.002	271.31
718.445	285.01
718.888	298.31
719.331	316.01
719.774	320.91
720.217	318.71
720.66	296.91
721.103	285.31
721.546	274.81
721.989	261.71
722.432	243.21
722.874	252.21
723.317	241.21
723.76	251.31
724.203	270.11
724.645	346.21
725.088	483.21
725.531	606.41
725.974	677.91
726.416	578.31
726.859	326.71
727.301	264.91
727.744	243.61
728.187	247.11
728.629	250.01
729.071	269.31
729.514	277.21
729.956	287.91
730.399	301.61
730.841	307.11
731.283	292.11
731.726	283.51
732.168	279.91
732.61	286.81
733.053	314.01
733.495	340.41
733.937	377.71
734.379	430.31
734.821	474.71
735.263	594.11
735.705	934.11
736.148	1773.31
736.59	2811.91
737.032	3231.11
737.474	2624.01
737.916	871.11
738.357	455.61
738.799	347.01
739.241	318.41
739.683	304.81
740.125	311.11
740.567	322.51
741.008	342.31
741.45	345.11
741.892	346.51
742.334	375.51
742.775	385.61
743.217	366.61
743.658	288.41
744.1	272.01
744.542	281.91
744.983	335.11
745.425	370.11
745.866	368.51
746.307	301.81
746.749	294.31
747.19	347.31
747.632	514.91
748.073	1003.21
748.514	2064.91
748.956	3067.01
749.397	3865.01
749.838	3181.81
750.279	3109.11
750.72	1594.31
751.162	592.51
751.603	349.81
752.044	268.31
752.485	237.71
752.926	227.21
753.367	215.51
753.808	202.11
754.249	199.61
754.69	203.41
755.131	194.61
755.572	194.81
756.013	198.81
756.453	203.41
756.894	203.61
757.335	206.91
757.776	212.11
758.216	214.01
758.657	210.91
759.098	220.41
759.538	245.01
759.979	287.61
760.42	415.81
760.86	801.91
761.301	2099.21
761.741	4905.81
762.182	6743.91
762.622	4780.71
763.063	1412.81
763.503	580.11
763.943	355.31
764.384	292.21
764.824	267.81
765.264	260.11
765.705	229.61
766.145	198.91
766.585	190.01
767.025	175.71
767.465	171.81
767.906	188.21
768.346	212.31
768.786	215.71
769.226	234.21
769.666	347.01
770.106	704.41
770.546	1747.81
770.986	2797.41
771.426	2474.11
771.866	852.11
772.306	350.11
772.745	216.71
773.185	184.81
773.625	178.91
774.065	163.01
774.505	177.11
774.944	225.81
775.384	399.01
775.824	628.11
776.263	601.81
776.703	303.41
777.142	173.31
777.582	136.71
778.021	135.91
778.461	130.01
778.9	130.91
779.34	137.01
779.779	122.91
780.219	117.01
780.658	104.61
781.097	117.11
781.537	118.01
781.976	114.81
782.415	112.01
782.855	107.51
783.294	107.71
783.733	115.41
784.172	116.61
784.611	106.21
785.05	114.41
785.489	123.61
785.928	121.41
786.367	131.51
786.806	127.01
787.245	142.11
787.684	147.71
788.123	162.41
788.562	140.51
789.001	136.31
789.44	132.21
789.879	129.81
790.317	128.81
790.756	138.01
791.195	136.51
791.634	156.31
792.072	225.71
792.511	403.81
792.95	1136.51
793.388	2266.81
793.827	1999.01
794.265	711.11
794.704	305.51
795.142	192.61
795.581	163.11
796.019	147.31
796.458	137.51
796.896	134.31
797.334	144.81
797.773	172.31
798.211	239.01
798.649	498.71
799.087	1118.91
799.526	1730.91
799.964	2191.61
800.402	2091.21
800.84	808.51
801.278	323.51
801.716	199.61
802.154	167.71
802.592	155.11
803.03	153.21
803.468	145.21
803.906	152.61
804.344	163.91
804.782	151.81
805.22	148.91
805.658	143.11
806.096	158.31
806.533	170.81
806.971	194.31
807.409	241.61
807.847	350.91
808.284	758.31
808.722	2095.01
809.16	3503.71
809.597	3477.11
810.035	5904.91
810.472	6017.61
810.91	2240.51
811.347	866.81
811.785	443.91
812.222	281.21
812.66	213.21
813.097	174.81
813.535	154.21
813.972	143.51
814.409	134.01
814.846	120.01
815.284	120.21
815.721	115.41
816.158	108.71
816.595	114.21
817.032	165.51
817.47	190.01
817.907	137.81
818.344	103.41
818.781	104.31
819.218	104.71
819.655	137.41
820.092	205.41
820.529	229.21
820.966	185.11
821.403	133.41
821.839	106.01
822.276	107.21
822.713	134.21
823.15	142.91
823.587	125.51
824.023	155.11
824.46	341.21
824.897	993.91
825.333	1429.51
825.77	616.51
826.206	246.51
826.643	149.81
827.08	107.01
827.516	87.91
827.953	82.41
828.389	89.01
828.825	79.21
829.262	72.71
829.698	65.61
830.135	69.81
830.571	68.71
831.007	70.91
831.443	67.91
831.88	62.91
832.316	63.31
832.752	65.01
833.188	65.21
833.624	69.31
834.06	72.41
834.497	71.11
834.933	74.81
835.369	85.61
835.805	71.11
836.241	74.01
836.677	85.41
837.112	97.51
837.548	115.91
837.984	147.71
838.42	223.91
838.856	553.91
839.292	1671.01
839.727	2429.21
840.163	1152.71
840.599	1039.01
841.034	2199.21
841.47	2227.21
841.906	823.41
842.341	352.61
842.777	212.01
843.212	220.91
843.648	196.11
844.083	118.71
844.519	92.61
844.954	78.21
845.39	62.31
845.825	63.51
846.261	64.71
846.696	60.31
847.131	61.71
847.566	64.81
848.002	58.31
848.437	57.71
848.872	62.51
849.307	66.91
849.742	90.01
850.177	200.11
850.613	614.11
851.048	923.81
851.483	411.41
851.918	169.61
852.353	92.81
852.788	58.81
853.223	56.21
853.657	55.11
854.092	51.81
854.527	48.71
854.962	45.01
855.397	55.91
855.832	54.21
856.266	51.31
856.701	40.51
857.136	43.01
857.57	43.41
858.005	58.31
858.44	64.91
858.874	50.71
859.309	57.41
859.743	43.71
860.178	51.91
860.612	40.71
861.047	53.91
861.481	71.91
861.915	74.41
862.35	53.01
862.784	32.91
863.218	47.11
863.653	38.01
864.087	47.71
864.521	56.61
864.955	73.01
865.39	169.51
865.824	179.81
866.258	124.31
866.692	176.71
867.126	193.31
867.56	116.61
867.994	57.71
868.428	40.71
868.862	52.01
869.296	55.81
869.73	62.71
870.164	57.11
870.598	49.81
871.031	38.51
871.465	28.21
871.899	37.21
872.333	26.31
872.766	27.71
873.2	27.11
873.634	28.71
874.067	28.01
874.501	30.61
874.935	33.71
875.368	32.91
875.802	30.01
876.235	27.91
876.669	25.01
877.102	23.31
877.535	29.71
877.969	26.81
878.402	24.01
878.836	25.31
879.269	30.21
879.702	25.61
880.135	22.41
880.569	25.91
881.002	27.81
881.435	18.21
881.868	22.31
882.301	26.61
882.734	19.61
883.167	26.01
883.601	19.71
884.034	28.11
884.467	19.81
884.899	23.51
885.332	18.21
885.765	16.41
886.198	15.01
886.631	21.91
887.064	21.81
887.497	26.31
887.929	23.81
888.362	17.11
888.795	13.21
889.228	16.41
889.66	26.31
890.093	19.21
890.526	17.41
890.958	17.71
891.391	15.81
891.823	23.21
892.256	16.81
892.688	15.51
893.121	15.21
893.553	16.21
893.985	24.61
894.418	23.21
894.85	15.31
895.282	20.01
895.715	20.91
896.147	22.51
896.579	18.51
897.011	12.51
897.444	20.01
897.876	17.71
898.308	18.51
898.74	17.91
899.172	11.31
899.604	25.61
900.036	22.11
900.468	13.41
900.9	17.61
901.332	21.81
901.764	14.91
902.196	21.01
902.628	20.21
903.06	20.31
903.491	36.61
903.923	23.91
904.355	25.61
904.787	24.81
905.218	23.21
905.65	24.31
906.082	12.41
906.513	8.71
906.945	17.31
907.376	16.61
907.808	20.91
908.239	21.71
908.671	18.91
909.102	22.81
909.534	29.71
909.965	46.41
910.397	105.31
910.828	342.21
911.259	506.31
911.691	230.81
912.122	116.31
912.553	51.71
912.984	36.01
913.415	27.41
913.847	21.61
914.278	9.91
914.709	12.71
915.14	22.11
915.571	20.61
916.002	15.91
916.433	22.31
916.864	18.01
917.295	16.11
917.726	22.71
918.157	13.31
918.587	29.81
919.018	27.21
919.449	22.21
919.88	29.11
920.311	26.41
920.741	54.41
921.172	179.41
921.603	156.41
922.033	75.91
922.464	48.31
922.895	23.61
923.325	22.11
923.756	16.31
924.186	14.51
924.617	15.31
925.047	25.21
925.478	26.71
925.908	22.81
926.338	16.71
926.769	20.51
927.199	15.11
927.629	9.31
928.06	16.41
928.49	17.11
928.92	15.71
929.35	11.51
929.78	8.81
930.21	5.41
930.641	10.41
931.071	3.51
931.501	1.21
931.931	5.61
932.361	10.31
932.791	5.41
933.221	3.51
933.651	3.21
934.08	16.51
934.51	28.01
934.94	7.81
935.37	5.41
935.8	17.31
936.229	9.81
936.659	13.81
937.089	5.71
937.519	17.61
937.948	27.41
938.378	23.31
938.807	14.71
939.237	5.21
939.666	12.41
940.096	-2.59
940.525	0.71
940.955	3.61
941.384	7.11
941.814	-3.69
942.243	1.71
942.672	2.61
943.102	-7.69
943.531	2.71
943.96	4.21
944.39	1.01
944.819	4.21
945.248	1.11
945.677	8.71
946.106	6.61
946.535	6.31
946.964	2.31
947.393	5.51
947.822	6.71
948.251	-1.99
948.68	6.21
949.109	10.41
949.538	8.01
949.967	-2.19
950.396	-2.79
950.825	1.01
951.254	-0.19
951.682	-2.69
952.111	4.31
952.54	7.31
952.969	-4.69
953.397	-6.79
953.826	0.21
954.254	0.31
954.683	4.61
955.112	-1.49
955.54	0.31
955.969	7.71
956.397	7.01
956.826	-3.19
957.254	8.51
957.682	5.81
958.111	7.91
958.539	-2.69
958.967	3.71
959.396	2.11
959.824	1.11
960.252	7.41
960.68	2.41
961.109	-1.59
961.537	-6.39
961.965	2.01
962.393	-3.99
962.821	-0.99
963.249	-1.19
963.677	5.71
964.105	6.51
964.533	46.41
964.961	38.51
965.389	18.01
965.817	4.21
966.245	0.21
966.672	1.81
967.1	-5.09
967.528	-1.79
967.956	-3.69
968.383	-4.19
968.811	-0.09
969.239	3.11
969.666	-6.59
970.094	3.11
970.522	2.51
970.949	1.41
971.377	-2.59
971.804	-8.09
972.232	-0.69
972.659	1.91
973.087	-5.59
973.514	2.51
973.941	-4.59
974.369	5.41
974.796	1.91
975.223	1.71
975.651	-2.09
976.078	7.11
976.505	3.81
976.932	10.31
977.359	17.51
977.786	14.31
978.214	2.91
978.641	2.91
979.068	-2.49
979.495	-4.19
979.922	2.41
980.349	-5.69
980.776	3.61
981.202	3.31
981.629	4.61
982.056	1.21
982.483	-2.19
982.91	3.11
983.337	-4.49
983.763	1.21
984.19	-5.39
984.617	-1.79
985.043	-3.49
985.47	-1.09
985.897	-1.09
986.323	-7.79
986.75	5.31
987.176	-2.29
987.603	-1.19
988.029	-4.39
988.456	-5.09
988.882	5.11
989.308	-5.49
989.735	-2.79
990.161	-1.49
990.587	-3.69
991.014	1.41
991.44	9.01
991.866	3.61
992.292	1.41
992.719	-0.49
993.145	5.01
993.571	-8.29
993.997	-3.59
994.423	-2.59
994.849	-6.89
995.275	-2.09
995.701	2.11
996.127	-7.59
996.553	4.81
996.979	-3.79
997.405	-2.59
997.83	-5.59
998.256	-3.79
998.682	-8.79
999.108	-8.49
999.534	-4.09
999.959	-2.49
1000.385	-3.49
1000.811	-0.49
1001.236	-7.79
1001.662	-10.29
1002.087	-8.39
1002.513	1.51
1002.938	0.31
1003.364	-1.09
1003.789	1.81
1004.215	1.11
1004.64	-1.39
1005.066	3.71
1005.491	2.61
1005.916	-4.49
1006.342	-3.69
1006.767	-6.09
1007.192	2.81
1007.617	-0.29
1008.042	-7.89
1008.468	-5.89
1008.893	-3.29
1009.318	1.11
1009.743	3.71
1010.168	7.51
1010.593	3.41
1011.018	-2.49
1011.443	-3.19
1011.868	-4.69
1012.293	-5.89
1012.718	0.51
1013.143	1.21
1013.567	4.81
1013.992	3.51
1014.417	-17.09
1014.842	-0.59
1015.267	-3.49
1015.691	0.71
1016.116	6.41
1016.541	-4.89
1016.965	3.81
1017.39	-2.99
1017.814	4.21
1018.239	-2.29
1018.663	-9.49
1019.088	-9.19
1019.512	1.01
1019.937	-5.49
1020.361	-2.99
1020.785	-9.39
1021.21	-1.79
1021.634	-2.69
1022.058	2.01
1022.483	6.01
1022.907	-2.49
1023.331	-5.79
1023.755	-2.19
1024.179	-0.99
1024.604	-5.19
1025.028	-6.89
1025.452	-2.79
1025.876	-2.89
1026.3	2.61
1026.724	-13.69
1027.148	-4.89
1027.572	-5.99
1027.996	-0.99
1028.42	-2.39
1028.843	-1.29
1029.267	-5.69
1029.691	-3.59
1030.115	-4.39
1030.539	-5.79
1030.962	-4.89
1031.386	-10.39
1031.81	-4.09
1032.233	-0.39
1032.657	-4.39
1033.08	1.11
1033.504	-5.39
1033.927	-4.69
1034.351	-3.49
1034.774	-7.19
1035.198	-3.59
1035.621	-2.29
1036.045	-10.59
1036.468	0.41
1036.891	-12.39
1037.315	-4.89
1037.738	-9.09
1038.161	-1.19
1038.584	-5.79
1039.008	-3.39
1039.431	-1.59
1039.854	-7.39
1040.277	-8.09
1040.7	-9.29
1041.123	2.01
1041.546	-7.89
1041.969	-5.69
1042.392	-4.99
1042.815	-1.09
1043.238	0.71
1043.661	0.41
1044.084	-2.69
1044.507	-7.89
1044.93	-8.59
1045.352	-1.79
1045.775	1.11
1046.198	-3.79
1046.621	-4.49
1047.043	-1.99
1047.466	6.91
1047.889	-4.69
1048.311	-7.89
1048.734	-2.49
1049.156	-6.19
1049.579	-3.09
1050.001	-1.29
1050.424	-4.59
1050.846	0.61
1051.269	-4.99
1051.691	-6.19
1052.113	-3.49
1052.536	-5.69
1052.958	-0.99
1053.38	-7.49
1053.802	-9.29
1054.225	5.01
1054.647	-8.59
1055.069	-5.89
1055.491	1.41
1055.913	-2.19
1056.335	-0.19
1056.757	-9.79
1057.179	-4.89
1057.601	-2.89
1058.023	-1.29
1058.445	-1.59
1058.867	-5.99
1059.289	-4.39
1059.711	-6.19
1060.133	-1.69
1060.555	-6.79
1060.976	-7.89
1061.398	-7.49
1061.82	-5.19
1062.241	-10.99
1062.663	-10.49
1063.085	-2.59
1063.506	2.11
1063.928	-9.09
1064.35	-0.29
1064.771	-14.69
1065.193	-2.09
1065.614	-11.99
1066.035	-6.89
1066.457	-5.29
1066.878	-0.39
1067.3	0.21
1067.721	-4.59
1068.142	-3.69
1068.564	-3.99
1068.985	-4.69
1069.406	-5.99
1069.827	-5.19
1070.248	1.61
1070.67	-5.39
1071.091	-3.59
1071.512	-2.19
1071.933	-5.29
1072.354	-3.79
1072.775	-6.69
1073.196	-4.59
1073.617	-4.19
1074.038	-3.59
1074.459	-3.99
1074.88	-6.19
1075.3	2.51
1075.721	-6.09
1076.142	-5.99
1076.563	-0.39
1076.983	-7.99
1077.404	-3.59
1077.825	-6.49
1078.246	-3.69
1078.666	-6.29
1079.087	-4.19
1079.507	-7.09
1079.928	0.11
1080.348	0.51
1080.769	-8.29
1081.189	-3.19
1081.61	3.71
1082.03	-7.59
1082.451	-5.59
1082.871	-4.19
1083.291	-11.39
1083.711	-8.79
1084.132	-5.69
1084.552	-7.69
1084.972	-1.59
1085.392	-9.09
1085.813	-11.29
1086.233	-4.39
1086.653	-2.19
1087.073	-4.99
1087.493	-3.79
1087.913	-3.69
1088.333	-4.39
1088.753	-1.39
1089.173	1.61
1089.593	1.21
1090.013	-1.69
1090.433	-0.99
1090.852	-2.49
1091.272	1.11
1091.692	-1.29
1092.112	-5.39
1092.531	-6.59
1092.951	-9.59
1093.371	7.41
1093.79	6.31
1094.21	4.01
1094.63	-5.99
1095.049	-0.19
1095.469	-1.29
1095.888	-4.29
1096.308	-0.89
1096.727	0.61
1097.146	0.21
1097.566	1.91
1097.985	-6.89
1098.405	-0.59
1098.824	-6.49
1099.243	-9.59
1099.662	-4.19
1100.082	0.81
1100.501	4.71
1100.92	-7.69
1101.339	-3.49
1101.758	-5.29
