Data from 20171114-ORNL-Ar_H_NY_Subt18_08-09-28-601.txt Node
Date: Tue Nov 14 08:09:28 EST 2017
User: Ender
Spectrometer: HR+D1039
Trigger mode: 0
Integration Time (sec): 2.730000E-2
Scans to average: 10
Electric dark correction enabled: true
Nonlinearity correction enabled: false
Boxcar width: 0
XAxis mode: Wavelengths
Number of Pixels in Spectrum: 2048
>>>>>Begin Spectral Data<<<<<
187.836	-5.63
188.309	-5.63
188.782	-5.63
189.255	1.07
189.728	3.07
190.201	9.87
190.674	2.17
191.147	4.27
191.619	-5.23
192.092	4.17
192.565	1.57
193.038	0.07
193.511	1.77
193.984	-0.73
194.456	-7.73
194.929	0.67
195.402	-7.73
195.874	-1.73
196.347	-8.43
196.82	-11.53
197.292	3.57
197.765	-4.53
198.237	-12.83
198.71	-2.33
199.182	-1.53
199.655	-2.43
200.127	0.77
200.6	-5.33
201.072	-6.83
201.544	-9.93
202.017	-2.23
202.489	-1.53
202.961	-0.83
203.433	-6.83
203.906	-10.43
204.378	-14.43
204.85	-4.03
205.322	-10.93
205.794	-0.83
206.266	-5.23
206.739	-9.63
207.211	-1.03
207.683	-6.73
208.155	-3.43
208.627	-11.63
209.099	-5.63
209.57	-13.53
210.042	-7.33
210.514	-6.83
210.986	-5.33
211.458	-5.63
211.93	-6.33
212.402	-0.53
212.873	-4.33
213.345	-11.23
213.817	-16.93
214.288	-4.93
214.76	-16.43
215.232	-10.23
215.703	-7.73
216.175	-2.03
216.646	-6.93
217.118	-5.23
217.589	-8.03
218.061	-10.93
218.532	-8.62
219.004	-4.73
219.475	-6.33
219.946	-6.73
220.418	-7.83
220.889	-0.13
221.36	-8.43
221.832	-5.13
222.303	-5.13
222.774	-2.43
223.245	-7.33
223.717	-4.43
224.188	-10.63
224.659	-10.73
225.13	-4.23
225.601	-3.83
226.072	4.77
226.543	-2.43
227.014	1.47
227.485	-6.23
227.956	-7.53
228.427	-5.63
228.898	-1.43
229.369	-2.03
229.839	-5.83
230.31	-7.43
230.781	-0.23
231.252	-5.33
231.722	-10.73
232.193	-5.03
232.664	-0.53
233.135	-1.03
233.605	-5.93
234.076	-12.23
234.546	-8.33
235.017	-4.93
235.487	-1.23
235.958	-4.43
236.428	-14.93
236.899	0.27
237.369	-7.12
237.84	-9.23
238.31	2.47
238.78	-8.53
239.251	-14.83
239.721	-2.93
240.191	-9.43
240.662	-3.73
241.132	-7.73
241.602	-4.43
242.072	-9.63
242.542	1.57
243.013	-1.03
243.483	-0.23
243.953	-0.33
244.423	-7.23
244.893	-6.03
245.363	2.17
245.833	-1.13
246.303	-3.83
246.773	3.07
247.243	-3.53
247.712	0.97
248.182	5.47
248.652	-2.73
249.122	-11.13
249.592	-2.43
250.061	-3.43
250.531	2.38
251.001	-2.03
251.471	2.77
251.94	3.77
252.41	-4.12
252.879	-6.53
253.349	7.27
253.818	-3.23
254.288	-1.62
254.757	-5.53
255.227	-5.03
255.696	-4.73
256.166	-3.03
256.635	-2.73
257.105	0.77
257.574	-5.23
258.043	-2.33
258.513	-14.03
258.982	-1.62
259.451	-1.63
259.92	1.97
260.389	-3.53
260.859	3.17
261.328	-4.12
261.797	-0.23
262.266	-7.33
262.735	6.07
263.204	-2.93
263.673	-7.63
264.142	-2.33
264.611	-10.93
265.08	-6.63
265.549	-6.33
266.018	2.67
266.487	-13.03
266.955	-8.23
267.424	-4.43
267.893	2.97
268.362	-7.73
268.83	6.37
269.299	2.77
269.768	-1.63
270.236	1.77
270.705	-8.33
271.174	-8.53
271.642	-7.93
272.111	1.67
272.579	-2.93
273.048	-0.33
273.516	-2.03
273.985	-0.93
274.453	-1.43
274.922	4.37
275.39	0.47
275.858	-10.63
276.327	-1.63
276.795	3.17
277.263	-4.03
277.731	7.77
278.2	2.27
278.668	0.47
279.136	7.77
279.604	5.77
280.072	5.57
280.54	3.27
281.008	0.67
281.477	4.37
281.945	3.67
282.413	9.87
282.881	10.37
283.348	1.47
283.816	9.27
284.284	5.97
284.752	6.87
285.22	1.47
285.688	5.47
286.156	3.67
286.623	10.47
287.091	0.27
287.559	5.67
288.026	4.07
288.494	3.37
288.962	4.37
289.429	6.37
289.897	8.07
290.364	5.57
290.832	4.77
291.3	2.97
291.767	14.27
292.234	13.37
292.702	0.47
293.169	5.97
293.637	9.87
294.104	12.47
294.571	-0.83
295.039	4.97
295.506	0.17
295.973	3.37
296.44	5.77
296.908	10.97
297.375	9.17
297.842	9.07
298.309	4.87
298.776	3.97
299.243	10.77
299.71	0.77
300.177	12.27
300.644	11.07
301.111	7.88
301.578	3.77
302.045	6.87
302.512	10.67
302.979	13.07
303.446	14.57
303.913	12.97
304.379	11.67
304.846	12.27
305.313	12.97
305.78	9.47
306.246	12.07
306.713	17.97
307.18	15.67
307.646	17.57
308.113	14.07
308.579	14.27
309.046	14.57
309.512	11.17
309.979	0.87
310.445	19.97
310.912	19.47
311.378	19.77
311.845	22.77
312.311	17.97
312.777	15.27
313.244	16.47
313.71	27.07
314.176	20.67
314.642	15.37
315.109	18.07
315.575	23.47
316.041	20.77
316.507	14.97
316.973	25.77
317.439	22.77
317.905	23.57
318.371	20.97
318.837	20.57
319.303	26.67
319.769	26.67
320.235	24.37
320.701	18.57
321.167	29.67
321.633	13.17
322.099	28.17
322.564	30.27
323.03	18.67
323.496	28.47
323.962	25.97
324.427	21.97
324.893	28.87
325.359	28.87
325.824	19.07
326.29	19.57
326.755	30.17
327.221	30.17
327.686	26.27
328.152	28.07
328.617	25.67
329.083	33.07
329.548	33.97
330.014	37.27
330.479	29.07
330.944	26.47
331.41	29.27
331.875	30.57
332.34	38.47
332.805	26.17
333.271	29.57
333.736	21.17
334.201	34.97
334.666	37.27
335.131	37.07
335.596	36.07
336.061	41.47
336.526	27.97
336.991	39.27
337.456	38.97
337.921	35.07
338.386	33.07
338.851	32.87
339.316	36.77
339.781	39.77
340.246	38.07
340.711	36.47
341.175	32.67
341.64	29.77
342.105	38.87
342.569	47.87
343.034	43.57
343.499	41.47
343.963	33.38
344.428	44.38
344.893	46.17
345.357	44.27
345.822	49.87
346.286	55.37
346.751	60.38
347.215	48.97
347.679	56.27
348.144	70.27
348.608	64.87
349.073	56.07
349.537	57.37
350.001	61.37
350.465	70.37
350.93	57.37
351.394	61.97
351.858	56.07
352.322	72.27
352.786	66.27
353.25	72.67
353.715	79.57
354.179	73.07
354.643	86.97
355.107	82.57
355.571	76.47
356.035	73.47
356.498	81.87
356.962	80.57
357.426	86.57
357.89	78.47
358.354	68.07
358.818	64.77
359.281	63.47
359.745	57.47
360.209	54.47
360.673	57.77
361.136	65.47
361.6	64.67
362.064	59.57
362.527	65.87
362.991	75.87
363.454	63.37
363.918	67.07
364.381	57.97
364.845	65.77
365.308	68.57
365.772	71.77
366.235	69.37
366.698	60.97
367.162	68.97
367.625	69.27
368.088	68.47
368.552	73.17
369.015	77.17
369.478	78.07
369.941	76.47
370.404	71.27
370.867	83.07
371.331	82.77
371.794	88.47
372.257	87.97
372.72	90.37
373.183	76.77
373.646	80.27
374.109	76.07
374.572	80.47
375.035	87.57
375.497	89.77
375.96	87.27
376.423	86.27
376.886	95.17
377.349	99.27
377.811	85.57
378.274	85.47
378.737	89.47
379.199	91.77
379.662	93.57
380.125	96.77
380.587	93.97
381.05	93.47
381.512	102.77
381.975	102.97
382.437	103.37
382.9	107.77
383.362	106.97
383.825	108.88
384.287	109.17
384.75	102.67
385.212	109.67
385.674	117.87
386.136	117.88
386.599	101.67
387.061	105.77
387.523	104.77
387.985	106.77
388.447	115.77
388.91	114.37
389.372	113.38
389.834	114.47
390.296	113.27
390.758	116.87
391.22	128.07
391.682	133.97
392.144	137.77
392.606	131.27
393.068	131.38
393.529	136.67
393.991	127.17
394.453	111.87
394.915	118.47
395.377	120.47
395.838	122.47
396.3	119.17
396.762	122.27
397.224	127.07
397.685	113.87
398.147	113.17
398.608	116.37
399.07	112.47
399.531	122.77
399.993	122.27
400.454	143.07
400.916	134.07
401.377	129.07
401.839	133.27
402.3	137.47
402.762	144.87
403.223	160.77
403.684	155.17
404.145	151.57
404.607	151.97
405.068	146.27
405.529	154.47
405.99	171.07
406.451	162.57
406.913	159.27
407.374	152.37
407.835	152.57
408.296	152.17
408.757	155.77
409.218	175.07
409.679	162.47
410.14	159.67
410.601	164.97
411.062	172.27
411.522	160.67
411.983	172.37
412.444	153.97
412.905	173.27
413.366	173.77
413.826	174.67
414.287	206.57
414.748	251.37
415.208	239.77
415.669	203.07
416.13	199.27
416.59	194.17
417.051	209.47
417.511	213.67
417.972	228.67
418.432	229.98
418.893	278.17
419.353	234.97
419.814	195.57
420.274	178.77
420.734	176.67
421.195	191.67
421.655	181.67
422.115	188.27
422.576	190.47
423.036	190.87
423.496	202.57
423.956	212.67
424.416	213.67
424.876	254.17
425.336	245.17
425.797	245.88
426.257	242.27
426.717	229.77
427.177	221.67
427.637	208.88
428.097	227.67
428.556	230.48
429.016	256.57
429.476	253.17
429.936	262.17
430.396	267.87
430.856	266.97
431.315	290.17
431.775	323.77
432.235	353.87
432.694	333.17
433.154	340.27
433.614	366.27
434.073	313.67
434.533	264.88
434.993	245.87
435.452	261.27
435.912	273.17
436.371	262.77
436.83	271.27
437.29	250.87
437.749	234.48
438.209	238.17
438.668	263.97
439.127	271.87
439.587	256.88
440.046	241.48
440.505	247.38
440.964	258.87
441.424	296.07
441.883	294.17
442.342	250.97
442.801	216.98
443.26	218.07
443.719	214.17
444.178	219.57
444.637	205.47
445.096	224.07
445.555	207.27
446.014	223.17
446.473	223.57
446.932	229.77
447.391	223.27
447.849	230.57
448.308	212.77
448.767	219.17
449.226	239.38
449.685	236.47
450.143	248.37
450.602	231.97
451.061	226.07
451.519	232.67
451.978	227.17
452.436	229.07
452.895	235.67
453.353	243.97
453.812	235.67
454.27	243.67
454.729	234.38
455.187	239.47
455.646	245.07
456.104	252.07
456.562	259.97
457.021	262.87
457.479	264.07
457.937	263.57
458.395	257.77
458.854	252.67
459.312	252.17
459.77	265.37
460.228	251.17
460.686	245.07
461.144	245.27
461.602	241.27
462.06	245.07
462.518	249.17
462.976	252.97
463.434	261.17
463.892	260.27
464.35	271.87
464.808	286.67
465.266	263.48
465.724	269.27
466.181	270.87
466.639	268.47
467.097	286.87
467.555	292.48
468.012	296.97
468.47	314.57
468.928	331.87
469.385	333.88
469.843	337.57
470.3	345.58
470.758	358.67
471.215	380.07
471.673	403.27
472.13	403.77
472.588	405.57
473.045	377.17
473.503	377.58
473.96	391.07
474.417	402.97
474.875	436.87
475.332	461.98
475.789	449.88
476.246	461.37
476.704	477.77
477.161	508.27
477.618	524.17
478.075	554.27
478.532	602.37
478.989	670.17
479.446	763.88
479.903	734.38
480.36	774.27
480.817	813.27
481.274	909.37
481.731	996.47
482.188	1068.28
482.645	1185.97
483.102	1269.47
483.558	1388.78
484.015	1429.88
484.472	1403.17
484.929	1365.47
485.385	1317.47
485.842	1286.67
486.299	1254.27
486.755	1201.87
487.212	1019.88
487.668	879.17
488.125	806.27
488.582	750.77
489.038	714.77
489.494	683.77
489.951	672.07
490.407	655.67
490.864	636.47
491.32	632.48
491.776	632.07
492.233	641.37
492.689	602.27
493.145	596.27
493.602	599.27
494.058	613.67
494.514	610.27
494.97	622.88
495.426	639.57
495.882	617.98
496.338	614.67
496.794	615.57
497.251	608.27
497.707	623.38
498.163	630.67
498.618	630.07
499.074	620.67
499.53	663.97
499.986	654.67
500.442	639.17
500.898	617.07
501.354	620.97
501.809	618.77
502.265	619.67
502.721	629.17
503.177	648.27
503.632	637.57
504.088	645.67
504.543	662.27
504.999	692.37
505.455	644.97
505.91	637.17
506.366	629.87
506.821	634.97
507.277	630.97
507.732	636.07
508.187	635.47
508.643	637.57
509.098	639.98
509.553	667.67
510.009	674.57
510.464	678.37
510.919	689.87
511.375	697.38
511.83	719.47
512.285	727.67
512.74	764.07
513.195	768.17
513.65	766.17
514.105	760.27
514.56	766.87
515.015	789.58
515.47	799.67
515.925	778.77
516.38	780.77
516.835	788.57
517.29	777.97
517.745	784.27
518.2	763.47
518.655	754.17
519.109	742.77
519.564	749.77
520.019	738.27
520.474	730.27
520.928	732.07
521.383	718.57
521.838	718.77
522.292	714.87
522.747	718.48
523.201	706.87
523.656	703.57
524.11	700.08
524.565	701.37
525.019	704.77
525.474	704.27
525.928	699.27
526.382	710.17
526.837	705.48
527.291	703.17
527.745	701.07
528.2	702.88
528.654	690.57
529.108	690.67
529.562	699.37
530.016	698.08
530.47	687.27
530.925	696.17
531.379	698.17
531.833	697.57
532.287	706.87
532.741	717.38
533.195	714.67
533.649	708.07
534.103	710.67
534.556	713.87
535.01	712.27
535.464	703.37
535.918	714.67
536.372	726.67
536.826	720.88
537.279	699.47
537.733	709.77
538.187	723.37
538.64	715.17
539.094	725.57
539.548	731.17
540.001	739.57
540.455	735.67
540.908	742.77
541.362	748.67
541.815	753.77
542.269	762.97
542.722	763.07
543.175	782.67
543.629	776.07
544.082	793.67
544.536	793.67
544.989	793.17
545.442	807.27
545.895	806.87
546.349	802.27
546.802	804.37
547.255	820.77
547.708	817.17
548.161	824.27
548.614	836.77
549.067	842.98
549.52	829.57
549.973	817.27
550.426	818.27
550.879	812.17
551.332	812.38
551.785	818.87
552.238	824.87
552.691	829.08
553.144	841.27
553.596	864.27
554.049	884.97
554.502	908.97
554.955	916.27
555.407	926.57
555.86	904.77
556.313	905.57
556.765	894.38
557.218	892.17
557.67	883.67
558.123	892.37
558.576	883.77
559.028	891.38
559.48	894.47
559.933	892.57
560.385	857.17
560.838	825.47
561.29	793.27
561.742	801.17
562.195	786.57
562.647	785.77
563.099	791.27
563.551	775.98
564.004	794.87
564.456	786.77
564.908	773.57
565.36	766.37
565.812	744.38
566.264	731.67
566.716	719.67
567.168	722.67
567.62	726.07
568.072	712.57
568.524	708.17
568.976	705.07
569.428	686.17
569.88	692.27
570.332	695.17
570.784	701.57
571.235	701.77
571.687	715.27
572.139	706.87
572.59	721.87
573.042	718.67
573.494	727.27
573.945	716.77
574.397	707.57
574.849	699.77
575.3	706.17
575.752	694.07
576.203	699.07
576.655	709.07
577.106	681.77
577.557	678.17
578.009	680.88
578.46	674.97
578.912	669.97
579.363	680.17
579.814	680.87
580.265	672.47
580.717	671.27
581.168	676.37
581.619	690.97
582.07	689.27
582.521	682.37
582.972	685.67
583.423	689.67
583.875	685.87
584.326	698.77
584.777	713.77
585.227	733.07
585.678	740.47
586.129	766.17
586.58	795.58
587.031	817.87
587.482	864.37
587.933	894.57
588.384	863.38
588.834	817.67
589.285	795.27
589.736	795.77
590.186	782.67
590.637	782.27
591.088	764.58
591.538	746.87
591.989	748.87
592.439	736.47
592.89	723.67
593.34	729.37
593.791	721.77
594.241	712.27
594.692	706.67
595.142	716.48
595.593	707.17
596.043	721.57
596.493	720.67
596.943	722.58
597.394	733.77
597.844	727.27
598.294	753.08
598.744	777.27
599.195	808.48
599.645	845.37
600.095	880.27
600.545	938.97
600.995	999.77
601.445	1052.47
601.895	1114.77
602.345	1162.07
602.795	1130.78
603.245	1084.97
603.695	1043.67
604.145	980.07
604.594	940.58
605.044	876.17
605.494	822.88
605.944	772.37
606.393	760.27
606.843	749.67
607.293	746.88
607.743	739.77
608.192	761.77
608.642	767.27
609.091	779.17
609.541	778.17
609.99	776.77
610.44	778.38
610.889	735.58
611.339	715.07
611.788	693.27
612.238	703.88
612.687	710.57
613.136	700.07
613.586	722.57
614.035	714.08
614.484	723.57
614.933	731.17
615.383	720.98
615.832	725.88
616.281	721.08
616.73	688.87
617.179	665.88
617.628	659.27
618.077	647.07
618.526	639.87
618.975	630.27
619.424	633.57
619.873	633.77
620.322	634.47
620.771	615.48
621.22	609.57
621.669	596.97
622.118	613.57
622.567	593.97
623.015	585.27
623.464	590.47
623.913	572.27
624.361	566.37
624.81	560.27
625.259	572.47
625.707	576.38
626.156	567.97
626.604	583.97
627.053	575.67
627.501	576.97
627.95	586.47
628.398	591.37
628.847	585.38
629.295	585.48
629.744	593.27
630.192	587.97
630.64	578.57
631.089	561.37
631.537	556.37
631.985	537.87
632.433	551.37
632.881	535.08
633.33	544.67
633.778	541.77
634.226	535.27
634.674	550.97
635.122	562.38
635.57	567.87
636.018	571.97
636.466	581.48
636.914	570.98
637.362	590.08
637.81	585.57
638.258	602.27
638.705	596.07
639.153	631.87
639.601	638.37
640.049	665.87
640.497	693.27
640.944	712.67
641.392	665.07
641.84	626.47
642.287	594.87
642.735	576.57
643.182	579.88
643.63	574.57
644.078	585.27
644.525	595.17
644.973	590.57
645.42	612.97
645.867	634.87
646.315	647.58
646.762	667.58
647.21	689.88
647.657	717.47
648.104	749.27
648.551	769.77
648.999	825.17
649.446	900.48
649.893	986.47
650.34	1130.88
650.787	1350.67
651.234	1679.18
651.682	2169.07
652.129	2949.77
652.576	4219.48
653.023	6101.57
653.47	8216.57
653.917	10083.88
654.363	11585.18
654.81	12674.68
655.257	12012.58
655.704	7940.18
656.151	4798.27
656.598	3139.28
657.044	2256.38
657.491	1739.28
657.938	1416.07
658.385	1202.97
658.831	1031.88
659.278	948.17
659.724	848.77
660.171	779.07
660.618	712.27
661.064	688.38
661.511	663.27
661.957	657.97
662.404	650.07
662.85	657.67
663.296	627.37
663.743	574.67
664.189	545.87
664.635	547.17
665.082	534.67
665.528	534.47
665.974	527.47
666.42	514.17
666.867	511.07
667.313	499.67
667.759	475.97
668.205	470.38
668.651	467.58
669.097	464.57
669.543	460.77
669.989	461.77
670.435	465.17
670.881	456.38
671.327	454.67
671.773	487.87
672.219	511.97
672.665	576.47
673.11	605.67
673.556	650.87
674.002	696.37
674.448	681.67
674.893	573.67
675.339	493.47
675.785	453.48
676.23	434.97
676.676	410.07
677.122	394.47
677.567	388.07
678.013	378.77
678.458	370.37
678.904	375.38
679.349	371.77
679.794	374.07
680.24	364.88
680.685	359.07
681.131	355.97
681.576	360.77
682.021	363.27
682.466	361.77
682.912	361.17
683.357	370.98
683.802	409.08
684.247	436.97
684.692	485.27
685.137	516.37
685.583	560.17
686.028	583.27
686.473	544.77
686.918	462.27
687.363	441.88
687.807	411.27
688.252	379.27
688.697	363.27
689.142	348.37
689.587	346.38
690.032	341.97
690.477	357.57
690.921	365.27
691.366	397.47
691.811	422.97
692.255	444.67
692.7	487.48
693.145	539.58
693.589	762.38
694.034	1235.88
694.478	1642.98
694.923	1805.38
695.367	2347.88
695.812	1256.28
696.256	523.07
696.701	393.17
697.145	358.17
697.59	341.37
698.034	333.37
698.478	347.17
698.922	336.38
699.367	336.48
699.811	349.97
700.255	370.38
700.699	408.17
701.143	444.38
701.588	496.77
702.032	532.27
702.476	534.77
702.92	520.88
703.364	524.47
703.808	692.07
704.252	1150.38
704.696	1566.37
705.14	1747.17
705.584	2207.47
706.027	1127.97
706.471	555.77
706.915	416.57
707.359	368.87
707.803	337.87
708.246	320.58
708.69	327.47
709.134	330.07
709.577	320.77
710.021	327.57
710.465	320.07
710.908	306.37
711.352	309.27
711.795	326.67
712.239	371.07
712.682	400.47
713.126	425.67
713.569	462.57
714.012	362.98
714.456	311.97
714.899	305.17
715.342	286.27
715.786	273.17
716.229	267.38
716.672	277.57
717.115	260.48
717.558	258.47
718.002	262.38
718.445	282.17
718.888	301.07
719.331	301.97
719.774	323.37
720.217	316.97
720.66	295.07
721.103	275.47
721.546	264.27
721.989	259.37
722.432	243.48
722.874	247.57
723.317	236.67
723.76	246.27
724.203	274.37
724.645	336.87
725.088	481.77
725.531	600.88
725.974	661.27
726.416	565.77
726.859	318.57
727.301	256.48
727.744	242.88
728.187	237.67
728.629	247.17
729.071	253.77
729.514	283.17
729.956	291.77
730.399	297.27
730.841	303.27
731.283	290.67
731.726	279.58
732.168	277.17
732.61	285.47
733.053	303.38
733.495	338.47
733.937	367.17
734.379	426.07
734.821	464.98
735.263	588.97
735.705	927.57
736.148	1753.97
736.59	2801.18
737.032	3180.38
737.474	2602.97
737.916	865.37
738.357	456.37
738.799	340.97
739.241	311.87
739.683	295.97
740.125	310.27
740.567	310.77
741.008	331.77
741.45	342.67
741.892	336.17
742.334	371.77
742.775	376.97
743.217	355.97
743.658	285.57
744.1	267.97
744.542	278.67
744.983	339.37
745.425	367.47
745.866	360.17
746.307	291.87
746.749	298.98
747.19	346.58
747.632	499.47
748.073	1002.07
748.514	2069.18
748.956	3056.07
749.397	3862.37
749.838	3187.27
750.279	3083.28
750.72	1576.27
751.162	578.77
751.603	336.97
752.044	265.77
752.485	229.67
752.926	216.88
753.367	213.57
753.808	209.07
754.249	198.87
754.69	194.97
755.131	194.77
755.572	193.17
756.013	187.97
756.453	187.47
756.894	191.38
757.335	204.97
757.776	202.17
758.216	206.77
758.657	206.17
759.098	215.87
759.538	239.27
759.979	286.67
760.42	419.67
760.86	794.17
761.301	2099.38
761.741	4882.18
762.182	6672.67
762.622	4727.98
763.063	1399.78
763.503	576.97
763.943	350.77
764.384	286.07
764.824	265.38
765.264	244.07
765.705	217.17
766.145	196.57
766.585	184.77
767.025	174.67
767.465	169.67
767.906	189.57
768.346	206.27
768.786	218.88
769.226	229.48
769.666	338.27
770.106	703.97
770.546	1743.68
770.986	2770.68
771.426	2456.07
771.866	831.47
772.306	353.77
772.745	214.17
773.185	172.57
773.625	162.97
774.065	157.07
774.505	174.07
774.944	226.77
775.384	395.38
775.824	629.08
776.263	587.17
776.703	288.38
777.142	165.97
777.582	136.27
778.021	125.47
778.461	129.77
778.9	134.17
779.34	130.38
779.779	120.87
780.219	110.47
780.658	111.47
781.097	112.17
781.537	113.17
781.976	111.67
782.415	104.37
782.855	104.17
783.294	105.17
783.733	113.77
784.172	110.47
784.611	111.97
785.05	107.77
785.489	116.17
785.928	123.27
786.367	123.77
786.806	121.67
787.245	132.07
787.684	137.67
788.123	148.97
788.562	139.17
789.001	128.47
789.44	128.67
789.879	121.87
790.317	122.37
790.756	135.97
791.195	136.97
791.634	162.38
792.072	223.67
792.511	402.47
792.95	1140.17
793.388	2241.57
793.827	1971.67
794.265	702.57
794.704	303.17
795.142	191.17
795.581	161.47
796.019	142.27
796.458	136.57
796.896	129.37
797.334	137.97
797.773	162.37
798.211	248.87
798.649	497.17
799.087	1112.58
799.526	1725.18
799.964	2174.17
800.402	2080.97
800.84	808.07
801.278	330.27
801.716	202.47
802.154	164.97
802.592	155.17
803.03	147.07
803.468	138.77
803.906	152.47
804.344	161.37
804.782	154.07
805.22	146.07
805.658	139.97
806.096	154.07
806.533	167.07
806.971	190.67
807.409	237.87
807.847	360.77
808.284	760.97
808.722	2073.77
809.16	3502.98
809.597	3500.88
810.035	5916.07
810.472	5985.38
810.91	2220.18
811.347	855.97
811.785	430.08
812.222	275.47
812.66	206.88
813.097	168.57
813.535	144.87
813.972	130.77
814.409	122.47
814.846	115.17
815.284	110.77
815.721	101.07
816.158	101.38
816.595	111.27
817.032	160.87
817.47	193.07
817.907	131.67
818.344	115.17
818.781	99.38
819.218	101.57
819.655	131.88
820.092	203.77
820.529	221.67
820.966	170.07
821.403	132.27
821.839	102.47
822.276	105.57
822.713	130.67
823.15	138.07
823.587	121.27
824.023	167.67
824.46	346.47
824.897	990.37
825.333	1410.97
825.77	608.77
826.206	251.47
826.643	138.17
827.08	102.77
827.516	90.38
827.953	85.37
828.389	86.77
828.825	78.67
829.262	70.27
829.698	62.47
830.135	66.17
830.571	62.57
831.007	67.47
831.443	63.07
831.88	61.38
832.316	63.17
832.752	68.47
833.188	67.77
833.624	62.77
834.06	71.07
834.497	73.17
834.933	73.97
835.369	78.97
835.805	72.17
836.241	76.37
836.677	90.17
837.112	97.07
837.548	113.57
837.984	152.57
838.42	224.58
838.856	563.57
839.292	1681.38
839.727	2398.88
840.163	1136.47
840.599	1044.97
841.034	2218.97
841.47	2195.97
841.906	816.67
842.341	349.27
842.777	217.67
843.212	216.67
843.648	197.07
844.083	120.17
844.519	87.97
844.954	72.88
845.39	56.97
845.825	58.77
846.261	57.57
846.696	63.17
847.131	48.77
847.566	56.37
848.002	51.67
848.437	56.07
848.872	66.97
849.307	61.17
849.742	89.07
850.177	201.88
850.613	599.88
851.048	911.47
851.483	393.07
851.918	159.67
852.353	84.77
852.788	56.57
853.223	55.97
853.657	56.07
854.092	40.47
854.527	41.57
854.962	41.87
855.397	42.47
855.832	52.27
856.266	43.67
856.701	39.77
857.136	35.57
857.57	43.67
858.005	51.57
858.44	56.87
858.874	45.88
859.309	56.88
859.743	42.47
860.178	48.37
860.612	45.17
861.047	53.57
861.481	74.97
861.915	67.57
862.35	52.77
862.784	32.87
863.218	33.17
863.653	30.57
864.087	47.77
864.521	56.17
864.955	74.27
865.39	168.77
865.824	182.67
866.258	118.38
866.692	175.57
867.126	189.87
867.56	115.77
867.994	56.57
868.428	35.97
868.862	37.77
869.296	55.07
869.73	58.47
870.164	54.07
870.598	44.17
871.031	38.17
871.465	31.27
871.899	34.47
872.333	23.57
872.766	27.27
873.2	27.67
873.634	32.77
874.067	29.67
874.501	29.07
874.935	36.77
875.368	33.27
875.802	24.77
876.235	26.97
876.669	27.97
877.102	20.17
877.535	22.88
877.969	24.07
878.402	26.47
878.836	21.07
879.269	25.67
879.702	23.67
880.135	21.37
880.569	18.47
881.002	21.27
881.435	18.27
881.868	19.47
882.301	20.77
882.734	13.57
883.167	20.37
883.601	12.87
884.034	19.97
884.467	18.27
884.899	19.67
885.332	14.57
885.765	15.17
886.198	14.27
886.631	20.57
887.064	17.47
887.497	24.37
887.929	27.97
888.362	15.27
888.795	13.07
889.228	16.77
889.66	16.47
890.093	14.37
890.526	20.37
890.958	15.47
891.391	10.17
891.823	18.87
892.256	15.37
892.688	16.37
893.121	16.77
893.553	11.67
893.985	23.57
894.418	14.57
894.85	14.77
895.282	13.17
895.715	16.47
896.147	23.07
896.579	12.67
897.011	10.57
897.444	17.87
897.876	13.27
898.308	23.17
898.74	15.38
899.172	8.67
899.604	16.38
900.036	22.57
900.468	13.57
900.9	17.57
901.332	13.37
901.764	7.47
902.196	22.38
902.628	20.77
903.06	20.77
903.491	34.47
903.923	17.47
904.355	17.27
904.787	20.87
905.218	22.38
905.65	22.57
906.082	11.97
906.513	10.37
906.945	13.77
907.376	14.57
907.808	19.67
908.239	18.17
908.671	19.07
909.102	24.97
909.534	23.38
909.965	49.57
910.397	99.87
910.828	338.67
911.259	492.77
911.691	230.17
912.122	112.97
912.553	53.87
912.984	33.47
913.415	26.67
913.847	26.87
914.278	12.77
914.709	15.17
915.14	13.57
915.571	17.77
916.002	13.47
916.433	23.07
916.864	18.27
917.295	14.57
917.726	19.97
918.157	15.97
918.587	27.47
919.018	24.88
919.449	22.38
919.88	25.97
920.311	26.27
920.741	52.17
921.172	176.87
921.603	151.17
922.033	70.47
922.464	46.38
922.895	20.27
923.325	13.47
923.756	15.77
924.186	11.07
924.617	21.97
925.047	22.27
925.478	31.77
925.908	31.17
926.338	12.77
926.769	5.77
927.199	16.47
927.629	10.77
928.06	15.47
928.49	13.77
928.92	14.37
929.35	6.88
929.78	13.57
930.21	3.97
930.641	7.67
931.071	11.77
931.501	0.17
931.931	0.67
932.361	6.17
932.791	2.27
933.221	2.67
933.651	2.77
934.08	17.77
934.51	22.37
934.94	13.27
935.37	10.67
935.8	9.77
936.229	8.27
936.659	8.97
937.089	3.57
937.519	8.07
937.948	20.57
938.378	18.07
938.807	4.77
939.237	2.27
939.666	1.27
940.096	-11.03
940.525	4.47
940.955	4.47
941.384	1.97
941.814	-9.53
942.243	-1.13
942.672	2.67
943.102	-1.53
943.531	0.37
943.96	3.57
944.39	-1.23
944.819	5.67
945.248	0.47
945.677	2.87
946.106	3.87
946.535	5.77
946.964	2.17
947.393	3.67
947.822	3.67
948.251	-5.63
948.68	13.07
949.109	5.47
949.538	3.38
949.967	-8.03
950.396	-6.73
950.825	-2.03
951.254	-0.33
951.682	-12.23
952.111	2.77
952.54	9.67
952.969	-5.33
953.397	-6.93
953.826	-0.93
954.254	-2.33
954.683	1.77
955.112	-1.53
955.54	0.07
955.969	-1.93
956.397	5.07
956.826	-3.23
957.254	3.07
957.682	-6.13
958.111	1.47
958.539	-4.83
958.967	1.87
959.396	-2.53
959.824	-4.43
960.252	-0.03
960.68	-2.23
961.109	-2.23
961.537	-5.33
961.965	-3.73
962.393	-5.53
962.821	-0.23
963.249	-1.43
963.677	1.07
964.105	5.97
964.533	44.27
964.961	46.77
965.389	18.27
965.817	8.37
966.245	3.47
966.672	-1.73
967.1	-11.83
967.528	-9.13
967.956	2.67
968.383	-4.63
968.811	-5.83
969.239	-7.73
969.666	-4.13
970.094	-2.23
970.522	1.57
970.949	-0.03
971.377	-5.53
971.804	-5.23
972.232	-4.13
972.659	-7.43
973.087	-5.83
973.514	-7.73
973.941	-8.43
974.369	5.67
974.796	-6.23
975.223	-4.23
975.651	-5.62
976.078	5.37
976.505	-3.73
976.932	3.97
977.359	8.37
977.786	12.27
978.214	-1.13
978.641	-1.23
979.068	-3.83
979.495	-5.53
979.922	-5.33
980.349	-4.13
980.776	-0.13
981.202	-4.23
981.629	-0.23
982.056	-2.33
982.483	-0.83
982.91	3.37
983.337	-10.03
983.763	4.07
984.19	-0.33
984.617	-4.53
985.043	-5.03
985.47	-10.13
985.897	-5.13
986.323	-6.73
986.75	7.38
987.176	1.07
987.603	-3.63
988.029	-0.23
988.456	-6.93
988.882	-1.43
989.308	-12.63
989.735	-2.83
990.161	-1.23
990.587	-6.23
991.014	-1.43
991.44	6.87
991.866	1.97
992.292	-5.73
992.719	-15.03
993.145	0.67
993.571	-1.43
993.997	-4.33
994.423	-3.43
994.849	-9.13
995.275	-6.53
995.701	-2.83
996.127	-8.83
996.553	-0.33
996.979	-5.13
997.405	-6.12
997.83	-7.43
998.256	-7.53
998.682	-9.83
999.108	-12.93
999.534	-0.03
999.959	-3.23
1000.385	0.57
1000.811	0.57
1001.236	-13.43
1001.662	-8.13
1002.087	-7.43
1002.513	2.57
1002.938	-1.33
1003.364	4.88
1003.789	-1.53
1004.215	-2.43
1004.64	-6.53
1005.066	-0.73
1005.491	-2.03
1005.916	-5.13
1006.342	-5.12
1006.767	-8.63
1007.192	-0.33
1007.617	-1.53
1008.042	-5.03
1008.468	-10.93
1008.893	-3.33
1009.318	-4.93
1009.743	-0.93
1010.168	1.67
1010.593	-2.03
1011.018	-10.43
1011.443	-11.83
1011.868	0.67
1012.293	-1.73
1012.718	-6.93
1013.143	0.77
1013.567	-1.13
1013.992	-5.73
1014.417	-16.13
1014.842	-0.93
1015.267	-6.63
1015.691	-6.23
1016.116	2.07
1016.541	-2.63
1016.965	2.77
1017.39	2.57
1017.814	-1.33
1018.239	-0.73
1018.663	-13.53
1019.088	-9.23
1019.512	-5.63
1019.937	-1.63
1020.361	-3.83
1020.785	-14.23
1021.21	-10.53
1021.634	-1.03
1022.058	-2.23
1022.483	5.27
1022.907	-3.33
1023.331	-5.62
1023.755	-9.23
1024.179	-2.53
1024.604	-8.33
1025.028	-6.63
1025.452	-3.53
1025.876	-0.43
1026.3	-4.33
1026.724	-9.83
1027.148	-5.73
1027.572	-13.13
1027.996	-4.53
1028.42	-0.73
1028.843	-2.43
1029.267	-4.93
1029.691	-5.83
1030.115	-2.73
1030.539	-9.53
1030.962	-7.53
1031.386	-13.83
1031.81	-0.03
1032.233	-4.93
1032.657	-1.53
1033.08	-2.83
1033.504	-2.93
1033.927	-6.53
1034.351	-6.43
1034.774	-10.03
1035.198	-7.63
1035.621	-3.93
1036.045	-11.53
1036.468	-0.83
1036.891	-9.63
1037.315	-10.53
1037.738	-5.83
1038.161	-2.53
1038.584	-11.13
1039.008	-9.33
1039.431	-3.93
1039.854	-4.43
1040.277	-10.23
1040.7	-11.63
1041.123	-5.43
1041.546	-7.43
1041.969	-6.93
1042.392	-5.63
1042.815	-1.53
1043.238	-8.23
1043.661	-4.13
1044.084	-11.63
1044.507	-8.73
1044.93	-8.83
1045.352	-5.13
1045.775	-5.43
1046.198	-3.13
1046.621	-4.62
1047.043	-3.12
1047.466	5.57
1047.889	-6.63
1048.311	-7.23
1048.734	-10.13
1049.156	-0.93
1049.579	-1.13
1050.001	-0.93
1050.424	-2.83
1050.846	-11.63
1051.269	-6.33
1051.691	-10.03
1052.113	-4.63
1052.536	-2.23
1052.958	-9.73
1053.38	-12.03
1053.802	-13.03
1054.225	0.47
1054.647	-7.43
1055.069	-5.93
1055.491	2.67
1055.913	-7.93
1056.335	-1.43
1056.757	-11.93
1057.179	-6.03
1057.601	-5.83
1058.023	-5.62
1058.445	-10.23
1058.867	-12.63
1059.289	-8.13
1059.711	-8.12
1060.133	-4.23
1060.555	-1.53
1060.976	-15.03
1061.398	-6.53
1061.82	-3.83
1062.241	-8.83
1062.663	-8.23
1063.085	-5.53
1063.506	-5.33
1063.928	-10.73
1064.35	1.37
1064.771	-16.33
1065.193	-6.43
1065.614	-8.33
1066.035	-13.03
1066.457	-7.63
1066.878	-3.53
1067.3	-8.83
1067.721	-6.33
1068.142	-10.53
1068.564	-12.53
1068.985	-5.13
1069.406	-8.93
1069.827	-1.83
1070.248	-1.43
1070.67	-11.43
1071.091	-8.43
1071.512	-7.73
1071.933	-3.83
1072.354	-8.33
1072.775	-9.23
1073.196	-17.23
1073.617	-3.93
1074.038	-7.43
1074.459	-6.93
1074.88	-15.03
1075.3	-5.33
1075.721	-13.03
1076.142	-6.33
1076.563	-7.33
1076.983	-11.03
1077.404	-10.62
1077.825	-10.73
1078.246	-6.03
1078.666	-7.13
1079.087	-4.03
1079.507	-7.03
1079.928	-3.63
1080.348	3.57
1080.769	-5.03
1081.189	-2.03
1081.61	-4.03
1082.03	-6.03
1082.451	-15.23
1082.871	-10.12
1083.291	-2.13
1083.711	-4.93
1084.132	-8.83
1084.552	-8.93
1084.972	-4.83
1085.392	-11.03
1085.813	-15.33
1086.233	-12.13
1086.653	-8.73
1087.073	-6.23
1087.493	-7.33
1087.913	-4.63
1088.333	-5.93
1088.753	-7.43
1089.173	2.87
1089.593	-3.53
1090.013	0.87
1090.433	-1.83
1090.852	-5.43
1091.272	-8.53
1091.692	-6.13
1092.112	-7.03
1092.531	-10.23
1092.951	-16.33
1093.371	-3.93
1093.79	1.97
1094.21	-7.33
1094.63	-3.63
1095.049	-15.73
1095.469	-0.53
1095.888	-3.63
1096.308	6.77
1096.727	1.87
1097.146	-11.13
1097.566	-0.33
1097.985	-11.13
1098.405	-5.33
1098.824	-14.93
1099.243	-8.73
1099.662	-6.93
1100.082	-0.73
1100.501	-4.43
1100.92	-9.43
1101.339	-8.53
1101.758	-6.53
