Data from 20171114-ORNL-Ar_H_NY_Subt18_08-05-58-896.txt Node
Date: Tue Nov 14 08:05:58 EST 2017
User: Ender
Spectrometer: HR+D1039
Trigger mode: 0
Integration Time (sec): 2.730000E-2
Scans to average: 10
Electric dark correction enabled: true
Nonlinearity correction enabled: false
Boxcar width: 0
XAxis mode: Wavelengths
Number of Pixels in Spectrum: 2048
>>>>>Begin Spectral Data<<<<<
187.836	-3.68
188.309	-3.68
188.782	-3.68
189.255	-0.08
189.728	-0.78
190.201	1.92
190.674	2.02
191.147	1.32
191.619	-2.38
192.092	2.32
192.565	6.02
193.038	-4.18
193.511	1.32
193.984	-0.08
194.456	-1.88
194.929	3.92
195.402	2.22
195.874	-7.98
196.347	-2.68
196.82	-4.18
197.292	4.02
197.765	-3.18
198.237	-2.18
198.71	-3.28
199.182	-2.38
199.655	-1.88
200.127	4.72
200.6	2.52
201.072	0.92
201.544	1.12
202.017	3.32
202.489	3.82
202.961	1.72
203.433	-0.68
203.906	-4.18
204.378	-0.88
204.85	0.12
205.322	-7.88
205.794	2.62
206.266	-2.38
206.739	-9.88
207.211	1.82
207.683	-7.48
208.155	-7.78
208.627	0.12
209.099	-2.88
209.57	-5.48
210.042	-2.48
210.514	-1.88
210.986	-2.48
211.458	-4.08
211.93	-3.48
212.402	8.72
212.873	-2.98
213.345	-7.58
213.817	-7.98
214.288	-4.88
214.76	-11.08
215.232	-5.38
215.703	-4.08
216.175	-1.98
216.646	-0.88
217.118	-7.38
217.589	0.62
218.061	3.22
218.532	1.12
219.004	0.92
219.475	-2.38
219.946	-3.38
220.418	-8.88
220.889	2.62
221.36	-1.78
221.832	-9.88
222.303	-3.38
222.774	-5.98
223.245	-4.08
223.717	-3.78
224.188	0.42
224.659	-5.98
225.13	-1.08
225.601	-4.78
226.072	1.72
226.543	-4.38
227.014	0.32
227.485	-2.28
227.956	-7.78
228.427	-1.08
228.898	-3.88
229.369	-1.18
229.839	-6.98
230.31	-3.28
230.781	-5.48
231.252	-6.48
231.722	-0.78
232.193	-1.78
232.664	-0.58
233.135	4.02
233.605	-0.38
234.076	1.02
234.546	6.02
235.017	8.42
235.487	-4.58
235.958	3.02
236.428	-4.28
236.899	6.32
237.369	2.42
237.84	-0.98
238.31	8.72
238.78	7.32
239.251	2.72
239.721	1.92
240.191	3.02
240.662	1.42
241.132	6.02
241.602	-0.18
242.072	4.72
242.542	10.02
243.013	0.22
243.483	3.02
243.953	4.32
244.423	5.42
244.893	0.02
245.363	9.02
245.833	-0.18
246.303	1.42
246.773	15.22
247.243	4.82
247.712	9.32
248.182	10.82
248.652	7.92
249.122	0.82
249.592	13.32
250.061	21.62
250.531	28.62
251.001	15.42
251.471	28.82
251.94	23.42
252.41	8.52
252.879	7.02
253.349	12.62
253.818	16.32
254.288	6.32
254.757	4.82
255.227	4.52
255.696	1.52
256.166	4.62
256.635	10.92
257.105	9.42
257.574	11.22
258.043	14.92
258.513	13.62
258.982	19.92
259.451	6.62
259.92	8.12
260.389	12.12
260.859	23.32
261.328	16.22
261.797	21.12
262.266	7.82
262.735	14.42
263.204	13.12
263.673	6.22
264.142	8.42
264.611	-0.28
265.08	0.82
265.549	3.82
266.018	3.72
266.487	-0.18
266.955	6.22
267.424	2.52
267.893	6.72
268.362	1.92
268.83	5.72
269.299	14.32
269.768	8.82
270.236	5.72
270.705	5.22
271.174	8.22
271.642	13.32
272.111	13.52
272.579	22.52
273.048	24.22
273.516	31.12
273.985	28.32
274.453	22.82
274.922	24.72
275.39	18.72
275.858	6.42
276.327	13.82
276.795	18.42
277.263	19.72
277.731	29.72
278.2	55.32
278.668	60.52
279.136	49.62
279.604	19.02
280.072	16.92
280.54	14.02
281.008	9.72
281.477	16.22
281.945	14.72
282.413	17.22
282.881	20.72
283.348	11.22
283.816	16.62
284.284	19.02
284.752	22.02
285.22	12.52
285.688	17.22
286.156	23.02
286.623	50.62
287.091	57.82
287.559	32.32
288.026	17.12
288.494	19.42
288.962	6.12
289.429	17.72
289.897	24.22
290.364	17.62
290.832	16.82
291.3	16.02
291.767	19.12
292.234	18.32
292.702	22.42
293.169	22.12
293.637	21.52
294.104	20.02
294.571	13.62
295.039	17.92
295.506	22.92
295.973	23.22
296.44	19.92
296.908	18.82
297.375	18.02
297.842	22.92
298.309	19.32
298.776	16.72
299.243	24.62
299.71	15.02
300.177	29.42
300.644	18.72
301.111	23.42
301.578	24.52
302.045	18.72
302.512	26.42
302.979	24.12
303.446	26.72
303.913	22.92
304.379	23.02
304.846	33.52
305.313	26.52
305.78	23.62
306.246	29.02
306.713	23.82
307.18	22.52
307.646	26.22
308.113	31.82
308.579	27.52
309.046	28.72
309.512	30.02
309.979	22.02
310.445	30.82
310.912	26.52
311.378	35.12
311.845	31.12
312.311	32.32
312.777	36.52
313.244	34.92
313.71	38.42
314.176	31.42
314.642	36.32
315.109	37.62
315.575	38.52
316.041	41.72
316.507	37.92
316.973	42.62
317.439	42.02
317.905	37.72
318.371	36.92
318.837	42.92
319.303	31.92
319.769	31.82
320.235	28.92
320.701	40.02
321.167	42.82
321.633	39.32
322.099	43.12
322.564	53.42
323.03	44.82
323.496	41.22
323.962	39.52
324.427	37.02
324.893	45.82
325.359	45.22
325.824	43.52
326.29	38.52
326.755	39.62
327.221	48.72
327.686	40.22
328.152	46.42
328.617	46.12
329.083	53.02
329.548	54.52
330.014	46.12
330.479	42.82
330.944	47.62
331.41	46.02
331.875	43.32
332.34	39.32
332.805	53.52
333.271	55.82
333.736	51.72
334.201	55.52
334.666	53.12
335.131	58.02
335.596	61.62
336.061	54.12
336.526	52.52
336.991	49.92
337.456	60.72
337.921	53.02
338.386	44.62
338.851	48.52
339.316	55.92
339.781	54.62
340.246	49.22
340.711	50.32
341.175	49.62
341.64	47.12
342.105	54.32
342.569	56.32
343.034	59.82
343.499	54.02
343.963	57.02
344.428	69.32
344.893	64.32
345.357	63.82
345.822	70.32
346.286	74.02
346.751	79.82
347.215	73.72
347.679	78.12
348.144	98.02
348.608	81.72
349.073	72.52
349.537	80.52
350.001	80.02
350.465	93.92
350.93	93.02
351.394	84.52
351.858	77.72
352.322	94.82
352.786	94.62
353.25	104.32
353.715	112.92
354.179	102.82
354.643	126.72
355.107	131.92
355.571	113.52
356.035	112.22
356.498	128.42
356.962	132.32
357.426	140.82
357.89	120.92
358.354	97.52
358.818	91.52
359.281	86.12
359.745	83.42
360.209	81.12
360.673	80.72
361.136	83.12
361.6	91.82
362.064	85.32
362.527	89.22
362.991	90.22
363.454	81.72
363.918	86.12
364.381	79.62
364.845	89.82
365.308	92.72
365.772	89.92
366.235	88.42
366.698	88.22
367.162	88.02
367.625	96.52
368.088	96.82
368.552	87.22
369.015	93.02
369.478	106.02
369.941	102.82
370.404	99.52
370.867	113.02
371.331	115.62
371.794	120.32
372.257	114.92
372.72	120.62
373.183	114.72
373.646	107.72
374.109	107.42
374.572	113.72
375.035	112.72
375.497	114.52
375.96	107.42
376.423	107.62
376.886	123.32
377.349	112.02
377.811	110.22
378.274	109.82
378.737	112.42
379.199	117.62
379.662	115.62
380.125	118.02
380.587	123.22
381.05	127.12
381.512	141.12
381.975	144.72
382.437	132.62
382.9	138.12
383.362	141.22
383.825	150.12
384.287	155.22
384.75	149.12
385.212	146.62
385.674	142.92
386.136	142.02
386.599	130.72
387.061	129.02
387.523	129.32
387.985	142.92
388.447	152.42
388.91	148.02
389.372	163.72
389.834	154.42
390.296	150.62
390.758	157.92
391.22	175.52
391.682	216.22
392.144	303.22
392.606	234.92
393.068	176.82
393.529	169.82
393.991	157.42
394.453	155.42
394.915	161.92
395.377	196.32
395.838	220.12
396.3	162.12
396.762	151.82
397.224	146.42
397.685	134.42
398.147	136.92
398.608	135.92
399.07	139.02
399.531	144.02
399.993	148.52
400.454	162.62
400.916	148.52
401.377	148.52
401.839	157.92
402.3	155.52
402.762	174.32
403.223	193.72
403.684	184.12
404.145	169.62
404.607	165.62
405.068	170.92
405.529	180.12
405.99	196.12
406.451	183.52
406.913	188.62
407.374	167.52
407.835	172.02
408.296	176.62
408.757	174.52
409.218	194.52
409.679	189.02
410.14	186.82
410.601	184.52
411.062	194.62
411.522	197.12
411.983	195.22
412.444	186.82
412.905	190.52
413.366	186.02
413.826	198.22
414.287	231.22
414.748	265.22
415.208	257.82
415.669	227.12
416.13	210.42
416.59	210.92
417.051	221.12
417.511	229.22
417.972	245.62
418.432	261.12
418.893	290.22
419.353	256.22
419.814	208.52
420.274	190.02
420.734	188.72
421.195	201.92
421.655	206.12
422.115	205.72
422.576	198.92
423.036	210.52
423.496	214.62
423.956	228.62
424.416	237.22
424.876	277.22
425.336	267.52
425.797	267.32
426.257	263.12
426.717	250.02
427.177	242.42
427.637	228.02
428.097	244.42
428.556	253.02
429.016	275.02
429.476	272.32
429.936	283.62
430.396	290.42
430.856	304.62
431.315	327.62
431.775	368.42
432.235	400.52
432.694	364.52
433.154	375.72
433.614	411.62
434.073	354.42
434.533	295.12
434.993	283.42
435.452	295.02
435.912	308.82
436.371	302.02
436.83	294.52
437.29	283.02
437.749	262.62
438.209	260.82
438.668	284.72
439.127	297.42
439.587	282.72
440.046	255.92
440.505	275.72
440.964	287.82
441.424	343.32
441.883	325.12
442.342	272.02
442.801	232.52
443.26	227.32
443.719	227.72
444.178	225.42
444.637	214.12
445.096	227.02
445.555	232.52
446.014	225.72
446.473	230.02
446.932	241.92
447.391	239.22
447.849	234.02
448.308	227.22
448.767	232.42
449.226	242.12
449.685	245.92
450.143	265.42
450.602	245.62
451.061	241.42
451.519	245.62
451.978	237.62
452.436	239.92
452.895	248.02
453.353	258.52
453.812	255.12
454.27	249.22
454.729	248.52
455.187	251.82
455.646	258.02
456.104	256.02
456.562	269.62
457.021	276.22
457.479	268.32
457.937	288.92
458.395	273.52
458.854	254.92
459.312	268.52
459.77	285.42
460.228	273.12
460.686	251.72
461.144	257.12
461.602	251.42
462.06	249.12
462.518	262.62
462.976	264.92
463.434	270.32
463.892	272.12
464.35	280.62
464.808	300.62
465.266	278.72
465.724	279.22
466.181	272.92
466.639	286.42
467.097	293.92
467.555	308.32
468.012	313.02
468.47	316.12
468.928	342.92
469.385	357.12
469.843	360.52
470.3	364.62
470.758	370.12
471.215	399.82
471.673	424.22
472.13	417.52
472.588	432.02
473.045	383.52
473.503	393.02
473.96	406.32
474.417	413.02
474.875	449.92
475.332	491.82
475.789	479.42
476.246	487.02
476.704	503.62
477.161	521.62
477.618	545.22
478.075	582.12
478.532	627.02
478.989	708.82
479.446	837.62
479.903	795.32
480.36	832.62
480.817	900.12
481.274	1003.02
481.731	1103.72
482.188	1207.02
482.645	1346.32
483.102	1462.62
483.558	1595.62
484.015	1652.62
484.472	1618.62
484.929	1573.52
485.385	1516.42
485.842	1480.82
486.299	1415.12
486.755	1341.42
487.212	1134.32
487.668	958.42
488.125	881.42
488.582	808.82
489.038	768.52
489.494	735.92
489.951	706.92
490.407	690.32
490.864	672.12
491.32	665.22
491.776	656.42
492.233	672.32
492.689	633.72
493.145	629.82
493.602	616.92
494.058	628.82
494.514	628.62
494.97	662.02
495.426	666.52
495.882	645.72
496.338	623.92
496.794	644.82
497.251	646.92
497.707	654.62
498.163	658.62
498.618	670.02
499.074	666.22
499.53	692.02
499.986	693.42
500.442	671.32
500.898	655.02
501.354	645.82
501.809	659.32
502.265	670.82
502.721	682.02
503.177	684.02
503.632	682.82
504.088	696.62
504.543	720.92
504.999	729.22
505.455	674.82
505.91	654.32
506.366	651.72
506.821	640.02
507.277	640.42
507.732	647.42
508.187	634.42
508.643	653.12
509.098	653.32
509.553	670.32
510.009	683.52
510.464	673.02
510.919	712.82
511.375	711.42
511.83	726.62
512.285	747.12
512.74	783.42
513.195	803.72
513.65	795.52
514.105	787.22
514.56	797.32
515.015	813.62
515.47	828.42
515.925	807.42
516.38	804.62
516.835	819.72
517.29	820.32
517.745	793.92
518.2	788.92
518.655	775.22
519.109	763.32
519.564	758.32
520.019	759.02
520.474	742.22
520.928	747.92
521.383	737.82
521.838	732.92
522.292	730.12
522.747	727.22
523.201	723.72
523.656	721.12
524.11	715.82
524.565	718.52
525.019	718.02
525.474	715.52
525.928	721.22
526.382	718.02
526.837	710.72
527.291	719.92
527.745	719.32
528.2	712.52
528.654	699.32
529.108	706.22
529.562	702.32
530.016	708.22
530.47	700.82
530.925	706.72
531.379	722.62
531.833	726.22
532.287	718.92
532.741	725.42
533.195	715.22
533.649	725.72
534.103	734.92
534.556	721.82
535.01	722.42
535.464	728.62
535.918	734.62
536.372	746.62
536.826	737.72
537.279	724.62
537.733	727.62
538.187	723.42
538.64	730.92
539.094	745.62
539.548	755.42
540.001	735.72
540.455	737.92
540.908	753.62
541.362	751.32
541.815	757.62
542.269	781.22
542.722	775.82
543.175	781.02
543.629	785.62
544.082	799.62
544.536	807.82
544.989	797.22
545.442	805.82
545.895	801.02
546.349	807.92
546.802	812.02
547.255	808.72
547.708	827.32
548.161	824.32
548.614	846.92
549.067	849.12
549.52	832.92
549.973	825.02
550.426	825.12
550.879	812.82
551.332	806.12
551.785	814.72
552.238	814.22
552.691	827.92
553.144	845.42
553.596	861.82
554.049	874.62
554.502	907.72
554.955	936.42
555.407	922.62
555.86	912.22
556.313	913.02
556.765	895.12
557.218	903.12
557.67	897.92
558.123	893.52
558.576	885.62
559.028	898.62
559.48	898.42
559.933	883.52
560.385	855.22
560.838	825.52
561.29	804.72
561.742	787.12
562.195	781.72
562.647	771.72
563.099	785.72
563.551	787.22
564.004	795.42
564.456	794.02
564.908	780.12
565.36	759.72
565.812	741.32
566.264	747.72
566.716	728.62
567.168	727.82
567.62	733.82
568.072	724.92
568.524	699.42
568.976	706.92
569.428	688.72
569.88	691.72
570.332	701.32
570.784	692.72
571.235	709.82
571.687	711.32
572.139	717.82
572.59	730.02
573.042	727.92
573.494	719.42
573.945	717.52
574.397	700.12
574.849	699.62
575.3	708.92
575.752	689.02
576.203	692.42
576.655	696.52
577.106	680.32
577.557	677.92
578.009	683.22
578.46	678.92
578.912	674.12
579.363	671.42
579.814	682.12
580.265	672.72
580.717	680.22
581.168	672.32
581.619	684.32
582.07	689.62
582.521	683.12
582.972	692.52
583.423	692.92
583.875	690.52
584.326	707.82
584.777	754.92
585.227	838.82
585.678	911.12
586.129	1006.72
586.58	1078.62
587.031	1163.02
587.482	1318.42
587.933	1500.02
588.384	1305.12
588.834	987.22
589.285	815.32
589.736	788.12
590.186	786.82
590.637	785.62
591.088	756.32
591.538	749.02
591.989	743.12
592.439	733.12
592.89	737.22
593.34	707.72
593.791	717.32
594.241	704.72
594.692	713.92
595.142	703.12
595.593	713.02
596.043	712.02
596.493	736.22
596.943	723.82
597.394	731.02
597.844	731.72
598.294	735.92
598.744	754.02
599.195	778.82
599.645	817.32
600.095	872.02
600.545	928.22
600.995	968.02
601.445	1034.52
601.895	1092.22
602.345	1151.62
602.795	1124.92
603.245	1080.92
603.695	1027.82
604.145	962.32
604.594	912.22
605.044	862.92
605.494	809.72
605.944	767.82
606.393	745.22
606.843	730.92
607.293	739.62
607.743	735.22
608.192	756.02
608.642	759.32
609.091	772.72
609.541	778.02
609.99	778.52
610.44	762.02
610.889	727.92
611.339	704.22
611.788	686.12
612.238	708.72
612.687	734.22
613.136	720.32
613.586	734.12
614.035	737.32
614.484	760.12
614.933	763.82
615.383	740.92
615.832	754.52
616.281	739.62
616.73	692.82
617.179	665.72
617.628	654.02
618.077	637.92
618.526	626.02
618.975	622.02
619.424	628.12
619.873	614.02
620.322	613.82
620.771	602.92
621.22	603.22
621.669	590.12
622.118	595.82
622.567	590.12
623.015	584.12
623.464	576.72
623.913	563.92
624.361	559.92
624.81	560.72
625.259	563.52
625.707	563.92
626.156	564.22
626.604	574.92
627.053	555.72
627.501	560.22
627.95	577.12
628.398	581.92
628.847	573.62
629.295	573.92
629.744	576.02
630.192	558.32
630.64	557.42
631.089	571.52
631.537	583.02
631.985	586.72
632.433	598.62
632.881	599.22
633.33	646.72
633.778	639.52
634.226	575.02
634.674	574.52
635.122	583.52
635.57	592.02
636.018	623.32
636.466	578.32
636.914	567.92
637.362	571.42
637.81	572.82
638.258	566.62
638.705	576.72
639.153	603.62
639.601	610.62
640.049	637.72
640.497	663.82
640.944	696.22
641.392	645.82
641.84	606.82
642.287	582.72
642.735	574.92
643.182	582.42
643.63	574.12
644.078	578.62
644.525	587.92
644.973	591.62
645.42	602.02
645.867	621.32
646.315	644.92
646.762	663.12
647.21	689.92
647.657	712.12
648.104	749.12
648.551	770.42
648.999	829.22
649.446	920.12
649.893	1007.92
650.34	1158.62
650.787	1395.52
651.234	1718.22
651.682	2240.82
652.129	3091.52
652.576	4436.72
653.023	6528.22
653.47	8987.22
653.917	11275.92
654.363	13012.02
654.81	14366.92
655.257	13687.62
655.704	8980.22
656.151	5338.02
656.598	3455.02
657.044	2419.12
657.491	1867.92
657.938	1485.42
658.385	1241.52
658.831	1077.52
659.278	963.72
659.724	861.32
660.171	791.12
660.618	727.62
661.064	688.22
661.511	664.62
661.957	653.12
662.404	648.62
662.85	652.82
663.296	616.72
663.743	561.62
664.189	538.42
664.635	530.32
665.082	526.12
665.528	518.22
665.974	518.42
666.42	505.22
666.867	497.62
667.313	492.12
667.759	476.32
668.205	473.62
668.651	479.72
669.097	482.42
669.543	501.82
669.989	470.72
670.435	446.72
670.881	440.02
671.327	445.62
671.773	462.52
672.219	484.52
672.665	539.82
673.11	576.12
673.556	626.82
674.002	663.22
674.448	649.22
674.893	547.52
675.339	468.62
675.785	430.82
676.23	415.52
676.676	389.02
677.122	383.12
677.567	368.02
678.013	359.92
678.458	360.52
678.904	360.42
679.349	345.92
679.794	349.02
680.24	353.82
680.685	349.82
681.131	339.92
681.576	349.72
682.021	354.02
682.466	352.02
682.912	350.92
683.357	351.02
683.802	372.42
684.247	407.12
684.692	450.22
685.137	497.62
685.583	535.02
686.028	557.32
686.473	507.62
686.918	441.12
687.363	415.02
687.807	397.52
688.252	359.12
688.697	347.82
689.142	336.72
689.587	327.82
690.032	318.22
690.477	346.32
690.921	345.62
691.366	375.42
691.811	394.32
692.255	418.62
692.7	461.22
693.145	492.52
693.589	692.62
694.034	1089.42
694.478	1511.42
694.923	1712.72
695.367	2239.72
695.812	1191.72
696.256	494.72
696.701	366.42
697.145	339.32
697.59	319.42
698.034	329.92
698.478	330.92
698.922	322.72
699.367	328.42
699.811	322.02
700.255	352.52
700.699	380.12
701.143	421.02
701.588	471.22
702.032	513.32
702.476	508.42
702.92	479.72
703.364	482.12
703.808	624.02
704.252	1007.32
704.696	1430.22
705.14	1658.52
705.584	2104.02
706.027	1048.62
706.471	512.62
706.915	397.82
707.359	354.62
707.803	322.82
708.246	301.82
708.69	304.72
709.134	309.82
709.577	307.72
710.021	311.02
710.465	295.02
710.908	288.52
711.352	298.12
711.795	310.02
712.239	350.82
712.682	380.92
713.126	407.92
713.569	459.72
714.012	367.92
714.456	315.72
714.899	298.42
715.342	271.72
715.786	262.32
716.229	258.32
716.672	249.12
717.115	244.92
717.558	248.72
718.002	242.82
718.445	264.92
718.888	284.92
719.331	291.32
719.774	306.62
720.217	297.62
720.66	277.82
721.103	265.12
721.546	259.62
721.989	243.72
722.432	227.22
722.874	238.22
723.317	224.52
723.76	238.72
724.203	253.92
724.645	311.22
725.088	431.82
725.531	552.42
725.974	640.32
726.416	543.92
726.859	303.22
727.301	244.02
727.744	233.72
728.187	231.42
728.629	229.42
729.071	242.22
729.514	245.82
729.956	268.12
730.399	281.72
730.841	279.22
731.283	271.32
731.726	274.22
732.168	257.12
732.61	254.52
733.053	281.72
733.495	311.92
733.937	350.32
734.379	391.72
734.821	423.62
735.263	528.02
735.705	806.92
736.148	1511.32
736.59	2519.22
737.032	3012.22
737.474	2447.82
737.916	802.72
738.357	415.02
738.799	321.82
739.241	299.32
739.683	283.32
740.125	288.42
740.567	294.22
741.008	316.92
741.45	318.02
741.892	313.92
742.334	332.82
742.775	347.22
743.217	340.52
743.658	269.42
744.1	248.72
744.542	260.02
744.983	300.82
745.425	344.22
745.866	340.92
746.307	274.32
746.749	283.32
747.19	321.52
747.632	440.72
748.073	849.22
748.514	1800.82
748.956	2774.12
749.397	3484.22
749.838	2911.92
750.279	2901.02
750.72	1468.32
751.162	533.42
751.603	316.82
752.044	250.62
752.485	211.62
752.926	213.52
753.367	203.62
753.808	191.62
754.249	198.62
754.69	183.42
755.131	179.12
755.572	182.72
756.013	181.82
756.453	176.92
756.894	183.32
757.335	184.52
757.776	191.32
758.216	193.42
758.657	196.42
759.098	199.72
759.538	218.72
759.979	273.72
760.42	363.32
760.86	680.52
761.301	1746.72
761.741	4281.52
762.182	6305.22
762.622	4455.92
763.063	1277.42
763.503	536.92
763.943	339.32
764.384	332.82
764.824	383.52
765.264	429.32
765.705	304.72
766.145	204.92
766.585	187.82
767.025	176.62
767.465	184.12
767.906	233.32
768.346	316.62
768.786	331.12
769.226	257.92
769.666	306.12
770.106	592.72
770.546	1490.02
770.986	2584.52
771.426	2332.12
771.866	777.32
772.306	316.92
772.745	202.22
773.185	172.62
773.625	162.62
774.065	166.92
774.505	195.62
774.944	302.32
775.384	648.52
775.824	1194.02
776.263	1175.12
776.703	491.82
777.142	215.12
777.582	159.12
778.021	133.32
778.461	134.12
778.9	135.32
779.34	132.32
779.779	111.12
780.219	114.62
780.658	111.92
781.097	112.52
781.537	109.82
781.976	107.82
782.415	105.52
782.855	98.82
783.294	106.52
783.733	102.22
784.172	106.02
784.611	105.52
785.05	112.02
785.489	109.92
785.928	110.32
786.367	122.52
786.806	121.22
787.245	127.42
787.684	130.82
788.123	148.02
788.562	130.32
789.001	129.92
789.44	128.12
789.879	119.52
790.317	119.22
790.756	126.42
791.195	121.42
791.634	146.22
792.072	198.32
792.511	356.72
792.95	969.02
793.388	2088.72
793.827	1901.72
794.265	664.72
794.704	277.72
795.142	179.02
795.581	153.42
796.019	136.02
796.458	131.82
796.896	118.52
797.334	133.22
797.773	163.02
798.211	220.82
798.649	410.52
799.087	991.32
799.526	1545.42
799.964	1964.32
800.402	1969.72
800.84	735.62
801.278	297.32
801.716	183.72
802.154	152.32
802.592	143.32
803.03	135.02
803.468	133.32
803.906	134.32
804.344	151.32
804.782	132.52
805.22	130.32
805.658	128.82
806.096	148.12
806.533	155.72
806.971	172.62
807.409	208.42
807.847	303.42
808.284	630.52
808.722	1780.22
809.16	3216.22
809.597	3009.02
810.035	5254.32
810.472	5712.82
810.91	2045.62
811.347	787.12
811.785	395.22
812.222	249.72
812.66	185.12
813.097	162.32
813.535	140.82
813.972	128.62
814.409	119.02
814.846	106.42
815.284	110.82
815.721	101.52
816.158	108.12
816.595	121.42
817.032	170.32
817.47	190.02
817.907	172.32
818.344	147.12
818.781	114.72
819.218	101.72
819.655	120.52
820.092	178.52
820.529	208.32
820.966	171.12
821.403	130.62
821.839	105.42
822.276	96.32
822.713	119.02
823.15	136.92
823.587	115.12
824.023	151.62
824.46	297.92
824.897	865.92
825.333	1333.22
825.77	569.92
826.206	228.32
826.643	141.42
827.08	100.22
827.516	86.82
827.953	80.72
828.389	84.32
828.825	76.42
829.262	72.82
829.698	59.92
830.135	63.62
830.571	62.72
831.007	61.12
831.443	67.42
831.88	66.52
832.316	56.42
832.752	68.62
833.188	66.52
833.624	65.62
834.06	63.92
834.497	68.42
834.933	71.72
835.369	75.22
835.805	67.42
836.241	79.32
836.677	80.62
837.112	89.82
837.548	102.92
837.984	133.02
838.42	190.22
838.856	478.42
839.292	1468.52
839.727	2250.22
840.163	1054.02
840.599	894.22
841.034	1974.92
841.47	2112.72
841.906	758.62
842.341	315.82
842.777	226.42
843.212	305.32
843.648	306.12
844.083	152.62
844.519	101.12
844.954	79.92
845.39	61.72
845.825	56.62
846.261	62.02
846.696	51.42
847.131	52.32
847.566	53.42
848.002	49.32
848.437	55.32
848.872	61.32
849.307	61.52
849.742	86.72
850.177	181.62
850.613	536.72
851.048	866.12
851.483	383.82
851.918	157.92
852.353	87.62
852.788	57.82
853.223	53.42
853.657	59.52
854.092	48.72
854.527	42.22
854.962	44.12
855.397	48.72
855.832	52.32
856.266	47.62
856.701	41.62
857.136	35.02
857.57	40.62
858.005	51.62
858.44	58.22
858.874	47.92
859.309	57.42
859.743	38.92
860.178	45.42
860.612	40.92
861.047	52.62
861.481	65.82
861.915	69.12
862.35	48.92
862.784	37.72
863.218	40.82
863.653	36.92
864.087	43.12
864.521	51.82
864.955	67.02
865.39	156.32
865.824	167.02
866.258	109.22
866.692	166.62
867.126	173.72
867.56	99.12
867.994	56.82
868.428	40.12
868.862	47.52
869.296	49.22
869.73	55.02
870.164	50.12
870.598	45.02
871.031	40.82
871.465	31.02
871.899	26.42
872.333	22.62
872.766	30.02
873.2	23.82
873.634	30.52
874.067	30.72
874.501	27.22
874.935	36.02
875.368	32.52
875.802	29.92
876.235	21.72
876.669	28.32
877.102	28.12
877.535	30.62
877.969	23.12
878.402	31.02
878.836	20.52
879.269	29.12
879.702	21.02
880.135	25.62
880.569	27.12
881.002	29.82
881.435	26.42
881.868	17.42
882.301	24.92
882.734	20.22
883.167	26.92
883.601	19.32
884.034	22.52
884.467	13.32
884.899	21.72
885.332	22.02
885.765	16.72
886.198	11.02
886.631	16.52
887.064	22.02
887.497	22.62
887.929	24.62
888.362	14.82
888.795	8.32
889.228	18.12
889.66	23.72
890.093	19.22
890.526	18.42
890.958	17.42
891.391	22.62
891.823	27.62
892.256	21.12
892.688	18.32
893.121	15.82
893.553	9.62
893.985	23.52
894.418	20.72
894.85	15.12
895.282	17.52
895.715	19.72
896.147	16.62
896.579	18.82
897.011	12.52
897.444	18.22
897.876	13.42
898.308	18.32
898.74	13.02
899.172	23.52
899.604	26.52
900.036	16.72
900.468	22.82
900.9	17.62
901.332	21.02
901.764	16.52
902.196	16.22
902.628	22.22
903.06	22.12
903.491	38.92
903.923	25.22
904.355	23.02
904.787	26.92
905.218	21.42
905.65	21.82
906.082	7.72
906.513	15.32
906.945	16.12
907.376	18.82
907.808	18.72
908.239	16.32
908.671	18.12
909.102	21.42
909.534	25.92
909.965	46.92
910.397	90.72
910.828	296.32
911.259	467.42
911.691	210.92
912.122	98.72
912.553	49.92
912.984	32.82
913.415	25.22
913.847	24.22
914.278	19.72
914.709	15.02
915.14	20.12
915.571	22.02
916.002	10.62
916.433	19.02
916.864	21.62
917.295	15.92
917.726	19.02
918.157	14.22
918.587	29.42
919.018	28.22
919.449	22.52
919.88	24.02
920.311	35.62
920.741	46.12
921.172	160.52
921.603	152.62
922.033	71.32
922.464	50.12
922.895	22.52
923.325	23.62
923.756	20.72
924.186	20.22
924.617	20.92
925.047	39.52
925.478	46.82
925.908	47.92
926.338	30.22
926.769	20.12
927.199	24.32
927.629	15.12
928.06	20.42
928.49	17.82
928.92	15.42
929.35	10.72
929.78	14.12
930.21	8.02
930.641	6.52
931.071	6.92
931.501	6.52
931.931	7.82
932.361	9.52
932.791	3.22
933.221	7.62
933.651	6.52
934.08	16.92
934.51	30.92
934.94	13.82
935.37	10.62
935.8	14.42
936.229	9.52
936.659	12.92
937.089	6.02
937.519	20.02
937.948	27.62
938.378	20.02
938.807	5.62
939.237	2.22
939.666	7.82
940.096	-2.58
940.525	3.52
940.955	4.32
941.384	3.42
941.814	-0.78
942.243	-0.38
942.672	3.52
943.102	-0.58
943.531	1.52
943.96	13.52
944.39	6.52
944.819	1.32
945.248	7.92
945.677	2.52
946.106	9.22
946.535	6.52
946.964	-0.68
947.393	4.32
947.822	3.32
948.251	2.02
948.68	5.62
949.109	8.72
949.538	2.52
949.967	3.52
950.396	4.42
950.825	2.12
951.254	3.02
951.682	1.22
952.111	5.82
952.54	10.22
952.969	-2.68
953.397	0.52
953.826	6.82
954.254	-3.48
954.683	5.62
955.112	-0.08
955.54	4.72
955.969	1.62
956.397	4.92
956.826	-1.68
957.254	5.52
957.682	-1.18
958.111	2.62
958.539	2.82
958.967	2.22
959.396	1.22
959.824	2.12
960.252	3.22
960.68	-1.18
961.109	0.22
961.537	-4.48
961.965	1.62
962.393	6.22
962.821	-6.38
963.249	5.32
963.677	5.22
964.105	11.62
964.533	43.12
964.961	36.32
965.389	21.22
965.817	10.92
966.245	6.12
966.672	0.22
967.1	-6.78
967.528	-1.08
967.956	1.62
968.383	-1.48
968.811	1.22
969.239	-1.68
969.666	-4.68
970.094	5.22
970.522	3.82
970.949	4.62
971.377	-5.28
971.804	2.42
972.232	3.12
972.659	0.92
973.087	-2.88
973.514	0.92
973.941	0.52
974.369	4.02
974.796	9.92
975.223	2.32
975.651	3.82
976.078	5.12
976.505	-4.98
976.932	3.52
977.359	14.82
977.786	14.42
978.214	1.02
978.641	-1.48
979.068	3.12
979.495	-3.38
979.922	4.62
980.349	-0.18
980.776	7.92
981.202	-0.28
981.629	3.82
982.056	5.92
982.483	1.92
982.91	5.72
983.337	0.12
983.763	7.02
984.19	3.22
984.617	-3.28
985.043	-5.28
985.47	-1.88
985.897	2.12
986.323	-2.18
986.75	1.82
987.176	1.12
987.603	3.02
988.029	2.52
988.456	-4.38
988.882	4.92
989.308	-6.78
989.735	-4.88
990.161	-0.58
990.587	-5.68
991.014	5.82
991.44	8.12
991.866	-0.18
992.292	-1.18
992.719	-2.18
993.145	6.02
993.571	-7.88
993.997	-4.98
994.423	-6.98
994.849	-2.28
995.275	0.42
995.701	5.52
996.127	0.12
996.553	7.52
996.979	-1.28
997.405	-1.38
997.83	-5.98
998.256	-5.08
998.682	-8.38
999.108	-1.28
999.534	-3.38
999.959	-0.88
1000.385	-1.08
1000.811	-0.78
1001.236	-7.08
1001.662	-9.98
1002.087	-8.58
1002.513	4.62
1002.938	4.72
1003.364	1.72
1003.789	8.32
1004.215	0.82
1004.64	-1.28
1005.066	0.52
1005.491	7.52
1005.916	0.62
1006.342	-3.48
1006.767	-5.68
1007.192	8.52
1007.617	-2.78
1008.042	0.52
1008.468	-3.38
1008.893	-2.58
1009.318	-0.28
1009.743	-2.78
1010.168	9.62
1010.593	0.42
1011.018	-5.28
1011.443	1.72
1011.868	2.52
1012.293	-6.78
1012.718	-1.98
1013.143	2.22
1013.567	5.92
1013.992	-0.68
1014.417	-10.88
1014.842	2.12
1015.267	-6.68
1015.691	-1.88
1016.116	4.22
1016.541	0.72
1016.965	1.62
1017.39	0.52
1017.814	-3.68
1018.239	4.72
1018.663	-1.28
1019.088	-13.18
1019.512	-5.08
1019.937	3.72
1020.361	-4.88
1020.785	-6.08
1021.21	-3.48
1021.634	-2.28
1022.058	2.82
1022.483	8.52
1022.907	-1.48
1023.331	-5.38
1023.755	3.42
1024.179	-5.28
1024.604	-5.48
1025.028	-9.88
1025.452	-4.28
1025.876	-4.48
1026.3	1.92
1026.724	-3.38
1027.148	-0.08
1027.572	-7.18
1027.996	-4.18
1028.42	2.22
1028.843	-0.58
1029.267	-2.78
1029.691	-2.38
1030.115	-6.48
1030.539	-2.78
1030.962	-5.78
1031.386	-9.18
1031.81	-5.58
1032.233	-3.58
1032.657	-0.98
1033.08	-1.18
1033.504	0.32
1033.927	-1.48
1034.351	0.92
1034.774	-1.98
1035.198	0.42
1035.621	-7.18
1036.045	-5.38
1036.468	-1.68
1036.891	-15.28
1037.315	-7.48
1037.738	-2.18
1038.161	2.02
1038.584	-2.68
1039.008	-1.98
1039.431	-0.38
1039.854	0.02
1040.277	-7.48
1040.7	-4.98
1041.123	5.12
1041.546	-4.38
1041.969	-4.68
1042.392	-3.68
1042.815	-1.98
1043.238	6.32
1043.661	0.22
1044.084	-5.38
1044.507	-6.48
1044.93	-5.08
1045.352	-3.78
1045.775	-6.18
1046.198	-2.48
1046.621	-5.18
1047.043	-0.18
1047.466	7.12
1047.889	-1.78
1048.311	-3.18
1048.734	1.82
1049.156	0.52
1049.579	-3.58
1050.001	-2.08
1050.424	2.22
1050.846	-7.68
1051.269	-2.88
1051.691	-11.48
1052.113	-5.38
1052.536	-3.08
1052.958	0.92
1053.38	-2.18
1053.802	-10.88
1054.225	-1.38
1054.647	-11.28
1055.069	-3.68
1055.491	3.62
1055.913	-1.78
1056.335	-5.88
1056.757	-6.58
1057.179	-3.58
1057.601	-0.28
1058.023	-1.18
1058.445	0.52
1058.867	1.42
1059.289	1.02
1059.711	-5.58
1060.133	-5.58
1060.555	-5.38
1060.976	-6.28
1061.398	-5.28
1061.82	-9.78
1062.241	-2.38
1062.663	-1.98
1063.085	-5.48
1063.506	2.32
1063.928	-0.68
1064.35	-2.18
1064.771	-12.78
1065.193	-2.68
1065.614	-2.78
1066.035	0.92
1066.457	-1.18
1066.878	-0.48
1067.3	-7.38
1067.721	-0.38
1068.142	-11.78
1068.564	0.12
1068.985	-4.48
1069.406	-2.98
1069.827	-6.38
1070.248	-4.68
1070.67	-5.28
1071.091	-1.38
1071.512	-3.88
1071.933	-5.28
1072.354	-3.38
1072.775	-5.08
1073.196	-9.18
1073.617	-3.38
1074.038	2.52
1074.459	-1.78
1074.88	-6.68
1075.3	-1.88
1075.721	-7.58
1076.142	5.82
1076.563	-1.08
1076.983	-10.88
1077.404	-9.48
1077.825	-10.98
1078.246	-6.98
1078.666	-16.98
1079.087	-1.48
1079.507	-6.68
1079.928	0.82
1080.348	7.52
1080.769	-6.68
1081.189	2.32
1081.61	-3.08
1082.03	-5.18
1082.451	-9.78
1082.871	-3.68
1083.291	-6.58
1083.711	-7.18
1084.132	-3.48
1084.552	-0.48
1084.972	-0.88
1085.392	-11.08
1085.813	-7.18
1086.233	-7.38
1086.653	-12.38
1087.073	-5.38
1087.493	-2.58
1087.913	-3.68
1088.333	-4.68
1088.753	-2.78
1089.173	-2.48
1089.593	-2.98
1090.013	2.22
1090.433	3.82
1090.852	-1.38
1091.272	-3.08
1091.692	-3.18
1092.112	-1.18
1092.531	-10.08
1092.951	-14.58
1093.371	1.42
1093.79	-2.48
1094.21	3.02
1094.63	-9.68
1095.049	-7.98
1095.469	-0.48
1095.888	2.12
1096.308	5.32
1096.727	3.22
1097.146	-0.48
1097.566	6.02
1097.985	-7.58
1098.405	-2.28
1098.824	-7.28
1099.243	-3.28
1099.662	-8.18
1100.082	-8.18
1100.501	2.22
1100.92	-5.68
1101.339	-4.98
1101.758	-1.68
