Data from 20171114-ORNL-Ar_H_NY_Subt18_08-07-16-421.txt Node
Date: Tue Nov 14 08:07:16 EST 2017
User: Ender
Spectrometer: HR+D1039
Trigger mode: 0
Integration Time (sec): 2.730000E-2
Scans to average: 10
Electric dark correction enabled: true
Nonlinearity correction enabled: false
Boxcar width: 0
XAxis mode: Wavelengths
Number of Pixels in Spectrum: 2048
>>>>>Begin Spectral Data<<<<<
187.836	-10.89
188.309	-10.89
188.782	-10.89
189.255	-0.89
189.728	-1.89
190.201	5.01
190.674	5.41
191.147	2.91
191.619	-8.99
192.092	0.41
192.565	5.21
193.038	-0.19
193.511	0.41
193.984	4.81
194.456	0.41
194.929	1.81
195.402	-3.09
195.874	-0.39
196.347	-3.49
196.82	-2.89
197.292	3.41
197.765	-4.39
198.237	-5.59
198.71	0.61
199.182	-7.09
199.655	0.61
200.127	4.91
200.6	-5.89
201.072	-0.69
201.544	-8.39
202.017	-2.29
202.489	-1.29
202.961	-1.99
203.433	-3.19
203.906	-6.09
204.378	-6.49
204.85	-6.99
205.322	-12.09
205.794	-2.99
206.266	-7.09
206.739	-7.59
207.211	-1.39
207.683	-8.09
208.155	-9.89
208.627	-7.89
209.099	-6.09
209.57	-9.79
210.042	-3.89
210.514	-4.89
210.986	-6.09
211.458	-9.49
211.93	-4.39
212.402	5.21
212.873	-9.09
213.345	-9.49
213.817	-4.59
214.288	-7.49
214.76	-8.29
215.232	-1.29
215.703	1.21
216.175	-0.79
216.646	-1.99
217.118	-8.09
217.589	-6.79
218.061	-1.59
218.532	1.81
219.004	-9.09
219.475	-3.49
219.946	-4.09
220.418	1.71
220.889	1.01
221.36	4.31
221.832	-0.89
222.303	-5.29
222.774	6.21
223.245	-10.99
223.717	-1.59
224.188	-9.59
224.659	-11.29
225.13	-9.29
225.601	-4.29
226.072	-3.09
226.543	4.41
227.014	1.41
227.485	1.31
227.956	-4.79
228.427	-0.09
228.898	-1.79
229.369	-0.59
229.839	-3.99
230.31	-5.99
230.781	-1.29
231.252	-9.79
231.722	-7.09
232.193	-10.29
232.664	-3.89
233.135	-7.19
233.605	-3.29
234.076	-9.09
234.546	-3.09
235.017	-2.49
235.487	-4.69
235.958	-0.79
236.428	-8.79
236.899	-7.59
237.369	3.21
237.84	-11.89
238.31	1.41
238.78	-6.29
239.251	-5.69
239.721	-4.49
240.191	0.31
240.662	-1.49
241.132	0.61
241.602	-11.39
242.072	-1.49
242.542	1.71
243.013	-1.99
243.483	1.01
243.953	-0.29
244.423	-2.49
244.893	-9.09
245.363	-2.29
245.833	-1.89
246.303	-7.79
246.773	0.51
247.243	-3.19
247.712	-2.89
248.182	2.21
248.652	2.81
249.122	-5.09
249.592	1.01
250.061	-2.39
250.531	6.31
251.001	-7.39
251.471	6.31
251.94	2.51
252.41	-7.49
252.879	-2.79
253.349	2.01
253.818	-2.49
254.288	1.11
254.757	-8.49
255.227	-6.39
255.696	-1.49
256.166	-0.49
256.635	0.01
257.105	-1.99
257.574	-6.69
258.043	-5.09
258.513	-7.39
258.982	0.41
259.451	-1.99
259.92	-3.09
260.389	0.11
260.859	6.61
261.328	4.01
261.797	2.41
262.266	-3.79
262.735	5.01
263.204	1.51
263.673	-3.59
264.142	2.81
264.611	-2.49
265.08	-4.59
265.549	-5.19
266.018	8.81
266.487	-2.69
266.955	-9.39
267.424	-0.49
267.893	0.11
268.362	-2.69
268.83	-0.19
269.299	1.41
269.768	-0.39
270.236	3.01
270.705	-1.29
271.174	1.21
271.642	2.51
272.111	0.61
272.579	-2.09
273.048	4.21
273.516	-0.39
273.985	-2.09
274.453	0.71
274.922	11.61
275.39	2.71
275.858	-0.99
276.327	7.11
276.795	6.71
277.263	3.11
277.731	6.51
278.2	6.41
278.668	2.91
279.136	4.61
279.604	-0.69
280.072	2.51
280.54	3.61
281.008	0.91
281.477	2.91
281.945	6.81
282.413	7.11
282.881	3.81
283.348	0.41
283.816	7.81
284.284	13.51
284.752	11.61
285.22	3.71
285.688	7.71
286.156	8.71
286.623	14.41
287.091	7.91
287.559	13.51
288.026	6.91
288.494	9.41
288.962	-5.39
289.429	-1.19
289.897	15.31
290.364	13.01
290.832	11.01
291.3	5.81
291.767	8.01
292.234	10.91
292.702	9.51
293.169	9.61
293.637	14.61
294.104	6.21
294.571	0.01
295.039	5.91
295.506	8.41
295.973	12.01
296.44	9.71
296.908	12.11
297.375	2.81
297.842	9.61
298.309	13.21
298.776	5.81
299.243	9.11
299.71	4.61
300.177	8.31
300.644	14.61
301.111	17.11
301.578	19.21
302.045	4.51
302.512	17.61
302.979	16.31
303.446	18.21
303.913	10.21
304.379	11.31
304.846	17.21
305.313	15.51
305.78	13.91
306.246	13.01
306.713	17.61
307.18	15.01
307.646	19.91
308.113	19.91
308.579	19.71
309.046	14.01
309.512	13.51
309.979	5.71
310.445	15.01
310.912	16.11
311.378	25.41
311.845	22.91
312.311	23.11
312.777	24.51
313.244	25.61
313.71	27.91
314.176	20.81
314.642	17.91
315.109	19.91
315.575	26.61
316.041	20.61
316.507	21.71
316.973	22.71
317.439	17.71
317.905	26.71
318.371	29.21
318.837	25.61
319.303	21.31
319.769	26.11
320.235	24.51
320.701	24.51
321.167	26.81
321.633	22.51
322.099	29.51
322.564	31.91
323.03	19.71
323.496	28.61
323.962	24.51
324.427	24.31
324.893	33.41
325.359	35.31
325.824	26.61
326.29	26.61
326.755	35.61
327.221	29.31
327.686	30.31
328.152	33.71
328.617	33.61
329.083	37.11
329.548	38.81
330.014	34.91
330.479	32.51
330.944	35.01
331.41	28.21
331.875	39.81
332.34	33.41
332.805	33.51
333.271	30.61
333.736	31.61
334.201	42.51
334.666	38.61
335.131	40.51
335.596	39.31
336.061	37.91
336.526	36.11
336.991	34.61
337.456	43.71
337.921	35.71
338.386	33.31
338.851	35.21
339.316	37.71
339.781	36.21
340.246	40.31
340.711	38.21
341.175	37.71
341.64	34.91
342.105	43.71
342.569	52.21
343.034	44.51
343.499	42.91
343.963	41.21
344.428	55.91
344.893	52.11
345.357	51.41
345.822	54.01
346.286	50.01
346.751	59.91
347.215	55.01
347.679	52.51
348.144	74.81
348.608	70.81
349.073	53.91
349.537	54.41
350.001	63.31
350.465	73.71
350.93	59.81
351.394	64.21
351.858	61.01
352.322	72.11
352.786	67.11
353.25	77.31
353.715	89.01
354.179	70.81
354.643	94.71
355.107	96.01
355.571	78.31
356.035	84.51
356.498	91.01
356.962	92.61
357.426	100.11
357.89	91.91
358.354	75.91
358.818	70.81
359.281	64.21
359.745	62.61
360.209	64.91
360.673	62.11
361.136	72.51
361.6	70.71
362.064	71.51
362.527	69.21
362.991	79.71
363.454	69.81
363.918	59.91
364.381	66.81
364.845	73.91
365.308	75.41
365.772	74.61
366.235	73.71
366.698	70.91
367.162	74.91
367.625	76.11
368.088	76.41
368.552	71.51
369.015	73.21
369.478	75.41
369.941	82.71
370.404	77.41
370.867	88.91
371.331	91.21
371.794	84.21
372.257	85.61
372.72	89.41
373.183	92.41
373.646	80.51
374.109	78.61
374.572	88.41
375.035	84.71
375.497	87.91
375.96	89.61
376.423	89.51
376.886	98.61
377.349	98.31
377.811	93.71
378.274	95.11
378.737	89.31
379.199	94.61
379.662	95.71
380.125	102.01
380.587	92.51
381.05	95.21
381.512	104.61
381.975	111.31
382.437	110.21
382.9	108.81
383.362	110.71
383.825	115.11
384.287	112.41
384.75	102.71
385.212	116.21
385.674	121.71
386.136	122.91
386.599	107.01
387.061	113.71
387.523	110.91
387.985	111.81
388.447	117.01
388.91	118.31
389.372	118.51
389.834	123.41
390.296	110.01
390.758	118.61
391.22	128.61
391.682	132.71
392.144	142.11
392.606	134.41
393.068	126.41
393.529	133.41
393.991	132.51
394.453	119.81
394.915	126.51
395.377	122.11
395.838	121.41
396.3	134.51
396.762	136.21
397.224	125.61
397.685	124.51
398.147	127.81
398.608	121.31
399.07	125.41
399.531	138.01
399.993	142.61
400.454	153.51
400.916	144.91
401.377	141.11
401.839	151.21
402.3	147.51
402.762	155.61
403.223	162.91
403.684	152.41
404.145	157.51
404.607	159.01
405.068	163.01
405.529	164.51
405.99	172.21
406.451	169.51
406.913	161.81
407.374	164.31
407.835	145.71
408.296	160.71
408.757	173.51
409.218	182.21
409.679	166.51
410.14	162.21
410.601	168.01
411.062	176.41
411.522	172.21
411.983	169.91
412.444	170.71
412.905	175.41
413.366	179.51
413.826	194.81
414.287	215.41
414.748	263.71
415.208	252.31
415.669	206.51
416.13	209.41
416.59	205.21
417.051	213.81
417.511	221.21
417.972	240.11
418.432	247.71
418.893	292.91
419.353	255.91
419.814	202.11
420.274	185.21
420.734	179.61
421.195	192.21
421.655	187.01
422.115	192.11
422.576	192.71
423.036	204.41
423.496	208.91
423.956	218.81
424.416	232.21
424.876	267.31
425.336	254.71
425.797	261.21
426.257	248.11
426.717	236.81
427.177	229.01
427.637	220.01
428.097	223.61
428.556	245.61
429.016	257.81
429.476	258.61
429.936	265.11
430.396	275.11
430.856	277.61
431.315	297.11
431.775	336.91
432.235	367.91
432.694	344.21
433.154	347.81
433.614	379.31
434.073	325.91
434.533	270.61
434.993	257.31
435.452	279.01
435.912	277.61
436.371	282.91
436.83	270.11
437.29	261.81
437.749	244.11
438.209	247.61
438.668	269.11
439.127	284.31
439.587	254.71
440.046	247.11
440.505	259.61
440.964	271.81
441.424	314.91
441.883	307.91
442.342	257.21
442.801	233.11
443.26	222.61
443.719	223.41
444.178	220.41
444.637	207.11
445.096	226.41
445.555	232.01
446.014	233.31
446.473	230.91
446.932	231.71
447.391	228.51
447.849	229.71
448.308	222.41
448.767	229.31
449.226	240.91
449.685	245.81
450.143	250.41
450.602	254.51
451.061	241.21
451.519	236.21
451.978	238.61
452.436	238.41
452.895	243.61
453.353	251.81
453.812	242.51
454.27	251.31
454.729	248.61
455.187	248.21
455.646	251.11
456.104	255.91
456.562	263.71
457.021	270.61
457.479	265.21
457.937	271.81
458.395	265.91
458.854	249.71
459.312	261.71
459.77	279.41
460.228	261.21
460.686	256.91
461.144	258.51
461.602	246.41
462.06	256.61
462.518	260.11
462.976	264.41
463.434	262.61
463.892	270.21
464.35	284.41
464.808	293.21
465.266	275.11
465.724	278.61
466.181	289.51
466.639	289.31
467.097	301.41
467.555	302.01
468.012	305.61
468.47	319.01
468.928	335.21
469.385	349.11
469.843	355.51
470.3	364.61
470.758	375.41
471.215	399.31
471.673	421.11
472.13	419.91
472.588	425.21
473.045	383.01
473.503	389.11
473.96	405.01
474.417	407.71
474.875	436.71
475.332	483.01
475.789	466.01
476.246	484.71
476.704	493.31
477.161	517.21
477.618	525.41
478.075	569.31
478.532	611.31
478.989	690.41
479.446	792.81
479.903	757.21
480.36	788.31
480.817	833.61
481.274	926.91
481.731	1016.71
482.188	1099.71
482.645	1221.61
483.102	1303.61
483.558	1439.21
484.015	1468.71
484.472	1446.91
484.929	1389.31
485.385	1346.91
485.842	1335.91
486.299	1286.31
486.755	1242.11
487.212	1058.21
487.668	907.91
488.125	840.71
488.582	779.51
489.038	740.81
489.494	714.71
489.951	694.01
490.407	664.11
490.864	654.61
491.32	651.21
491.776	661.21
492.233	659.21
492.689	625.31
493.145	622.11
493.602	613.71
494.058	625.21
494.514	632.81
494.97	652.21
495.426	666.71
495.882	644.01
496.338	624.71
496.794	644.21
497.251	633.31
497.707	638.91
498.163	646.81
498.618	664.01
499.074	664.11
499.53	684.71
499.986	691.71
500.442	666.61
500.898	640.11
501.354	631.61
501.809	629.21
502.265	641.51
502.721	647.61
503.177	660.11
503.632	651.31
504.088	659.81
504.543	693.41
504.999	709.41
505.455	678.41
505.91	658.71
506.366	653.41
506.821	658.11
507.277	655.41
507.732	656.61
508.187	655.01
508.643	666.91
509.098	657.81
509.553	691.41
510.009	698.01
510.464	698.51
510.919	713.31
511.375	719.21
511.83	728.31
512.285	740.41
512.74	784.91
513.195	802.81
513.65	790.61
514.105	795.01
514.56	786.51
515.015	804.91
515.47	820.51
515.925	810.01
516.38	813.41
516.835	817.51
517.29	801.21
517.745	805.91
518.2	795.21
518.655	777.31
519.109	766.01
519.564	761.41
520.019	752.51
520.474	758.71
520.928	757.21
521.383	744.01
521.838	734.01
522.292	737.61
522.747	740.71
523.201	735.01
523.656	723.91
524.11	720.81
524.565	719.51
525.019	717.91
525.474	730.51
525.928	721.11
526.382	734.51
526.837	721.81
527.291	722.51
527.745	717.41
528.2	720.11
528.654	711.31
529.108	706.81
529.562	704.31
530.016	716.71
530.47	710.71
530.925	701.41
531.379	711.71
531.833	729.91
532.287	722.91
532.741	725.91
533.195	725.91
533.649	731.71
534.103	740.31
534.556	732.91
535.01	731.81
535.464	728.51
535.918	741.41
536.372	734.71
536.826	749.41
537.279	734.61
537.733	729.51
538.187	734.81
538.64	743.61
539.094	743.71
539.548	757.61
540.001	758.31
540.455	750.01
540.908	750.61
541.362	759.81
541.815	778.61
542.269	788.21
542.722	785.71
543.175	798.81
543.629	797.81
544.082	820.41
544.536	815.41
544.989	818.81
545.442	830.31
545.895	824.41
546.349	821.61
546.802	826.31
547.255	823.51
547.708	830.21
548.161	848.21
548.614	856.51
549.067	850.71
549.52	852.21
549.973	842.31
550.426	848.81
550.879	829.41
551.332	831.71
551.785	838.41
552.238	839.71
552.691	852.31
553.144	859.51
553.596	877.81
554.049	891.51
554.502	928.11
554.955	935.51
555.407	934.91
555.86	929.21
556.313	916.91
556.765	911.41
557.218	914.31
557.67	913.41
558.123	908.01
558.576	905.81
559.028	910.71
559.48	928.61
559.933	918.51
560.385	883.41
560.838	842.01
561.29	815.91
561.742	820.21
562.195	806.11
562.647	795.31
563.099	803.31
563.551	808.11
564.004	817.11
564.456	794.71
564.908	783.51
565.36	766.81
565.812	741.81
566.264	750.21
566.716	741.11
567.168	722.21
567.62	736.31
568.072	713.71
568.524	711.51
568.976	718.91
569.428	704.01
569.88	701.31
570.332	710.81
570.784	719.31
571.235	707.41
571.687	716.31
572.139	730.61
572.59	727.31
573.042	739.81
573.494	738.91
573.945	730.41
574.397	712.21
574.849	718.71
575.3	733.11
575.752	713.31
576.203	706.21
576.655	707.71
577.106	688.51
577.557	691.21
578.009	694.61
578.46	692.11
578.912	683.81
579.363	685.91
579.814	690.11
580.265	692.91
580.717	692.71
581.168	683.61
581.619	693.71
582.07	698.21
582.521	687.61
582.972	682.01
583.423	697.31
583.875	694.81
584.326	708.31
584.777	714.61
585.227	747.51
585.678	749.61
586.129	760.01
586.58	777.71
587.031	808.51
587.482	824.61
587.933	857.11
588.384	840.51
588.834	810.51
589.285	795.51
589.736	790.71
590.186	790.61
590.637	785.61
591.088	770.31
591.538	764.71
591.989	752.81
592.439	743.21
592.89	744.81
593.34	741.81
593.791	724.51
594.241	720.71
594.692	722.01
595.142	711.71
595.593	710.61
596.043	723.91
596.493	723.41
596.943	735.31
597.394	748.71
597.844	741.91
598.294	755.31
598.744	780.91
599.195	803.11
599.645	856.41
600.095	897.31
600.545	943.61
600.995	1002.11
601.445	1055.81
601.895	1132.21
602.345	1165.61
602.795	1146.01
603.245	1103.21
603.695	1050.21
604.145	993.81
604.594	942.71
605.044	884.01
605.494	830.81
605.944	779.71
606.393	764.41
606.843	738.41
607.293	749.01
607.743	752.21
608.192	754.31
608.642	776.81
609.091	774.91
609.541	783.11
609.99	777.21
610.44	779.81
610.889	723.81
611.339	714.61
611.788	698.11
612.238	711.21
612.687	724.61
613.136	716.41
613.586	730.51
614.035	717.41
614.484	726.21
614.933	728.61
615.383	727.81
615.832	722.11
616.281	718.51
616.73	683.91
617.179	672.81
617.628	660.41
618.077	638.91
618.526	631.91
618.975	631.31
619.424	627.21
619.873	627.11
620.322	627.51
620.771	632.41
621.22	618.01
621.669	606.41
622.118	596.11
622.567	600.41
623.015	584.41
623.464	588.11
623.913	569.51
624.361	566.01
624.81	564.81
625.259	563.41
625.707	566.41
626.156	577.31
626.604	591.31
627.053	575.31
627.501	573.41
627.95	586.51
628.398	596.11
628.847	581.91
629.295	588.71
629.744	591.41
630.192	578.11
630.64	571.81
631.089	555.31
631.537	552.61
631.985	541.31
632.433	539.81
632.881	529.81
633.33	539.31
633.778	541.41
634.226	534.01
634.674	552.81
635.122	548.71
635.57	565.21
636.018	575.51
636.466	584.81
636.914	567.11
637.362	585.51
637.81	581.51
638.258	585.71
638.705	585.71
639.153	623.01
639.601	629.11
640.049	653.61
640.497	691.61
640.944	718.71
641.392	666.51
641.84	622.61
642.287	608.41
642.735	584.11
643.182	570.61
643.63	570.81
644.078	570.71
644.525	588.51
644.973	591.61
645.42	605.51
645.867	621.31
646.315	639.31
646.762	670.71
647.21	694.21
647.657	719.01
648.104	748.21
648.551	764.81
648.999	831.71
649.446	898.01
649.893	965.81
650.34	1111.11
650.787	1321.61
651.234	1631.01
651.682	2103.91
652.129	2855.91
652.576	4031.41
653.023	5903.01
653.47	7958.31
653.917	9884.71
654.363	11400.41
654.81	12588.71
655.257	11927.71
655.704	7904.11
656.151	4750.51
656.598	3131.01
657.044	2227.31
657.491	1752.81
657.938	1423.11
658.385	1186.71
658.831	1049.61
659.278	940.51
659.724	843.61
660.171	772.71
660.618	714.01
661.064	672.91
661.511	657.31
661.957	649.51
662.404	644.71
662.85	658.71
663.296	628.51
663.743	565.61
664.189	544.11
664.635	544.11
665.082	533.71
665.528	537.61
665.974	527.11
666.42	511.21
666.867	511.71
667.313	497.41
667.759	479.61
668.205	461.51
668.651	458.91
669.097	453.81
669.543	446.81
669.989	452.51
670.435	459.31
670.881	457.21
671.327	470.71
671.773	479.91
672.219	503.21
672.665	559.01
673.11	601.01
673.556	653.31
674.002	685.41
674.448	673.91
674.893	562.41
675.339	497.91
675.785	459.71
676.23	434.71
676.676	397.51
677.122	397.31
677.567	386.91
678.013	378.01
678.458	367.91
678.904	372.11
679.349	359.91
679.794	365.11
680.24	364.71
680.685	361.81
681.131	362.01
681.576	366.11
682.021	359.61
682.466	356.61
682.912	366.11
683.357	369.41
683.802	390.81
684.247	422.11
684.692	470.71
685.137	508.61
685.583	554.31
686.028	580.11
686.473	543.11
686.918	458.01
687.363	430.11
687.807	404.31
688.252	381.41
688.697	367.81
689.142	344.11
689.587	340.81
690.032	338.41
690.477	351.51
690.921	367.81
691.366	385.41
691.811	413.61
692.255	436.21
692.7	468.81
693.145	521.51
693.589	720.31
694.034	1175.81
694.478	1606.91
694.923	1799.91
695.367	2345.81
695.812	1245.81
696.256	514.41
696.701	381.81
697.145	350.41
697.59	338.61
698.034	333.61
698.478	329.81
698.922	332.21
699.367	321.21
699.811	338.91
700.255	362.01
700.699	393.21
701.143	427.91
701.588	485.81
702.032	526.31
702.476	527.71
702.92	510.81
703.364	511.71
703.808	668.01
704.252	1076.21
704.696	1513.81
705.14	1739.21
705.584	2216.41
706.027	1108.21
706.471	533.71
706.915	416.41
707.359	362.41
707.803	335.51
708.246	319.41
708.69	319.21
709.134	317.91
709.577	315.01
710.021	331.41
710.465	315.31
710.908	308.51
711.352	302.51
711.795	317.81
712.239	360.41
712.682	398.11
713.126	426.61
713.569	470.61
714.012	369.21
714.456	314.11
714.899	295.61
715.342	282.31
715.786	278.31
716.229	270.21
716.672	264.31
717.115	256.11
717.558	254.31
718.002	257.21
718.445	266.21
718.888	291.71
719.331	296.21
719.774	317.31
720.217	312.31
720.66	286.81
721.103	278.71
721.546	262.81
721.989	254.01
722.432	243.51
722.874	237.61
723.317	230.61
723.76	237.41
724.203	254.71
724.645	318.51
725.088	464.01
725.531	587.31
725.974	653.31
726.416	562.31
726.859	318.21
727.301	258.91
727.744	244.41
728.187	239.41
728.629	242.21
729.071	251.11
729.514	268.61
729.956	281.51
730.399	287.81
730.841	291.11
731.283	286.71
731.726	274.51
732.168	271.11
732.61	278.21
733.053	295.71
733.495	326.31
733.937	370.11
734.379	413.11
734.821	446.51
735.263	564.41
735.705	875.91
736.148	1657.81
736.59	2701.81
737.032	3172.01
737.474	2573.71
737.916	843.11
738.357	441.81
738.799	337.71
739.241	308.91
739.683	296.41
740.125	300.31
740.567	305.51
741.008	324.91
741.45	331.21
741.892	324.71
742.334	364.31
742.775	377.51
743.217	352.81
743.658	279.91
744.1	265.51
744.542	277.61
744.983	325.81
745.425	354.61
745.866	347.61
746.307	284.21
746.749	283.31
747.19	334.91
747.632	473.31
748.073	929.81
748.514	1954.61
748.956	2993.11
749.397	3719.71
749.838	3103.71
750.279	3075.81
750.72	1565.51
751.162	571.61
751.603	331.81
752.044	271.21
752.485	235.81
752.926	223.91
753.367	209.41
753.808	203.41
754.249	196.31
754.69	198.31
755.131	195.41
755.572	190.91
756.013	184.61
756.453	185.51
756.894	188.81
757.335	194.21
757.776	200.01
758.216	200.31
758.657	204.31
759.098	211.01
759.538	231.51
759.979	276.31
760.42	395.71
760.86	756.91
761.301	1936.21
761.741	4649.91
762.182	6665.11
762.622	4707.31
763.063	1376.71
763.503	556.51
763.943	334.71
764.384	279.61
764.824	246.91
765.264	222.51
765.705	212.41
766.145	190.31
766.585	179.31
767.025	179.61
767.465	166.81
767.906	178.81
768.346	192.91
768.786	200.21
769.226	218.91
769.666	313.61
770.106	645.01
770.546	1630.71
770.986	2751.71
771.426	2457.81
771.866	825.91
772.306	340.41
772.745	207.81
773.185	171.51
773.625	169.01
774.065	150.11
774.505	168.61
774.944	213.91
775.384	368.41
775.824	596.41
776.263	570.91
776.703	281.91
777.142	166.01
777.582	135.51
778.021	122.71
778.461	127.61
778.9	124.01
779.34	118.31
779.779	121.81
780.219	110.11
780.658	111.31
781.097	112.61
781.537	116.71
781.976	118.51
782.415	108.81
782.855	103.11
783.294	102.01
783.733	107.41
784.172	109.61
784.611	106.71
785.05	110.71
785.489	111.41
785.928	116.81
786.367	120.61
786.806	122.01
787.245	135.01
787.684	141.11
788.123	151.81
788.562	137.51
789.001	131.21
789.44	125.11
789.879	120.61
790.317	120.51
790.756	133.51
791.195	126.31
791.634	152.11
792.072	208.41
792.511	370.41
792.95	1045.81
793.388	2203.71
793.827	1973.71
794.265	696.21
794.704	285.71
795.142	188.71
795.581	162.11
796.019	141.71
796.458	125.61
796.896	131.81
797.334	138.51
797.773	157.91
798.211	225.31
798.649	463.31
799.087	1068.51
799.526	1658.01
799.964	2098.81
800.402	2077.81
800.84	796.21
801.278	315.31
801.716	195.51
802.154	162.31
802.592	150.81
803.03	153.61
803.468	142.71
803.906	151.01
804.344	156.51
804.782	145.91
805.22	142.91
805.658	135.71
806.096	153.11
806.533	165.41
806.971	180.01
807.409	220.01
807.847	330.91
808.284	709.41
808.722	1968.51
809.16	3443.61
809.597	3292.21
810.035	5683.21
810.472	5978.31
810.91	2181.21
811.347	824.21
811.785	422.01
812.222	269.41
812.66	203.61
813.097	169.41
813.535	144.91
813.972	131.71
814.409	120.31
814.846	111.71
815.284	110.21
815.721	105.81
816.158	103.81
816.595	112.81
817.032	154.61
817.47	183.61
817.907	141.91
818.344	104.91
818.781	99.41
819.218	91.91
819.655	129.11
820.092	197.71
820.529	220.51
820.966	177.51
821.403	136.31
821.839	103.01
822.276	100.11
822.713	128.81
823.15	145.31
823.587	115.91
824.023	149.41
824.46	313.01
824.897	940.71
825.333	1414.31
825.77	604.41
826.206	241.71
826.643	143.61
827.08	106.11
827.516	87.71
827.953	81.71
828.389	78.91
828.825	67.51
829.262	64.41
829.698	66.01
830.135	66.51
830.571	55.01
831.007	57.91
831.443	58.41
831.88	62.81
832.316	67.21
832.752	60.91
833.188	64.91
833.624	60.91
834.06	67.01
834.497	66.11
834.933	69.91
835.369	76.51
835.805	63.31
836.241	80.31
836.677	84.71
837.112	93.61
837.548	110.71
837.984	142.11
838.42	211.71
838.856	515.21
839.292	1592.71
839.727	2394.11
840.163	1111.71
840.599	977.71
841.034	2124.61
841.47	2204.41
841.906	796.61
842.341	335.31
842.777	197.11
843.212	210.11
843.648	183.61
844.083	114.21
844.519	81.31
844.954	75.11
845.39	65.11
845.825	59.41
846.261	56.51
846.696	50.31
847.131	53.21
847.566	58.21
848.002	54.01
848.437	51.41
848.872	64.61
849.307	63.11
849.742	86.51
850.177	183.51
850.613	574.31
851.048	913.21
851.483	395.61
851.918	154.91
852.353	90.91
852.788	56.11
853.223	45.31
853.657	50.81
854.092	49.11
854.527	38.61
854.962	39.41
855.397	46.51
855.832	52.21
856.266	43.31
856.701	40.11
857.136	33.61
857.57	35.31
858.005	53.61
858.44	56.21
858.874	42.91
859.309	53.21
859.743	45.31
860.178	49.81
860.612	41.11
861.047	52.11
861.481	65.31
861.915	72.41
862.35	50.91
862.784	37.41
863.218	43.81
863.653	39.81
864.087	42.31
864.521	51.71
864.955	68.11
865.39	161.41
865.824	183.31
866.258	119.21
866.692	174.91
867.126	194.31
867.56	110.61
867.994	50.41
868.428	40.31
868.862	49.61
869.296	52.61
869.73	63.31
870.164	55.01
870.598	52.21
871.031	39.01
871.465	33.41
871.899	30.91
872.333	23.71
872.766	27.41
873.2	21.41
873.634	27.71
874.067	26.81
874.501	22.31
874.935	36.91
875.368	32.21
875.802	27.01
876.235	23.91
876.669	21.81
877.102	27.61
877.535	23.81
877.969	21.51
878.402	23.41
878.836	23.91
879.269	25.81
879.702	22.81
880.135	22.71
880.569	20.91
881.002	21.41
881.435	17.91
881.868	15.61
882.301	25.01
882.734	21.21
883.167	23.31
883.601	16.71
884.034	20.81
884.467	16.81
884.899	16.81
885.332	17.01
885.765	8.71
886.198	17.01
886.631	13.61
887.064	18.51
887.497	21.11
887.929	19.11
888.362	9.51
888.795	13.41
889.228	17.81
889.66	25.11
890.093	15.71
890.526	15.21
890.958	15.81
891.391	21.21
891.823	22.41
892.256	14.91
892.688	8.61
893.121	11.81
893.553	14.51
893.985	18.91
894.418	22.31
894.85	11.81
895.282	20.91
895.715	15.31
896.147	17.91
896.579	13.91
897.011	15.41
897.444	21.41
897.876	15.81
898.308	17.71
898.74	14.41
899.172	15.71
899.604	22.01
900.036	12.01
900.468	13.91
900.9	13.41
901.332	17.31
901.764	14.01
902.196	19.71
902.628	20.21
903.06	13.71
903.491	22.81
903.923	24.91
904.355	29.21
904.787	24.41
905.218	24.61
905.65	18.11
906.082	8.91
906.513	13.81
906.945	10.31
907.376	15.71
907.808	19.21
908.239	16.31
908.671	15.31
909.102	19.11
909.534	24.31
909.965	49.41
910.397	94.91
910.828	328.61
911.259	486.91
911.691	228.11
912.122	110.21
912.553	51.61
912.984	39.11
913.415	24.21
913.847	23.71
914.278	17.11
914.709	18.31
915.14	12.31
915.571	16.01
916.002	15.61
916.433	17.81
916.864	15.31
917.295	12.51
917.726	22.41
918.157	20.21
918.587	32.71
919.018	26.91
919.449	23.11
919.88	22.71
920.311	30.61
920.741	49.11
921.172	174.31
921.603	156.31
922.033	73.21
922.464	47.91
922.895	22.11
923.325	20.71
923.756	14.61
924.186	11.61
924.617	19.01
925.047	20.31
925.478	24.41
925.908	21.11
926.338	10.01
926.769	10.11
927.199	13.01
927.629	7.71
928.06	14.81
928.49	17.21
928.92	14.91
929.35	7.91
929.78	12.31
930.21	6.11
930.641	8.31
931.071	10.21
931.501	4.41
931.931	4.81
932.361	2.81
932.791	4.41
933.221	8.11
933.651	0.31
934.08	13.21
934.51	35.21
934.94	6.91
935.37	9.11
935.8	5.91
936.229	2.11
936.659	3.41
937.089	1.41
937.519	15.11
937.948	25.41
938.378	20.61
938.807	9.21
939.237	5.51
939.666	8.61
940.096	-7.69
940.525	-1.59
940.955	0.31
941.384	0.21
941.814	-3.29
942.243	3.11
942.672	3.01
943.102	-3.79
943.531	-3.59
943.96	2.51
944.39	1.81
944.819	-0.79
945.248	1.21
945.677	0.11
946.106	1.81
946.535	1.51
946.964	-3.29
947.393	0.41
947.822	-1.09
948.251	-9.19
948.68	2.71
949.109	1.91
949.538	3.51
949.967	-5.29
950.396	0.51
950.825	-2.59
951.254	-6.69
951.682	-7.19
952.111	4.31
952.54	4.31
952.969	-3.59
953.397	-10.19
953.826	-0.99
954.254	-6.99
954.683	0.41
955.112	-8.79
955.54	-3.89
955.969	4.31
956.397	3.11
956.826	-0.79
957.254	2.01
957.682	0.41
958.111	1.21
958.539	0.11
958.967	0.71
959.396	-6.39
959.824	1.71
960.252	2.71
960.68	-9.59
961.109	-0.19
961.537	-4.79
961.965	-0.79
962.393	1.01
962.821	-5.39
963.249	1.71
963.677	3.71
964.105	3.51
964.533	44.51
964.961	47.91
965.389	22.51
965.817	9.71
966.245	1.91
966.672	5.11
967.1	-2.69
967.528	0.51
967.956	-3.69
968.383	-0.29
968.811	-3.59
969.239	-0.79
969.666	2.11
970.094	-1.59
970.522	-1.69
970.949	-0.19
971.377	-2.89
971.804	-4.09
972.232	-2.99
972.659	-5.79
973.087	-9.99
973.514	-2.39
973.941	-1.39
974.369	3.21
974.796	3.91
975.223	1.61
975.651	-3.49
976.078	1.11
976.505	-0.29
976.932	0.91
977.359	10.71
977.786	11.61
978.214	-0.39
978.641	-4.19
979.068	-3.69
979.495	-5.39
979.922	-2.79
980.349	2.11
980.776	-2.29
981.202	-3.39
981.629	6.11
982.056	0.81
982.483	-4.39
982.91	-1.29
983.337	-6.39
983.763	-0.69
984.19	-2.59
984.617	-5.39
985.043	-0.39
985.47	-0.69
985.897	-1.99
986.323	-2.49
986.75	4.91
987.176	0.01
987.603	-4.19
988.029	0.81
988.456	-9.49
988.882	3.81
989.308	-3.99
989.735	-5.29
990.161	3.41
990.587	-5.29
991.014	-1.79
991.44	-2.39
991.866	-0.69
992.292	-5.89
992.719	-2.39
993.145	-1.19
993.571	-7.79
993.997	-3.79
994.423	-3.39
994.849	-6.19
995.275	-3.89
995.701	-3.89
996.127	-5.99
996.553	0.61
996.979	-5.19
997.405	-1.29
997.83	-4.79
998.256	-7.09
998.682	-2.89
999.108	-5.39
999.534	-3.79
999.959	-4.29
1000.385	-7.09
1000.811	-1.19
1001.236	-12.49
1001.662	-6.59
1002.087	-9.69
1002.513	-0.89
1002.938	2.01
1003.364	-6.79
1003.789	-4.39
1004.215	1.01
1004.64	-0.69
1005.066	-0.29
1005.491	-0.99
1005.916	-5.29
1006.342	0.01
1006.767	-15.19
1007.192	7.41
1007.617	-6.69
1008.042	-5.19
1008.468	-6.59
1008.893	0.11
1009.318	-3.99
1009.743	-3.99
1010.168	5.61
1010.593	3.51
1011.018	-4.49
1011.443	-2.19
1011.868	-1.49
1012.293	-7.59
1012.718	-7.19
1013.143	-3.09
1013.567	-2.09
1013.992	-1.49
1014.417	-12.79
1014.842	-1.09
1015.267	-5.39
1015.691	-4.09
1016.116	7.41
1016.541	1.81
1016.965	1.01
1017.39	-3.19
1017.814	-1.19
1018.239	0.11
1018.663	-8.09
1019.088	-9.59
1019.512	-6.09
1019.937	-1.49
1020.361	-1.79
1020.785	-8.99
1021.21	-0.99
1021.634	-0.79
1022.058	-3.19
1022.483	-2.39
1022.907	-6.49
1023.331	-5.19
1023.755	-3.39
1024.179	-2.69
1024.604	-10.09
1025.028	-12.89
1025.452	-3.79
1025.876	-6.39
1026.3	-0.89
1026.724	-14.99
1027.148	-5.79
1027.572	-4.39
1027.996	-1.59
1028.42	-1.69
1028.843	-8.99
1029.267	-6.59
1029.691	0.21
1030.115	-12.49
1030.539	-6.99
1030.962	-8.89
1031.386	-11.89
1031.81	-2.39
1032.233	-8.39
1032.657	0.71
1033.08	8.31
1033.504	-5.59
1033.927	-4.49
1034.351	-0.09
1034.774	-2.89
1035.198	-4.39
1035.621	-12.69
1036.045	-5.19
1036.468	0.91
1036.891	-11.69
1037.315	-13.19
1037.738	-8.09
1038.161	-2.59
1038.584	-5.69
1039.008	-2.29
1039.431	-5.49
1039.854	1.51
1040.277	-10.89
1040.7	-18.29
1041.123	-2.79
1041.546	-15.69
1041.969	-12.19
1042.392	-12.59
1042.815	-2.89
1043.238	-0.99
1043.661	0.61
1044.084	-5.39
1044.507	-3.99
1044.93	-5.99
1045.352	-3.39
1045.775	-1.09
1046.198	-0.89
1046.621	-3.99
1047.043	0.91
1047.466	5.01
1047.889	-3.99
1048.311	-7.09
1048.734	-2.39
1049.156	-3.89
1049.579	-6.69
1050.001	-3.19
1050.424	-3.79
1050.846	-1.49
1051.269	-0.09
1051.691	-5.69
1052.113	-8.99
1052.536	-4.09
1052.958	-3.29
1053.38	-1.49
1053.802	-8.79
1054.225	-2.79
1054.647	-8.19
1055.069	0.01
1055.491	2.11
1055.913	-6.69
1056.335	-4.59
1056.757	-7.99
1057.179	-6.09
1057.601	-4.89
1058.023	-3.29
1058.445	-6.09
1058.867	-5.29
1059.289	-0.59
1059.711	-8.59
1060.133	-6.69
1060.555	-1.09
1060.976	-6.79
1061.398	-3.69
1061.82	-11.99
1062.241	-10.49
1062.663	-9.59
1063.085	-4.19
1063.506	-1.89
1063.928	-3.89
1064.35	0.11
1064.771	-10.59
1065.193	-7.79
1065.614	-9.39
1066.035	0.51
1066.457	-3.89
1066.878	5.11
1067.3	-6.99
1067.721	-4.59
1068.142	-6.79
1068.564	-1.79
1068.985	-6.59
1069.406	-7.09
1069.827	-10.99
1070.248	-7.49
1070.67	-5.39
1071.091	-4.79
1071.512	2.31
1071.933	-3.39
1072.354	-9.89
1072.775	-5.19
1073.196	-14.69
1073.617	-9.69
1074.038	-6.09
1074.459	-2.09
1074.88	-14.39
1075.3	2.71
1075.721	-7.09
1076.142	0.91
1076.563	-0.59
1076.983	-9.39
1077.404	-8.09
1077.825	-10.09
1078.246	-10.29
1078.666	-12.19
1079.087	-7.69
1079.507	-10.29
1079.928	0.91
1080.348	-4.79
1080.769	-4.39
1081.189	0.31
1081.61	-6.69
1082.03	-3.59
1082.451	-7.79
1082.871	-5.99
1083.291	-9.49
1083.711	-4.79
1084.132	-6.39
1084.552	1.51
1084.972	0.51
1085.392	-10.99
1085.813	-12.09
1086.233	-13.79
1086.653	-9.39
1087.073	-4.59
1087.493	3.11
1087.913	-8.69
1088.333	-4.79
1088.753	-7.79
1089.173	1.41
1089.593	-4.29
1090.013	1.51
1090.433	2.51
1090.852	-4.49
1091.272	-4.69
1091.692	-0.89
1092.112	-7.39
1092.531	-12.79
1092.951	-11.79
1093.371	-2.49
1093.79	0.91
1094.21	-6.89
1094.63	-7.19
1095.049	-7.39
1095.469	-8.49
1095.888	-3.69
1096.308	1.81
1096.727	4.91
1097.146	-1.79
1097.566	-5.69
1097.985	-9.69
1098.405	-2.69
1098.824	-6.59
1099.243	-8.49
1099.662	-5.79
1100.082	-4.39
1100.501	0.81
1100.92	-7.69
1101.339	-3.09
1101.758	0.21
