Data from 20171114-ORNL-Ar_H_NY_Subt18_08-04-53-928.txt Node
Date: Tue Nov 14 08:04:53 EST 2017
User: Ender
Spectrometer: HR+D1039
Trigger mode: 0
Integration Time (sec): 2.730000E-2
Scans to average: 10
Electric dark correction enabled: true
Nonlinearity correction enabled: false
Boxcar width: 0
XAxis mode: Wavelengths
Number of Pixels in Spectrum: 2048
>>>>>Begin Spectral Data<<<<<
187.836	-4.69
188.309	-4.69
188.782	-4.69
189.255	0.31
189.728	-2.29
190.201	7.61
190.674	1.51
191.147	6.41
191.619	-11.09
192.092	2.81
192.565	2.51
193.038	2.61
193.511	2.81
193.984	-0.69
194.456	-2.59
194.929	-3.89
195.402	-1.49
195.874	0.11
196.347	-5.29
196.82	-6.89
197.292	6.61
197.765	-9.19
198.237	-7.79
198.71	2.71
199.182	-3.89
199.655	3.31
200.127	-2.99
200.6	-5.09
201.072	-2.09
201.544	-6.49
202.017	1.71
202.489	-1.09
202.961	1.21
203.433	0.01
203.906	-0.59
204.378	-8.89
204.85	-6.39
205.322	-10.79
205.794	-4.69
206.266	-3.09
206.739	-10.89
207.211	3.11
207.683	-5.59
208.155	-6.19
208.627	-2.59
209.099	-3.39
209.57	-4.49
210.042	-7.69
210.514	-9.99
210.986	-4.79
211.458	-10.79
211.93	-6.09
212.402	-0.89
212.873	-2.99
213.345	-11.39
213.817	-12.09
214.288	-7.59
214.76	-8.19
215.232	-4.09
215.703	0.31
216.175	-6.89
216.646	-5.79
217.118	-8.39
217.589	-4.49
218.061	2.11
218.532	-4.59
219.004	-8.39
219.475	-5.09
219.946	-5.69
220.418	-8.49
220.889	3.01
221.36	-0.19
221.832	-2.09
222.303	-2.69
222.774	2.51
223.245	-10.39
223.717	-0.19
224.188	-3.69
224.659	-12.89
225.13	-6.69
225.601	-2.59
226.072	-0.89
226.543	-3.79
227.014	-1.19
227.485	-3.79
227.956	-8.59
228.427	-0.19
228.898	1.21
229.369	2.71
229.839	-4.19
230.31	-8.79
230.781	3.91
231.252	-1.59
231.722	-7.59
232.193	-7.79
232.664	-3.49
233.135	1.81
233.605	-2.69
234.076	-9.09
234.546	2.71
235.017	5.41
235.487	0.11
235.958	-3.09
236.428	-3.19
236.899	-1.29
237.369	4.31
237.84	4.41
238.31	6.61
238.78	-0.09
239.251	-4.39
239.721	0.11
240.191	4.41
240.662	-1.59
241.132	2.01
241.602	-2.29
242.072	5.91
242.542	5.31
243.013	3.51
243.483	3.01
243.953	-0.19
244.423	0.91
244.893	-4.89
245.363	-0.79
245.833	-5.49
246.303	4.31
246.773	10.51
247.243	0.01
247.712	0.71
248.182	6.51
248.652	7.51
249.122	1.01
249.592	12.11
250.061	26.51
250.531	40.31
251.001	12.51
251.471	20.31
251.94	16.41
252.41	12.31
252.879	7.71
253.349	11.81
253.818	11.61
254.288	2.01
254.757	9.01
255.227	6.81
255.696	5.21
256.166	9.91
256.635	12.81
257.105	8.01
257.574	5.01
258.043	10.01
258.513	15.81
258.982	13.81
259.451	13.01
259.92	15.01
260.389	13.51
260.859	18.31
261.328	8.01
261.797	18.21
262.266	15.21
262.735	12.11
263.204	6.01
263.673	2.81
264.142	6.61
264.611	-4.49
265.08	-2.89
265.549	5.11
266.018	4.21
266.487	-1.79
266.955	-1.09
267.424	0.21
267.893	7.41
268.362	1.91
268.83	2.91
269.299	7.91
269.768	3.21
270.236	6.71
270.705	6.91
271.174	9.81
271.642	1.91
272.111	11.41
272.579	16.81
273.048	29.91
273.516	36.31
273.985	26.61
274.453	26.41
274.922	20.01
275.39	12.01
275.858	8.21
276.327	18.01
276.795	16.41
277.263	10.51
277.731	32.31
278.2	52.01
278.668	63.31
279.136	49.01
279.604	26.41
280.072	17.11
280.54	15.11
281.008	9.51
281.477	18.91
281.945	13.61
282.413	19.11
282.881	17.21
283.348	6.01
283.816	14.31
284.284	23.01
284.752	18.91
285.22	15.81
285.688	16.31
286.156	20.41
286.623	43.71
287.091	57.21
287.559	29.51
288.026	15.31
288.494	25.21
288.962	7.81
289.429	8.61
289.897	14.31
290.364	13.51
290.832	18.91
291.3	19.61
291.767	16.71
292.234	23.31
292.702	14.51
293.169	23.71
293.637	19.41
294.104	20.91
294.571	15.71
295.039	11.81
295.506	22.31
295.973	21.41
296.44	21.01
296.908	20.81
297.375	19.71
297.842	20.51
298.309	16.91
298.776	17.71
299.243	17.61
299.71	10.91
300.177	24.51
300.644	19.21
301.111	22.21
301.578	22.71
302.045	22.41
302.512	31.21
302.979	29.61
303.446	23.11
303.913	19.81
304.379	21.81
304.846	31.41
305.313	26.41
305.78	28.71
306.246	27.21
306.713	25.51
307.18	32.81
307.646	26.11
308.113	27.91
308.579	24.11
309.046	26.21
309.512	27.81
309.979	22.11
310.445	25.61
310.912	29.11
311.378	34.21
311.845	28.61
312.311	33.61
312.777	36.61
313.244	29.01
313.71	32.31
314.176	36.31
314.642	31.11
315.109	27.81
315.575	40.01
316.041	44.21
316.507	35.41
316.973	37.21
317.439	32.11
317.905	34.31
318.371	42.41
318.837	39.01
319.303	34.61
319.769	35.41
320.235	32.11
320.701	37.31
321.167	37.91
321.633	38.31
322.099	36.21
322.564	48.21
323.03	40.21
323.496	39.71
323.962	38.41
324.427	35.61
324.893	45.41
325.359	38.01
325.824	37.01
326.29	35.11
326.755	41.71
327.221	41.11
327.686	43.81
328.152	50.11
328.617	42.01
329.083	48.61
329.548	55.01
330.014	47.61
330.479	38.81
330.944	46.71
331.41	42.51
331.875	43.21
332.34	44.01
332.805	51.21
333.271	50.11
333.736	47.61
334.201	53.11
334.666	46.51
335.131	55.61
335.596	48.01
336.061	53.51
336.526	47.51
336.991	48.21
337.456	51.81
337.921	50.11
338.386	49.01
338.851	46.31
339.316	45.91
339.781	47.61
340.246	51.81
340.711	48.81
341.175	48.71
341.64	49.71
342.105	51.41
342.569	57.31
343.034	54.41
343.499	56.31
343.963	52.71
344.428	61.81
344.893	60.21
345.357	65.61
345.822	61.11
346.286	65.01
346.751	77.01
347.215	68.41
347.679	74.81
348.144	100.21
348.608	80.91
349.073	69.01
349.537	79.11
350.001	86.21
350.465	91.31
350.93	82.61
351.394	72.11
351.858	72.51
352.322	86.11
352.786	83.91
353.25	102.31
353.715	113.51
354.179	102.41
354.643	128.51
355.107	129.31
355.571	115.01
356.035	106.71
356.498	117.21
356.962	122.71
357.426	128.61
357.89	118.41
358.354	86.91
358.818	85.71
359.281	86.41
359.745	76.61
360.209	78.51
360.673	78.61
361.136	87.21
361.6	82.41
362.064	82.41
362.527	84.61
362.991	93.81
363.454	78.11
363.918	75.01
364.381	82.71
364.845	83.11
365.308	86.31
365.772	83.41
366.235	84.01
366.698	78.81
367.162	87.21
367.625	93.41
368.088	89.11
368.552	91.11
369.015	90.61
369.478	98.31
369.941	96.41
370.404	86.61
370.867	103.71
371.331	107.41
371.794	117.21
372.257	108.41
372.72	114.01
373.183	109.11
373.646	102.41
374.109	99.81
374.572	103.91
375.035	112.71
375.497	108.21
375.96	104.91
376.423	100.31
376.886	107.51
377.349	110.11
377.811	101.31
378.274	104.41
378.737	104.91
379.199	113.21
379.662	119.01
380.125	122.31
380.587	116.91
381.05	123.11
381.512	125.51
381.975	133.21
382.437	128.21
382.9	124.41
383.362	129.61
383.825	141.31
384.287	138.41
384.75	135.51
385.212	138.01
385.674	137.21
386.136	130.51
386.599	122.11
387.061	127.01
387.523	130.11
387.985	135.71
388.447	138.61
388.91	144.81
389.372	161.51
389.834	150.31
390.296	142.21
390.758	146.51
391.22	162.01
391.682	204.81
392.144	284.11
392.606	216.81
393.068	159.81
393.529	162.11
393.991	147.71
394.453	141.01
394.915	147.41
395.377	194.61
395.838	205.01
396.3	153.91
396.762	136.21
397.224	136.91
397.685	122.11
398.147	126.51
398.608	130.91
399.07	129.71
399.531	128.71
399.993	132.61
400.454	153.71
400.916	144.21
401.377	144.31
401.839	148.61
402.3	148.01
402.762	163.31
403.223	173.71
403.684	165.81
404.145	160.11
404.607	160.41
405.068	163.41
405.529	161.91
405.99	186.11
406.451	173.01
406.913	177.91
407.374	157.61
407.835	160.71
408.296	155.81
408.757	167.01
409.218	179.91
409.679	169.11
410.14	170.21
410.601	173.41
411.062	177.61
411.522	186.41
411.983	184.21
412.444	175.51
412.905	177.31
413.366	176.81
413.826	190.81
414.287	205.61
414.748	254.31
415.208	243.11
415.669	208.41
416.13	195.61
416.59	196.21
417.051	206.51
417.511	218.51
417.972	232.91
418.432	240.31
418.893	278.51
419.353	246.61
419.814	201.11
420.274	182.81
420.734	173.51
421.195	193.41
421.655	191.21
422.115	183.31
422.576	186.01
423.036	191.21
423.496	200.31
423.956	203.71
424.416	230.81
424.876	256.81
425.336	258.71
425.797	257.71
426.257	252.11
426.717	224.71
427.177	231.61
427.637	217.81
428.097	227.71
428.556	236.91
429.016	264.81
429.476	261.91
429.936	268.21
430.396	270.11
430.856	286.91
431.315	316.11
431.775	338.21
432.235	379.01
432.694	347.01
433.154	352.51
433.614	388.71
434.073	330.01
434.533	278.11
434.993	264.91
435.452	272.31
435.912	281.21
436.371	286.11
436.83	274.21
437.29	262.71
437.749	243.81
438.209	237.41
438.668	268.41
439.127	287.51
439.587	261.01
440.046	244.41
440.505	253.01
440.964	269.71
441.424	310.71
441.883	301.41
442.342	244.71
442.801	222.11
443.26	216.91
443.719	209.71
444.178	213.81
444.637	206.71
445.096	217.61
445.555	210.21
446.014	211.11
446.473	221.41
446.932	218.91
447.391	214.81
447.849	217.21
448.308	206.41
448.767	210.91
449.226	224.71
449.685	227.71
450.143	240.61
450.602	230.71
451.061	227.31
451.519	228.31
451.978	229.91
452.436	224.51
452.895	229.31
453.353	243.51
453.812	229.41
454.27	240.01
454.729	229.01
455.187	237.01
455.646	235.41
456.104	245.11
456.562	251.51
457.021	259.21
457.479	253.81
457.937	262.11
458.395	258.81
458.854	233.01
459.312	244.51
459.77	264.71
460.228	242.01
460.686	235.21
461.144	240.91
461.602	234.21
462.06	235.11
462.518	244.61
462.976	248.41
463.434	254.71
463.892	254.81
464.35	266.01
464.808	275.71
465.266	263.21
465.724	255.61
466.181	263.01
466.639	268.91
467.097	281.81
467.555	292.21
468.012	290.41
468.47	302.11
468.928	312.81
469.385	332.81
469.843	337.81
470.3	340.91
470.758	345.71
471.215	372.71
471.673	393.81
472.13	391.61
472.588	403.11
473.045	362.71
473.503	364.71
473.96	385.71
474.417	387.81
474.875	419.11
475.332	453.21
475.789	447.51
476.246	457.91
476.704	472.71
477.161	490.01
477.618	507.11
478.075	544.41
478.532	598.81
478.989	677.71
479.446	783.11
479.903	749.61
480.36	787.31
480.817	843.41
481.274	945.11
481.731	1034.11
482.188	1128.21
482.645	1274.21
483.102	1372.01
483.558	1505.81
484.015	1560.21
484.472	1529.91
484.929	1492.91
485.385	1447.51
485.842	1396.71
486.299	1318.01
486.755	1269.11
487.212	1056.61
487.668	906.71
488.125	832.11
488.582	759.81
489.038	715.61
489.494	691.81
489.951	668.31
490.407	653.61
490.864	627.41
491.32	616.51
491.776	629.41
492.233	620.71
492.689	581.41
493.145	582.71
493.602	572.01
494.058	599.91
494.514	596.61
494.97	617.91
495.426	625.31
495.882	597.11
496.338	597.51
496.794	611.91
497.251	604.31
497.707	615.31
498.163	612.71
498.618	614.41
499.074	632.21
499.53	652.31
499.986	660.71
500.442	631.31
500.898	609.61
501.354	598.41
501.809	619.71
502.265	625.31
502.721	636.01
503.177	653.71
503.632	637.91
504.088	661.51
504.543	693.01
504.999	690.21
505.455	647.11
505.91	608.21
506.366	614.71
506.821	598.31
507.277	606.01
507.732	603.21
508.187	599.61
508.643	601.61
509.098	621.01
509.553	636.01
510.009	643.51
510.464	646.31
510.919	664.51
511.375	663.51
511.83	685.21
512.285	695.41
512.74	738.61
513.195	753.81
513.65	747.61
514.105	744.71
514.56	755.11
515.015	764.01
515.47	780.71
515.925	764.71
516.38	768.71
516.835	759.41
517.29	760.61
517.745	747.71
518.2	731.51
518.655	725.71
519.109	714.61
519.564	725.41
520.019	715.21
520.474	705.21
520.928	712.91
521.383	690.11
521.838	691.81
522.292	691.31
522.747	685.91
523.201	676.41
523.656	665.81
524.11	667.81
524.565	657.61
525.019	659.61
525.474	681.21
525.928	683.71
526.382	665.21
526.837	674.11
527.291	673.71
527.745	670.91
528.2	663.61
528.654	671.61
529.108	657.61
529.562	658.81
530.016	664.11
530.47	658.31
530.925	669.91
531.379	661.31
531.833	673.21
532.287	673.71
532.741	674.21
533.195	683.01
533.649	689.81
534.103	693.21
534.556	674.31
535.01	697.71
535.464	677.81
535.918	703.11
536.372	696.41
536.826	689.91
537.279	675.31
537.733	684.61
538.187	684.81
538.64	686.31
539.094	697.91
539.548	699.11
540.001	694.11
540.455	693.21
540.908	699.91
541.362	697.01
541.815	719.01
542.269	726.61
542.722	737.71
543.175	738.01
543.629	741.31
544.082	746.11
544.536	754.91
544.989	746.31
545.442	761.81
545.895	758.81
546.349	752.01
546.802	756.21
547.255	757.91
547.708	763.01
548.161	773.51
548.614	776.21
549.067	786.41
549.52	784.71
549.973	766.91
550.426	773.51
550.879	752.51
551.332	758.91
551.785	764.11
552.238	770.61
552.691	781.71
553.144	792.01
553.596	800.21
554.049	819.01
554.502	853.71
554.955	869.71
555.407	857.01
555.86	857.91
556.313	847.41
556.765	837.81
557.218	849.41
557.67	838.21
558.123	827.21
558.576	831.91
559.028	834.61
559.48	836.01
559.933	830.81
560.385	799.41
560.838	767.61
561.29	740.21
561.742	742.31
562.195	719.41
562.647	715.01
563.099	735.51
563.551	731.71
564.004	745.71
564.456	733.81
564.908	720.31
565.36	707.91
565.812	704.01
566.264	682.31
566.716	676.21
567.168	676.21
567.62	691.61
568.072	663.51
568.524	665.51
568.976	650.41
569.428	628.41
569.88	635.91
570.332	647.21
570.784	646.01
571.235	645.21
571.687	653.41
572.139	655.61
572.59	659.91
573.042	663.21
573.494	668.41
573.945	664.91
574.397	650.51
574.849	645.71
575.3	657.21
575.752	639.41
576.203	637.11
576.655	644.41
577.106	632.01
577.557	627.71
578.009	630.21
578.46	627.11
578.912	615.31
579.363	618.21
579.814	636.01
580.265	613.71
580.717	619.91
581.168	633.51
581.619	638.21
582.07	638.21
582.521	633.61
582.972	627.21
583.423	634.41
583.875	630.51
584.326	656.01
584.777	693.21
585.227	769.51
585.678	850.91
586.129	943.91
586.58	997.81
587.031	1087.51
587.482	1240.71
587.933	1410.61
588.384	1224.11
588.834	914.71
589.285	746.71
589.736	730.41
590.186	719.21
590.637	713.41
591.088	688.41
591.538	689.71
591.989	683.41
592.439	678.11
592.89	667.01
593.34	653.31
593.791	655.41
594.241	653.61
594.692	647.61
595.142	645.91
595.593	646.71
596.043	650.61
596.493	665.41
596.943	663.31
597.394	661.61
597.844	660.21
598.294	665.71
598.744	696.41
599.195	715.91
599.645	756.81
600.095	786.61
600.545	844.01
600.995	892.91
601.445	949.01
601.895	996.91
602.345	1049.81
602.795	1025.11
603.245	977.51
603.695	936.71
604.145	881.01
604.594	847.11
605.044	798.71
605.494	740.71
605.944	689.31
606.393	687.61
606.843	668.71
607.293	670.41
607.743	666.71
608.192	685.11
608.642	696.81
609.091	702.61
609.541	716.11
609.99	701.61
610.44	718.51
610.889	663.31
611.339	645.61
611.788	632.71
612.238	646.71
612.687	664.61
613.136	657.41
613.586	679.91
614.035	676.21
614.484	691.71
614.933	697.81
615.383	684.01
615.832	673.71
616.281	663.61
616.73	632.51
617.179	610.61
617.628	588.41
618.077	575.61
618.526	566.11
618.975	557.61
619.424	563.61
619.873	563.31
620.322	556.01
620.771	557.01
621.22	549.21
621.669	547.11
622.118	534.51
622.567	529.71
623.015	510.41
623.464	521.01
623.913	519.21
624.361	506.91
624.81	503.01
625.259	502.71
625.707	513.61
626.156	511.21
626.604	513.31
627.053	511.41
627.501	511.41
627.95	513.11
628.398	524.41
628.847	526.41
629.295	513.81
629.744	521.41
630.192	516.21
630.64	517.31
631.089	507.11
631.537	520.21
631.985	532.51
632.433	539.11
632.881	556.71
633.33	597.51
633.778	567.01
634.226	503.61
634.674	514.81
635.122	516.01
635.57	533.51
636.018	560.61
636.466	523.11
636.914	508.11
637.362	509.31
637.81	531.11
638.258	525.21
638.705	516.31
639.153	546.01
639.601	556.41
640.049	577.81
640.497	603.71
640.944	633.41
641.392	582.71
641.84	555.81
642.287	524.91
642.735	512.21
643.182	513.61
643.63	517.31
644.078	522.81
644.525	528.91
644.973	552.51
645.42	538.81
645.867	556.71
646.315	572.01
646.762	600.21
647.21	622.41
647.657	641.71
648.104	682.51
648.551	695.11
648.999	754.51
649.446	829.31
649.893	907.21
650.34	1032.01
650.787	1241.11
651.234	1532.71
651.682	1995.11
652.129	2740.21
652.576	3937.41
653.023	5823.01
653.47	8020.81
653.917	10113.81
654.363	11782.41
654.81	13208.11
655.257	12545.81
655.704	8167.81
656.151	4818.11
656.598	3117.01
657.044	2192.21
657.491	1677.81
657.938	1355.81
658.385	1135.41
658.831	976.31
659.278	862.81
659.724	771.11
660.171	706.21
660.618	649.01
661.064	621.91
661.511	592.31
661.957	589.01
662.404	577.61
662.85	592.51
663.296	557.81
663.743	499.61
664.189	479.01
664.635	469.91
665.082	472.41
665.528	476.11
665.974	459.71
666.42	459.61
666.867	456.11
667.313	435.81
667.759	428.81
668.205	433.51
668.651	433.61
669.097	429.81
669.543	447.61
669.989	428.41
670.435	399.21
670.881	387.41
671.327	399.51
671.773	419.91
672.219	432.21
672.665	483.51
673.11	523.81
673.556	556.41
674.002	593.01
674.448	581.71
674.893	495.11
675.339	417.51
675.785	393.81
676.23	378.01
676.676	341.31
677.122	337.91
677.567	336.11
678.013	320.21
678.458	321.01
678.904	324.51
679.349	308.01
679.794	312.31
680.24	308.91
680.685	308.91
681.131	303.71
681.576	305.81
682.021	314.01
682.466	310.01
682.912	307.21
683.357	305.41
683.802	339.11
684.247	360.51
684.692	402.01
685.137	441.01
685.583	472.41
686.028	505.81
686.473	459.91
686.918	393.11
687.363	374.11
687.807	349.31
688.252	326.81
688.697	313.01
689.142	301.11
689.587	298.21
690.032	290.31
690.477	298.91
690.921	310.41
691.366	339.41
691.811	356.81
692.255	379.41
692.7	408.61
693.145	437.71
693.589	607.31
694.034	973.61
694.478	1343.71
694.923	1546.81
695.367	2043.21
695.812	1068.71
696.256	440.81
696.701	331.81
697.145	305.41
697.59	290.91
698.034	277.71
698.478	288.31
698.922	281.21
699.367	288.41
699.811	306.01
700.255	314.51
700.699	337.31
701.143	366.81
701.588	416.71
702.032	456.41
702.476	452.61
702.92	435.91
703.364	441.61
703.808	544.11
704.252	873.91
704.696	1264.61
705.14	1494.51
705.584	1918.11
706.027	947.41
706.471	464.91
706.915	345.71
707.359	306.41
707.803	289.51
708.246	279.61
708.69	271.51
709.134	269.71
709.577	277.71
710.021	286.11
710.465	262.81
710.908	262.61
711.352	265.51
711.795	268.41
712.239	308.41
712.682	340.41
713.126	367.41
713.569	412.81
714.012	324.61
714.456	280.41
714.899	261.51
715.342	239.61
715.786	229.91
716.229	230.51
716.672	219.41
717.115	218.91
717.558	219.31
718.002	217.41
718.445	227.71
718.888	247.21
719.331	254.31
719.774	270.61
720.217	265.11
720.66	255.51
721.103	230.21
721.546	220.61
721.989	215.71
722.432	210.11
722.874	211.71
723.317	197.51
723.76	207.41
724.203	227.11
724.645	269.21
725.088	382.61
725.531	499.81
725.974	563.21
726.416	475.11
726.859	266.11
727.301	217.61
727.744	202.61
728.187	203.31
728.629	207.51
729.071	205.91
729.514	228.31
729.956	236.51
730.399	241.61
730.841	246.61
731.283	234.21
731.726	230.41
732.168	228.11
732.61	235.11
733.053	242.51
733.495	266.91
733.937	300.21
734.379	345.31
734.821	377.01
735.263	469.31
735.705	707.71
736.148	1354.81
736.59	2238.01
737.032	2745.31
737.474	2220.41
737.916	711.91
738.357	369.01
738.799	286.41
739.241	254.61
739.683	244.21
740.125	248.11
740.567	254.41
741.008	278.71
741.45	276.11
741.892	272.51
742.334	306.71
742.775	310.91
743.217	296.71
743.658	234.91
744.1	215.31
744.542	227.01
744.983	267.41
745.425	314.51
745.866	302.21
746.307	248.51
746.749	244.01
747.19	280.01
747.632	393.51
748.073	740.11
748.514	1582.61
748.956	2498.51
749.397	3122.01
749.838	2603.81
750.279	2650.61
750.72	1339.11
751.162	484.91
751.603	276.01
752.044	213.41
752.485	193.91
752.926	184.71
753.367	179.01
753.808	163.01
754.249	168.11
754.69	160.21
755.131	153.31
755.572	156.81
756.013	157.71
756.453	153.51
756.894	161.11
757.335	168.41
757.776	176.31
758.216	170.81
758.657	172.91
759.098	173.81
759.538	195.91
759.979	230.61
760.42	317.81
760.86	596.11
761.301	1538.51
761.741	3824.01
762.182	5794.41
762.622	4070.51
763.063	1164.11
763.503	476.81
763.943	304.71
764.384	299.41
764.824	353.11
765.264	386.91
765.705	263.11
766.145	181.61
766.585	160.01
767.025	160.01
767.465	157.21
767.906	210.01
768.346	278.81
768.786	302.51
769.226	233.71
769.666	270.51
770.106	522.11
770.546	1310.01
770.986	2349.71
771.426	2139.51
771.866	702.51
772.306	279.71
772.745	181.31
773.185	155.31
773.625	152.51
774.065	144.31
774.505	170.21
774.944	257.01
775.384	569.91
775.824	1083.31
776.263	1071.91
776.703	447.51
777.142	188.11
777.582	133.11
778.021	122.91
778.461	121.41
778.9	122.51
779.34	112.11
779.779	102.51
780.219	94.21
780.658	99.41
781.097	93.01
781.537	96.61
781.976	92.81
782.415	91.61
782.855	93.81
783.294	85.21
783.733	93.11
784.172	97.01
784.611	92.91
785.05	90.21
785.489	94.81
785.928	106.11
786.367	101.01
786.806	108.61
787.245	110.91
787.684	111.51
788.123	130.11
788.562	118.91
789.001	104.61
789.44	100.61
789.879	97.11
790.317	98.81
790.756	114.71
791.195	119.71
791.634	130.21
792.072	176.21
792.511	304.51
792.95	851.81
793.388	1875.41
793.827	1748.41
794.265	593.51
794.704	241.01
795.142	161.51
795.581	133.71
796.019	117.21
796.458	114.31
796.896	109.61
797.334	107.71
797.773	138.41
798.211	185.41
798.649	365.31
799.087	876.41
799.526	1387.81
799.964	1767.01
800.402	1815.91
800.84	670.81
801.278	255.51
801.716	158.61
802.154	130.41
802.592	127.91
803.03	114.31
803.468	113.01
803.906	128.91
804.344	131.21
804.782	125.11
805.22	112.61
805.658	112.21
806.096	131.51
806.533	132.91
806.971	146.61
807.409	190.91
807.847	268.51
808.284	561.91
808.722	1598.51
809.16	2911.21
809.597	2705.91
810.035	4742.31
810.472	5262.91
810.91	1870.91
811.347	698.21
811.785	354.11
812.222	220.21
812.66	170.01
813.097	150.11
813.535	117.71
813.972	106.81
814.409	100.51
814.846	95.31
815.284	95.01
815.721	88.71
816.158	95.71
816.595	97.61
817.032	154.91
817.47	174.51
817.907	139.21
818.344	128.21
818.781	101.81
819.218	85.91
819.655	103.51
820.092	162.91
820.529	195.31
820.966	160.11
821.403	115.91
821.839	97.11
822.276	81.51
822.713	108.11
823.15	114.21
823.587	95.61
824.023	128.31
824.46	245.61
824.897	768.51
825.333	1208.41
825.77	517.01
826.206	206.41
826.643	117.51
827.08	85.11
827.516	69.61
827.953	70.31
828.389	71.61
828.825	66.11
829.262	56.61
829.698	55.51
830.135	61.51
830.571	52.11
831.007	49.51
831.443	48.81
831.88	48.71
832.316	55.11
832.752	62.91
833.188	60.31
833.624	58.11
834.06	60.71
834.497	60.11
834.933	62.21
835.369	66.31
835.805	56.81
836.241	61.51
836.677	66.11
837.112	76.91
837.548	94.31
837.984	118.31
838.42	171.91
838.856	416.11
839.292	1304.11
839.727	2066.51
840.163	946.01
840.599	794.11
841.034	1770.11
841.47	1935.31
841.906	695.61
842.341	289.11
842.777	201.21
843.212	271.71
843.648	278.21
844.083	129.71
844.519	83.31
844.954	66.41
845.39	53.41
845.825	46.41
846.261	48.21
846.696	43.81
847.131	41.91
847.566	50.11
848.002	44.61
848.437	51.51
848.872	51.21
849.307	50.41
849.742	70.11
850.177	147.71
850.613	477.91
851.048	787.21
851.483	342.51
851.918	135.71
852.353	75.81
852.788	44.01
853.223	49.31
853.657	45.91
854.092	46.11
854.527	41.51
854.962	33.31
855.397	42.41
855.832	44.61
856.266	36.41
856.701	36.61
857.136	33.01
857.57	36.51
858.005	43.71
858.44	48.41
858.874	39.41
859.309	47.81
859.743	29.91
860.178	36.41
860.612	31.01
861.047	40.61
861.481	60.41
861.915	61.21
862.35	45.41
862.784	28.21
863.218	33.81
863.653	26.51
864.087	40.11
864.521	45.41
864.955	64.31
865.39	134.71
865.824	151.21
866.258	99.61
866.692	140.31
867.126	154.31
867.56	91.61
867.994	52.01
868.428	32.61
868.862	43.11
869.296	44.31
869.73	46.81
870.164	49.11
870.598	40.51
871.031	33.31
871.465	24.61
871.899	31.21
872.333	20.01
872.766	27.51
873.2	20.51
873.634	25.71
874.067	25.61
874.501	26.01
874.935	32.11
875.368	28.21
875.802	24.11
876.235	19.51
876.669	20.71
877.102	18.21
877.535	21.11
877.969	20.61
878.402	26.61
878.836	15.51
879.269	19.01
879.702	21.11
880.135	20.71
880.569	18.41
881.002	27.01
881.435	15.91
881.868	9.21
882.301	16.61
882.734	9.51
883.167	18.21
883.601	11.31
884.034	17.71
884.467	11.31
884.899	15.81
885.332	16.11
885.765	9.11
886.198	15.11
886.631	18.31
887.064	16.41
887.497	12.81
887.929	21.01
888.362	14.21
888.795	11.31
889.228	17.31
889.66	17.41
890.093	15.61
890.526	17.81
890.958	16.51
891.391	12.91
891.823	20.61
892.256	9.41
892.688	9.51
893.121	16.41
893.553	11.01
893.985	16.41
894.418	17.31
894.85	11.01
895.282	15.71
895.715	12.91
896.147	14.01
896.579	12.81
897.011	10.21
897.444	15.71
897.876	11.31
898.308	11.21
898.74	16.51
899.172	12.21
899.604	17.61
900.036	18.21
900.468	16.11
900.9	18.01
901.332	16.71
901.764	9.91
902.196	16.61
902.628	12.51
903.06	12.91
903.491	26.91
903.923	21.21
904.355	14.81
904.787	25.61
905.218	15.71
905.65	15.81
906.082	12.41
906.513	11.11
906.945	9.51
907.376	7.71
907.808	17.21
908.239	17.61
908.671	16.21
909.102	14.91
909.534	21.31
909.965	40.31
910.397	76.31
910.828	273.01
911.259	431.31
911.691	189.31
912.122	86.01
912.553	39.31
912.984	23.81
913.415	21.11
913.847	23.11
914.278	11.11
914.709	9.81
915.14	15.91
915.571	13.81
916.002	9.51
916.433	19.91
916.864	15.01
917.295	8.11
917.726	20.01
918.157	13.01
918.587	18.31
919.018	19.11
919.449	18.11
919.88	16.11
920.311	32.81
920.741	38.81
921.172	144.01
921.603	134.41
922.033	61.91
922.464	41.61
922.895	23.11
923.325	17.31
923.756	10.81
924.186	15.11
924.617	24.71
925.047	38.31
925.478	44.01
925.908	35.21
926.338	17.51
926.769	16.61
927.199	17.81
927.629	8.41
928.06	13.91
928.49	15.51
928.92	14.71
929.35	10.51
929.78	12.51
930.21	1.11
930.641	3.31
931.071	3.51
931.501	0.21
931.931	3.41
932.361	4.91
932.791	0.81
933.221	5.11
933.651	2.31
934.08	15.61
934.51	29.11
934.94	1.81
935.37	12.51
935.8	11.51
936.229	12.31
936.659	11.01
937.089	1.91
937.519	15.11
937.948	22.11
938.378	20.81
938.807	1.61
939.237	-0.69
939.666	8.71
940.096	-10.19
940.525	3.81
940.955	-2.89
941.384	-0.19
941.814	-3.79
942.243	-0.19
942.672	8.71
943.102	2.41
943.531	-1.89
943.96	2.61
944.39	4.21
944.819	-2.99
945.248	7.01
945.677	-0.89
946.106	5.61
946.535	-0.49
946.964	4.91
947.393	3.91
947.822	-0.09
948.251	-8.19
948.68	-1.59
949.109	5.01
949.538	6.31
949.967	-0.89
950.396	1.91
950.825	-1.29
951.254	-0.69
951.682	-9.69
952.111	8.41
952.54	9.21
952.969	-4.69
953.397	-3.99
953.826	-4.49
954.254	-11.19
954.683	-0.39
955.112	-4.39
955.54	-3.39
955.969	-0.99
956.397	3.41
956.826	0.21
957.254	1.71
957.682	0.11
958.111	2.71
958.539	-1.49
958.967	-2.19
959.396	1.91
959.824	4.11
960.252	4.31
960.68	-6.09
961.109	0.51
961.537	-2.09
961.965	0.31
962.393	5.21
962.821	-5.49
963.249	-0.29
963.677	1.11
964.105	5.21
964.533	33.31
964.961	35.71
965.389	18.21
965.817	5.81
966.245	3.01
966.672	1.71
967.1	-8.09
967.528	-3.49
967.956	-4.79
968.383	2.21
968.811	-2.29
969.239	-6.89
969.666	-2.89
970.094	-3.29
970.522	6.01
970.949	-3.49
971.377	-3.69
971.804	-3.69
972.232	-0.39
972.659	0.51
973.087	1.11
973.514	-4.39
973.941	-7.49
974.369	0.31
974.796	-1.99
975.223	-2.29
975.651	-1.49
976.078	4.41
976.505	1.01
976.932	1.21
977.359	12.11
977.786	12.91
978.214	-0.29
978.641	-6.79
979.068	-0.29
979.495	-4.59
979.922	0.31
980.349	-8.09
980.776	8.41
981.202	-2.69
981.629	2.51
982.056	0.61
982.483	1.31
982.91	1.21
983.337	-2.89
983.763	0.81
984.19	-2.99
984.617	-4.19
985.043	-12.79
985.47	-1.69
985.897	-1.49
986.323	-8.49
986.75	1.61
987.176	-0.89
987.603	-5.49
988.029	-1.39
988.456	-5.89
988.882	-2.29
989.308	-3.89
989.735	-0.19
990.161	-0.59
990.587	-3.49
991.014	-4.89
991.44	7.51
991.866	-1.19
992.292	-8.59
992.719	2.41
993.145	3.61
993.571	-10.19
993.997	-3.09
994.423	-3.59
994.849	-7.19
995.275	1.21
995.701	3.71
996.127	-3.39
996.553	-3.09
996.979	-0.69
997.405	2.31
997.83	-6.09
998.256	-7.39
998.682	-6.79
999.108	-14.79
999.534	-0.49
999.959	-2.79
1000.385	-5.59
1000.811	-5.49
1001.236	-12.09
1001.662	-6.79
1002.087	-11.39
1002.513	-3.29
1002.938	0.41
1003.364	-5.99
1003.789	-4.69
1004.215	6.11
1004.64	-2.29
1005.066	-0.39
1005.491	4.11
1005.916	-2.99
1006.342	-4.69
1006.767	-10.99
1007.192	2.81
1007.617	-7.09
1008.042	-0.59
1008.468	-9.39
1008.893	-6.89
1009.318	-2.39
1009.743	2.81
1010.168	10.51
1010.593	-1.19
1011.018	-7.69
1011.443	-4.09
1011.868	4.61
1012.293	-5.69
1012.718	-8.89
1013.143	3.61
1013.567	-2.49
1013.992	-2.69
1014.417	-13.19
1014.842	5.51
1015.267	-6.59
1015.691	-3.79
1016.116	3.61
1016.541	-8.99
1016.965	1.11
1017.39	3.01
1017.814	-1.69
1018.239	-0.79
1018.663	-4.29
1019.088	-9.99
1019.512	-2.99
1019.937	-4.59
1020.361	-4.79
1020.785	-9.69
1021.21	-4.39
1021.634	-3.29
1022.058	1.11
1022.483	-2.39
1022.907	-6.19
1023.331	-5.99
1023.755	-6.19
1024.179	-3.49
1024.604	-10.79
1025.028	-10.19
1025.452	-6.19
1025.876	-3.49
1026.3	0.71
1026.724	-11.09
1027.148	-5.79
1027.572	-10.29
1027.996	-4.69
1028.42	-1.49
1028.843	-3.39
1029.267	-10.39
1029.691	-4.99
1030.115	-8.19
1030.539	-11.29
1030.962	-8.09
1031.386	-11.79
1031.81	1.81
1032.233	-5.69
1032.657	-4.69
1033.08	-4.39
1033.504	-6.19
1033.927	-4.99
1034.351	-5.49
1034.774	-1.69
1035.198	-1.69
1035.621	-6.69
1036.045	-5.89
1036.468	-1.29
1036.891	-8.49
1037.315	-8.69
1037.738	-8.49
1038.161	-0.99
1038.584	-5.09
1039.008	-6.19
1039.431	0.21
1039.854	-1.69
1040.277	-7.79
1040.7	-17.99
1041.123	-4.89
1041.546	-3.49
1041.969	0.81
1042.392	-2.99
1042.815	-6.59
1043.238	0.91
1043.661	4.11
1044.084	-6.79
1044.507	0.21
1044.93	-10.69
1045.352	-5.29
1045.775	-3.39
1046.198	-0.19
1046.621	-3.29
1047.043	-2.39
1047.466	5.91
1047.889	-3.49
1048.311	-5.59
1048.734	-5.39
1049.156	-6.99
1049.579	-5.89
1050.001	-7.29
1050.424	-3.09
1050.846	-7.79
1051.269	-1.39
1051.691	-2.79
1052.113	-5.09
1052.536	0.11
1052.958	-2.99
1053.38	-0.59
1053.802	-10.89
1054.225	0.31
1054.647	-3.49
1055.069	-3.39
1055.491	0.61
1055.913	-13.09
1056.335	-7.39
1056.757	-1.59
1057.179	-8.89
1057.601	-1.59
1058.023	-0.29
1058.445	-2.79
1058.867	-6.89
1059.289	-1.39
1059.711	-8.19
1060.133	-2.09
1060.555	-3.89
1060.976	-4.89
1061.398	-2.19
1061.82	-7.19
1062.241	-7.39
1062.663	-0.69
1063.085	-5.99
1063.506	-1.09
1063.928	-1.69
1064.35	-3.19
1064.771	-15.49
1065.193	-4.99
1065.614	-10.39
1066.035	-0.39
1066.457	-3.39
1066.878	0.81
1067.3	-7.19
1067.721	-0.69
1068.142	-2.79
1068.564	-8.69
1068.985	-9.99
1069.406	-6.69
1069.827	-8.99
1070.248	1.11
1070.67	-6.19
1071.091	-5.79
1071.512	-6.39
1071.933	-7.49
1072.354	-11.09
1072.775	-6.29
1073.196	-9.39
1073.617	-5.99
1074.038	-9.49
1074.459	-4.99
1074.88	-11.79
1075.3	0.51
1075.721	-9.19
1076.142	-6.59
1076.563	-0.59
1076.983	-13.89
1077.404	-4.89
1077.825	-14.19
1078.246	-10.89
1078.666	-12.09
1079.087	-8.59
1079.507	-6.09
1079.928	-1.29
1080.348	-0.79
1080.769	-2.99
1081.189	2.51
1081.61	-6.99
1082.03	-7.89
1082.451	-6.29
1082.871	-7.19
1083.291	-9.99
1083.711	-7.49
1084.132	-5.99
1084.552	-2.29
1084.972	-0.69
1085.392	-7.19
1085.813	-9.49
1086.233	-8.09
1086.653	-8.69
1087.073	-5.29
1087.493	-9.09
1087.913	-7.79
1088.333	-13.59
1088.753	-1.29
1089.173	2.31
1089.593	-10.59
1090.013	-1.79
1090.433	-0.79
1090.852	-6.89
1091.272	-2.99
1091.692	0.71
1092.112	-3.09
1092.531	-11.79
1092.951	-18.29
1093.371	-5.29
1093.79	-2.49
1094.21	-5.99
1094.63	-10.19
1095.049	-6.69
1095.469	-4.59
1095.888	-9.49
1096.308	-0.49
1096.727	-3.49
1097.146	-3.39
1097.566	-1.79
1097.985	-6.69
1098.405	-1.59
1098.824	-3.59
1099.243	-5.49
1099.662	-6.69
1100.082	-5.59
1100.501	-3.59
1100.92	-2.99
1101.339	-6.89
1101.758	-7.59
