Data from 20171114-ORNL-Ar_H_NY_Subt18_08-04-09-706.txt Node
Date: Tue Nov 14 08:04:09 EST 2017
User: Ender
Spectrometer: HR+D1039
Trigger mode: 0
Integration Time (sec): 2.730000E-2
Scans to average: 10
Electric dark correction enabled: true
Nonlinearity correction enabled: false
Boxcar width: 0
XAxis mode: Wavelengths
Number of Pixels in Spectrum: 2048
>>>>>Begin Spectral Data<<<<<
187.836	-2.31
188.309	-2.31
188.782	-2.31
189.255	3.89
189.728	-2.41
190.201	3.89
190.674	-2.21
191.147	1.19
191.619	-5.21
192.092	0.39
192.565	8.49
193.038	0.09
193.511	1.09
193.984	-0.01
194.456	-4.31
194.929	1.09
195.402	-2.31
195.874	-1.41
196.347	-1.91
196.82	-6.61
197.292	7.99
197.765	4.09
198.237	-6.01
198.71	-1.41
199.182	-0.11
199.655	-1.21
200.127	4.29
200.6	-3.31
201.072	-3.41
201.544	-0.41
202.017	1.59
202.489	7.69
202.961	-2.61
203.433	-1.01
203.906	-2.11
204.378	1.19
204.85	-1.31
205.322	-6.71
205.794	-3.21
206.266	-2.11
206.739	-7.01
207.211	4.39
207.683	-2.81
208.155	-7.91
208.627	-2.31
209.099	-3.61
209.57	-4.31
210.042	-0.11
210.514	0.09
210.986	0.99
211.458	-9.01
211.93	-1.21
212.402	1.89
212.873	-4.41
213.345	-5.51
213.817	-8.31
214.288	-6.31
214.76	-13.61
215.232	-10.41
215.703	-7.91
216.175	4.49
216.646	-3.01
217.118	-5.71
217.589	-7.21
218.061	-4.31
218.532	-6.01
219.004	-4.01
219.475	-2.91
219.946	-3.61
220.418	-6.81
220.889	1.49
221.36	4.29
221.832	-5.11
222.303	-13.41
222.774	-3.51
223.245	-3.51
223.717	-6.31
224.188	0.89
224.659	-8.71
225.13	-4.01
225.601	-4.21
226.072	1.39
226.543	-3.51
227.014	0.69
227.485	3.99
227.956	-6.11
228.427	-3.01
228.898	-1.31
229.369	-2.71
229.839	-2.91
230.31	-5.31
230.781	3.59
231.252	2.59
231.722	-3.21
232.193	-2.01
232.664	-0.31
233.135	3.69
233.605	2.79
234.076	-5.21
234.546	-1.01
235.017	7.29
235.487	-2.21
235.958	-1.11
236.428	-2.21
236.899	6.39
237.369	3.39
237.84	-0.01
238.31	7.99
238.78	0.29
239.251	-4.61
239.721	0.59
240.191	-1.51
240.662	2.79
241.132	3.29
241.602	-2.81
242.072	4.39
242.542	8.49
243.013	-4.41
243.483	0.29
243.953	5.69
244.423	4.89
244.893	-1.51
245.363	6.29
245.833	3.59
246.303	-0.31
246.773	5.09
247.243	1.29
247.712	4.29
248.182	5.79
248.652	6.19
249.122	-3.11
249.592	3.89
250.061	13.99
250.531	30.79
251.001	11.99
251.471	11.69
251.94	18.59
252.41	10.29
252.879	1.39
253.349	13.99
253.818	14.09
254.288	5.59
254.757	7.19
255.227	-0.11
255.696	5.19
256.166	6.09
256.635	7.99
257.105	4.39
257.574	6.99
258.043	8.09
258.513	6.49
258.982	11.99
259.451	3.29
259.92	9.89
260.389	9.29
260.859	15.79
261.328	7.19
261.797	19.29
262.266	3.99
262.735	16.39
263.204	8.99
263.673	2.09
264.142	6.99
264.611	-1.41
265.08	-0.61
265.549	-3.11
266.018	9.49
266.487	-4.51
266.955	-3.21
267.424	3.89
267.893	8.69
268.362	1.79
268.83	4.59
269.299	8.79
269.768	4.69
270.236	1.59
270.705	6.89
271.174	7.29
271.642	11.29
272.111	2.69
272.579	16.19
273.048	13.99
273.516	21.59
273.985	17.09
274.453	14.19
274.922	22.99
275.39	6.79
275.858	3.99
276.327	12.69
276.795	16.59
277.263	8.89
277.731	22.09
278.2	41.49
278.668	40.89
279.136	32.89
279.604	8.09
280.072	12.69
280.54	11.59
281.008	9.29
281.477	13.69
281.945	11.29
282.413	18.89
282.881	10.49
283.348	4.29
283.816	13.59
284.284	13.69
284.752	17.59
285.22	5.39
285.688	13.19
286.156	15.09
286.623	39.79
287.091	37.89
287.559	24.09
288.026	11.79
288.494	9.79
288.962	4.89
289.429	5.79
289.897	19.79
290.364	14.79
290.832	9.59
291.3	14.59
291.767	16.19
292.234	15.29
292.702	4.99
293.169	11.99
293.637	19.99
294.104	17.19
294.571	10.59
295.039	8.59
295.506	11.39
295.973	14.99
296.44	13.99
296.908	15.89
297.375	12.99
297.842	17.59
298.309	13.99
298.776	8.19
299.243	18.09
299.71	8.49
300.177	16.09
300.644	15.49
301.111	11.79
301.578	16.29
302.045	15.79
302.512	23.79
302.979	19.89
303.446	21.39
303.913	18.39
304.379	11.29
304.846	27.29
305.313	18.39
305.78	22.79
306.246	20.39
306.713	22.89
307.18	16.89
307.646	24.89
308.113	21.19
308.579	20.69
309.046	21.39
309.512	27.59
309.979	12.29
310.445	22.09
310.912	23.99
311.378	23.49
311.845	23.09
312.311	26.69
312.777	27.89
313.244	24.79
313.71	26.39
314.176	26.39
314.642	23.99
315.109	25.99
315.575	24.19
316.041	34.69
316.507	26.29
316.973	32.69
317.439	31.29
317.905	27.59
318.371	33.69
318.837	34.69
319.303	23.09
319.769	28.39
320.235	32.09
320.701	32.79
321.167	30.79
321.633	25.89
322.099	31.49
322.564	33.29
323.03	35.79
323.496	31.79
323.962	30.49
324.427	29.29
324.893	38.19
325.359	28.69
325.824	33.59
326.29	29.49
326.755	28.29
327.221	36.19
327.686	34.79
328.152	40.69
328.617	38.09
329.083	36.09
329.548	41.89
330.014	35.49
330.479	24.09
330.944	30.99
331.41	34.39
331.875	37.89
332.34	31.19
332.805	38.99
333.271	41.29
333.736	31.49
334.201	45.99
334.666	48.49
335.131	47.59
335.596	42.49
336.061	45.19
336.526	37.79
336.991	43.89
337.456	44.89
337.921	38.79
338.386	42.49
338.851	42.59
339.316	36.09
339.781	39.29
340.246	41.99
340.711	37.19
341.175	44.99
341.64	45.59
342.105	49.49
342.569	45.69
343.034	46.59
343.499	42.69
343.963	43.29
344.428	55.69
344.893	50.69
345.357	51.39
345.822	44.29
346.286	53.99
346.751	60.29
347.215	52.29
347.679	57.29
348.144	76.79
348.608	66.49
349.073	52.19
349.537	62.79
350.001	61.69
350.465	67.39
350.93	70.29
351.394	67.89
351.858	63.29
352.322	70.89
352.786	65.89
353.25	80.39
353.715	87.59
354.179	84.09
354.643	97.29
355.107	92.19
355.571	85.19
356.035	78.69
356.498	95.19
356.962	94.29
357.426	102.29
357.89	98.49
358.354	78.09
358.818	70.99
359.281	70.59
359.745	66.39
360.209	58.29
360.673	58.49
361.136	77.19
361.6	78.39
362.064	70.89
362.527	66.19
362.991	80.09
363.454	76.19
363.918	62.79
364.381	72.29
364.845	67.69
365.308	75.69
365.772	77.09
366.235	74.49
366.698	66.59
367.162	73.79
367.625	77.59
368.088	73.99
368.552	75.99
369.015	75.89
369.478	84.69
369.941	87.89
370.404	81.79
370.867	90.99
371.331	97.49
371.794	95.79
372.257	88.29
372.72	95.19
373.183	89.79
373.646	85.49
374.109	81.89
374.572	92.09
375.035	93.09
375.497	88.39
375.96	87.59
376.423	95.99
376.886	96.09
377.349	97.59
377.811	89.09
378.274	92.19
378.737	91.99
379.199	97.39
379.662	87.99
380.125	105.69
380.587	98.79
381.05	103.99
381.512	104.29
381.975	113.89
382.437	112.89
382.9	108.09
383.362	107.49
383.825	114.09
384.287	131.99
384.75	123.59
385.212	120.79
385.674	114.99
386.136	113.99
386.599	102.79
387.061	112.79
387.523	118.99
387.985	117.49
388.447	125.19
388.91	125.99
389.372	133.59
389.834	130.79
390.296	122.39
390.758	131.59
391.22	137.99
391.682	176.19
392.144	236.89
392.606	193.89
393.068	142.89
393.529	147.49
393.991	131.49
394.453	123.49
394.915	140.49
395.377	168.89
395.838	180.69
396.3	136.99
396.762	132.29
397.224	114.79
397.685	112.39
398.147	113.69
398.608	118.39
399.07	113.89
399.531	117.69
399.993	129.99
400.454	135.69
400.916	128.89
401.377	134.59
401.839	134.69
402.3	130.49
402.762	139.19
403.223	160.49
403.684	145.89
404.145	139.79
404.607	136.69
405.068	140.39
405.529	147.79
405.99	162.19
406.451	144.19
406.913	144.89
407.374	142.59
407.835	143.29
408.296	147.99
408.757	148.59
409.218	164.49
409.679	150.69
410.14	154.99
410.601	156.59
411.062	157.09
411.522	164.09
411.983	166.19
412.444	148.69
412.905	155.89
413.366	158.59
413.826	175.59
414.287	193.49
414.748	230.09
415.208	217.39
415.669	181.09
416.13	176.49
416.59	177.19
417.051	185.49
417.511	189.29
417.972	212.09
418.432	220.69
418.893	254.19
419.353	224.39
419.814	178.69
420.274	169.29
420.734	162.59
421.195	170.49
421.655	175.49
422.115	169.49
422.576	163.69
423.036	173.99
423.496	182.29
423.956	193.39
424.416	199.29
424.876	233.59
425.336	223.09
425.797	230.09
426.257	226.39
426.717	207.99
427.177	204.29
427.637	201.79
428.097	205.99
428.556	209.29
429.016	232.09
429.476	225.49
429.936	239.39
430.396	244.99
430.856	252.19
431.315	269.99
431.775	296.59
432.235	323.29
432.694	298.99
433.154	311.29
433.614	329.69
434.073	287.09
434.533	245.89
434.993	236.99
435.452	239.19
435.912	246.29
436.371	236.89
436.83	235.09
437.29	232.59
437.749	207.79
438.209	205.99
438.668	230.29
439.127	241.79
439.587	228.19
440.046	216.49
440.505	223.59
440.964	230.59
441.424	266.89
441.883	256.69
442.342	225.09
442.801	193.59
443.26	192.59
443.719	194.49
444.178	189.79
444.637	182.89
445.096	192.79
445.555	195.59
446.014	193.29
446.473	197.59
446.932	205.19
447.391	192.39
447.849	204.19
448.308	190.99
448.767	196.89
449.226	206.89
449.685	212.09
450.143	222.99
450.602	209.29
451.061	201.59
451.519	201.89
451.978	208.49
452.436	206.89
452.895	210.09
453.353	220.49
453.812	209.19
454.27	206.29
454.729	218.19
455.187	204.99
455.646	211.19
456.104	216.69
456.562	217.79
457.021	233.59
457.479	224.89
457.937	234.69
458.395	228.39
458.854	216.09
459.312	222.29
459.77	235.69
460.228	217.09
460.686	214.09
461.144	221.49
461.602	215.09
462.06	210.29
462.518	223.69
462.976	223.69
463.434	221.69
463.892	233.49
464.35	241.59
464.808	253.89
465.266	226.49
465.724	236.49
466.181	240.69
466.639	239.49
467.097	252.99
467.555	263.29
468.012	261.39
468.47	273.79
468.928	282.29
469.385	290.89
469.843	305.19
470.3	294.29
470.758	310.99
471.215	326.99
471.673	351.19
472.13	341.69
472.588	355.49
473.045	311.29
473.503	325.69
473.96	341.69
474.417	353.19
474.875	367.69
475.332	409.89
475.789	391.29
476.246	407.89
476.704	415.89
477.161	435.99
477.618	456.89
478.075	486.29
478.532	527.49
478.989	589.39
479.446	673.19
479.903	665.39
480.36	697.69
480.817	746.59
481.274	842.79
481.731	935.39
482.188	1002.39
482.645	1113.69
483.102	1220.19
483.558	1333.29
484.015	1388.59
484.472	1370.49
484.929	1343.79
485.385	1285.99
485.842	1239.29
486.299	1186.19
486.755	1116.19
487.212	943.89
487.668	810.09
488.125	747.19
488.582	687.79
489.038	652.49
489.494	631.29
489.951	607.79
490.407	574.89
490.864	569.09
491.32	562.79
491.776	562.59
492.233	565.99
492.689	519.69
493.145	530.09
493.602	520.49
494.058	534.79
494.514	534.19
494.97	542.49
495.426	552.79
495.882	536.99
496.338	531.79
496.794	546.89
497.251	542.79
497.707	545.79
498.163	554.19
498.618	558.59
499.074	553.69
499.53	576.49
499.986	581.59
500.442	555.99
500.898	542.09
501.354	550.99
501.809	558.29
502.265	558.09
502.721	574.89
503.177	576.59
503.632	563.29
504.088	589.09
504.543	602.29
504.999	599.99
505.455	570.99
505.91	551.79
506.366	556.39
506.821	550.39
507.277	549.29
507.732	548.69
508.187	550.59
508.643	550.09
509.098	547.29
509.553	573.99
510.009	573.89
510.464	586.59
510.919	605.79
511.375	598.69
511.83	615.59
512.285	623.29
512.74	660.49
513.195	669.49
513.65	669.19
514.105	666.59
514.56	666.69
515.015	677.49
515.47	688.89
515.925	682.59
516.38	689.29
516.835	705.59
517.29	681.69
517.745	681.29
518.2	660.99
518.655	639.59
519.109	635.19
519.564	646.29
520.019	632.79
520.474	623.39
520.928	624.79
521.383	629.89
521.838	610.09
522.292	608.99
522.747	615.49
523.201	617.69
523.656	601.29
524.11	599.09
524.565	597.39
525.019	589.09
525.474	595.49
525.928	598.39
526.382	593.79
526.837	597.39
527.291	593.99
527.745	594.29
528.2	602.59
528.654	601.39
529.108	592.99
529.562	594.59
530.016	589.09
530.47	589.29
530.925	594.49
531.379	593.59
531.833	605.99
532.287	602.09
532.741	594.39
533.195	593.39
533.649	604.69
534.103	622.39
534.556	601.19
535.01	610.09
535.464	601.29
535.918	612.79
536.372	614.79
536.826	603.69
537.279	594.49
537.733	605.99
538.187	607.79
538.64	607.69
539.094	618.49
539.548	620.19
540.001	618.99
540.455	609.59
540.908	620.59
541.362	619.19
541.815	636.89
542.269	645.79
542.722	637.89
543.175	657.29
543.629	648.29
544.082	659.49
544.536	671.99
544.989	669.79
545.442	674.49
545.895	671.79
546.349	668.69
546.802	673.29
547.255	682.79
547.708	679.49
548.161	687.69
548.614	698.59
549.067	705.49
549.52	692.39
549.973	681.99
550.426	680.39
550.879	675.69
551.332	672.29
551.785	679.49
552.238	682.89
552.691	689.59
553.144	700.69
553.596	708.59
554.049	734.19
554.502	753.99
554.955	770.49
555.407	761.59
555.86	744.79
556.313	741.39
556.765	731.59
557.218	739.29
557.67	739.99
558.123	734.49
558.576	731.79
559.028	739.99
559.48	741.49
559.933	732.69
560.385	702.09
560.838	672.99
561.29	661.09
561.742	657.09
562.195	636.19
562.647	637.09
563.099	643.89
563.551	654.59
564.004	657.49
564.456	643.59
564.908	631.59
565.36	625.39
565.812	609.59
566.264	603.99
566.716	591.69
567.168	579.29
567.62	601.79
568.072	576.49
568.524	582.39
568.976	577.09
569.428	567.19
569.88	548.99
570.332	563.39
570.784	574.69
571.235	560.99
571.687	568.49
572.139	573.59
572.59	591.79
573.042	579.59
573.494	590.09
573.945	584.89
574.397	562.99
574.849	564.79
575.3	564.69
575.752	564.79
576.203	559.89
576.655	561.79
577.106	550.39
577.557	548.29
578.009	551.79
578.46	544.39
578.912	535.79
579.363	536.99
579.814	544.59
580.265	545.29
580.717	544.99
581.168	544.69
581.619	561.09
582.07	555.29
582.521	546.69
582.972	550.79
583.423	543.59
583.875	545.69
584.326	564.99
584.777	597.49
585.227	667.39
585.678	739.09
586.129	810.49
586.58	879.79
587.031	936.99
587.482	1076.89
587.933	1229.59
588.384	1063.29
588.834	796.19
589.285	650.99
589.736	637.29
590.186	624.69
590.637	621.79
591.088	602.69
591.538	603.09
591.989	592.59
592.439	592.09
592.89	580.49
593.34	572.19
593.791	569.69
594.241	560.99
594.692	571.39
595.142	567.59
595.593	566.09
596.043	573.19
596.493	569.79
596.943	577.29
597.394	574.89
597.844	570.59
598.294	582.19
598.744	607.19
599.195	624.39
599.645	651.89
600.095	685.59
600.545	728.79
600.995	774.69
601.445	823.29
601.895	873.49
602.345	909.49
602.795	896.39
603.245	858.79
603.695	816.99
604.145	766.29
604.594	737.79
605.044	687.29
605.494	633.49
605.944	604.59
606.393	585.29
606.843	583.99
607.293	587.49
607.743	586.29
608.192	590.19
608.642	601.49
609.091	610.39
609.541	611.79
609.99	601.09
610.44	605.09
610.889	571.09
611.339	558.99
611.788	539.69
612.238	550.79
612.687	560.89
613.136	567.09
613.586	577.99
614.035	579.59
614.484	595.09
614.933	593.39
615.383	586.99
615.832	584.09
616.281	571.79
616.73	542.79
617.179	529.99
617.628	520.69
618.077	496.99
618.526	490.29
618.975	478.99
619.424	485.49
619.873	482.79
620.322	483.29
620.771	480.99
621.22	471.69
621.669	471.09
622.118	465.19
622.567	468.59
623.015	440.29
623.464	448.49
623.913	442.49
624.361	430.29
624.81	437.49
625.259	443.09
625.707	439.89
626.156	436.29
626.604	451.69
627.053	444.79
627.501	445.19
627.95	442.99
628.398	448.29
628.847	451.29
629.295	444.29
629.744	452.99
630.192	443.69
630.64	448.89
631.089	436.99
631.537	443.99
631.985	448.59
632.433	456.59
632.881	468.29
633.33	501.89
633.778	483.39
634.226	437.49
634.674	451.79
635.122	439.39
635.57	461.99
636.018	473.19
636.466	451.19
636.914	433.59
637.362	447.49
637.81	448.29
638.258	455.29
638.705	445.99
639.153	469.49
639.601	482.69
640.049	489.49
640.497	517.99
640.944	546.69
641.392	495.09
641.84	469.99
642.287	447.79
642.735	448.19
643.182	447.69
643.63	443.59
644.078	444.99
644.525	458.19
644.973	463.69
645.42	462.89
645.867	482.59
646.315	493.79
646.762	517.49
647.21	531.19
647.657	547.69
648.104	579.89
648.551	592.99
648.999	637.09
649.446	698.89
649.893	759.79
650.34	875.49
650.787	1044.09
651.234	1293.39
651.682	1674.49
652.129	2285.29
652.576	3278.09
653.023	4848.29
653.47	6730.79
653.917	8522.89
654.363	9990.69
654.81	11284.49
655.257	10756.69
655.704	6991.49
656.151	4078.49
656.598	2638.69
657.044	1867.59
657.491	1429.79
657.938	1143.69
658.385	959.09
658.831	832.19
659.278	743.49
659.724	656.99
660.171	604.09
660.618	547.19
661.064	531.49
661.511	503.69
661.957	490.19
662.404	478.19
662.85	481.59
663.296	464.69
663.743	436.19
664.189	412.99
664.635	412.39
665.082	397.99
665.528	401.89
665.974	397.29
666.42	379.59
666.867	383.29
667.313	374.69
667.759	371.89
668.205	362.99
668.651	376.59
669.097	372.59
669.543	382.09
669.989	355.59
670.435	346.89
670.881	336.59
671.327	343.49
671.773	356.89
672.219	376.69
672.665	422.69
673.11	442.99
673.556	473.99
674.002	516.69
674.448	504.99
674.893	421.49
675.339	359.19
675.785	337.29
676.23	320.49
676.676	291.29
677.122	295.19
677.567	282.69
678.013	284.69
678.458	272.49
678.904	272.79
679.349	261.19
679.794	269.19
680.24	264.79
680.685	258.69
681.131	262.89
681.576	264.79
682.021	264.19
682.466	269.59
682.912	258.69
683.357	262.29
683.802	290.59
684.247	309.89
684.692	341.69
685.137	372.59
685.583	406.39
686.028	439.59
686.473	391.19
686.918	341.09
687.363	315.29
687.807	297.79
688.252	273.49
688.697	277.79
689.142	256.59
689.587	251.59
690.032	242.09
690.477	260.09
690.921	265.39
691.366	285.99
691.811	297.59
692.255	326.69
692.7	354.09
693.145	380.89
693.589	500.59
694.034	814.79
694.478	1150.39
694.923	1332.99
695.367	1772.99
695.812	921.99
696.256	382.59
696.701	278.49
697.145	253.89
697.59	243.79
698.034	246.59
698.478	255.49
698.922	245.59
699.367	251.89
699.811	259.59
700.255	266.19
700.699	287.89
701.143	321.99
701.588	357.09
702.032	403.19
702.476	388.39
702.92	365.49
703.364	363.99
703.808	466.19
704.252	757.19
704.696	1071.59
705.14	1283.79
705.584	1672.59
706.027	824.19
706.471	397.29
706.915	299.99
707.359	269.49
707.803	233.39
708.246	233.99
708.69	238.59
709.134	239.39
709.577	225.69
710.021	243.39
710.465	232.59
710.908	226.79
711.352	227.29
711.795	233.09
712.239	262.69
712.682	284.59
713.126	308.79
713.569	356.59
714.012	278.59
714.456	239.49
714.899	222.69
715.342	202.29
715.786	201.99
716.229	200.79
716.672	193.59
717.115	182.69
717.558	189.99
718.002	194.09
718.445	199.59
718.888	212.99
719.331	219.89
719.774	231.39
720.217	234.09
720.66	213.69
721.103	202.19
721.546	192.59
721.989	192.09
722.432	172.09
722.874	176.99
723.317	167.49
723.76	177.59
724.203	192.19
724.645	235.09
725.088	322.89
725.531	430.99
725.974	490.39
726.416	420.09
726.859	232.69
727.301	180.59
727.744	180.29
728.187	175.49
728.629	189.09
729.071	177.69
729.514	197.19
729.956	203.59
730.399	206.99
730.841	218.59
731.283	202.69
731.726	198.19
732.168	198.79
732.61	199.19
733.053	210.49
733.495	237.99
733.937	263.29
734.379	295.09
734.821	323.09
735.263	400.99
735.705	610.59
736.148	1146.29
736.59	1927.09
737.032	2388.49
737.474	1952.39
737.916	618.79
738.357	333.79
738.799	245.89
739.241	224.49
739.683	207.79
740.125	220.59
740.567	226.79
741.008	238.89
741.45	239.49
741.892	239.59
742.334	260.09
742.775	276.69
743.217	267.39
743.658	206.79
744.1	193.99
744.542	200.29
744.983	241.29
745.425	277.19
745.866	273.59
746.307	212.49
746.749	209.99
747.19	240.79
747.632	328.79
748.073	624.89
748.514	1344.29
748.956	2154.99
749.397	2687.89
749.838	2239.99
750.279	2336.09
750.72	1161.49
751.162	411.49
751.603	245.59
752.044	194.39
752.485	167.39
752.926	158.19
753.367	153.29
753.808	143.49
754.249	142.89
754.69	138.19
755.131	134.39
755.572	139.19
756.013	131.29
756.453	138.29
756.894	142.19
757.335	144.59
757.776	138.69
758.216	150.29
758.657	140.19
759.098	148.09
759.538	175.09
759.979	201.19
760.42	278.49
760.86	500.59
761.301	1313.69
761.741	3284.79
762.182	5125.49
762.622	3614.99
763.063	1015.69
763.503	410.59
763.943	265.69
764.384	257.29
764.824	308.19
765.264	338.19
765.705	233.19
766.145	160.09
766.585	135.49
767.025	133.79
767.465	137.29
767.906	179.09
768.346	239.19
768.786	256.79
769.226	198.49
769.666	233.59
770.106	440.89
770.546	1121.39
770.986	2036.89
771.426	1861.29
771.866	614.29
772.306	250.59
772.745	154.89
773.185	128.89
773.625	125.39
774.065	121.29
774.505	145.79
774.944	215.19
775.384	476.19
775.824	895.29
776.263	895.59
776.703	378.59
777.142	162.79
777.582	119.09
778.021	96.49
778.461	105.89
778.9	104.89
779.34	97.39
779.779	89.09
780.219	82.89
780.658	81.09
781.097	80.09
781.537	83.49
781.976	77.19
782.415	79.29
782.855	75.59
783.294	76.19
783.733	77.09
784.172	79.19
784.611	76.39
785.05	81.59
785.489	82.89
785.928	89.99
786.367	93.69
786.806	85.59
787.245	97.19
787.684	99.89
788.123	114.99
788.562	105.69
789.001	97.09
789.44	88.99
789.879	91.39
790.317	85.09
790.756	100.19
791.195	92.89
791.634	104.79
792.072	154.59
792.511	260.59
792.95	728.79
793.388	1639.39
793.827	1549.79
794.265	520.99
794.704	209.29
795.142	140.19
795.581	111.89
796.019	98.69
796.458	96.59
796.896	93.49
797.334	88.69
797.773	117.09
798.211	153.39
798.649	309.49
799.087	758.69
799.526	1214.39
799.964	1515.69
800.402	1586.29
800.84	587.89
801.278	227.29
801.716	145.39
802.154	119.39
802.592	112.59
803.03	103.19
803.468	102.39
803.906	100.79
804.344	112.99
804.782	101.89
805.22	102.29
805.658	94.19
806.096	113.99
806.533	123.89
806.971	124.29
807.409	162.69
807.847	233.79
808.284	478.59
808.722	1380.59
809.16	2561.29
809.597	2357.89
810.035	4193.99
810.472	4710.09
810.91	1674.69
811.347	616.49
811.785	309.59
812.222	198.69
812.66	147.79
813.097	125.29
813.535	106.19
813.972	95.59
814.409	92.89
814.846	84.49
815.284	84.49
815.721	79.69
816.158	75.49
816.595	85.89
817.032	137.09
817.47	157.89
817.907	130.59
818.344	107.09
818.781	84.69
819.218	78.59
819.655	96.59
820.092	144.09
820.529	174.39
820.966	139.49
821.403	108.69
821.839	77.99
822.276	75.99
822.713	93.39
823.15	105.29
823.587	86.59
824.023	109.59
824.46	212.29
824.897	657.59
825.333	1077.99
825.77	464.59
826.206	176.89
826.643	97.49
827.08	80.19
827.516	63.79
827.953	56.79
828.389	59.99
828.825	55.19
829.262	52.69
829.698	49.99
830.135	51.19
830.571	48.99
831.007	46.49
831.443	41.79
831.88	49.59
832.316	46.19
832.752	52.39
833.188	50.39
833.624	45.49
834.06	46.99
834.497	45.59
834.933	52.69
835.369	55.69
835.805	52.49
836.241	53.39
836.677	64.79
837.112	69.59
837.548	76.19
837.984	97.79
838.42	148.49
838.856	361.99
839.292	1149.59
839.727	1837.79
840.163	840.49
840.599	689.49
841.034	1570.49
841.47	1721.39
841.906	612.59
842.341	256.69
842.777	167.79
843.212	233.29
843.648	241.29
844.083	111.09
844.519	75.69
844.954	56.99
845.39	43.49
845.825	43.89
846.261	44.29
846.696	44.29
847.131	46.19
847.566	50.59
848.002	37.89
848.437	40.79
848.872	47.99
849.307	50.09
849.742	64.79
850.177	126.39
850.613	410.39
851.048	686.39
851.483	295.39
851.918	119.59
852.353	66.29
852.788	44.49
853.223	45.19
853.657	43.89
854.092	35.49
854.527	34.39
854.962	33.49
855.397	42.09
855.832	36.69
856.266	29.89
856.701	34.19
857.136	26.49
857.57	33.99
858.005	49.09
858.44	50.19
858.874	32.39
859.309	49.89
859.743	27.29
860.178	36.89
860.612	32.09
861.047	41.59
861.481	52.79
861.915	57.99
862.35	39.29
862.784	24.59
863.218	31.59
863.653	27.99
864.087	37.99
864.521	43.09
864.955	45.79
865.39	119.99
865.824	137.69
866.258	91.99
866.692	130.79
867.126	151.29
867.56	90.29
867.994	46.89
868.428	32.59
868.862	36.99
869.296	46.39
869.73	51.59
870.164	45.89
870.598	31.29
871.031	32.79
871.465	24.69
871.899	18.99
872.333	18.89
872.766	21.99
873.2	14.79
873.634	30.19
874.067	17.89
874.501	15.89
874.935	30.99
875.368	23.09
875.802	24.09
876.235	23.79
876.669	17.39
877.102	12.09
877.535	15.99
877.969	17.79
878.402	23.49
878.836	16.19
879.269	19.39
879.702	19.19
880.135	16.89
880.569	10.39
881.002	25.19
881.435	14.89
881.868	20.19
882.301	17.29
882.734	7.29
883.167	22.69
883.601	16.49
884.034	18.99
884.467	13.39
884.899	18.19
885.332	12.99
885.765	5.69
886.198	10.39
886.631	13.09
887.064	11.69
887.497	19.79
887.929	23.49
888.362	9.09
888.795	10.19
889.228	13.59
889.66	15.69
890.093	14.49
890.526	8.89
890.958	15.19
891.391	14.49
891.823	18.39
892.256	13.29
892.688	8.39
893.121	14.99
893.553	13.49
893.985	18.19
894.418	17.59
894.85	11.09
895.282	7.69
895.715	8.09
896.147	16.49
896.579	17.59
897.011	8.89
897.444	11.19
897.876	11.69
898.308	13.29
898.74	8.19
899.172	14.29
899.604	16.59
900.036	19.09
900.468	12.29
900.9	9.39
901.332	18.89
901.764	11.99
902.196	18.49
902.628	17.99
903.06	16.79
903.491	19.49
903.923	14.99
904.355	15.29
904.787	18.49
905.218	18.59
905.65	16.49
906.082	0.69
906.513	8.29
906.945	13.19
907.376	8.49
907.808	13.69
908.239	15.69
908.671	17.59
909.102	19.19
909.534	19.29
909.965	34.09
910.397	75.59
910.828	241.79
911.259	385.99
911.691	171.59
912.122	78.59
912.553	38.19
912.984	29.39
913.415	14.29
913.847	14.89
914.278	4.79
914.709	10.39
915.14	15.99
915.571	15.69
916.002	13.29
916.433	18.39
916.864	21.89
917.295	6.49
917.726	20.19
918.157	10.19
918.587	21.39
919.018	15.69
919.449	16.19
919.88	23.09
920.311	27.69
920.741	35.59
921.172	128.29
921.603	122.49
922.033	56.89
922.464	38.69
922.895	18.09
923.325	13.49
923.756	10.99
924.186	14.39
924.617	15.79
925.047	31.69
925.478	35.89
925.908	35.69
926.338	22.29
926.769	15.29
927.199	24.79
927.629	8.29
928.06	14.89
928.49	12.99
928.92	12.69
929.35	15.69
929.78	9.89
930.21	7.59
930.641	6.19
931.071	8.19
931.501	4.89
931.931	8.89
932.361	7.89
932.791	-2.91
933.221	9.69
933.651	8.69
934.08	16.99
934.51	25.39
934.94	9.99
935.37	9.29
935.8	8.89
936.229	2.49
936.659	10.99
937.089	3.59
937.519	5.19
937.948	20.19
938.378	11.19
938.807	0.59
939.237	3.59
939.666	9.89
940.096	-3.41
940.525	5.89
940.955	1.79
941.384	4.79
941.814	-4.51
942.243	-2.31
942.672	0.49
943.102	-1.11
943.531	1.59
943.96	5.29
944.39	-1.11
944.819	0.29
945.248	0.49
945.677	5.59
946.106	5.79
946.535	1.79
946.964	-1.21
947.393	8.59
947.822	-3.71
948.251	-7.21
948.68	5.59
949.109	4.89
949.538	4.29
949.967	3.29
950.396	0.99
950.825	0.99
951.254	1.09
951.682	-10.21
952.111	3.29
952.54	7.39
952.969	-5.11
953.397	-3.71
953.826	0.29
954.254	-5.01
954.683	-4.41
955.112	-1.11
955.54	1.49
955.969	3.89
956.397	-0.51
956.826	2.09
957.254	6.09
957.682	5.69
958.111	3.19
958.539	1.89
958.967	-0.01
959.396	-1.41
959.824	1.49
960.252	2.09
960.68	-5.51
961.109	-6.61
961.537	-6.41
961.965	1.79
962.393	-3.41
962.821	-4.81
963.249	-0.81
963.677	5.79
964.105	4.09
964.533	36.79
964.961	29.09
965.389	15.29
965.817	9.89
966.245	3.29
966.672	5.69
967.1	-3.01
967.528	-0.21
967.956	-0.51
968.383	2.39
968.811	-9.81
969.239	-1.81
969.666	-4.81
970.094	6.09
970.522	1.49
970.949	2.79
971.377	-3.71
971.804	-3.21
972.232	0.49
972.659	0.89
973.087	-0.21
973.514	4.09
973.941	0.39
974.369	5.89
974.796	7.09
975.223	-3.91
975.651	-2.21
976.078	-1.41
976.505	0.69
976.932	1.29
977.359	14.89
977.786	14.89
978.214	1.09
978.641	-0.21
979.068	-4.21
979.495	-1.21
979.922	-1.91
980.349	-0.41
980.776	8.49
981.202	1.89
981.629	12.29
982.056	7.19
982.483	1.59
982.91	3.59
983.337	-2.41
983.763	4.09
984.19	0.09
984.617	-6.41
985.043	-4.91
985.47	-0.61
985.897	-1.41
986.323	0.19
986.75	5.59
987.176	1.69
987.603	-0.31
988.029	3.19
988.456	-2.41
988.882	2.29
989.308	-5.61
989.735	-10.21
990.161	5.29
990.587	3.29
991.014	2.19
991.44	6.29
991.866	-7.61
992.292	-3.71
992.719	-1.91
993.145	0.39
993.571	-11.51
993.997	-2.81
994.423	-4.41
994.849	-2.11
995.275	-0.71
995.701	-1.21
996.127	-7.01
996.553	1.39
996.979	-1.81
997.405	-3.71
997.83	-6.01
998.256	-8.51
998.682	-8.11
999.108	-9.81
999.534	2.29
999.959	4.59
1000.385	-3.61
1000.811	-0.21
1001.236	-8.91
1001.662	-7.31
1002.087	-6.81
1002.513	4.69
1002.938	3.59
1003.364	0.49
1003.789	-0.71
1004.215	5.69
1004.64	-1.21
1005.066	5.89
1005.491	3.79
1005.916	-3.61
1006.342	-4.41
1006.767	-7.11
1007.192	7.79
1007.617	-4.41
1008.042	-2.21
1008.468	-7.61
1008.893	0.79
1009.318	-1.71
1009.743	-1.71
1010.168	-0.51
1010.593	0.09
1011.018	-5.81
1011.443	2.99
1011.868	0.29
1012.293	0.49
1012.718	-4.81
1013.143	0.89
1013.567	5.79
1013.992	-7.01
1014.417	-12.11
1014.842	1.29
1015.267	-3.31
1015.691	-8.91
1016.116	2.29
1016.541	4.49
1016.965	2.99
1017.39	-3.71
1017.814	1.49
1018.239	-4.01
1018.663	-8.71
1019.088	-9.41
1019.512	2.79
1019.937	-4.41
1020.361	-0.51
1020.785	-6.01
1021.21	0.39
1021.634	4.49
1022.058	3.89
1022.483	1.89
1022.907	-0.31
1023.331	-8.41
1023.755	-3.61
1024.179	-5.31
1024.604	-7.51
1025.028	-1.21
1025.452	-4.41
1025.876	-1.61
1026.3	4.49
1026.724	-3.31
1027.148	-2.11
1027.572	-11.21
1027.996	3.59
1028.42	-0.41
1028.843	-3.61
1029.267	-1.71
1029.691	-5.31
1030.115	-9.01
1030.539	-5.41
1030.962	-1.61
1031.386	-13.91
1031.81	-2.81
1032.233	3.69
1032.657	0.89
1033.08	-4.91
1033.504	-7.51
1033.927	-3.91
1034.351	0.89
1034.774	-6.71
1035.198	2.19
1035.621	-3.51
1036.045	-6.51
1036.468	-1.41
1036.891	-9.31
1037.315	-11.51
1037.738	-6.71
1038.161	7.19
1038.584	-5.51
1039.008	3.69
1039.431	-3.21
1039.854	-4.31
1040.277	-12.91
1040.7	-8.61
1041.123	-4.71
1041.546	-1.01
1041.969	-6.51
1042.392	-10.41
1042.815	1.99
1043.238	3.49
1043.661	5.89
1044.084	-5.71
1044.507	-3.41
1044.93	-5.01
1045.352	-6.11
1045.775	-3.11
1046.198	-1.71
1046.621	1.29
1047.043	-4.91
1047.466	6.09
1047.889	-3.51
1048.311	-10.41
1048.734	-0.11
1049.156	-4.61
1049.579	-0.21
1050.001	-2.81
1050.424	-0.01
1050.846	-0.31
1051.269	-6.31
1051.691	-8.91
1052.113	-5.81
1052.536	-1.21
1052.958	0.39
1053.38	1.69
1053.802	-3.71
1054.225	-2.01
1054.647	-3.81
1055.069	-4.21
1055.491	1.19
1055.913	-10.91
1056.335	0.49
1056.757	3.59
1057.179	-6.91
1057.601	-2.01
1058.023	-10.11
1058.445	-0.21
1058.867	0.29
1059.289	0.49
1059.711	-3.51
1060.133	-0.21
1060.555	-12.81
1060.976	-9.01
1061.398	-6.01
1061.82	-10.11
1062.241	-3.61
1062.663	-6.71
1063.085	0.49
1063.506	1.49
1063.928	0.29
1064.35	-0.71
1064.771	-13.31
1065.193	-3.31
1065.614	-10.81
1066.035	-1.01
1066.457	-6.01
1066.878	2.69
1067.3	-6.41
1067.721	-2.71
1068.142	-3.21
1068.564	-7.21
1068.985	-6.31
1069.406	-2.81
1069.827	-3.21
1070.248	-2.51
1070.67	-8.61
1071.091	-5.61
1071.512	0.09
1071.933	-5.51
1072.354	-3.61
1072.775	-5.81
1073.196	-4.61
1073.617	-5.41
1074.038	-9.21
1074.459	-3.71
1074.88	-10.21
1075.3	3.79
1075.721	-5.01
1076.142	-11.11
1076.563	-4.41
1076.983	-6.71
1077.404	-3.31
1077.825	-5.31
1078.246	-7.11
1078.666	-8.51
1079.087	-6.91
1079.507	0.49
1079.928	6.99
1080.348	-6.91
1080.769	-1.41
1081.189	2.19
1081.61	3.09
1082.03	-2.11
1082.451	-5.91
1082.871	0.89
1083.291	-3.41
1083.711	-5.21
1084.132	-2.51
1084.552	0.09
1084.972	-7.31
1085.392	-10.81
1085.813	-5.01
1086.233	-8.91
1086.653	-1.61
1087.073	1.39
1087.493	-7.51
1087.913	-6.11
1088.333	-6.81
1088.753	-2.01
1089.173	-1.81
1089.593	0.69
1090.013	-1.81
1090.433	3.39
1090.852	-5.21
1091.272	-2.21
1091.692	3.59
1092.112	1.49
1092.531	-6.91
1092.951	-11.01
1093.371	-0.81
1093.79	-1.01
1094.21	-6.71
1094.63	-4.51
1095.049	-4.51
1095.469	-3.61
1095.888	-2.01
1096.308	4.09
1096.727	4.69
1097.146	-2.31
1097.566	1.39
1097.985	-1.41
1098.405	-2.21
1098.824	-4.11
1099.243	-6.91
1099.662	-12.21
1100.082	-2.71
1100.501	0.29
1100.92	-6.71
1101.339	-3.01
1101.758	-5.31
