Data from 20171114-ORNL-Ar_H_NY_Subt18_08-09-01-030.txt Node
Date: Tue Nov 14 08:09:01 EST 2017
User: Ender
Spectrometer: HR+D1039
Trigger mode: 0
Integration Time (sec): 2.730000E-2
Scans to average: 10
Electric dark correction enabled: true
Nonlinearity correction enabled: false
Boxcar width: 0
XAxis mode: Wavelengths
Number of Pixels in Spectrum: 2048
>>>>>Begin Spectral Data<<<<<
187.836	-3.17
188.309	-3.17
188.782	-3.17
189.255	1.33
189.728	-4.47
190.201	2.23
190.674	0.53
191.147	-0.17
191.619	-4.77
192.092	0.33
192.565	11.73
193.038	-2.97
193.511	-0.07
193.984	2.73
194.456	2.23
194.929	1.63
195.402	-3.07
195.874	-4.07
196.347	0.23
196.82	-7.47
197.292	7.03
197.765	1.73
198.237	-5.47
198.71	-2.17
199.182	-4.97
199.655	1.93
200.127	3.93
200.6	1.83
201.072	2.83
201.544	-6.67
202.017	-0.27
202.489	4.03
202.961	-3.87
203.433	-0.87
203.906	-9.17
204.378	-6.37
204.85	1.63
205.322	-6.97
205.794	0.03
206.266	-8.67
206.739	-8.57
207.211	-1.27
207.683	-4.17
208.155	-8.67
208.627	-6.47
209.099	-7.27
209.57	-7.67
210.042	-4.77
210.514	-4.47
210.986	-1.37
211.458	-7.97
211.93	-1.07
212.402	-0.97
212.873	-8.07
213.345	-15.67
213.817	-18.17
214.288	-6.97
214.76	-12.07
215.232	-3.67
215.703	-1.67
216.175	-5.37
216.646	-3.37
217.118	-2.67
217.589	-3.77
218.061	-1.47
218.532	-2.07
219.004	-2.57
219.475	-0.97
219.946	-8.57
220.418	0.13
220.889	8.43
221.36	4.43
221.832	-5.27
222.303	-10.67
222.774	0.43
223.245	-5.87
223.717	-9.87
224.188	-6.77
224.659	-7.87
225.13	-7.37
225.601	-0.87
226.072	4.33
226.543	-0.07
227.014	-2.27
227.485	-0.37
227.956	-7.07
228.427	-3.17
228.898	0.03
229.369	4.23
229.839	-2.47
230.31	-1.67
230.781	4.83
231.252	-3.27
231.722	-7.47
232.193	-7.87
232.664	0.33
233.135	-4.77
233.605	-2.57
234.076	-9.07
234.546	-4.77
235.017	2.73
235.487	-0.77
235.958	-5.97
236.428	-10.57
236.899	-0.87
237.369	2.73
237.84	-7.27
238.31	1.03
238.78	-0.87
239.251	-7.17
239.721	-2.37
240.191	3.93
240.662	-5.27
241.132	0.23
241.602	0.23
242.072	-3.97
242.542	0.13
243.013	-9.27
243.483	0.33
243.953	0.83
244.423	-3.07
244.893	-3.87
245.363	0.43
245.833	1.73
246.303	-4.37
246.773	6.73
247.243	0.03
247.712	-0.87
248.182	3.23
248.652	7.83
249.122	-2.47
249.592	1.83
250.061	4.53
250.531	11.93
251.001	1.73
251.471	7.23
251.94	11.13
252.41	-4.57
252.879	-2.07
253.349	11.33
253.818	8.03
254.288	4.73
254.757	1.43
255.227	-5.97
255.696	1.13
256.166	-4.27
256.635	-2.47
257.105	1.93
257.574	-0.37
258.043	6.23
258.513	-3.87
258.982	-0.17
259.451	-4.97
259.92	3.83
260.389	6.33
260.859	11.23
261.328	-0.97
261.797	3.23
262.266	2.23
262.735	5.93
263.204	3.33
263.673	-1.77
264.142	0.43
264.611	-7.97
265.08	-1.17
265.549	1.83
266.018	-2.47
266.487	-1.67
266.955	-8.07
267.424	-4.17
267.893	2.23
268.362	0.83
268.83	-0.67
269.299	3.23
269.768	-1.97
270.236	-0.07
270.705	1.73
271.174	0.93
271.642	4.93
272.111	0.43
272.579	10.93
273.048	8.93
273.516	4.53
273.985	11.63
274.453	5.93
274.922	12.93
275.39	1.23
275.858	-0.57
276.327	4.63
276.795	13.03
277.263	1.93
277.731	11.33
278.2	16.13
278.668	19.83
279.136	19.73
279.604	7.13
280.072	13.33
280.54	4.63
281.008	0.13
281.477	9.73
281.945	5.63
282.413	15.53
282.881	14.53
283.348	9.13
283.816	6.53
284.284	8.23
284.752	9.53
285.22	11.43
285.688	7.53
286.156	5.63
286.623	18.83
287.091	20.43
287.559	13.73
288.026	8.13
288.494	11.73
288.962	-3.27
289.429	3.83
289.897	11.03
290.364	6.53
290.832	11.43
291.3	9.53
291.767	11.83
292.234	4.93
292.702	4.43
293.169	7.13
293.637	18.03
294.104	13.53
294.571	-0.27
295.039	6.63
295.506	7.43
295.973	9.73
296.44	3.93
296.908	11.73
297.375	7.93
297.842	11.13
298.309	13.73
298.776	5.33
299.243	14.23
299.71	4.03
300.177	9.23
300.644	9.03
301.111	4.13
301.578	15.23
302.045	8.73
302.512	17.93
302.979	13.73
303.446	19.03
303.913	14.23
304.379	8.43
304.846	21.73
305.313	19.93
305.78	13.43
306.246	21.13
306.713	16.03
307.18	18.63
307.646	18.03
308.113	15.23
308.579	14.53
309.046	11.53
309.512	17.83
309.979	11.13
310.445	18.83
310.912	23.13
311.378	21.93
311.845	18.43
312.311	18.73
312.777	24.73
313.244	24.73
313.71	28.83
314.176	22.83
314.642	21.03
315.109	18.73
315.575	25.63
316.041	25.13
316.507	26.03
316.973	23.83
317.439	17.93
317.905	31.93
318.371	24.23
318.837	24.13
319.303	30.33
319.769	18.63
320.235	26.63
320.701	28.73
321.167	26.33
321.633	21.13
322.099	24.63
322.564	29.33
323.03	26.03
323.496	24.13
323.962	24.23
324.427	21.23
324.893	28.93
325.359	28.83
325.824	28.43
326.29	24.63
326.755	30.93
327.221	33.03
327.686	26.23
328.152	34.23
328.617	31.33
329.083	36.13
329.548	39.33
330.014	34.73
330.479	29.63
330.944	30.13
331.41	34.33
331.875	32.53
332.34	33.73
332.805	33.13
333.271	32.73
333.736	36.73
334.201	36.63
334.666	39.93
335.131	43.73
335.596	31.13
336.061	32.63
336.526	31.13
336.991	35.23
337.456	43.63
337.921	33.13
338.386	36.23
338.851	36.63
339.316	40.13
339.781	35.93
340.246	42.33
340.711	38.93
341.175	36.53
341.64	36.63
342.105	39.63
342.569	44.93
343.034	47.93
343.499	43.03
343.963	41.73
344.428	51.03
344.893	53.53
345.357	47.13
345.822	47.23
346.286	49.93
346.751	53.93
347.215	46.23
347.679	61.53
348.144	77.83
348.608	66.43
349.073	50.63
349.537	58.83
350.001	58.93
350.465	67.93
350.93	51.43
351.394	61.53
351.858	55.93
352.322	65.53
352.786	61.83
353.25	69.23
353.715	83.63
354.179	80.83
354.643	99.83
355.107	99.03
355.571	82.13
356.035	73.43
356.498	89.13
356.962	92.83
357.426	102.23
357.89	88.93
358.354	76.43
358.818	66.93
359.281	64.03
359.745	63.13
360.209	63.23
360.673	56.63
361.136	63.63
361.6	71.93
362.064	74.33
362.527	74.33
362.991	74.13
363.454	69.03
363.918	63.13
364.381	63.83
364.845	71.83
365.308	70.43
365.772	66.63
366.235	66.23
366.698	66.33
367.162	70.43
367.625	74.93
368.088	77.33
368.552	77.13
369.015	76.63
369.478	81.73
369.941	89.93
370.404	84.73
370.867	83.73
371.331	86.43
371.794	89.73
372.257	86.33
372.72	91.03
373.183	92.23
373.646	77.83
374.109	83.23
374.572	87.23
375.035	81.93
375.497	92.63
375.96	91.13
376.423	88.83
376.886	97.03
377.349	91.53
377.811	87.13
378.274	94.33
378.737	94.73
379.199	93.63
379.662	96.53
380.125	97.63
380.587	96.23
381.05	96.03
381.512	99.03
381.975	113.63
382.437	106.73
382.9	104.13
383.362	107.13
383.825	116.43
384.287	120.43
384.75	111.23
385.212	116.53
385.674	121.13
386.136	117.53
386.599	106.13
387.061	110.43
387.523	109.43
387.985	119.03
388.447	121.53
388.91	116.83
389.372	120.93
389.834	128.13
390.296	122.13
390.758	125.43
391.22	132.33
391.682	151.73
392.144	200.33
392.606	165.63
393.068	132.83
393.529	146.03
393.991	134.63
394.453	120.63
394.915	133.03
395.377	150.33
395.838	151.53
396.3	130.53
396.762	125.13
397.224	123.83
397.685	121.03
398.147	114.73
398.608	120.63
399.07	120.63
399.531	122.23
399.993	129.23
400.454	141.93
400.916	129.13
401.377	134.13
401.839	138.73
402.3	137.83
402.762	151.03
403.223	168.93
403.684	151.33
404.145	150.93
404.607	146.33
405.068	145.53
405.529	155.03
405.99	166.93
406.451	161.73
406.913	158.83
407.374	148.53
407.835	150.83
408.296	149.73
408.757	160.73
409.218	171.93
409.679	169.33
410.14	165.93
410.601	162.03
411.062	165.83
411.522	175.53
411.983	169.63
412.444	154.73
412.905	168.33
413.366	164.73
413.826	186.93
414.287	200.93
414.748	244.13
415.208	234.23
415.669	201.43
416.13	201.83
416.59	188.03
417.051	203.63
417.511	213.93
417.972	223.53
418.432	236.13
418.893	278.33
419.353	238.33
419.814	189.63
420.274	166.53
420.734	174.83
421.195	193.13
421.655	187.83
422.115	189.23
422.576	185.73
423.036	193.93
423.496	199.73
423.956	206.93
424.416	212.63
424.876	249.63
425.336	247.93
425.797	253.33
426.257	247.23
426.717	224.93
427.177	219.33
427.637	211.23
428.097	220.83
428.556	230.53
429.016	252.73
429.476	246.23
429.936	255.23
430.396	263.53
430.856	274.03
431.315	286.43
431.775	323.93
432.235	351.73
432.694	337.73
433.154	345.73
433.614	368.03
434.073	317.73
434.533	277.13
434.993	250.63
435.452	259.03
435.912	275.73
436.371	272.43
436.83	268.33
437.29	252.63
437.749	232.03
438.209	230.73
438.668	256.53
439.127	267.93
439.587	248.53
440.046	233.13
440.505	244.63
440.964	266.43
441.424	302.53
441.883	292.43
442.342	245.63
442.801	216.13
443.26	221.13
443.719	214.43
444.178	209.53
444.637	209.13
445.096	213.23
445.555	221.73
446.014	215.63
446.473	222.93
446.932	225.13
447.391	218.73
447.849	228.33
448.308	218.53
448.767	216.93
449.226	221.53
449.685	225.23
450.143	245.53
450.602	238.13
451.061	223.13
451.519	227.93
451.978	227.23
452.436	228.03
452.895	237.53
453.353	247.73
453.812	233.63
454.27	234.63
454.729	233.03
455.187	234.53
455.646	237.03
456.104	243.73
456.562	257.63
457.021	258.43
457.479	251.93
457.937	271.53
458.395	257.93
458.854	244.83
459.312	242.73
459.77	269.73
460.228	254.63
460.686	237.63
461.144	246.43
461.602	243.63
462.06	231.63
462.518	252.93
462.976	251.43
463.434	253.33
463.892	258.23
464.35	271.93
464.808	285.53
465.266	259.13
465.724	257.03
466.181	267.23
466.639	263.63
467.097	284.63
467.555	296.03
468.012	287.43
468.47	305.93
468.928	323.33
469.385	330.13
469.843	339.03
470.3	344.23
470.758	352.63
471.215	368.53
471.673	392.63
472.13	399.03
472.588	408.13
473.045	359.73
473.503	371.93
473.96	395.93
474.417	394.83
474.875	423.63
475.332	469.43
475.789	448.63
476.246	460.93
476.704	482.83
477.161	500.63
477.618	512.33
478.075	548.03
478.532	593.63
478.989	659.13
479.446	761.33
479.903	736.13
480.36	767.63
480.817	820.43
481.274	915.33
481.731	997.43
482.188	1077.23
482.645	1202.93
483.102	1282.83
483.558	1398.63
484.015	1437.93
484.472	1415.53
484.929	1379.13
485.385	1337.73
485.842	1310.13
486.299	1248.23
486.755	1197.93
487.212	1022.73
487.668	873.43
488.125	806.13
488.582	746.93
489.038	724.23
489.494	683.53
489.951	665.23
490.407	639.83
490.864	628.63
491.32	627.53
491.776	630.43
492.233	622.93
492.689	586.43
493.145	589.83
493.602	589.23
494.058	608.43
494.514	603.23
494.97	623.03
495.426	635.23
495.882	607.63
496.338	595.03
496.794	613.53
497.251	601.63
497.707	619.23
498.163	614.53
498.618	625.53
499.074	624.73
499.53	654.73
499.986	657.93
500.442	629.83
500.898	617.03
501.354	611.43
501.809	610.83
502.265	623.93
502.721	636.13
503.177	642.53
503.632	643.13
504.088	644.03
504.543	671.03
504.999	688.23
505.455	649.13
505.91	622.83
506.366	630.13
506.821	630.13
507.277	615.53
507.732	627.83
508.187	625.43
508.643	636.83
509.098	628.63
509.553	648.23
510.009	657.63
510.464	658.83
510.919	693.93
511.375	691.03
511.83	693.13
512.285	706.43
512.74	757.23
513.195	770.33
513.65	756.93
514.105	754.23
514.56	757.63
515.015	782.83
515.47	789.03
515.925	778.93
516.38	776.73
516.835	771.83
517.29	773.83
517.745	759.63
518.2	762.63
518.655	737.13
519.109	739.83
519.564	725.13
520.019	725.33
520.474	716.93
520.928	720.93
521.383	715.83
521.838	705.33
522.292	707.23
522.747	703.93
523.201	717.43
523.656	699.33
524.11	695.13
524.565	691.73
525.019	690.13
525.474	707.63
525.928	698.83
526.382	693.13
526.837	695.23
527.291	697.13
527.745	688.23
528.2	691.83
528.654	693.43
529.108	688.53
529.562	678.83
530.016	684.23
530.47	681.93
530.925	680.23
531.379	689.03
531.833	698.43
532.287	695.43
532.741	685.93
533.195	700.63
533.649	711.63
534.103	711.53
534.556	690.93
535.01	708.83
535.464	705.23
535.918	719.73
536.372	714.03
536.826	709.23
537.279	701.33
537.733	700.13
538.187	706.43
538.64	698.23
539.094	714.43
539.548	722.93
540.001	719.93
540.455	723.33
540.908	730.13
541.362	737.13
541.815	743.63
542.269	761.73
542.722	760.23
543.175	769.03
543.629	767.13
544.082	773.83
544.536	778.53
544.989	777.63
545.442	793.03
545.895	781.53
546.349	790.83
546.802	788.63
547.255	800.73
547.708	811.93
548.161	818.63
548.614	816.23
549.067	822.73
549.52	819.23
549.973	802.23
550.426	807.03
550.879	805.73
551.332	797.13
551.785	805.03
552.238	809.73
552.691	827.73
553.144	816.93
553.596	845.83
554.049	861.73
554.502	896.13
554.955	914.13
555.407	907.73
555.86	901.63
556.313	888.33
556.765	881.63
557.218	885.33
557.67	875.03
558.123	870.23
558.576	878.13
559.028	885.53
559.48	886.33
559.933	875.33
560.385	839.53
560.838	820.53
561.29	786.43
561.742	792.03
562.195	761.93
562.647	770.23
563.099	777.43
563.551	777.23
564.004	784.63
564.456	787.53
564.908	769.53
565.36	739.73
565.812	734.23
566.264	714.43
566.716	730.73
567.168	704.53
567.62	710.63
568.072	705.73
568.524	697.93
568.976	699.23
569.428	681.83
569.88	676.43
570.332	698.23
570.784	689.93
571.235	692.53
571.687	710.83
572.139	719.13
572.59	723.13
573.042	725.53
573.494	720.43
573.945	709.63
574.397	697.23
574.849	690.03
575.3	700.03
575.752	682.23
576.203	680.33
576.655	679.83
577.106	676.43
577.557	679.43
578.009	677.43
578.46	675.43
578.912	661.23
579.363	665.73
579.814	675.73
580.265	661.83
580.717	672.23
581.168	671.73
581.619	683.63
582.07	693.33
582.521	690.13
582.972	671.03
583.423	687.33
583.875	691.03
584.326	699.23
584.777	727.33
585.227	766.63
585.678	798.43
586.129	845.53
586.58	883.13
587.031	930.13
587.482	989.33
587.933	1078.13
588.384	1006.23
588.834	865.23
589.285	789.03
589.736	792.23
590.186	784.73
590.637	776.33
591.088	753.03
591.538	746.83
591.989	735.03
592.439	734.93
592.89	729.73
593.34	716.03
593.791	712.93
594.241	717.63
594.692	716.23
595.142	706.83
595.593	703.73
596.043	712.93
596.493	720.03
596.943	714.03
597.394	735.93
597.844	721.03
598.294	735.83
598.744	767.13
599.195	795.63
599.645	826.53
600.095	881.13
600.545	937.13
600.995	977.73
601.445	1050.13
601.895	1101.83
602.345	1147.03
602.795	1135.03
603.245	1087.83
603.695	1034.53
604.145	958.33
604.594	926.83
605.044	868.83
605.494	815.83
605.944	759.33
606.393	748.43
606.843	735.43
607.293	738.53
607.743	742.23
608.192	743.83
608.642	765.23
609.091	763.83
609.541	778.63
609.99	772.23
610.44	772.93
610.889	721.83
611.339	708.63
611.788	698.53
612.238	705.93
612.687	710.03
613.136	714.03
613.586	734.93
614.035	716.73
614.484	735.83
614.933	730.53
615.383	731.53
615.832	727.33
616.281	715.63
616.73	680.53
617.179	666.13
617.628	656.53
618.077	645.33
618.526	622.13
618.975	624.93
619.424	620.03
619.873	623.73
620.322	620.73
620.771	607.73
621.22	616.63
621.669	602.73
622.118	600.63
622.567	581.73
623.015	571.13
623.464	576.93
623.913	568.23
624.361	558.23
624.81	559.53
625.259	557.83
625.707	558.53
626.156	558.93
626.604	571.93
627.053	570.83
627.501	573.33
627.95	588.43
628.398	586.13
628.847	574.63
629.295	569.13
629.744	582.03
630.192	577.43
630.64	576.73
631.089	566.43
631.537	569.53
631.985	560.93
632.433	572.43
632.881	560.43
633.33	588.03
633.778	584.63
634.226	548.33
634.674	562.03
635.122	562.43
635.57	577.23
636.018	594.33
636.466	573.53
636.914	563.53
637.362	581.73
637.81	593.83
638.258	592.03
638.705	587.83
639.153	622.93
639.601	626.13
640.049	657.73
640.497	673.83
640.944	698.63
641.392	654.03
641.84	623.73
642.287	593.13
642.735	567.13
643.182	575.93
643.63	572.93
644.078	579.13
644.525	595.33
644.973	597.83
645.42	607.13
645.867	632.13
646.315	644.93
646.762	659.23
647.21	704.53
647.657	722.83
648.104	753.23
648.551	770.33
648.999	833.33
649.446	906.63
649.893	997.93
650.34	1148.73
650.787	1362.63
651.234	1689.83
651.682	2198.63
652.129	2978.23
652.576	4254.63
653.023	6244.23
653.47	8437.73
653.917	10393.93
654.363	11887.23
654.81	13057.23
655.257	12409.43
655.704	8183.03
656.151	4881.63
656.598	3207.83
657.044	2280.53
657.491	1780.23
657.938	1432.13
658.385	1205.93
658.831	1048.23
659.278	950.23
659.724	848.93
660.171	789.43
660.618	712.03
661.064	687.93
661.511	669.03
661.957	660.33
662.404	655.03
662.85	661.83
663.296	636.43
663.743	567.13
664.189	548.13
664.635	533.33
665.082	535.13
665.528	537.73
665.974	529.93
666.42	524.03
666.867	505.03
667.313	492.23
667.759	478.23
668.205	466.13
668.651	471.43
669.097	458.03
669.543	461.63
669.989	460.43
670.435	458.43
670.881	458.03
671.327	461.23
671.773	482.13
672.219	503.03
672.665	564.93
673.11	598.33
673.556	644.03
674.002	681.33
674.448	661.03
674.893	563.93
675.339	493.33
675.785	450.23
676.23	436.23
676.676	401.73
677.122	388.93
677.567	382.93
678.013	377.43
678.458	377.43
678.904	369.83
679.349	361.13
679.794	363.73
680.24	355.43
680.685	357.83
681.131	356.33
681.576	357.43
682.021	360.73
682.466	358.83
682.912	359.33
683.357	365.33
683.802	399.43
684.247	424.53
684.692	476.53
685.137	517.73
685.583	551.33
686.028	581.93
686.473	529.83
686.918	464.13
687.363	434.53
687.807	402.73
688.252	380.83
688.697	366.23
689.142	355.13
689.587	345.03
690.032	339.33
690.477	355.13
690.921	363.43
691.366	394.93
691.811	407.73
692.255	447.83
692.7	483.53
693.145	531.03
693.589	742.93
694.034	1210.33
694.478	1611.83
694.923	1776.33
695.367	2316.23
695.812	1231.03
696.256	516.73
696.701	385.93
697.145	352.83
697.59	334.23
698.034	332.63
698.478	335.13
698.922	333.03
699.367	331.13
699.811	347.13
700.255	359.73
700.699	407.63
701.143	444.23
701.588	491.93
702.032	527.13
702.476	532.33
702.92	500.73
703.364	515.43
703.808	685.33
704.252	1116.03
704.696	1532.33
705.14	1715.43
705.584	2192.43
706.027	1101.83
706.471	543.63
706.915	401.73
707.359	362.73
707.803	333.13
708.246	312.13
708.69	314.73
709.134	313.33
709.577	316.03
710.021	317.43
710.465	317.73
710.908	303.83
711.352	311.63
711.795	326.63
712.239	379.23
712.682	398.83
713.126	423.93
713.569	473.53
714.012	371.13
714.456	322.03
714.899	304.33
715.342	289.13
715.786	264.33
716.229	272.43
716.672	261.53
717.115	250.13
717.558	254.73
718.002	254.53
718.445	270.53
718.888	290.83
719.331	301.23
719.774	320.63
720.217	316.53
720.66	286.53
721.103	275.93
721.546	266.03
721.989	258.23
722.432	231.73
722.874	246.13
723.317	239.03
723.76	246.03
724.203	270.93
724.645	331.33
725.088	467.73
725.531	601.83
725.974	658.73
726.416	561.63
726.859	311.23
727.301	255.93
727.744	246.23
728.187	241.13
728.629	246.13
729.071	251.33
729.514	263.53
729.956	286.43
730.399	299.93
730.841	297.23
731.283	285.23
731.726	276.93
732.168	270.93
732.61	270.03
733.053	311.63
733.495	325.83
733.937	367.13
734.379	413.53
734.821	462.93
735.263	583.03
735.705	907.53
736.148	1711.03
736.59	2733.23
737.032	3121.83
737.474	2560.73
737.916	854.43
738.357	453.53
738.799	345.63
739.241	312.23
739.683	306.33
740.125	300.83
740.567	314.73
741.008	325.73
741.45	328.53
741.892	330.93
742.334	363.33
742.775	375.83
743.217	360.23
743.658	276.63
744.1	269.83
744.542	278.43
744.983	336.23
745.425	365.53
745.866	363.43
746.307	291.93
746.749	290.63
747.19	343.63
747.632	480.53
748.073	979.53
748.514	2023.13
748.956	2985.53
749.397	3778.13
749.838	3131.83
750.279	3031.13
750.72	1555.53
751.162	574.83
751.603	334.93
752.044	265.73
752.485	230.93
752.926	214.13
753.367	210.73
753.808	199.73
754.249	198.33
754.69	187.33
755.131	189.03
755.572	193.23
756.013	197.93
756.453	193.63
756.894	200.43
757.335	195.83
757.776	200.33
758.216	202.13
758.657	204.33
759.098	216.53
759.538	234.33
759.979	281.23
760.42	390.83
760.86	779.43
761.301	2038.93
761.741	4768.43
762.182	6566.43
762.622	4651.43
763.063	1375.73
763.503	571.13
763.943	347.33
764.384	306.83
764.824	316.43
765.264	309.93
765.705	248.83
766.145	201.13
766.585	185.13
767.025	183.33
767.465	177.53
767.906	217.43
768.346	252.33
768.786	259.53
769.226	243.23
769.666	336.93
770.106	688.03
770.546	1688.23
770.986	2714.53
771.426	2402.53
771.866	823.53
772.306	339.43
772.745	216.53
773.185	175.83
773.625	171.93
774.065	164.63
774.505	178.93
774.944	251.93
775.384	483.93
775.824	794.63
776.263	751.03
776.703	354.03
777.142	188.13
777.582	143.93
778.021	133.43
778.461	132.33
778.9	135.83
779.34	137.43
779.779	116.43
780.219	113.53
780.658	110.93
781.097	110.03
781.537	124.53
781.976	114.43
782.415	107.83
782.855	110.03
783.294	101.43
783.733	107.33
784.172	114.53
784.611	111.23
785.05	112.63
785.489	116.33
785.928	120.53
786.367	127.13
786.806	124.13
787.245	131.33
787.684	137.73
788.123	147.93
788.562	139.03
789.001	140.23
789.44	123.73
789.879	117.83
790.317	125.73
790.756	135.73
791.195	128.83
791.634	155.03
792.072	217.03
792.511	393.23
792.95	1111.03
793.388	2213.43
793.827	1944.93
794.265	693.43
794.704	288.23
795.142	194.03
795.581	160.53
796.019	145.23
796.458	137.23
796.896	127.43
797.334	137.73
797.773	162.93
798.211	231.13
798.649	492.53
799.087	1103.83
799.526	1700.63
799.964	2123.93
800.402	2039.63
800.84	785.53
801.278	319.13
801.716	188.93
802.154	165.13
802.592	152.93
803.03	142.83
803.468	141.83
803.906	146.93
804.344	160.13
804.782	141.23
805.22	140.03
805.658	138.23
806.096	150.63
806.533	161.83
806.971	186.93
807.409	236.73
807.847	339.23
808.284	727.33
808.722	2024.73
809.16	3447.43
809.597	3385.33
810.035	5743.73
810.472	5866.93
810.91	2171.43
811.347	837.03
811.785	423.63
812.222	268.83
812.66	206.63
813.097	169.23
813.535	154.13
813.972	133.83
814.409	123.43
814.846	109.73
815.284	110.53
815.721	108.93
816.158	111.53
816.595	120.43
817.032	167.93
817.47	187.03
817.907	143.93
818.344	115.23
818.781	107.33
819.218	101.83
819.655	127.93
820.092	189.13
820.529	220.63
820.966	176.53
821.403	138.83
821.839	106.63
822.276	99.93
822.713	121.73
823.15	145.93
823.587	120.93
824.023	160.13
824.46	324.23
824.897	966.83
825.333	1382.23
825.77	599.43
826.206	239.43
826.643	144.73
827.08	104.03
827.516	82.23
827.953	76.33
828.389	79.83
828.825	76.33
829.262	76.23
829.698	67.33
830.135	68.23
830.571	71.13
831.007	66.63
831.443	68.83
831.88	70.53
832.316	67.33
832.752	65.23
833.188	69.13
833.624	64.43
834.06	70.73
834.497	71.73
834.933	78.63
835.369	75.93
835.805	71.03
836.241	76.23
836.677	81.13
837.112	94.13
837.548	113.83
837.984	139.43
838.42	218.93
838.856	547.73
839.292	1622.03
839.727	2365.63
840.163	1113.73
840.599	1008.33
841.034	2162.63
841.47	2157.53
841.906	802.13
842.341	348.93
842.777	220.43
843.212	244.63
843.648	226.23
844.083	118.73
844.519	94.33
844.954	77.93
845.39	63.03
845.825	65.93
846.261	62.43
846.696	55.63
847.131	52.63
847.566	55.63
848.002	60.23
848.437	58.73
848.872	59.33
849.307	67.63
849.742	87.63
850.177	194.73
850.613	592.73
851.048	906.53
851.483	393.93
851.918	168.23
852.353	91.83
852.788	52.63
853.223	54.23
853.657	54.03
854.092	50.73
854.527	49.23
854.962	48.03
855.397	47.43
855.832	46.53
856.266	45.63
856.701	40.53
857.136	35.73
857.57	43.93
858.005	50.73
858.44	59.33
858.874	48.43
859.309	55.63
859.743	45.73
860.178	42.13
860.612	39.73
861.047	56.13
861.481	80.73
861.915	73.63
862.35	56.43
862.784	35.03
863.218	31.73
863.653	35.73
864.087	45.13
864.521	57.63
864.955	71.13
865.39	166.03
865.824	179.33
866.258	118.33
866.692	172.83
867.126	186.23
867.56	113.83
867.994	61.43
868.428	44.03
868.862	48.93
869.296	53.53
869.73	66.23
870.164	57.13
870.598	48.43
871.031	39.23
871.465	32.43
871.899	34.93
872.333	22.43
872.766	26.73
873.2	23.33
873.634	30.63
874.067	24.43
874.501	30.43
874.935	36.83
875.368	28.43
875.802	29.93
876.235	25.23
876.669	27.23
877.102	27.43
877.535	31.93
877.969	26.73
878.402	26.53
878.836	19.63
879.269	26.23
879.702	22.53
880.135	22.63
880.569	23.13
881.002	33.53
881.435	27.53
881.868	19.73
882.301	25.73
882.734	22.63
883.167	27.53
883.601	19.93
884.034	22.13
884.467	18.23
884.899	18.63
885.332	15.93
885.765	16.23
886.198	19.53
886.631	18.13
887.064	16.03
887.497	21.93
887.929	25.53
888.362	13.73
888.795	15.33
889.228	16.93
889.66	25.33
890.093	23.63
890.526	17.83
890.958	20.93
891.391	22.33
891.823	21.23
892.256	14.83
892.688	15.53
893.121	22.03
893.553	20.13
893.985	22.53
894.418	17.53
894.85	7.03
895.282	19.93
895.715	15.13
896.147	18.73
896.579	11.33
897.011	13.33
897.444	16.83
897.876	13.43
898.308	11.43
898.74	19.53
899.172	13.23
899.604	26.33
900.036	21.23
900.468	17.73
900.9	15.73
901.332	21.53
901.764	16.23
902.196	12.33
902.628	16.43
903.06	17.43
903.491	32.33
903.923	27.23
904.355	18.53
904.787	34.53
905.218	22.63
905.65	20.93
906.082	21.53
906.513	13.53
906.945	15.63
907.376	12.13
907.808	21.13
908.239	20.73
908.671	17.63
909.102	25.73
909.534	28.83
909.965	50.13
910.397	100.63
910.828	331.23
911.259	487.43
911.691	225.73
912.122	114.93
912.553	59.43
912.984	40.23
913.415	27.13
913.847	23.33
914.278	15.03
914.709	13.83
915.14	23.33
915.571	18.23
916.002	12.43
916.433	21.93
916.864	14.33
917.295	9.63
917.726	16.93
918.157	13.83
918.587	28.93
919.018	23.63
919.449	25.23
919.88	18.43
920.311	30.63
920.741	47.63
921.172	177.33
921.603	155.73
922.033	76.43
922.464	49.83
922.895	22.83
923.325	30.03
923.756	20.13
924.186	18.23
924.617	22.63
925.047	24.93
925.478	25.83
925.908	30.13
926.338	18.23
926.769	12.13
927.199	10.93
927.629	9.63
928.06	15.33
928.49	10.33
928.92	16.53
929.35	11.93
929.78	11.53
930.21	5.93
930.641	14.93
931.071	9.93
931.501	7.13
931.931	5.83
932.361	10.33
932.791	-0.67
933.221	9.23
933.651	-0.17
934.08	15.73
934.51	29.13
934.94	19.73
935.37	15.83
935.8	7.43
936.229	8.83
936.659	9.93
937.089	4.63
937.519	13.53
937.948	22.93
938.378	11.63
938.807	2.93
939.237	1.43
939.666	8.53
940.096	-5.37
940.525	0.23
940.955	1.13
941.384	10.23
941.814	-4.57
942.243	-5.47
942.672	5.93
943.102	3.43
943.531	1.53
943.96	7.03
944.39	5.33
944.819	2.83
945.248	6.93
945.677	5.83
946.106	1.43
946.535	-0.47
946.964	0.23
947.393	6.43
947.822	4.33
948.251	-5.57
948.68	1.83
949.109	9.93
949.538	8.13
949.967	5.43
950.396	1.53
950.825	-1.87
951.254	4.63
951.682	-5.37
952.111	2.83
952.54	3.23
952.969	-1.07
953.397	-5.37
953.826	2.83
954.254	-5.67
954.683	4.23
955.112	0.33
955.54	-0.27
955.969	1.23
956.397	3.63
956.826	5.43
957.254	3.23
957.682	6.03
958.111	5.13
958.539	-3.87
958.967	4.93
959.396	-1.87
959.824	2.33
960.252	-1.67
960.68	-6.47
961.109	-1.77
961.537	-5.37
961.965	1.43
962.393	1.33
962.821	-3.57
963.249	1.63
963.677	6.03
964.105	4.13
964.533	46.83
964.961	38.03
965.389	19.33
965.817	9.03
966.245	2.83
966.672	1.63
967.1	-7.07
967.528	3.13
967.956	-2.67
968.383	0.53
968.811	-4.37
969.239	-4.47
969.666	-3.47
970.094	-2.67
970.522	8.03
970.949	-0.07
971.377	-5.47
971.804	-4.27
972.232	-1.97
972.659	0.43
973.087	-0.27
973.514	-2.07
973.941	-0.97
974.369	3.03
974.796	5.13
975.223	3.93
975.651	2.33
976.078	-0.67
976.505	-4.17
976.932	2.53
977.359	9.93
977.786	12.83
978.214	4.53
978.641	-3.67
979.068	-6.07
979.495	-6.97
979.922	-0.07
980.349	-2.77
980.776	7.03
981.202	-4.07
981.629	6.73
982.056	1.13
982.483	2.73
982.91	-0.27
983.337	-6.97
983.763	9.23
984.19	-5.77
984.617	-3.67
985.043	-8.07
985.47	-5.67
985.897	1.73
986.323	-3.37
986.75	5.83
987.176	-1.07
987.603	3.53
988.029	-1.37
988.456	-4.17
988.882	3.13
989.308	-6.57
989.735	-4.87
990.161	3.43
990.587	-3.97
991.014	-0.77
991.44	4.13
991.866	-0.67
992.292	-3.97
992.719	4.33
993.145	1.73
993.571	-7.17
993.997	-1.97
994.423	0.23
994.849	1.23
995.275	-3.37
995.701	-0.07
996.127	-2.87
996.553	3.13
996.979	1.23
997.405	-1.37
997.83	-6.97
998.256	-8.57
998.682	-7.67
999.108	-5.97
999.534	1.63
999.959	-2.57
1000.385	0.03
1000.811	-4.57
1001.236	-0.67
1001.662	-7.57
1002.087	-11.07
1002.513	1.93
1002.938	2.33
1003.364	-1.27
1003.789	-2.27
1004.215	4.43
1004.64	0.73
1005.066	0.43
1005.491	-4.87
1005.916	4.93
1006.342	0.63
1006.767	-6.37
1007.192	6.43
1007.617	-4.17
1008.042	-4.17
1008.468	-6.07
1008.893	-0.97
1009.318	-3.17
1009.743	0.03
1010.168	2.83
1010.593	-0.07
1011.018	-7.27
1011.443	-1.97
1011.868	-1.87
1012.293	-5.27
1012.718	-6.77
1013.143	-2.07
1013.567	0.93
1013.992	-5.17
1014.417	-15.97
1014.842	-0.47
1015.267	-5.47
1015.691	0.63
1016.116	1.23
1016.541	-3.37
1016.965	2.83
1017.39	-1.57
1017.814	-6.57
1018.239	0.93
1018.663	-6.27
1019.088	-17.27
1019.512	-2.17
1019.937	-4.67
1020.361	-7.57
1020.785	-9.77
1021.21	-2.77
1021.634	-9.97
1022.058	-0.47
1022.483	4.73
1022.907	-4.97
1023.331	-6.67
1023.755	-4.87
1024.179	0.93
1024.604	-9.97
1025.028	-4.17
1025.452	-6.97
1025.876	-0.57
1026.3	-4.67
1026.724	-13.27
1027.148	-0.47
1027.572	-6.77
1027.996	-2.27
1028.42	-0.47
1028.843	-5.07
1029.267	-4.87
1029.691	-3.57
1030.115	-6.87
1030.539	-3.57
1030.962	-2.77
1031.386	-8.47
1031.81	1.23
1032.233	-0.77
1032.657	0.13
1033.08	-7.37
1033.504	-3.87
1033.927	0.83
1034.351	-6.87
1034.774	-3.97
1035.198	-2.07
1035.621	0.23
1036.045	-4.17
1036.468	8.43
1036.891	-6.47
1037.315	-13.87
1037.738	-8.07
1038.161	2.13
1038.584	-5.37
1039.008	-6.67
1039.431	-4.67
1039.854	-4.57
1040.277	-5.17
1040.7	-11.67
1041.123	-0.97
1041.546	-12.67
1041.969	-5.97
1042.392	-5.67
1042.815	-4.57
1043.238	2.23
1043.661	1.53
1044.084	-6.67
1044.507	-2.77
1044.93	-1.27
1045.352	-8.27
1045.775	-0.77
1046.198	-3.37
1046.621	-3.67
1047.043	-2.97
1047.466	0.23
1047.889	1.13
1048.311	-4.17
1048.734	-1.37
1049.156	-4.47
1049.579	0.93
1050.001	-1.67
1050.424	2.73
1050.846	-6.87
1051.269	-6.07
1051.691	-10.27
1052.113	-2.57
1052.536	-3.17
1052.958	-1.77
1053.38	-7.67
1053.802	-8.37
1054.225	-0.37
1054.647	-9.67
1055.069	-11.97
1055.491	1.83
1055.913	-4.27
1056.335	0.73
1056.757	-7.87
1057.179	-8.07
1057.601	-9.77
1058.023	-3.37
1058.445	-1.27
1058.867	-3.87
1059.289	0.43
1059.711	-5.67
1060.133	-1.77
1060.555	-4.37
1060.976	-6.57
1061.398	-3.87
1061.82	-3.07
1062.241	-5.87
1062.663	-11.87
1063.085	-6.97
1063.506	-0.67
1063.928	-2.67
1064.35	0.73
1064.771	-7.17
1065.193	-1.77
1065.614	-7.57
1066.035	-4.77
1066.457	-8.37
1066.878	-1.77
1067.3	-4.97
1067.721	-7.07
1068.142	-2.97
1068.564	-1.47
1068.985	-0.47
1069.406	-9.67
1069.827	-7.77
1070.248	3.33
1070.67	-3.17
1071.091	-6.77
1071.512	-4.07
1071.933	-8.07
1072.354	-5.97
1072.775	-9.57
1073.196	-6.37
1073.617	0.43
1074.038	-7.17
1074.459	-1.67
1074.88	-11.47
1075.3	6.03
1075.721	-5.87
1076.142	-1.97
1076.563	-1.37
1076.983	-10.17
1077.404	-2.17
1077.825	-8.97
1078.246	-8.87
1078.666	-13.07
1079.087	2.63
1079.507	-4.17
1079.928	0.13
1080.348	4.23
1080.769	-10.47
1081.189	3.33
1081.61	3.93
1082.03	-1.97
1082.451	-11.17
1082.871	1.83
1083.291	-7.37
1083.711	-8.57
1084.132	-4.17
1084.552	-3.37
1084.972	0.33
1085.392	-12.17
1085.813	-9.17
1086.233	-4.37
1086.653	-9.57
1087.073	-5.97
1087.493	-7.17
1087.913	-13.47
1088.333	-5.87
1088.753	-3.17
1089.173	0.33
1089.593	-3.17
1090.013	-2.77
1090.433	-1.97
1090.852	-0.57
1091.272	0.63
1091.692	-4.87
1092.112	-4.67
1092.531	-11.67
1092.951	-13.97
1093.371	-5.17
1093.79	-2.47
1094.21	-1.37
1094.63	-5.77
1095.049	-0.47
1095.469	-2.57
1095.888	1.13
1096.308	-0.47
1096.727	9.43
1097.146	-8.87
1097.566	-4.17
1097.985	-4.87
1098.405	-1.47
1098.824	-1.97
1099.243	-5.87
1099.662	-8.87
1100.082	-9.67
1100.501	-0.27
1100.92	-5.07
1101.339	-7.87
1101.758	-7.27
