Data from 20171114-ORNL-Ar_H_NY_Subt18_08-07-21-881.txt Node
Date: Tue Nov 14 08:07:21 EST 2017
User: Ender
Spectrometer: HR+D1039
Trigger mode: 0
Integration Time (sec): 2.730000E-2
Scans to average: 10
Electric dark correction enabled: true
Nonlinearity correction enabled: false
Boxcar width: 0
XAxis mode: Wavelengths
Number of Pixels in Spectrum: 2048
>>>>>Begin Spectral Data<<<<<
187.836	-6.04
188.309	-6.04
188.782	-6.04
189.255	-6.14
189.728	0.16
190.201	7.36
190.674	-0.64
191.147	4.06
191.619	-9.24
192.092	3.66
192.565	2.86
193.038	-2.64
193.511	-0.24
193.984	-1.14
194.456	3.06
194.929	5.16
195.402	-0.04
195.874	-0.24
196.347	-4.24
196.82	-6.44
197.292	4.76
197.765	1.76
198.237	-8.74
198.71	1.56
199.182	-7.14
199.655	4.86
200.127	6.46
200.6	2.76
201.072	-9.64
201.544	-9.34
202.017	-1.54
202.489	-0.24
202.961	4.06
203.433	-2.44
203.906	-8.94
204.378	-2.84
204.85	-6.34
205.322	-7.94
205.794	0.06
206.266	-2.24
206.739	-5.84
207.211	2.36
207.683	-6.64
208.155	-8.34
208.627	-3.74
209.099	-1.54
209.57	-7.84
210.042	-6.64
210.514	-5.04
210.986	-2.54
211.458	-10.74
211.93	-0.64
212.402	2.86
212.873	-5.74
213.345	-15.74
213.817	-13.94
214.288	1.66
214.76	-7.04
215.232	-1.14
215.703	-3.24
216.175	-6.04
216.646	-5.84
217.118	-8.14
217.589	-1.04
218.061	-1.54
218.532	-6.94
219.004	-4.64
219.475	-6.54
219.946	-7.44
220.418	-4.74
220.889	0.46
221.36	3.06
221.832	-4.54
222.303	-0.74
222.774	5.66
223.245	-7.14
223.717	-6.64
224.188	-3.34
224.659	-1.34
225.13	-4.74
225.601	-1.14
226.072	-0.94
226.543	-3.94
227.014	-6.54
227.485	-1.54
227.956	-0.14
228.427	-5.24
228.898	2.66
229.369	2.96
229.839	-1.04
230.31	-7.74
230.781	3.96
231.252	-6.34
231.722	2.86
232.193	-0.94
232.664	6.76
233.135	-0.84
233.605	-5.04
234.076	-5.74
234.546	-2.24
235.017	3.76
235.487	-3.74
235.958	-1.04
236.428	-4.24
236.899	-0.84
237.369	4.46
237.84	-5.24
238.31	2.26
238.78	3.96
239.251	-2.94
239.721	-3.24
240.191	2.56
240.662	-2.64
241.132	-0.94
241.602	-5.64
242.072	0.36
242.542	4.16
243.013	-3.84
243.483	4.16
243.953	6.96
244.423	0.96
244.893	-3.94
245.363	-1.44
245.833	1.26
246.303	1.96
246.773	1.66
247.243	-4.04
247.712	-3.74
248.182	0.96
248.652	9.86
249.122	-6.14
249.592	6.86
250.061	14.86
250.531	25.36
251.001	7.96
251.471	11.16
251.94	10.86
252.41	-1.54
252.879	0.66
253.349	10.16
253.818	3.26
254.288	-2.24
254.757	-0.64
255.227	-3.24
255.696	2.16
256.166	0.46
256.635	2.66
257.105	3.76
257.574	2.36
258.043	5.56
258.513	6.16
258.982	10.06
259.451	3.66
259.92	4.86
260.389	6.16
260.859	3.26
261.328	3.96
261.797	12.46
262.266	2.76
262.735	7.46
263.204	5.46
263.673	-6.14
264.142	2.86
264.611	-6.24
265.08	1.86
265.549	2.46
266.018	1.46
266.487	-2.44
266.955	-2.14
267.424	0.36
267.893	3.16
268.362	0.36
268.83	4.26
269.299	9.26
269.768	4.86
270.236	4.56
270.705	-1.14
271.174	3.66
271.642	6.66
272.111	7.76
272.579	7.06
273.048	16.16
273.516	11.76
273.985	11.66
274.453	15.36
274.922	9.86
275.39	4.16
275.858	2.26
276.327	8.36
276.795	13.56
277.263	2.56
277.731	19.96
278.2	33.96
278.668	30.46
279.136	26.36
279.604	5.86
280.072	8.16
280.54	14.56
281.008	5.76
281.477	11.46
281.945	5.16
282.413	6.16
282.881	8.56
283.348	2.86
283.816	6.96
284.284	10.76
284.752	12.06
285.22	12.46
285.688	5.96
286.156	13.86
286.623	32.16
287.091	24.16
287.559	19.36
288.026	7.86
288.494	11.86
288.962	-1.34
289.429	3.26
289.897	9.46
290.364	15.86
290.832	10.76
291.3	6.56
291.767	11.96
292.234	13.26
292.702	5.46
293.169	8.06
293.637	16.46
294.104	14.26
294.571	7.36
295.039	9.06
295.506	13.56
295.973	12.36
296.44	10.66
296.908	9.06
297.375	11.66
297.842	13.96
298.309	8.36
298.776	6.06
299.243	7.56
299.71	0.86
300.177	14.66
300.644	17.76
301.111	12.06
301.578	15.76
302.045	5.06
302.512	14.46
302.979	12.16
303.446	10.66
303.913	6.16
304.379	11.56
304.846	22.16
305.313	15.06
305.78	16.16
306.246	17.46
306.713	18.96
307.18	23.86
307.646	17.86
308.113	17.66
308.579	16.36
309.046	13.56
309.512	22.06
309.979	9.76
310.445	20.36
310.912	18.86
311.378	23.16
311.845	22.26
312.311	22.36
312.777	26.56
313.244	18.16
313.71	29.36
314.176	18.96
314.642	21.76
315.109	21.46
315.575	27.96
316.041	28.66
316.507	21.26
316.973	29.66
317.439	27.26
317.905	29.16
318.371	23.76
318.837	25.86
319.303	23.16
319.769	23.76
320.235	26.36
320.701	25.26
321.167	25.96
321.633	18.16
322.099	29.16
322.564	32.76
323.03	29.86
323.496	26.46
323.962	33.16
324.427	31.36
324.893	28.56
325.359	32.96
325.824	30.46
326.29	33.66
326.755	27.56
327.221	29.86
327.686	30.76
328.152	36.16
328.617	33.16
329.083	38.16
329.548	39.46
330.014	32.06
330.479	31.66
330.944	36.26
331.41	36.66
331.875	37.76
332.34	33.26
332.805	32.46
333.271	39.26
333.736	31.66
334.201	39.76
334.666	34.66
335.131	41.96
335.596	36.26
336.061	46.16
336.526	31.16
336.991	37.76
337.456	48.96
337.921	43.66
338.386	29.86
338.851	33.46
339.316	44.96
339.781	38.96
340.246	43.56
340.711	40.76
341.175	39.86
341.64	40.96
342.105	43.56
342.569	42.96
343.034	43.46
343.499	45.76
343.963	42.76
344.428	53.26
344.893	45.86
345.357	55.96
345.822	53.46
346.286	54.86
346.751	51.06
347.215	53.26
347.679	48.16
348.144	74.66
348.608	66.16
349.073	56.16
349.537	59.86
350.001	59.96
350.465	76.46
350.93	64.96
351.394	62.36
351.858	55.56
352.322	69.56
352.786	72.36
353.25	74.66
353.715	91.26
354.179	80.76
354.643	96.46
355.107	96.76
355.571	89.66
356.035	79.46
356.498	88.86
356.962	88.96
357.426	97.46
357.89	84.36
358.354	65.96
358.818	73.06
359.281	66.56
359.745	62.56
360.209	68.26
360.673	56.16
361.136	65.36
361.6	70.26
362.064	71.76
362.527	69.26
362.991	73.46
363.454	60.46
363.918	64.76
364.381	68.76
364.845	70.06
365.308	72.86
365.772	74.96
366.235	74.66
366.698	73.56
367.162	70.86
367.625	73.56
368.088	77.16
368.552	74.66
369.015	73.66
369.478	85.46
369.941	83.66
370.404	74.76
370.867	83.56
371.331	90.36
371.794	90.56
372.257	90.66
372.72	91.36
373.183	89.26
373.646	83.36
374.109	89.16
374.572	97.06
375.035	92.16
375.497	87.16
375.96	91.56
376.423	88.86
376.886	99.76
377.349	97.36
377.811	91.46
378.274	97.96
378.737	96.66
379.199	96.96
379.662	97.16
380.125	102.26
380.587	97.56
381.05	107.06
381.512	111.26
381.975	113.56
382.437	111.66
382.9	112.36
383.362	115.06
383.825	123.06
384.287	127.76
384.75	123.46
385.212	124.66
385.674	124.96
386.136	118.16
386.599	112.76
387.061	118.36
387.523	116.46
387.985	129.96
388.447	130.86
388.91	125.06
389.372	140.16
389.834	139.56
390.296	128.46
390.758	135.76
391.22	146.66
391.682	174.96
392.144	236.96
392.606	189.06
393.068	152.76
393.529	151.36
393.991	145.16
394.453	137.06
394.915	140.06
395.377	156.76
395.838	181.26
396.3	141.36
396.762	130.36
397.224	124.76
397.685	118.76
398.147	119.46
398.608	115.46
399.07	119.96
399.531	124.46
399.993	132.86
400.454	141.06
400.916	136.66
401.377	135.36
401.839	135.26
402.3	142.16
402.762	154.76
403.223	165.36
403.684	154.76
404.145	151.26
404.607	155.56
405.068	149.36
405.529	158.96
405.99	165.16
406.451	162.26
406.913	165.36
407.374	154.16
407.835	150.06
408.296	160.76
408.757	158.16
409.218	168.56
409.679	165.06
410.14	167.56
410.601	170.76
411.062	166.56
411.522	178.86
411.983	172.26
412.444	165.46
412.905	169.86
413.366	179.06
413.826	190.66
414.287	202.56
414.748	248.06
415.208	235.86
415.669	198.06
416.13	194.86
416.59	197.56
417.051	207.66
417.511	207.46
417.972	219.46
418.432	238.36
418.893	273.66
419.353	233.76
419.814	193.96
420.274	172.06
420.734	167.96
421.195	183.56
421.655	191.66
422.115	186.16
422.576	185.16
423.036	195.06
423.496	200.66
423.956	212.36
424.416	224.86
424.876	259.66
425.336	238.06
425.797	244.26
426.257	243.56
426.717	232.96
427.177	225.06
427.637	214.26
428.097	226.36
428.556	236.26
429.016	255.66
429.476	251.56
429.936	261.06
430.396	268.86
430.856	280.36
431.315	308.06
431.775	333.86
432.235	364.66
432.694	337.46
433.154	337.26
433.614	369.56
434.073	317.96
434.533	269.56
434.993	258.16
435.452	266.26
435.912	277.86
436.371	270.66
436.83	266.26
437.29	249.96
437.749	238.86
438.209	225.36
438.668	252.76
439.127	267.66
439.587	250.56
440.046	232.26
440.505	259.16
440.964	257.46
441.424	300.06
441.883	291.76
442.342	248.96
442.801	214.36
443.26	219.16
443.719	215.06
444.178	219.16
444.637	203.96
445.096	210.46
445.555	219.36
446.014	218.16
446.473	223.36
446.932	224.86
447.391	215.16
447.849	223.06
448.308	211.56
448.767	210.56
449.226	226.46
449.685	226.36
450.143	236.46
450.602	229.96
451.061	220.36
451.519	222.36
451.978	222.36
452.436	219.46
452.895	232.26
453.353	238.66
453.812	232.36
454.27	230.36
454.729	236.56
455.187	231.76
455.646	230.36
456.104	238.66
456.562	252.36
457.021	259.16
457.479	254.26
457.937	264.16
458.395	247.16
458.854	244.16
459.312	243.66
459.77	263.96
460.228	255.16
460.686	238.16
461.144	247.26
461.602	232.66
462.06	233.56
462.518	242.06
462.976	252.76
463.434	245.36
463.892	259.76
464.35	265.16
464.808	275.76
465.266	257.96
465.724	257.16
466.181	271.66
466.639	260.16
467.097	284.66
467.555	288.46
468.012	290.76
468.47	307.06
468.928	318.36
469.385	329.36
469.843	335.06
470.3	345.16
470.758	350.56
471.215	370.26
471.673	388.66
472.13	390.56
472.588	400.56
473.045	363.66
473.503	371.36
473.96	388.36
474.417	394.66
474.875	421.46
475.332	458.76
475.789	453.46
476.246	455.06
476.704	467.86
477.161	496.76
477.618	502.96
478.075	547.46
478.532	597.46
478.989	663.76
479.446	766.76
479.903	746.86
480.36	784.06
480.817	830.86
481.274	931.26
481.731	1021.86
482.188	1117.06
482.645	1247.36
483.102	1340.16
483.558	1477.96
484.015	1524.96
484.472	1490.76
484.929	1450.06
485.385	1418.76
485.842	1380.26
486.299	1305.86
486.755	1241.36
487.212	1065.76
487.668	889.16
488.125	824.96
488.582	758.76
489.038	718.36
489.494	681.56
489.951	666.16
490.407	645.36
490.864	629.56
491.32	618.06
491.776	619.86
492.233	627.86
492.689	584.86
493.145	584.06
493.602	579.76
494.058	591.26
494.514	599.96
494.97	622.86
495.426	622.06
495.882	602.76
496.338	588.66
496.794	615.16
497.251	597.56
497.707	614.86
498.163	614.56
498.618	627.16
499.074	621.56
499.53	658.36
499.986	659.96
500.442	636.36
500.898	623.86
501.354	602.56
501.809	615.26
502.265	618.66
502.721	646.36
503.177	648.96
503.632	649.06
504.088	654.66
504.543	689.96
504.999	684.56
505.455	644.16
505.91	620.56
506.366	620.96
506.821	607.16
507.277	615.56
507.732	612.16
508.187	614.66
508.643	621.36
509.098	621.86
509.553	644.06
510.009	649.86
510.464	654.26
510.919	686.26
511.375	674.56
511.83	687.06
512.285	705.46
512.74	735.46
513.195	770.16
513.65	747.66
514.105	753.46
514.56	741.16
515.015	770.86
515.47	787.76
515.925	768.56
516.38	776.66
516.835	776.06
517.29	750.06
517.745	758.16
518.2	755.16
518.655	729.76
519.109	714.16
519.564	728.16
520.019	715.46
520.474	705.56
520.928	713.86
521.383	717.56
521.838	691.06
522.292	700.66
522.747	702.96
523.201	693.66
523.656	691.86
524.11	685.56
524.565	681.16
525.019	675.06
525.474	690.06
525.928	675.06
526.382	682.66
526.837	678.26
527.291	685.96
527.745	687.66
528.2	681.96
528.654	673.06
529.108	672.56
529.562	682.96
530.016	671.46
530.47	672.36
530.925	682.66
531.379	686.36
531.833	685.16
532.287	683.56
532.741	684.76
533.195	683.66
533.649	691.96
534.103	701.56
534.556	691.86
535.01	706.16
535.464	688.86
535.918	710.26
536.372	700.16
536.826	700.86
537.279	688.06
537.733	705.16
538.187	691.16
538.64	694.56
539.094	705.76
539.548	719.06
540.001	712.36
540.455	710.36
540.908	725.96
541.362	719.46
541.815	733.46
542.269	742.96
542.722	745.16
543.175	749.16
543.629	761.76
544.082	774.36
544.536	770.06
544.989	767.46
545.442	771.46
545.895	779.06
546.349	780.16
546.802	779.06
547.255	784.86
547.708	788.56
548.161	805.86
548.614	807.76
549.067	814.66
549.52	805.96
549.973	786.36
550.426	797.36
550.879	768.26
551.332	780.56
551.785	791.26
552.238	783.66
552.691	800.96
553.144	819.66
553.596	823.56
554.049	842.56
554.502	875.96
554.955	894.86
555.407	893.96
555.86	878.56
556.313	864.66
556.765	859.56
557.218	863.36
557.67	858.86
558.123	855.16
558.576	858.66
559.028	867.66
559.48	867.46
559.933	854.56
560.385	824.96
560.838	802.46
561.29	771.56
561.742	773.66
562.195	760.36
562.647	749.96
563.099	771.46
563.551	750.96
564.004	765.76
564.456	744.86
564.908	742.46
565.36	733.06
565.812	717.86
566.264	713.56
566.716	709.36
567.168	695.76
567.62	696.26
568.072	686.36
568.524	685.96
568.976	678.56
569.428	668.36
569.88	660.56
570.332	675.36
570.784	672.26
571.235	671.46
571.687	687.46
572.139	683.36
572.59	697.66
573.042	695.96
573.494	699.16
573.945	686.26
574.397	666.56
574.849	674.26
575.3	681.26
575.752	670.26
576.203	664.26
576.655	664.76
577.106	662.26
577.557	647.96
578.009	669.56
578.46	661.26
578.912	644.66
579.363	655.76
579.814	649.26
580.265	645.66
580.717	656.96
581.168	663.76
581.619	664.86
582.07	652.26
582.521	660.16
582.972	657.26
583.423	666.96
583.875	663.06
584.326	685.56
584.777	721.26
585.227	782.26
585.678	866.16
586.129	941.16
586.58	999.56
587.031	1084.16
587.482	1193.46
587.933	1348.76
588.384	1193.16
588.834	926.66
589.285	775.06
589.736	768.46
590.186	753.66
590.637	755.16
591.088	724.86
591.538	724.66
591.989	719.46
592.439	708.46
592.89	699.66
593.34	692.56
593.791	701.96
594.241	685.46
594.692	693.96
595.142	678.26
595.593	684.46
596.043	696.56
596.493	701.86
596.943	701.26
597.394	704.26
597.844	702.66
598.294	717.16
598.744	739.86
599.195	762.76
599.645	810.06
600.095	834.56
600.545	901.56
600.995	951.06
601.445	1006.66
601.895	1062.36
602.345	1109.86
602.795	1096.46
603.245	1052.96
603.695	989.46
604.145	929.36
604.594	890.96
605.044	828.46
605.494	772.26
605.944	744.96
606.393	722.06
606.843	715.46
607.293	706.56
607.743	711.26
608.192	728.66
608.642	732.66
609.091	750.96
609.541	755.76
609.99	751.76
610.44	745.66
610.889	701.96
611.339	688.86
611.788	673.76
612.238	674.76
612.687	695.96
613.136	700.56
613.586	716.66
614.035	712.46
614.484	732.26
614.933	741.66
615.383	731.36
615.832	722.86
616.281	698.36
616.73	681.76
617.179	648.06
617.628	639.96
618.077	609.96
618.526	608.76
618.975	606.26
619.424	599.06
619.873	595.26
620.322	608.26
620.771	594.06
621.22	588.56
621.669	580.96
622.118	575.86
622.567	568.06
623.015	550.46
623.464	565.66
623.913	539.06
624.361	548.66
624.81	540.76
625.259	535.96
625.707	545.86
626.156	540.56
626.604	557.26
627.053	546.56
627.501	551.46
627.95	556.86
628.398	566.76
628.847	552.86
629.295	557.36
629.744	553.16
630.192	550.86
630.64	561.76
631.089	548.76
631.537	552.16
631.985	555.36
632.433	568.46
632.881	576.36
633.33	613.56
633.778	609.36
634.226	550.76
634.674	551.76
635.122	557.76
635.57	570.66
636.018	592.96
636.466	559.06
636.914	550.86
637.362	560.76
637.81	561.46
638.258	561.86
638.705	564.66
639.153	595.06
639.601	609.76
640.049	630.66
640.497	660.86
640.944	675.86
641.392	624.26
641.84	592.46
642.287	562.96
642.735	552.96
643.182	557.46
643.63	558.56
644.078	567.16
644.525	574.56
644.973	575.36
645.42	580.46
645.867	607.96
646.315	625.96
646.762	647.26
647.21	674.66
647.657	697.26
648.104	735.16
648.551	750.16
648.999	819.46
649.446	891.36
649.893	980.66
650.34	1123.26
650.787	1342.06
651.234	1662.96
651.682	2189.76
652.129	2998.76
652.576	4293.36
653.023	6358.06
653.47	8716.86
653.917	10815.06
654.363	12436.36
654.81	13757.06
655.257	13066.26
655.704	8533.16
656.151	5046.06
656.598	3268.46
657.044	2332.16
657.491	1796.76
657.938	1430.36
658.385	1203.66
658.831	1032.06
659.278	927.06
659.724	826.46
660.171	769.16
660.618	699.26
661.064	669.36
661.511	655.66
661.957	628.36
662.404	632.86
662.85	638.26
663.296	609.26
663.743	540.66
664.189	520.76
664.635	519.16
665.082	512.76
665.528	510.96
665.974	510.96
666.42	495.66
666.867	485.76
667.313	473.56
667.759	465.96
668.205	466.66
668.651	470.06
669.097	463.96
669.543	470.86
669.989	450.36
670.435	438.86
670.881	438.16
671.327	436.06
671.773	456.16
672.219	478.26
672.665	544.66
673.11	578.16
673.556	612.26
674.002	657.86
674.448	639.36
674.893	536.26
675.339	462.46
675.785	434.66
676.23	403.16
676.676	390.46
677.122	371.56
677.567	358.56
678.013	363.86
678.458	356.36
678.904	351.06
679.349	342.36
679.794	339.46
680.24	340.16
680.685	339.76
681.131	340.16
681.576	346.36
682.021	346.56
682.466	344.06
682.912	343.46
683.357	344.66
683.802	374.56
684.247	403.56
684.692	448.96
685.137	484.96
685.583	533.46
686.028	559.96
686.473	512.66
686.918	438.56
687.363	410.46
687.807	384.26
688.252	362.86
688.697	350.46
689.142	334.76
689.587	321.36
690.032	315.36
690.477	335.46
690.921	343.26
691.366	373.66
691.811	394.46
692.255	423.76
692.7	457.56
693.145	500.56
693.589	702.16
694.034	1129.76
694.478	1522.86
694.923	1703.36
695.367	2214.66
695.812	1173.26
696.256	483.26
696.701	362.56
697.145	333.36
697.59	323.36
698.034	317.16
698.478	318.86
698.922	315.56
699.367	325.56
699.811	332.66
700.255	352.66
700.699	375.26
701.143	410.86
701.588	469.66
702.032	504.96
702.476	501.56
702.92	479.86
703.364	485.26
703.808	633.06
704.252	1027.56
704.696	1440.46
705.14	1642.26
705.584	2088.96
706.027	1047.36
706.471	506.76
706.915	384.16
707.359	347.26
707.803	314.86
708.246	302.66
708.69	301.26
709.134	304.16
709.577	305.16
710.021	307.66
710.465	305.66
710.908	295.46
711.352	295.26
711.795	302.26
712.239	339.46
712.682	382.76
713.126	410.36
713.569	456.26
714.012	353.06
714.456	318.26
714.899	287.16
715.342	265.16
715.786	251.76
716.229	246.86
716.672	253.06
717.115	245.36
717.558	241.76
718.002	256.76
718.445	263.26
718.888	285.26
719.331	285.66
719.774	300.16
720.217	296.66
720.66	285.26
721.103	262.86
721.546	249.86
721.989	244.66
722.432	233.06
722.874	232.26
723.317	223.56
723.76	238.56
724.203	252.86
724.645	313.26
725.088	436.56
725.531	555.56
725.974	626.76
726.416	543.86
726.859	302.36
727.301	246.86
727.744	240.76
728.187	223.86
728.629	234.66
729.071	242.76
729.514	256.46
729.956	264.96
730.399	285.56
730.841	293.56
731.283	265.56
731.726	261.06
732.168	253.86
732.61	266.56
733.053	280.36
733.495	308.96
733.937	343.46
734.379	392.46
734.821	431.16
735.263	545.46
735.705	829.26
736.148	1569.86
736.59	2545.26
737.032	3007.76
737.474	2434.26
737.916	794.56
738.357	416.96
738.799	322.16
739.241	295.16
739.683	280.26
740.125	285.56
740.567	294.56
741.008	304.86
741.45	308.26
741.892	314.66
742.334	345.66
742.775	351.66
743.217	332.06
743.658	260.76
744.1	250.16
744.542	260.26
744.983	308.26
745.425	337.26
745.866	328.46
746.307	276.46
746.749	278.46
747.19	321.06
747.632	453.06
748.073	883.76
748.514	1854.06
748.956	2802.76
749.397	3541.76
749.838	2938.16
750.279	2894.46
750.72	1456.26
751.162	542.86
751.603	314.36
752.044	246.06
752.485	212.66
752.926	211.86
753.367	201.56
753.808	186.96
754.249	185.06
754.69	181.06
755.131	176.66
755.572	182.26
756.013	168.06
756.453	178.16
756.894	187.36
757.335	191.16
757.776	196.86
758.216	194.06
758.657	190.76
759.098	198.76
759.538	218.76
759.979	262.36
760.42	372.86
760.86	716.26
761.301	1831.66
761.741	4416.06
762.182	6327.56
762.622	4444.76
763.063	1295.96
763.503	532.86
763.943	337.36
764.384	323.16
764.824	364.36
765.264	390.26
765.705	272.66
766.145	201.16
766.585	182.16
767.025	173.46
767.465	168.06
767.906	228.76
768.346	282.16
768.786	303.56
769.226	251.46
769.666	311.56
770.106	619.06
770.546	1554.96
770.986	2603.96
771.426	2320.36
771.866	774.26
772.306	324.66
772.745	206.96
773.185	166.66
773.625	162.96
774.065	162.46
774.505	188.56
774.944	291.56
775.384	599.96
775.824	1054.46
776.263	1031.46
776.703	436.06
777.142	213.96
777.582	150.06
778.021	130.96
778.461	129.26
778.9	128.36
779.34	127.66
779.779	112.66
780.219	109.96
780.658	109.76
781.097	111.66
781.537	108.96
781.976	105.46
782.415	99.66
782.855	101.96
783.294	101.86
783.733	101.56
784.172	105.16
784.611	101.96
785.05	113.06
785.489	109.26
785.928	114.76
786.367	122.26
786.806	121.76
787.245	125.16
787.684	128.46
788.123	141.16
788.562	130.06
789.001	132.06
789.44	109.66
789.879	121.86
790.317	117.36
790.756	121.46
791.195	123.76
791.634	149.36
792.072	202.16
792.511	365.26
792.95	1019.66
793.388	2110.66
793.827	1908.76
794.265	663.66
794.704	276.36
795.142	179.06
795.581	157.26
796.019	132.96
796.458	125.96
796.896	125.36
797.334	127.76
797.773	161.66
798.211	219.76
798.649	435.06
799.087	1011.86
799.526	1580.46
799.964	1982.86
800.402	1980.06
800.84	745.06
801.278	296.46
801.716	175.96
802.154	148.06
802.592	152.86
803.03	140.46
803.468	136.76
803.906	144.76
804.344	152.06
804.782	140.76
805.22	129.66
805.658	126.76
806.096	144.36
806.533	163.06
806.971	176.26
807.409	220.16
807.847	321.66
808.284	671.56
808.722	1867.16
809.16	3253.56
809.597	3123.76
810.035	5400.26
810.472	5687.66
810.91	2051.96
811.347	783.26
811.785	397.66
812.222	245.66
812.66	190.06
813.097	169.46
813.535	143.46
813.972	126.66
814.409	121.96
814.846	111.46
815.284	111.46
815.721	98.76
816.158	104.06
816.595	118.96
817.032	164.16
817.47	192.46
817.907	146.16
818.344	129.16
818.781	108.86
819.218	104.16
819.655	120.96
820.092	189.26
820.529	213.96
820.966	168.46
821.403	123.56
821.839	97.76
822.276	98.86
822.713	116.76
823.15	130.66
823.587	115.46
824.023	144.16
824.46	305.16
824.897	895.66
825.333	1332.16
825.77	569.46
826.206	231.26
826.643	132.26
827.08	101.56
827.516	84.86
827.953	80.96
828.389	83.96
828.825	66.56
829.262	63.26
829.698	59.16
830.135	63.86
830.571	61.26
831.007	65.76
831.443	57.76
831.88	64.86
832.316	64.66
832.752	60.86
833.188	67.76
833.624	63.76
834.06	66.46
834.497	59.76
834.933	70.36
835.369	71.76
835.805	72.16
836.241	81.26
836.677	78.86
837.112	85.36
837.548	99.86
837.984	140.06
838.42	198.16
838.856	500.86
839.292	1506.36
839.727	2259.36
840.163	1060.36
840.599	923.46
841.034	2018.46
841.47	2084.96
841.906	757.26
842.341	322.36
842.777	226.76
843.212	286.66
843.648	279.76
844.083	136.56
844.519	95.26
844.954	70.76
845.39	56.56
845.825	60.96
846.261	57.06
846.696	55.76
847.131	54.36
847.566	51.96
848.002	54.16
848.437	62.06
848.872	61.16
849.307	60.56
849.742	85.96
850.177	176.56
850.613	554.46
851.048	865.66
851.483	378.66
851.918	147.56
852.353	88.36
852.788	56.76
853.223	53.76
853.657	56.46
854.092	51.66
854.527	44.16
854.962	37.76
855.397	46.96
855.832	43.86
856.266	47.46
856.701	42.96
857.136	40.36
857.57	38.26
858.005	49.96
858.44	57.46
858.874	44.06
859.309	52.16
859.743	35.16
860.178	46.56
860.612	42.46
861.047	51.06
861.481	62.96
861.915	72.76
862.35	49.36
862.784	36.06
863.218	40.86
863.653	29.06
864.087	47.56
864.521	53.46
864.955	69.86
865.39	150.96
865.824	168.96
866.258	113.96
866.692	163.16
867.126	176.76
867.56	106.56
867.994	56.56
868.428	45.26
868.862	44.26
869.296	55.26
869.73	54.76
870.164	54.36
870.598	47.76
871.031	39.66
871.465	32.06
871.899	33.76
872.333	21.86
872.766	30.06
873.2	19.86
873.634	26.26
874.067	27.86
874.501	24.96
874.935	36.66
875.368	31.26
875.802	27.86
876.235	26.46
876.669	27.76
877.102	28.66
877.535	24.76
877.969	24.26
878.402	28.16
878.836	23.26
879.269	22.76
879.702	29.46
880.135	21.46
880.569	23.96
881.002	32.96
881.435	23.86
881.868	14.06
882.301	22.76
882.734	15.86
883.167	22.26
883.601	17.86
884.034	25.06
884.467	18.56
884.899	17.16
885.332	12.06
885.765	16.06
886.198	18.26
886.631	21.26
887.064	22.76
887.497	18.76
887.929	22.86
888.362	12.06
888.795	12.06
889.228	17.06
889.66	19.86
890.093	20.36
890.526	17.56
890.958	17.16
891.391	12.66
891.823	24.76
892.256	19.36
892.688	14.16
893.121	13.26
893.553	13.86
893.985	19.86
894.418	15.86
894.85	13.96
895.282	19.66
895.715	18.56
896.147	23.86
896.579	19.06
897.011	12.66
897.444	17.86
897.876	12.06
898.308	18.96
898.74	13.66
899.172	14.26
899.604	19.56
900.036	21.66
900.468	16.06
900.9	14.96
901.332	17.56
901.764	11.66
902.196	17.26
902.628	11.56
903.06	18.96
903.491	27.46
903.923	19.56
904.355	20.06
904.787	20.86
905.218	17.36
905.65	20.76
906.082	14.56
906.513	8.36
906.945	19.26
907.376	12.76
907.808	19.56
908.239	19.06
908.671	16.06
909.102	21.36
909.534	26.36
909.965	47.16
910.397	89.86
910.828	310.26
911.259	462.96
911.691	211.96
912.122	107.96
912.553	59.06
912.984	34.96
913.415	27.76
913.847	34.06
914.278	11.06
914.709	11.76
915.14	17.26
915.571	22.36
916.002	16.86
916.433	17.46
916.864	19.96
917.295	12.86
917.726	17.96
918.157	15.46
918.587	32.46
919.018	24.16
919.449	23.56
919.88	23.36
920.311	34.96
920.741	48.06
921.172	164.56
921.603	152.76
922.033	72.06
922.464	43.96
922.895	19.86
923.325	19.26
923.756	16.76
924.186	14.56
924.617	30.26
925.047	36.96
925.478	37.86
925.908	33.06
926.338	21.06
926.769	14.06
927.199	16.36
927.629	8.86
928.06	19.16
928.49	9.86
928.92	16.76
929.35	13.26
929.78	9.66
930.21	7.16
930.641	6.06
931.071	8.56
931.501	5.46
931.931	10.86
932.361	7.66
932.791	2.96
933.221	5.26
933.651	2.66
934.08	23.16
934.51	31.56
934.94	12.96
935.37	9.46
935.8	17.16
936.229	10.96
936.659	6.26
937.089	4.26
937.519	10.66
937.948	21.96
938.378	17.56
938.807	6.86
939.237	7.56
939.666	10.96
940.096	-0.04
940.525	2.66
940.955	7.06
941.384	7.46
941.814	-1.04
942.243	-3.94
942.672	3.96
943.102	-5.14
943.531	2.46
943.96	0.46
944.39	4.96
944.819	-1.94
945.248	2.76
945.677	4.66
946.106	5.76
946.535	5.66
946.964	3.26
947.393	10.66
947.822	3.26
948.251	2.76
948.68	6.56
949.109	2.76
949.538	9.76
949.967	-4.44
950.396	-0.44
950.825	-0.04
951.254	1.36
951.682	-7.14
952.111	10.06
952.54	5.06
952.969	-4.24
953.397	-4.34
953.826	-3.54
954.254	-5.14
954.683	3.86
955.112	-0.64
955.54	0.36
955.969	-1.04
956.397	2.66
956.826	-3.24
957.254	6.56
957.682	2.76
958.111	7.96
958.539	-5.84
958.967	1.86
959.396	-2.54
959.824	3.16
960.252	3.46
960.68	-4.74
961.109	0.96
961.537	-8.04
961.965	-1.64
962.393	-1.84
962.821	-0.24
963.249	2.76
963.677	3.96
964.105	4.76
964.533	46.06
964.961	40.96
965.389	18.56
965.817	11.76
966.245	0.36
966.672	-0.64
967.1	-7.94
967.528	1.66
967.956	-0.84
968.383	-2.14
968.811	-7.94
969.239	-1.64
969.666	-5.14
970.094	-0.34
970.522	1.16
970.949	-5.74
971.377	-0.34
971.804	1.46
972.232	-2.14
972.659	-1.54
973.087	-4.34
973.514	1.66
973.941	0.36
974.369	7.36
974.796	2.86
975.223	-4.94
975.651	-2.84
976.078	-0.64
976.505	2.96
976.932	3.06
977.359	14.76
977.786	11.66
978.214	7.16
978.641	0.46
979.068	-0.04
979.495	-9.34
979.922	3.06
980.349	-2.64
980.776	2.26
981.202	-1.84
981.629	7.76
982.056	8.16
982.483	-0.64
982.91	0.16
983.337	-9.64
983.763	5.86
984.19	-0.74
984.617	-2.84
985.043	-4.44
985.47	-2.14
985.897	-5.34
986.323	-10.54
986.75	8.96
987.176	-2.14
987.603	3.56
988.029	-0.94
988.456	0.16
988.882	4.36
989.308	-0.74
989.735	-4.14
990.161	-3.14
990.587	-7.94
991.014	0.26
991.44	3.76
991.866	-5.84
992.292	-4.84
992.719	0.56
993.145	-1.74
993.571	-7.54
993.997	-2.34
994.423	2.26
994.849	-4.04
995.275	1.86
995.701	-2.24
996.127	-9.34
996.553	1.76
996.979	-3.94
997.405	2.56
997.83	-10.24
998.256	-3.44
998.682	-2.34
999.108	-4.84
999.534	2.46
999.959	1.76
1000.385	-6.54
1000.811	-2.84
1001.236	-10.04
1001.662	-8.14
1002.087	-13.24
1002.513	-0.54
1002.938	2.66
1003.364	2.16
1003.789	-0.44
1004.215	10.66
1004.64	-2.84
1005.066	-1.44
1005.491	-2.44
1005.916	0.66
1006.342	0.86
1006.767	-3.44
1007.192	7.56
1007.617	-5.74
1008.042	-3.64
1008.468	-5.94
1008.893	-5.94
1009.318	0.76
1009.743	-3.34
1010.168	-2.14
1010.593	-0.14
1011.018	-3.04
1011.443	-2.44
1011.868	2.16
1012.293	-1.94
1012.718	-7.64
1013.143	-3.24
1013.567	2.26
1013.992	-3.34
1014.417	-14.64
1014.842	-0.74
1015.267	-6.84
1015.691	-3.74
1016.116	2.56
1016.541	-5.34
1016.965	0.06
1017.39	-0.54
1017.814	-4.74
1018.239	0.66
1018.663	-6.34
1019.088	-12.34
1019.512	-1.04
1019.937	-0.24
1020.361	-1.84
1020.785	-12.84
1021.21	1.06
1021.634	-2.74
1022.058	-0.84
1022.483	2.36
1022.907	-2.64
1023.331	-9.14
1023.755	-1.44
1024.179	-3.24
1024.604	-7.04
1025.028	-4.54
1025.452	-7.44
1025.876	-1.94
1026.3	-4.74
1026.724	-10.24
1027.148	-9.24
1027.572	-5.64
1027.996	-4.24
1028.42	2.96
1028.843	-2.44
1029.267	-6.54
1029.691	3.16
1030.115	-12.14
1030.539	-4.04
1030.962	-2.64
1031.386	-12.14
1031.81	-0.14
1032.233	2.46
1032.657	0.46
1033.08	-6.54
1033.504	-3.54
1033.927	-2.34
1034.351	0.26
1034.774	0.36
1035.198	-1.84
1035.621	-4.54
1036.045	-12.34
1036.468	0.66
1036.891	-6.94
1037.315	-2.44
1037.738	-8.64
1038.161	1.16
1038.584	-6.04
1039.008	-5.04
1039.431	2.26
1039.854	0.86
1040.277	-9.04
1040.7	-11.84
1041.123	-0.94
1041.546	-8.94
1041.969	-4.44
1042.392	-7.44
1042.815	-2.04
1043.238	3.16
1043.661	-0.54
1044.084	-5.74
1044.507	-7.14
1044.93	-6.94
1045.352	-11.44
1045.775	2.66
1046.198	-2.44
1046.621	0.06
1047.043	2.26
1047.466	6.16
1047.889	-2.04
1048.311	-7.14
1048.734	-0.04
1049.156	-2.64
1049.579	0.06
1050.001	-4.04
1050.424	2.16
1050.846	-5.74
1051.269	-3.44
1051.691	-4.94
1052.113	-0.04
1052.536	-2.44
1052.958	-2.44
1053.38	-5.14
1053.802	-6.14
1054.225	3.66
1054.647	-8.24
1055.069	-1.24
1055.491	0.96
1055.913	-12.44
1056.335	-0.54
1056.757	-0.04
1057.179	-2.44
1057.601	-4.94
1058.023	-4.84
1058.445	3.66
1058.867	-6.64
1059.289	-6.74
1059.711	-6.44
1060.133	-1.54
1060.555	-7.34
1060.976	-1.34
1061.398	-2.74
1061.82	-4.44
1062.241	-3.84
1062.663	-12.34
1063.085	-5.34
1063.506	-3.44
1063.928	-4.04
1064.35	-0.74
1064.771	-8.04
1065.193	-2.04
1065.614	-5.44
1066.035	-1.04
1066.457	-0.54
1066.878	2.36
1067.3	-4.24
1067.721	3.76
1068.142	-3.24
1068.564	-0.24
1068.985	-2.94
1069.406	-4.64
1069.827	-4.14
1070.248	1.96
1070.67	-9.74
1071.091	-7.04
1071.512	1.06
1071.933	-4.14
1072.354	-3.04
1072.775	-7.44
1073.196	-8.14
1073.617	-1.74
1074.038	-6.04
1074.459	-3.64
1074.88	-12.14
1075.3	-0.24
1075.721	-8.34
1076.142	2.56
1076.563	-0.54
1076.983	-10.44
1077.404	-6.74
1077.825	-11.74
1078.246	-3.84
1078.666	-8.64
1079.087	-3.74
1079.507	-11.54
1079.928	-0.34
1080.348	-7.24
1080.769	-8.34
1081.189	-5.24
1081.61	-8.34
1082.03	-10.74
1082.451	-7.14
1082.871	-7.14
1083.291	-9.64
1083.711	-5.64
1084.132	-4.84
1084.552	-2.64
1084.972	1.26
1085.392	-8.64
1085.813	-7.84
1086.233	-6.34
1086.653	-5.34
1087.073	1.66
1087.493	-5.44
1087.913	-9.44
1088.333	-7.64
1088.753	-5.84
1089.173	1.46
1089.593	-5.74
1090.013	-3.24
1090.433	-1.24
1090.852	-2.44
1091.272	-1.64
1091.692	-3.44
1092.112	1.66
1092.531	-14.34
1092.951	-14.94
1093.371	-2.84
1093.79	-2.34
1094.21	-5.04
1094.63	-9.64
1095.049	-5.64
1095.469	-6.04
1095.888	0.06
1096.308	4.06
1096.727	2.76
1097.146	-3.84
1097.566	-0.74
1097.985	-6.94
1098.405	1.06
1098.824	-6.74
1099.243	-6.54
1099.662	-7.94
1100.082	-5.74
1100.501	-3.44
1100.92	-8.24
1101.339	-3.54
1101.758	-3.04
