Data from 20171114-ORNL-Ar_H_NY_Subt18_08-07-27-886.txt Node
Date: Tue Nov 14 08:07:27 EST 2017
User: Ender
Spectrometer: HR+D1039
Trigger mode: 0
Integration Time (sec): 2.730000E-2
Scans to average: 10
Electric dark correction enabled: true
Nonlinearity correction enabled: false
Boxcar width: 0
XAxis mode: Wavelengths
Number of Pixels in Spectrum: 2048
>>>>>Begin Spectral Data<<<<<
187.836	-3.79
188.309	-3.79
188.782	-3.79
189.255	0.51
189.728	-5.89
190.201	7.51
190.674	-1.49
191.147	3.31
191.619	-9.39
192.092	2.11
192.565	5.71
193.038	1.01
193.511	0.21
193.984	-0.49
194.456	-0.09
194.929	3.81
195.402	-5.19
195.874	2.21
196.347	-1.89
196.82	-9.49
197.292	3.41
197.765	2.01
198.237	-5.19
198.71	1.01
199.182	-0.59
199.655	0.61
200.127	4.51
200.6	2.61
201.072	4.61
201.544	-6.49
202.017	-3.99
202.489	0.41
202.961	-2.69
203.433	-7.09
203.906	-6.49
204.378	-8.29
204.85	-1.69
205.322	-7.59
205.794	1.31
206.266	-4.99
206.739	-6.49
207.211	2.71
207.683	-7.69
208.155	-3.39
208.627	-9.29
209.099	-5.99
209.57	-5.49
210.042	-6.29
210.514	-2.99
210.986	-2.79
211.458	-7.49
211.93	-3.19
212.402	-1.19
212.873	-8.89
213.345	-3.79
213.817	-11.99
214.288	-0.69
214.76	-7.99
215.232	-0.69
215.703	-3.19
216.175	-10.49
216.646	-2.09
217.118	-10.49
217.589	-2.89
218.061	0.21
218.532	-8.19
219.004	1.31
219.475	-6.29
219.946	0.01
220.418	-2.59
220.889	9.51
221.36	3.21
221.832	-1.79
222.303	-8.99
222.774	6.11
223.245	-11.09
223.717	-8.19
224.188	-2.89
224.659	-8.29
225.13	-5.19
225.601	-4.29
226.072	-3.19
226.543	-4.79
227.014	-3.49
227.485	-2.19
227.956	-8.79
228.427	-2.69
228.898	-5.59
229.369	2.51
229.839	-7.09
230.31	-1.29
230.781	6.81
231.252	-4.59
231.722	-2.99
232.193	-4.19
232.664	1.01
233.135	-0.69
233.605	-0.79
234.076	-7.39
234.546	1.51
235.017	2.71
235.487	-0.29
235.958	-2.79
236.428	-3.29
236.899	0.41
237.369	1.01
237.84	-3.99
238.31	4.11
238.78	-2.79
239.251	-3.89
239.721	-3.49
240.191	-4.79
240.662	-5.59
241.132	-1.99
241.602	-3.49
242.072	-1.09
242.542	1.11
243.013	-8.69
243.483	0.41
243.953	-5.29
244.423	-0.59
244.893	-6.89
245.363	1.91
245.833	-0.69
246.303	-3.69
246.773	6.71
247.243	2.11
247.712	-1.69
248.182	5.61
248.652	2.21
249.122	-3.49
249.592	11.71
250.061	14.91
250.531	25.01
251.001	8.51
251.471	14.91
251.94	10.71
252.41	5.91
252.879	-1.29
253.349	4.01
253.818	1.51
254.288	1.11
254.757	3.41
255.227	-2.39
255.696	3.61
256.166	5.61
256.635	0.41
257.105	2.21
257.574	6.21
258.043	7.01
258.513	2.11
258.982	6.01
259.451	-2.89
259.92	9.91
260.389	3.21
260.859	16.61
261.328	1.01
261.797	13.11
262.266	8.61
262.735	5.61
263.204	-7.09
263.673	-6.49
264.142	2.71
264.611	-3.69
265.08	0.31
265.549	-2.69
266.018	0.31
266.487	-3.09
266.955	-4.39
267.424	-3.89
267.893	0.01
268.362	0.11
268.83	2.11
269.299	11.51
269.768	0.31
270.236	-0.69
270.705	-0.69
271.174	1.21
271.642	7.31
272.111	5.81
272.579	10.81
273.048	15.01
273.516	15.51
273.985	15.71
274.453	15.61
274.922	12.41
275.39	5.01
275.858	1.51
276.327	6.21
276.795	14.81
277.263	6.81
277.731	25.51
278.2	33.81
278.668	38.71
279.136	36.41
279.604	9.21
280.072	5.61
280.54	5.81
281.008	1.71
281.477	11.51
281.945	7.51
282.413	14.91
282.881	11.81
283.348	4.61
283.816	15.11
284.284	15.21
284.752	12.11
285.22	0.61
285.688	9.81
286.156	19.01
286.623	29.01
287.091	38.11
287.559	14.71
288.026	12.91
288.494	8.81
288.962	0.11
289.429	7.11
289.897	10.31
290.364	6.11
290.832	8.31
291.3	12.01
291.767	11.91
292.234	11.21
292.702	8.51
293.169	13.31
293.637	12.41
294.104	12.81
294.571	4.71
295.039	7.71
295.506	11.41
295.973	9.71
296.44	10.11
296.908	7.91
297.375	12.51
297.842	10.21
298.309	12.11
298.776	6.31
299.243	10.91
299.71	10.21
300.177	18.41
300.644	15.61
301.111	15.41
301.578	17.91
302.045	2.91
302.512	16.01
302.979	15.91
303.446	11.51
303.913	14.71
304.379	4.71
304.846	20.71
305.313	13.91
305.78	11.61
306.246	16.01
306.713	16.61
307.18	18.51
307.646	17.31
308.113	20.01
308.579	16.61
309.046	12.61
309.512	17.81
309.979	10.11
310.445	19.21
310.912	19.11
311.378	24.01
311.845	20.91
312.311	24.91
312.777	21.21
313.244	21.91
313.71	28.11
314.176	18.71
314.642	19.21
315.109	15.11
315.575	23.51
316.041	28.91
316.507	16.81
316.973	23.61
317.439	24.71
317.905	25.11
318.371	22.81
318.837	20.91
319.303	25.91
319.769	23.41
320.235	24.61
320.701	23.61
321.167	21.41
321.633	24.31
322.099	25.61
322.564	33.01
323.03	27.61
323.496	27.21
323.962	32.71
324.427	24.61
324.893	35.81
325.359	26.21
325.824	25.61
326.29	24.11
326.755	25.41
327.221	31.01
327.686	30.81
328.152	32.61
328.617	36.11
329.083	32.81
329.548	42.01
330.014	32.91
330.479	31.21
330.944	34.11
331.41	32.41
331.875	24.11
332.34	29.51
332.805	34.61
333.271	33.81
333.736	35.81
334.201	39.11
334.666	41.61
335.131	41.81
335.596	42.71
336.061	40.91
336.526	27.71
336.991	36.11
337.456	42.71
337.921	41.41
338.386	35.21
338.851	35.21
339.316	35.31
339.781	42.11
340.246	36.81
340.711	36.71
341.175	40.81
341.64	32.81
342.105	39.01
342.569	43.91
343.034	41.91
343.499	37.11
343.963	39.71
344.428	52.01
344.893	48.11
345.357	39.71
345.822	51.21
346.286	50.31
346.751	58.81
347.215	47.11
347.679	54.71
348.144	71.51
348.608	63.81
349.073	56.21
349.537	50.71
350.001	60.51
350.465	64.51
350.93	55.01
351.394	63.01
351.858	56.51
352.322	66.21
352.786	60.71
353.25	73.61
353.715	84.11
354.179	76.81
354.643	92.01
355.107	92.91
355.571	80.91
356.035	83.01
356.498	88.21
356.962	89.71
357.426	99.01
357.89	85.71
358.354	72.41
358.818	64.31
359.281	65.51
359.745	60.61
360.209	60.71
360.673	61.11
361.136	63.41
361.6	65.41
362.064	71.81
362.527	69.81
362.991	70.81
363.454	60.61
363.918	55.31
364.381	62.01
364.845	58.91
365.308	68.11
365.772	68.01
366.235	69.21
366.698	68.31
367.162	66.41
367.625	69.01
368.088	71.11
368.552	75.01
369.015	74.91
369.478	77.81
369.941	84.51
370.404	72.61
370.867	82.31
371.331	86.71
371.794	93.21
372.257	83.61
372.72	93.71
373.183	96.11
373.646	88.41
374.109	86.91
374.572	86.01
375.035	92.11
375.497	90.11
375.96	92.11
376.423	90.11
376.886	93.21
377.349	92.81
377.811	83.51
378.274	92.11
378.737	84.81
379.199	97.51
379.662	96.41
380.125	106.01
380.587	98.71
381.05	102.41
381.512	105.31
381.975	116.31
382.437	113.31
382.9	116.81
383.362	113.81
383.825	116.61
384.287	124.81
384.75	118.11
385.212	118.81
385.674	116.71
386.136	117.81
386.599	105.71
387.061	103.81
387.523	113.21
387.985	119.91
388.447	121.01
388.91	122.51
389.372	138.21
389.834	125.31
390.296	115.31
390.758	135.11
391.22	142.71
391.682	177.81
392.144	250.21
392.606	202.21
393.068	144.61
393.529	149.11
393.991	130.81
394.453	126.91
394.915	126.71
395.377	168.31
395.838	184.41
396.3	128.71
396.762	124.11
397.224	111.01
397.685	113.31
398.147	118.91
398.608	115.81
399.07	111.51
399.531	111.81
399.993	126.31
400.454	136.01
400.916	126.81
401.377	128.31
401.839	129.31
402.3	130.71
402.762	141.61
403.223	155.61
403.684	157.41
404.145	137.51
404.607	137.31
405.068	143.61
405.529	148.11
405.99	159.81
406.451	151.71
406.913	155.91
407.374	147.51
407.835	142.41
408.296	151.11
408.757	150.81
409.218	165.91
409.679	154.01
410.14	150.41
410.601	157.21
411.062	160.21
411.522	170.01
411.983	164.71
412.444	161.01
412.905	152.91
413.366	159.61
413.826	171.61
414.287	187.61
414.748	235.61
415.208	214.91
415.669	182.81
416.13	183.71
416.59	179.21
417.051	191.11
417.511	191.41
417.972	206.31
418.432	215.81
418.893	256.21
419.353	223.61
419.814	172.51
420.274	166.31
420.734	165.41
421.195	179.71
421.655	176.61
422.115	174.31
422.576	173.81
423.036	169.41
423.496	193.31
423.956	187.71
424.416	209.61
424.876	238.61
425.336	235.11
425.797	235.61
426.257	227.71
426.717	216.01
427.177	210.91
427.637	203.71
428.097	203.61
428.556	215.31
429.016	245.71
429.476	241.51
429.936	244.61
430.396	246.51
430.856	264.91
431.315	276.51
431.775	316.21
432.235	344.51
432.694	316.11
433.154	324.11
433.614	351.61
434.073	304.91
434.533	259.51
434.993	242.21
435.452	248.61
435.912	259.71
436.371	260.91
436.83	259.21
437.29	239.91
437.749	229.61
438.209	228.91
438.668	248.31
439.127	261.21
439.587	237.11
440.046	225.41
440.505	231.61
440.964	245.51
441.424	288.51
441.883	277.11
442.342	242.11
442.801	199.01
443.26	197.01
443.719	196.01
444.178	197.11
444.637	196.91
445.096	200.61
445.555	202.01
446.014	210.41
446.473	211.91
446.932	207.91
447.391	209.71
447.849	204.81
448.308	199.11
448.767	202.01
449.226	213.31
449.685	218.91
450.143	224.91
450.602	217.51
451.061	207.81
451.519	217.71
451.978	211.61
452.436	216.21
452.895	219.91
453.353	228.01
453.812	219.11
454.27	219.61
454.729	211.61
455.187	215.91
455.646	219.81
456.104	225.51
456.562	243.11
457.021	241.31
457.479	242.01
457.937	243.41
458.395	244.11
458.854	225.81
459.312	231.81
459.77	248.91
460.228	231.81
460.686	225.21
461.144	231.71
461.602	229.41
462.06	232.71
462.518	242.71
462.976	231.71
463.434	239.31
463.892	243.81
464.35	252.81
464.808	262.81
465.266	241.81
465.724	245.11
466.181	255.31
466.639	250.81
467.097	261.81
467.555	274.51
468.012	279.21
468.47	286.31
468.928	302.21
469.385	302.71
469.843	321.81
470.3	328.61
470.758	332.71
471.215	342.91
471.673	371.71
472.13	378.91
472.588	384.01
473.045	354.11
473.503	346.51
473.96	364.71
474.417	379.31
474.875	395.31
475.332	439.31
475.789	428.61
476.246	426.41
476.704	444.61
477.161	466.41
477.618	476.61
478.075	518.31
478.532	571.81
478.989	630.71
479.446	739.61
479.903	716.51
480.36	755.81
480.817	796.61
481.274	894.31
481.731	998.11
482.188	1068.71
482.645	1199.11
483.102	1298.61
483.558	1435.61
484.015	1488.71
484.472	1464.81
484.929	1413.41
485.385	1370.91
485.842	1316.31
486.299	1259.51
486.755	1189.31
487.212	1007.61
487.668	864.41
488.125	785.21
488.582	713.91
489.038	680.11
489.494	662.61
489.951	639.31
490.407	618.71
490.864	595.61
491.32	594.81
491.776	596.41
492.233	594.91
492.689	564.91
493.145	559.71
493.602	550.21
494.058	561.61
494.514	569.61
494.97	591.41
495.426	594.51
495.882	569.81
496.338	565.51
496.794	578.01
497.251	569.71
497.707	588.81
498.163	594.41
498.618	595.51
499.074	597.61
499.53	629.11
499.986	623.31
500.442	603.71
500.898	580.31
501.354	573.51
501.809	585.91
502.265	591.21
502.721	596.61
503.177	610.51
503.632	616.91
504.088	626.31
504.543	659.51
504.999	662.31
505.455	603.01
505.91	595.71
506.366	584.51
506.821	588.61
507.277	579.11
507.732	586.41
508.187	579.71
508.643	585.21
509.098	589.51
509.553	610.01
510.009	618.21
510.464	617.31
510.919	646.41
511.375	643.11
511.83	656.31
512.285	671.41
512.74	709.41
513.195	729.51
513.65	716.41
514.105	715.51
514.56	712.71
515.015	743.91
515.47	746.41
515.925	729.71
516.38	735.01
516.835	740.11
517.29	729.71
517.745	722.71
518.2	718.11
518.655	706.61
519.109	683.81
519.564	692.51
520.019	682.11
520.474	670.21
520.928	676.11
521.383	668.41
521.838	664.61
522.292	667.81
522.747	662.61
523.201	666.81
523.656	656.91
524.11	654.91
524.565	646.51
525.019	642.81
525.474	658.11
525.928	660.21
526.382	654.51
526.837	646.01
527.291	655.31
527.745	658.01
528.2	652.11
528.654	643.21
529.108	639.31
529.562	642.51
530.016	648.71
530.47	650.81
530.925	648.01
531.379	651.61
531.833	657.01
532.287	653.71
532.741	655.31
533.195	653.81
533.649	670.71
534.103	678.81
534.556	664.31
535.01	664.91
535.464	658.41
535.918	669.01
536.372	673.71
536.826	676.41
537.279	663.91
537.733	668.71
538.187	673.21
538.64	675.81
539.094	690.81
539.548	691.11
540.001	691.31
540.455	681.51
540.908	690.11
541.362	688.81
541.815	696.01
542.269	709.81
542.722	711.91
543.175	731.01
543.629	720.61
544.082	747.21
544.536	742.31
544.989	725.81
545.442	744.31
545.895	735.31
546.349	739.61
546.802	742.11
547.255	748.21
547.708	749.51
548.161	770.71
548.614	770.31
549.067	773.31
549.52	770.41
549.973	764.51
550.426	769.31
550.879	743.61
551.332	741.51
551.785	761.01
552.238	758.81
552.691	764.01
553.144	783.61
553.596	795.31
554.049	815.81
554.502	844.91
554.955	857.51
555.407	847.51
555.86	850.21
556.313	839.31
556.765	828.51
557.218	821.01
557.67	830.61
558.123	820.91
558.576	821.31
559.028	811.91
559.48	823.21
559.933	816.51
560.385	791.31
560.838	771.91
561.29	740.41
561.742	734.91
562.195	717.61
562.647	725.91
563.099	732.61
563.551	733.81
564.004	735.61
564.456	724.51
564.908	712.51
565.36	700.21
565.812	689.21
566.264	680.11
566.716	680.21
567.168	675.41
567.62	677.01
568.072	656.71
568.524	653.51
568.976	655.71
569.428	635.41
569.88	633.01
570.332	639.71
570.784	639.91
571.235	647.91
571.687	660.21
572.139	665.31
572.59	676.21
573.042	669.41
573.494	662.41
573.945	660.91
574.397	637.01
574.849	648.71
575.3	647.51
575.752	648.61
576.203	634.51
576.655	646.31
577.106	646.31
577.557	623.51
578.009	627.41
578.46	629.71
578.912	621.91
579.363	626.31
579.814	632.61
580.265	624.71
580.717	630.31
581.168	628.61
581.619	637.91
582.07	646.71
582.521	629.51
582.972	625.71
583.423	639.51
583.875	643.11
584.326	661.31
584.777	706.21
585.227	776.31
585.678	845.71
586.129	923.51
586.58	977.91
587.031	1055.41
587.482	1196.31
587.933	1351.81
588.384	1183.91
588.834	905.61
589.285	761.31
589.736	741.61
590.186	723.91
590.637	722.41
591.088	698.81
591.538	686.51
591.989	689.31
592.439	687.31
592.89	676.91
593.34	672.21
593.791	670.01
594.241	668.31
594.692	674.71
595.142	663.31
595.593	660.51
596.043	667.01
596.493	674.21
596.943	678.31
597.394	679.31
597.844	673.41
598.294	694.21
598.744	713.71
599.195	736.61
599.645	778.01
600.095	813.71
600.545	863.11
600.995	921.31
601.445	963.61
601.895	1028.41
602.345	1090.21
602.795	1050.41
603.245	1007.91
603.695	959.31
604.145	909.71
604.594	866.01
605.044	810.71
605.494	745.51
605.944	708.21
606.393	711.41
606.843	681.61
607.293	703.01
607.743	688.01
608.192	708.81
608.642	714.21
609.091	723.71
609.541	735.01
609.99	720.81
610.44	734.21
610.889	682.31
611.339	672.71
611.788	649.91
612.238	674.01
612.687	675.31
613.136	690.71
613.586	698.31
614.035	708.31
614.484	721.81
614.933	713.71
615.383	708.41
615.832	696.81
616.281	689.51
616.73	649.21
617.179	623.31
617.628	605.21
618.077	591.71
618.526	590.81
618.975	587.21
619.424	583.11
619.873	585.71
620.322	585.61
620.771	573.71
621.22	570.01
621.669	561.61
622.118	556.51
622.567	551.41
623.015	532.71
623.464	535.51
623.913	537.01
624.361	528.81
624.81	511.81
625.259	524.91
625.707	527.81
626.156	522.11
626.604	539.61
627.053	527.81
627.501	525.91
627.95	540.61
628.398	553.31
628.847	534.41
629.295	534.41
629.744	549.61
630.192	530.41
630.64	543.31
631.089	527.91
631.537	539.71
631.985	543.11
632.433	561.01
632.881	552.91
633.33	595.61
633.778	585.61
634.226	521.61
634.674	537.61
635.122	539.81
635.57	562.91
636.018	577.31
636.466	543.11
636.914	530.11
637.362	551.91
637.81	547.71
638.258	546.01
638.705	549.81
639.153	574.31
639.601	585.81
640.049	599.31
640.497	635.51
640.944	645.01
641.392	612.11
641.84	579.51
642.287	557.51
642.735	537.61
643.182	541.31
643.63	540.51
644.078	549.91
644.525	562.31
644.973	567.81
645.42	578.51
645.867	590.81
646.315	614.61
646.762	630.41
647.21	647.21
647.657	669.21
648.104	718.41
648.551	737.91
648.999	792.01
649.446	872.11
649.893	951.81
650.34	1093.91
650.787	1316.91
651.234	1644.31
651.682	2146.21
652.129	2947.31
652.576	4283.11
653.023	6322.31
653.47	8643.91
653.917	10752.81
654.363	12423.91
654.81	13733.51
655.257	13083.81
655.704	8476.91
656.151	4997.81
656.598	3230.01
657.044	2285.71
657.491	1762.01
657.938	1400.81
658.385	1179.31
658.831	1019.61
659.278	900.51
659.724	802.81
660.171	742.91
660.618	682.31
661.064	652.71
661.511	628.41
661.957	611.81
662.404	605.91
662.85	615.71
663.296	594.31
663.743	529.81
664.189	513.71
664.635	506.71
665.082	492.61
665.528	496.91
665.974	493.81
666.42	485.81
666.867	478.11
667.313	473.81
667.759	457.21
668.205	448.51
668.651	453.71
669.097	446.61
669.543	465.81
669.989	446.61
670.435	419.71
670.881	422.61
671.327	424.31
671.773	443.61
672.219	466.91
672.665	518.41
673.11	549.81
673.556	598.31
674.002	627.01
674.448	616.71
674.893	509.81
675.339	456.81
675.785	416.51
676.23	391.61
676.676	368.81
677.122	366.71
677.567	354.21
678.013	348.21
678.458	339.21
678.904	347.21
679.349	334.41
679.794	330.91
680.24	329.21
680.685	335.31
681.131	326.31
681.576	329.31
682.021	338.61
682.466	332.41
682.912	328.11
683.357	338.61
683.802	363.31
684.247	390.01
684.692	435.81
685.137	469.81
685.583	502.11
686.028	529.71
686.473	499.91
686.918	417.71
687.363	400.11
687.807	370.81
688.252	340.11
688.697	332.01
689.142	312.61
689.587	310.11
690.032	311.21
690.477	320.91
690.921	328.71
691.366	362.11
691.811	373.91
692.255	409.71
692.7	433.91
693.145	479.01
693.589	670.41
694.034	1090.31
694.478	1482.61
694.923	1656.51
695.367	2155.91
695.812	1138.61
696.256	470.91
696.701	345.31
697.145	322.81
697.59	314.31
698.034	307.01
698.478	317.91
698.922	305.61
699.367	315.41
699.811	317.71
700.255	337.11
700.699	367.11
701.143	408.21
701.588	462.41
702.032	498.01
702.476	491.21
702.92	460.21
703.364	468.41
703.808	614.61
704.252	1004.31
704.696	1388.61
705.14	1594.31
705.584	2026.91
706.027	1003.41
706.471	493.11
706.915	364.71
707.359	332.31
707.803	303.61
708.246	286.61
708.69	298.81
709.134	295.41
709.577	290.71
710.021	297.01
710.465	298.01
710.908	280.11
711.352	286.61
711.795	300.41
712.239	325.41
712.682	366.31
713.126	395.91
713.569	444.71
714.012	355.71
714.456	312.31
714.899	281.91
715.342	259.91
715.786	251.71
716.229	246.41
716.672	241.41
717.115	230.81
717.558	237.91
718.002	236.21
718.445	247.91
718.888	270.01
719.331	279.41
719.774	294.61
720.217	285.81
720.66	260.61
721.103	251.21
721.546	240.81
721.989	234.41
722.432	223.71
722.874	218.11
723.317	215.51
723.76	222.51
724.203	246.71
724.645	305.11
725.088	427.41
725.531	539.11
725.974	614.01
726.416	523.71
726.859	289.71
727.301	237.31
727.744	225.21
728.187	211.41
728.629	224.61
729.071	234.51
729.514	246.21
729.956	259.31
730.399	267.71
730.841	266.71
731.283	257.51
731.726	252.51
732.168	252.01
732.61	250.61
733.053	270.21
733.495	300.01
733.937	341.51
734.379	379.11
734.821	404.61
735.263	522.61
735.705	811.91
736.148	1531.01
736.59	2478.51
737.032	2915.11
737.474	2354.51
737.916	773.71
738.357	400.31
738.799	304.61
739.241	283.51
739.683	266.81
740.125	277.51
740.567	280.71
741.008	302.91
741.45	300.91
741.892	302.11
742.334	332.21
742.775	342.61
743.217	321.81
743.658	249.81
744.1	249.01
744.542	245.41
744.983	301.91
745.425	322.91
745.866	327.71
746.307	276.71
746.749	268.21
747.19	312.81
747.632	443.31
748.073	854.91
748.514	1817.31
748.956	2735.61
749.397	3401.41
749.838	2836.01
750.279	2812.21
750.72	1421.21
751.162	518.91
751.603	300.11
752.044	233.41
752.485	205.61
752.926	199.51
753.367	194.81
753.808	188.91
754.249	182.11
754.69	176.71
755.131	166.51
755.572	175.91
756.013	166.61
756.453	175.51
756.894	184.21
757.335	181.11
757.776	184.11
758.216	184.01
758.657	179.71
759.098	194.71
759.538	213.21
759.979	254.71
760.42	353.61
760.86	688.11
761.301	1788.01
761.741	4296.21
762.182	6122.41
762.622	4254.01
763.063	1252.31
763.503	510.01
763.943	326.41
764.384	318.01
764.824	354.61
765.264	379.81
765.705	279.11
766.145	195.71
766.585	174.51
767.025	174.51
767.465	172.01
767.906	218.31
768.346	283.01
768.786	310.11
769.226	245.41
769.666	301.01
770.106	611.01
770.546	1509.71
770.986	2531.81
771.426	2248.81
771.866	755.81
772.306	306.31
772.745	197.81
773.185	163.61
773.625	169.41
774.065	161.71
774.505	188.21
774.944	300.31
775.384	649.31
775.824	1153.11
776.263	1101.41
776.703	473.31
777.142	206.41
777.582	145.51
778.021	135.11
778.461	131.91
778.9	129.41
779.34	126.21
779.779	113.41
780.219	104.51
780.658	108.11
781.097	100.21
781.537	109.91
781.976	96.81
782.415	100.81
782.855	95.91
783.294	99.41
783.733	100.01
784.172	103.01
784.611	99.21
785.05	101.31
785.489	108.21
785.928	101.81
786.367	109.61
786.806	115.51
787.245	128.91
787.684	132.21
788.123	148.51
788.562	126.11
789.001	123.81
789.44	117.01
789.879	111.71
790.317	110.41
790.756	119.81
791.195	125.31
791.634	140.61
792.072	196.41
792.511	357.01
792.95	982.11
793.388	2069.31
793.827	1828.51
794.265	646.21
794.704	269.01
795.142	178.21
795.581	149.71
796.019	129.71
796.458	125.71
796.896	112.71
797.334	121.91
797.773	143.71
798.211	208.71
798.649	430.81
799.087	990.81
799.526	1533.91
799.964	1928.61
800.402	1914.51
800.84	728.41
801.278	296.21
801.716	183.51
802.154	142.81
802.592	138.01
803.03	138.21
803.468	126.41
803.906	133.31
804.344	147.11
804.782	131.01
805.22	127.81
805.658	120.91
806.096	139.41
806.533	150.31
806.971	165.61
807.409	206.71
807.847	305.21
808.284	651.71
808.722	1810.21
809.16	3152.91
809.597	3028.51
810.035	5228.41
810.472	5463.91
810.91	1984.21
811.347	755.71
811.785	382.81
812.222	247.11
812.66	181.41
813.097	156.91
813.535	133.31
813.972	123.01
814.409	112.31
814.846	103.31
815.284	110.81
815.721	95.71
816.158	99.81
816.595	106.21
817.032	168.51
817.47	186.51
817.907	154.21
818.344	134.61
818.781	111.01
819.218	98.61
819.655	116.61
820.092	177.61
820.529	195.21
820.966	163.71
821.403	129.11
821.839	100.91
822.276	95.11
822.713	112.61
823.15	126.51
823.587	108.91
824.023	139.61
824.46	298.31
824.897	866.61
825.333	1291.51
825.77	554.31
826.206	221.21
826.643	129.01
827.08	99.21
827.516	77.51
827.953	79.21
828.389	76.01
828.825	71.91
829.262	62.41
829.698	56.61
830.135	66.21
830.571	59.51
831.007	57.01
831.443	60.01
831.88	61.91
832.316	58.21
832.752	62.91
833.188	61.11
833.624	61.81
834.06	60.11
834.497	63.21
834.933	69.81
835.369	71.61
835.805	63.11
836.241	71.61
836.677	77.01
837.112	81.31
837.548	96.51
837.984	118.41
838.42	183.61
838.856	492.91
839.292	1461.11
839.727	2195.11
840.163	1014.11
840.599	905.31
841.034	1972.61
841.47	2012.81
841.906	734.51
842.341	320.71
842.777	216.81
843.212	299.21
843.648	288.21
844.083	142.01
844.519	95.01
844.954	63.31
845.39	52.61
845.825	57.51
846.261	54.81
846.696	52.51
847.131	48.21
847.566	59.51
848.002	52.21
848.437	55.01
848.872	55.41
849.307	52.81
849.742	79.11
850.177	177.41
850.613	540.51
851.048	832.81
851.483	363.11
851.918	142.21
852.353	81.81
852.788	56.21
853.223	59.61
853.657	46.31
854.092	51.01
854.527	38.81
854.962	37.61
855.397	41.21
855.832	40.01
856.266	38.91
856.701	39.41
857.136	34.31
857.57	41.41
858.005	44.61
858.44	53.71
858.874	47.81
859.309	47.51
859.743	39.91
860.178	49.31
860.612	34.71
861.047	48.81
861.481	62.21
861.915	70.41
862.35	45.81
862.784	29.41
863.218	43.91
863.653	36.71
864.087	46.71
864.521	38.61
864.955	71.21
865.39	147.51
865.824	173.41
866.258	109.31
866.692	154.51
867.126	165.71
867.56	90.91
867.994	49.81
868.428	30.71
868.862	40.11
869.296	51.21
869.73	57.01
870.164	48.51
870.598	47.51
871.031	33.71
871.465	30.31
871.899	28.61
872.333	19.61
872.766	33.01
873.2	22.71
873.634	28.21
874.067	22.01
874.501	26.21
874.935	35.21
875.368	30.61
875.802	28.21
876.235	16.21
876.669	22.71
877.102	20.81
877.535	22.21
877.969	28.91
878.402	26.21
878.836	22.71
879.269	23.71
879.702	21.91
880.135	16.71
880.569	27.01
881.002	22.71
881.435	25.01
881.868	21.61
882.301	19.21
882.734	15.91
883.167	21.31
883.601	20.91
884.034	14.91
884.467	12.31
884.899	15.41
885.332	11.91
885.765	15.11
886.198	11.01
886.631	18.41
887.064	16.61
887.497	22.61
887.929	21.51
888.362	13.41
888.795	5.51
889.228	17.71
889.66	17.41
890.093	17.51
890.526	16.81
890.958	14.41
891.391	18.71
891.823	20.91
892.256	17.81
892.688	8.21
893.121	13.81
893.553	10.11
893.985	26.01
894.418	17.51
894.85	12.51
895.282	16.21
895.715	17.21
896.147	18.91
896.579	14.71
897.011	16.51
897.444	16.21
897.876	12.51
898.308	14.21
898.74	18.81
899.172	12.81
899.604	17.01
900.036	20.41
900.468	13.21
900.9	14.21
901.332	15.11
901.764	12.01
902.196	19.01
902.628	13.81
903.06	15.41
903.491	23.81
903.923	16.91
904.355	18.41
904.787	26.61
905.218	21.41
905.65	19.51
906.082	13.81
906.513	14.91
906.945	15.71
907.376	14.51
907.808	21.81
908.239	20.71
908.671	16.01
909.102	18.01
909.534	24.21
909.965	47.01
910.397	86.91
910.828	302.51
911.259	446.81
911.691	205.71
912.122	97.01
912.553	49.61
912.984	24.61
913.415	28.41
913.847	23.71
914.278	15.11
914.709	15.81
915.14	19.61
915.571	21.11
916.002	14.71
916.433	22.81
916.864	12.01
917.295	10.81
917.726	14.61
918.157	18.21
918.587	28.21
919.018	19.81
919.449	21.51
919.88	25.01
920.311	27.01
920.741	44.31
921.172	157.91
921.603	145.41
922.033	74.71
922.464	48.31
922.895	22.61
923.325	17.91
923.756	10.61
924.186	12.91
924.617	21.51
925.047	35.61
925.478	55.21
925.908	38.51
926.338	24.11
926.769	18.01
927.199	17.51
927.629	8.21
928.06	11.21
928.49	12.51
928.92	7.21
929.35	8.21
929.78	13.01
930.21	3.61
930.641	13.51
931.071	9.11
931.501	2.21
931.931	7.51
932.361	8.21
932.791	1.81
933.221	3.51
933.651	2.41
934.08	17.61
934.51	30.51
934.94	13.91
935.37	11.41
935.8	8.71
936.229	4.21
936.659	8.21
937.089	4.91
937.519	12.21
937.948	19.61
938.378	17.81
938.807	5.21
939.237	2.61
939.666	8.31
940.096	-3.99
940.525	1.41
940.955	6.61
941.384	6.31
941.814	-7.79
942.243	-0.59
942.672	4.31
943.102	-5.89
943.531	-2.49
943.96	3.61
944.39	3.01
944.819	-1.59
945.248	3.01
945.677	0.71
946.106	-0.29
946.535	3.71
946.964	2.31
947.393	-0.19
947.822	0.21
948.251	-2.39
948.68	2.01
949.109	10.91
949.538	8.41
949.967	-3.49
950.396	-3.59
950.825	-4.29
951.254	2.21
951.682	-8.79
952.111	3.81
952.54	-2.59
952.969	-5.49
953.397	-3.69
953.826	3.21
954.254	-2.49
954.683	0.01
955.112	-9.69
955.54	-1.29
955.969	3.51
956.397	-0.49
956.826	-4.89
957.254	0.91
957.682	5.11
958.111	5.81
958.539	-0.29
958.967	2.31
959.396	-4.09
959.824	2.31
960.252	2.81
960.68	-2.69
961.109	-4.59
961.537	-3.09
961.965	-3.59
962.393	-0.09
962.821	-3.09
963.249	0.91
963.677	3.91
964.105	0.51
964.533	41.01
964.961	39.41
965.389	18.81
965.817	6.91
966.245	-5.79
966.672	0.31
967.1	-7.99
967.528	-0.29
967.956	-10.39
968.383	1.71
968.811	-2.89
969.239	-2.59
969.666	-2.89
970.094	0.71
970.522	1.71
970.949	3.31
971.377	0.21
971.804	-1.29
972.232	-4.89
972.659	-3.59
973.087	4.01
973.514	-6.19
973.941	-2.49
974.369	-0.09
974.796	-2.09
975.223	2.91
975.651	-1.09
976.078	1.11
976.505	4.11
976.932	0.11
977.359	9.81
977.786	11.51
978.214	-3.79
978.641	-6.99
979.068	-3.89
979.495	-5.29
979.922	0.11
980.349	-7.99
980.776	1.41
981.202	-1.39
981.629	4.91
982.056	6.51
982.483	-1.99
982.91	2.21
983.337	-5.59
983.763	7.21
984.19	-3.59
984.617	-4.29
985.043	-8.69
985.47	-2.69
985.897	-4.79
986.323	-8.69
986.75	3.91
987.176	-0.09
987.603	-6.29
988.029	-0.99
988.456	-2.29
988.882	0.81
989.308	-10.89
989.735	-4.19
990.161	-0.49
990.587	-4.69
991.014	-3.39
991.44	6.51
991.866	-4.69
992.292	-9.79
992.719	-2.79
993.145	-0.29
993.571	-11.59
993.997	-0.09
994.423	-0.29
994.849	-2.59
995.275	3.01
995.701	2.81
996.127	-0.99
996.553	-3.69
996.979	2.51
997.405	-0.19
997.83	-0.49
998.256	-2.89
998.682	-6.49
999.108	-9.79
999.534	-5.59
999.959	-1.79
1000.385	-4.39
1000.811	0.81
1001.236	-6.49
1001.662	-8.49
1002.087	-7.89
1002.513	-0.09
1002.938	0.91
1003.364	-1.69
1003.789	6.01
1004.215	2.41
1004.64	0.11
1005.066	0.61
1005.491	-1.39
1005.916	-3.79
1006.342	-7.99
1006.767	-6.29
1007.192	1.91
1007.617	-3.19
1008.042	-7.09
1008.468	-8.99
1008.893	-3.99
1009.318	-6.89
1009.743	3.31
1010.168	2.51
1010.593	1.01
1011.018	-11.29
1011.443	-2.59
1011.868	-6.09
1012.293	-0.19
1012.718	-6.19
1013.143	-0.39
1013.567	-1.69
1013.992	-9.09
1014.417	-15.69
1014.842	-2.69
1015.267	1.31
1015.691	-9.89
1016.116	4.61
1016.541	0.31
1016.965	2.91
1017.39	-0.09
1017.814	-1.49
1018.239	4.41
1018.663	-10.19
1019.088	-12.19
1019.512	-2.29
1019.937	-4.39
1020.361	-11.79
1020.785	-13.69
1021.21	-5.69
1021.634	-0.79
1022.058	-3.19
1022.483	3.11
1022.907	-1.89
1023.331	-5.69
1023.755	-2.19
1024.179	-3.09
1024.604	-7.89
1025.028	-3.99
1025.452	-6.99
1025.876	5.11
1026.3	1.21
1026.724	-8.09
1027.148	-5.29
1027.572	-6.99
1027.996	-5.09
1028.42	-4.19
1028.843	-6.39
1029.267	-6.89
1029.691	-7.29
1030.115	-12.59
1030.539	-5.79
1030.962	-9.29
1031.386	-10.39
1031.81	-3.89
1032.233	4.01
1032.657	1.61
1033.08	1.01
1033.504	-7.29
1033.927	-6.49
1034.351	-2.19
1034.774	-4.59
1035.198	0.11
1035.621	-12.79
1036.045	-6.69
1036.468	-0.29
1036.891	-12.39
1037.315	-7.99
1037.738	-6.09
1038.161	-0.19
1038.584	-9.99
1039.008	-7.99
1039.431	-7.89
1039.854	-4.29
1040.277	-9.89
1040.7	-10.29
1041.123	1.41
1041.546	-8.59
1041.969	-6.99
1042.392	-9.99
1042.815	-1.99
1043.238	-0.39
1043.661	0.11
1044.084	-4.09
1044.507	-7.09
1044.93	-4.79
1045.352	-9.49
1045.775	-3.99
1046.198	-0.19
1046.621	0.91
1047.043	-2.39
1047.466	9.11
1047.889	-2.49
1048.311	-7.99
1048.734	-2.69
1049.156	-4.39
1049.579	-0.19
1050.001	-5.89
1050.424	7.71
1050.846	-4.19
1051.269	-2.29
1051.691	-6.29
1052.113	-3.89
1052.536	-9.09
1052.958	-4.79
1053.38	-7.39
1053.802	-14.19
1054.225	2.21
1054.647	-11.09
1055.069	-6.49
1055.491	-6.69
1055.913	-7.09
1056.335	-1.29
1056.757	-6.09
1057.179	-10.69
1057.601	-6.89
1058.023	-2.79
1058.445	-4.99
1058.867	-8.59
1059.289	-7.99
1059.711	-6.49
1060.133	-1.79
1060.555	-7.89
1060.976	-9.59
1061.398	-7.49
1061.82	-3.99
1062.241	-2.29
1062.663	-10.29
1063.085	-3.59
1063.506	-3.29
1063.928	-4.49
1064.35	-3.99
1064.771	-16.79
1065.193	-7.19
1065.614	-8.29
1066.035	-2.59
1066.457	-0.39
1066.878	2.01
1067.3	-4.69
1067.721	-2.69
1068.142	-4.39
1068.564	-3.59
1068.985	-14.19
1069.406	-6.49
1069.827	-1.89
1070.248	-0.39
1070.67	-9.79
1071.091	-8.99
1071.512	-6.49
1071.933	-5.99
1072.354	-10.19
1072.775	-8.19
1073.196	-11.69
1073.617	-7.59
1074.038	-6.09
1074.459	2.51
1074.88	-5.89
1075.3	0.31
1075.721	-10.79
1076.142	5.41
1076.563	0.81
1076.983	-7.19
1077.404	-4.89
1077.825	-13.59
1078.246	-6.89
1078.666	-11.39
1079.087	-7.69
1079.507	-8.59
1079.928	3.91
1080.348	-0.39
1080.769	-3.19
1081.189	1.41
1081.61	-2.99
1082.03	-7.99
1082.451	-2.29
1082.871	-6.89
1083.291	-7.49
1083.711	-15.39
1084.132	-6.79
1084.552	-4.69
1084.972	-4.49
1085.392	-5.79
1085.813	-8.59
1086.233	-4.79
1086.653	-11.39
1087.073	-1.49
1087.493	-9.39
1087.913	-1.79
1088.333	-7.89
1088.753	-3.49
1089.173	-2.29
1089.593	-4.49
1090.013	3.91
1090.433	4.01
1090.852	-5.69
1091.272	-6.79
1091.692	-1.99
1092.112	-1.19
1092.531	-5.69
1092.951	-11.69
1093.371	-5.99
1093.79	-1.19
1094.21	-9.39
1094.63	-2.49
1095.049	-6.69
1095.469	-6.79
1095.888	-4.19
1096.308	-0.09
1096.727	5.01
1097.146	-5.39
1097.566	1.71
1097.985	-8.19
1098.405	-4.69
1098.824	-9.29
1099.243	-5.79
1099.662	-0.59
1100.082	-3.79
1100.501	-2.59
1100.92	-10.79
1101.339	-3.79
1101.758	-5.19
