Data from 20171114-ORNL-Ar_H_NY_Subt18_08-03-44-592.txt Node
Date: Tue Nov 14 08:03:44 EST 2017
User: Ender
Spectrometer: HR+D1039
Trigger mode: 0
Integration Time (sec): 2.730000E-2
Scans to average: 10
Electric dark correction enabled: true
Nonlinearity correction enabled: false
Boxcar width: 0
XAxis mode: Wavelengths
Number of Pixels in Spectrum: 2048
>>>>>Begin Spectral Data<<<<<
187.836	-1.33
188.309	-1.33
188.782	-1.33
189.255	2.87
189.728	-2.52
190.201	6.87
190.674	-2.13
191.147	1.57
191.619	-8.03
192.092	-2.62
192.565	5.87
193.038	0.27
193.511	-1.53
193.984	-2.13
194.456	-1.53
194.929	2.07
195.402	-0.13
195.874	2.38
196.347	-0.83
196.82	-10.23
197.292	2.57
197.765	-2.02
198.237	-11.23
198.71	4.77
199.182	1.37
199.655	4.97
200.127	-0.83
200.6	4.47
201.072	-4.23
201.544	-7.43
202.017	-1.43
202.489	0.37
202.961	1.48
203.433	-5.93
203.906	-7.93
204.378	-10.33
204.85	-5.63
205.322	-11.03
205.794	-5.03
206.266	-6.03
206.739	-9.73
207.211	3.07
207.683	-11.73
208.155	-5.93
208.627	-9.63
209.099	-8.53
209.57	-5.83
210.042	-6.13
210.514	-7.02
210.986	-2.53
211.458	-8.53
211.93	-5.93
212.402	0.57
212.873	-8.93
213.345	-9.73
213.817	-10.93
214.288	-6.23
214.76	-11.43
215.232	-3.33
215.703	0.88
216.175	-1.53
216.646	-9.33
217.118	-6.33
217.589	-9.12
218.061	-3.13
218.532	-2.33
219.004	-7.13
219.475	-2.03
219.946	-4.43
220.418	-11.83
220.889	1.47
221.36	-2.43
221.832	-6.53
222.303	-4.23
222.774	1.37
223.245	-8.52
223.717	-7.93
224.188	-9.12
224.659	-5.93
225.13	-9.02
225.601	-5.13
226.072	0.47
226.543	0.57
227.014	-5.53
227.485	-2.63
227.956	-8.43
228.427	-5.03
228.898	-4.93
229.369	3.87
229.839	-4.83
230.31	-4.53
230.781	-2.33
231.252	-8.33
231.722	-5.23
232.193	-7.12
232.664	0.97
233.135	-6.93
233.605	1.88
234.076	-3.53
234.546	0.87
235.017	5.88
235.487	-0.63
235.958	-4.83
236.428	-7.73
236.899	2.17
237.369	1.17
237.84	-0.83
238.31	-3.23
238.78	-3.93
239.251	-7.23
239.721	-4.83
240.191	-2.02
240.662	-7.62
241.132	-0.83
241.602	-9.03
242.072	0.97
242.542	0.07
243.013	-6.63
243.483	-0.03
243.953	0.48
244.423	-2.52
244.893	-9.03
245.363	-1.83
245.833	-0.53
246.303	-2.43
246.773	3.27
247.243	-2.93
247.712	-7.03
248.182	1.97
248.652	2.17
249.122	-8.43
249.592	-3.33
250.061	3.47
250.531	11.57
251.001	-2.23
251.471	4.57
251.94	5.87
252.41	-3.52
252.879	-6.33
253.349	5.87
253.818	3.67
254.288	0.67
254.757	3.88
255.227	-8.12
255.696	3.07
256.166	-0.43
256.635	4.97
257.105	1.27
257.574	-1.73
258.043	2.48
258.513	-9.43
258.982	3.67
259.451	-7.63
259.92	-4.23
260.389	-3.53
260.859	3.57
261.328	3.88
261.797	8.48
262.266	3.87
262.735	4.38
263.204	-0.03
263.673	-4.43
264.142	1.88
264.611	-5.63
265.08	-5.13
265.549	-5.33
266.018	-0.43
266.487	-5.83
266.955	1.57
267.424	-4.03
267.893	0.88
268.362	-7.62
268.83	-1.93
269.299	4.77
269.768	3.67
270.236	4.97
270.705	-0.93
271.174	-4.43
271.642	-2.03
272.111	4.27
272.579	4.27
273.048	-0.73
273.516	-2.83
273.985	-1.23
274.453	-1.23
274.922	7.87
275.39	-1.03
275.858	-6.73
276.327	-0.93
276.795	9.97
277.263	2.37
277.731	7.57
278.2	2.87
278.668	1.77
279.136	6.17
279.604	1.77
280.072	10.47
280.54	5.88
281.008	5.77
281.477	9.27
281.945	6.07
282.413	6.37
282.881	10.88
283.348	4.67
283.816	10.97
284.284	6.37
284.752	9.17
285.22	9.77
285.688	8.87
286.156	10.67
286.623	11.27
287.091	6.47
287.559	8.47
288.026	3.77
288.494	8.57
288.962	0.17
289.429	3.97
289.897	13.38
290.364	9.57
290.832	13.48
291.3	6.67
291.767	11.77
292.234	11.57
292.702	2.07
293.169	11.67
293.637	17.17
294.104	12.37
294.571	-0.63
295.039	6.87
295.506	3.27
295.973	12.37
296.44	6.67
296.908	11.17
297.375	10.37
297.842	16.07
298.309	5.47
298.776	3.27
299.243	12.97
299.71	7.57
300.177	11.38
300.644	17.77
301.111	20.98
301.578	16.57
302.045	10.27
302.512	8.88
302.979	15.67
303.446	21.27
303.913	9.07
304.379	6.77
304.846	22.17
305.313	16.57
305.78	10.07
306.246	15.67
306.713	19.17
307.18	13.17
307.646	15.37
308.113	15.57
308.579	16.37
309.046	13.88
309.512	21.88
309.979	7.97
310.445	23.37
310.912	16.37
311.378	27.97
311.845	20.77
312.311	23.47
312.777	21.47
313.244	22.07
313.71	27.67
314.176	26.67
314.642	19.57
315.109	17.27
315.575	25.07
316.041	32.07
316.507	18.37
316.973	23.67
317.439	24.87
317.905	26.48
318.371	23.37
318.837	27.27
319.303	25.07
319.769	21.67
320.235	31.97
320.701	23.77
321.167	26.47
321.633	27.57
322.099	26.87
322.564	25.87
323.03	33.17
323.496	27.38
323.962	36.67
324.427	27.87
324.893	33.07
325.359	31.47
325.824	33.27
326.29	33.77
326.755	32.07
327.221	35.67
327.686	30.37
328.152	38.48
328.617	31.17
329.083	39.27
329.548	45.07
330.014	38.17
330.479	30.07
330.944	40.57
331.41	38.07
331.875	39.48
332.34	34.67
332.805	31.47
333.271	40.57
333.736	29.77
334.201	39.27
334.666	40.17
335.131	42.57
335.596	50.17
336.061	43.87
336.526	35.57
336.991	40.17
337.456	51.57
337.921	40.97
338.386	39.77
338.851	37.57
339.316	45.57
339.781	39.88
340.246	43.57
340.711	44.57
341.175	40.27
341.64	41.17
342.105	42.77
342.569	47.07
343.034	50.07
343.499	50.17
343.963	41.57
344.428	57.07
344.893	50.07
345.357	52.17
345.822	53.97
346.286	53.17
346.751	63.38
347.215	58.57
347.679	63.57
348.144	78.77
348.608	78.27
349.073	63.07
349.537	67.67
350.001	71.07
350.465	78.47
350.93	68.47
351.394	68.47
351.858	68.98
352.322	74.88
352.786	76.77
353.25	88.47
353.715	95.67
354.179	86.67
354.643	103.88
355.107	101.07
355.571	87.88
356.035	88.57
356.498	99.17
356.962	100.77
357.426	106.37
357.89	94.17
358.354	81.07
358.818	80.47
359.281	76.67
359.745	80.17
360.209	74.97
360.673	76.17
361.136	76.38
361.6	81.77
362.064	84.77
362.527	86.37
362.991	92.37
363.454	83.97
363.918	80.07
364.381	85.17
364.845	82.17
365.308	85.67
365.772	87.97
366.235	85.97
366.698	85.47
367.162	76.97
367.625	86.17
368.088	79.57
368.552	93.47
369.015	91.77
369.478	97.38
369.941	95.27
370.404	92.87
370.867	105.07
371.331	107.67
371.794	106.97
372.257	93.67
372.72	106.67
373.183	101.97
373.646	96.57
374.109	98.27
374.572	103.47
375.035	98.07
375.497	109.97
375.96	109.47
376.423	100.67
376.886	116.48
377.349	109.67
377.811	105.27
378.274	106.88
378.737	106.47
379.199	109.77
379.662	117.37
380.125	111.98
380.587	105.27
381.05	115.57
381.512	119.17
381.975	123.07
382.437	127.77
382.9	121.07
383.362	126.97
383.825	130.88
384.287	123.27
384.75	125.07
385.212	132.47
385.674	131.37
386.136	129.07
386.599	128.77
387.061	133.77
387.523	122.87
387.985	133.67
388.447	138.57
388.91	134.27
389.372	132.27
389.834	139.17
390.296	134.37
390.758	135.07
391.22	140.37
391.682	151.77
392.144	146.77
392.606	143.97
393.068	151.77
393.529	164.17
393.991	153.17
394.453	143.47
394.915	137.27
395.377	141.27
395.838	146.17
396.3	143.27
396.762	142.17
397.224	139.57
397.685	148.07
398.147	149.38
398.608	146.57
399.07	147.27
399.531	147.97
399.993	158.77
400.454	165.57
400.916	165.57
401.377	161.67
401.839	166.57
402.3	159.17
402.762	178.27
403.223	188.47
403.684	186.47
404.145	180.67
404.607	181.47
405.068	177.37
405.529	182.17
405.99	190.08
406.451	184.57
406.913	184.07
407.374	180.67
407.835	179.38
408.296	182.77
408.757	182.77
409.218	196.77
409.679	196.27
410.14	188.77
410.601	188.07
411.062	194.67
411.522	193.27
411.983	194.07
412.444	185.67
412.905	198.18
413.366	203.87
413.826	214.37
414.287	242.27
414.748	293.97
415.208	278.27
415.669	235.47
416.13	224.97
416.59	220.67
417.051	244.98
417.511	249.57
417.972	266.18
418.432	281.47
418.893	329.27
419.353	292.68
419.814	225.57
420.274	206.27
420.734	198.17
421.195	218.17
421.655	207.98
422.115	213.17
422.576	209.97
423.036	217.07
423.496	221.67
423.956	232.98
424.416	255.67
424.876	292.07
425.336	285.17
425.797	279.07
426.257	283.17
426.717	259.07
427.177	254.17
427.637	247.57
428.097	253.07
428.556	256.17
429.016	290.47
429.476	283.77
429.936	280.87
430.396	291.67
430.856	304.07
431.315	326.47
431.775	354.17
432.235	398.57
432.694	368.57
433.154	372.27
433.614	390.37
434.073	344.87
434.533	305.37
434.993	285.77
435.452	294.57
435.912	296.37
436.371	285.57
436.83	287.07
437.29	269.47
437.749	264.27
438.209	255.77
438.668	280.57
439.127	289.47
439.587	271.68
440.046	253.58
440.505	263.37
440.964	282.07
441.424	304.17
441.883	299.57
442.342	269.98
442.801	243.08
443.26	243.47
443.719	243.47
444.178	247.57
444.637	229.48
445.096	244.17
445.555	240.47
446.014	240.57
446.473	247.58
446.932	258.48
447.391	248.67
447.849	258.67
448.308	237.97
448.767	244.57
449.226	256.57
449.685	254.17
450.143	263.67
450.602	260.87
451.061	246.17
451.519	251.48
451.978	249.57
452.436	253.38
452.895	257.07
453.353	260.77
453.812	256.98
454.27	247.88
454.729	259.98
455.187	254.77
455.646	260.57
456.104	260.58
456.562	267.98
457.021	283.27
457.479	266.97
457.937	278.48
458.395	271.87
458.854	263.77
459.312	271.27
459.77	274.67
460.228	268.97
460.686	267.38
461.144	265.57
461.602	268.77
462.06	259.98
462.518	272.07
462.976	271.77
463.434	269.27
463.892	281.08
464.35	289.07
464.808	288.77
465.266	280.77
465.724	284.37
466.181	294.58
466.639	293.38
467.097	302.88
467.555	308.58
468.012	317.27
468.47	318.77
468.928	331.77
469.385	349.57
469.843	350.17
470.3	358.07
470.758	364.08
471.215	381.67
471.673	408.67
472.13	403.27
472.588	415.97
473.045	382.27
473.503	392.07
473.96	404.97
474.417	415.38
474.875	438.37
475.332	465.08
475.789	469.57
476.246	475.17
476.704	487.27
477.161	507.88
477.618	519.88
478.075	552.18
478.532	606.88
478.989	661.67
479.446	747.48
479.903	725.87
480.36	771.07
480.817	810.37
481.274	902.77
481.731	1000.17
482.188	1067.97
482.645	1193.38
483.102	1271.28
483.558	1379.97
484.015	1449.28
484.472	1424.57
484.929	1381.27
485.385	1339.37
485.842	1314.37
486.299	1270.37
486.755	1202.58
487.212	1047.67
487.668	908.47
488.125	853.97
488.582	771.18
489.038	739.47
489.494	707.17
489.951	678.58
490.407	664.37
490.864	638.48
491.32	635.47
491.776	633.17
492.233	644.07
492.689	607.67
493.145	602.17
493.602	600.27
494.058	595.77
494.514	603.98
494.97	625.68
495.426	614.08
495.882	605.88
496.338	594.17
496.794	598.58
497.251	593.57
497.707	608.18
498.163	605.77
498.618	609.67
499.074	619.08
499.53	625.17
499.986	633.77
500.442	611.27
500.898	606.07
501.354	604.17
501.809	602.57
502.265	605.88
502.721	615.87
503.177	615.18
503.632	627.88
504.088	627.17
504.543	643.98
504.999	653.58
505.455	633.27
505.91	614.67
506.366	617.57
506.821	614.27
507.277	609.27
507.732	612.97
508.187	617.77
508.643	619.88
509.098	624.17
509.553	640.57
510.009	648.67
510.464	643.77
510.919	656.08
511.375	668.48
511.83	674.87
512.285	673.47
512.74	712.17
513.195	729.97
513.65	727.07
514.105	721.87
514.56	726.57
515.015	739.57
515.47	747.27
515.925	740.68
516.38	744.77
516.835	741.47
517.29	738.87
517.745	734.48
518.2	737.27
518.655	705.07
519.109	690.98
519.564	697.48
520.019	687.97
520.474	674.27
520.928	673.48
521.383	673.17
521.838	666.97
522.292	670.88
522.747	666.88
523.201	673.47
523.656	665.47
524.11	653.27
524.565	649.08
525.019	656.98
525.474	657.27
525.928	648.57
526.382	641.47
526.837	652.17
527.291	651.17
527.745	648.77
528.2	642.77
528.654	642.77
529.108	630.88
529.562	634.77
530.016	645.18
530.47	629.27
530.925	643.57
531.379	628.67
531.833	646.27
532.287	631.77
532.741	635.57
533.195	633.57
533.649	640.38
534.103	640.77
534.556	630.97
535.01	637.67
535.464	631.88
535.918	637.77
536.372	641.77
536.826	639.57
537.279	635.87
537.733	638.17
538.187	638.88
538.64	636.57
539.094	646.27
539.548	652.87
540.001	652.97
540.455	645.17
540.908	652.88
541.362	675.27
541.815	663.08
542.269	689.17
542.722	682.77
543.175	677.77
543.629	685.97
544.082	697.67
544.536	701.58
544.989	699.07
545.442	708.27
545.895	702.37
546.349	713.18
546.802	711.67
547.255	710.57
547.708	725.88
548.161	721.87
548.614	714.87
549.067	728.58
549.52	724.27
549.973	724.27
550.426	710.07
550.879	695.27
551.332	704.98
551.785	710.88
552.238	707.67
552.691	720.57
553.144	729.47
553.596	733.57
554.049	746.07
554.502	773.67
554.955	785.27
555.407	775.77
555.86	779.27
556.313	771.08
556.765	763.48
557.218	754.07
557.67	760.27
558.123	752.27
558.576	743.88
559.028	748.07
559.48	746.37
559.933	748.47
560.385	726.67
560.838	697.67
561.29	690.88
561.742	686.98
562.195	666.77
562.647	665.07
563.099	671.47
563.551	657.88
564.004	677.87
564.456	660.07
564.908	642.87
565.36	626.27
565.812	619.48
566.264	615.07
566.716	619.07
567.168	587.27
567.62	604.67
568.072	589.88
568.524	586.87
568.976	581.57
569.428	578.58
569.88	574.97
570.332	575.07
570.784	585.97
571.235	577.27
571.687	582.47
572.139	592.07
572.59	594.47
573.042	600.07
573.494	591.17
573.945	591.07
574.397	569.77
574.849	580.77
575.3	573.38
575.752	570.77
576.203	564.87
576.655	571.07
577.106	567.47
577.557	549.68
578.009	551.37
578.46	549.48
578.912	543.27
579.363	545.58
579.814	547.67
580.265	545.17
580.717	554.38
581.168	548.07
581.619	550.98
582.07	557.57
582.521	558.67
582.972	550.67
583.423	545.87
583.875	550.97
584.326	563.47
584.777	572.17
585.227	585.27
585.678	594.38
586.129	605.48
586.58	630.77
587.031	642.47
587.482	688.27
587.933	707.47
588.384	689.27
588.834	642.27
589.285	632.87
589.736	628.38
590.186	620.37
590.637	622.57
591.088	609.27
591.538	594.27
591.989	583.47
592.439	580.57
592.89	572.87
593.34	569.88
593.791	559.27
594.241	554.17
594.692	556.47
595.142	554.38
595.593	551.58
596.043	555.87
596.493	559.88
596.943	556.27
597.394	576.08
597.844	575.58
598.294	584.27
598.744	603.67
599.195	614.77
599.645	642.77
600.095	682.37
600.545	718.98
600.995	757.87
601.445	796.07
601.895	842.68
602.345	877.08
602.795	881.77
603.245	833.67
603.695	796.67
604.145	759.77
604.594	725.07
605.044	679.97
605.494	635.77
605.944	589.27
606.393	584.48
606.843	567.97
607.293	568.68
607.743	560.17
608.192	568.57
608.642	584.38
609.091	581.98
609.541	578.88
609.99	580.48
610.44	592.07
610.889	555.48
611.339	543.37
611.788	529.07
612.238	530.17
612.687	542.57
613.136	533.47
613.586	541.27
614.035	540.07
614.484	555.88
614.933	546.67
615.383	550.88
615.832	535.98
616.281	535.98
616.73	522.38
617.179	513.27
617.628	494.77
618.077	478.47
618.526	469.87
618.975	472.07
619.424	468.87
619.873	466.37
620.322	463.97
620.771	457.77
621.22	457.17
621.669	457.48
622.118	433.48
622.567	439.68
623.015	432.97
623.464	433.27
623.913	424.98
624.361	421.27
624.81	421.67
625.259	408.18
625.707	432.18
626.156	417.97
626.604	422.57
627.053	424.37
627.501	429.67
627.95	427.07
628.398	440.97
628.847	433.37
629.295	422.17
629.744	428.57
630.192	425.57
630.64	429.07
631.089	418.67
631.537	401.97
631.985	394.47
632.433	399.58
632.881	396.18
633.33	389.27
633.778	391.17
634.226	388.18
634.674	399.07
635.122	397.48
635.57	412.07
636.018	414.47
636.466	418.58
636.914	411.67
637.362	431.98
637.81	423.57
638.258	431.18
638.705	435.27
639.153	449.07
639.601	450.47
640.049	470.47
640.497	500.37
640.944	522.67
641.392	482.17
641.84	455.98
642.287	435.08
642.735	419.77
643.182	416.77
643.63	420.67
644.078	419.48
644.525	428.37
644.973	426.67
645.42	434.27
645.867	456.27
646.315	471.87
646.762	485.48
647.21	499.37
647.657	512.97
648.104	538.97
648.551	551.47
648.999	595.67
649.446	644.38
649.893	699.27
650.34	789.37
650.787	937.17
651.234	1144.57
651.682	1465.77
652.129	1960.77
652.576	2750.67
653.023	4016.38
653.47	5550.77
653.917	7010.48
654.363	8252.58
654.81	9289.88
655.257	8835.58
655.704	5875.08
656.151	3499.18
656.598	2309.38
657.044	1633.87
657.491	1267.67
657.938	1023.28
658.385	864.77
658.831	746.77
659.278	686.88
659.724	598.77
660.171	556.07
660.618	509.07
661.064	475.87
661.511	464.38
661.957	449.37
662.404	445.07
662.85	450.48
663.296	433.47
663.743	410.37
664.189	386.67
664.635	391.17
665.082	382.88
665.528	384.07
665.974	370.38
666.42	360.67
666.867	358.88
667.313	334.08
667.759	346.48
668.205	327.48
668.651	330.77
669.097	324.67
669.543	324.37
669.989	318.67
670.435	324.27
670.881	324.98
671.327	330.27
671.773	338.97
672.219	352.57
672.665	394.07
673.11	420.27
673.556	461.97
674.002	492.47
674.448	486.77
674.893	402.77
675.339	351.87
675.785	323.27
676.23	304.17
676.676	292.77
677.122	281.37
677.567	279.38
678.013	269.38
678.458	266.17
678.904	262.07
679.349	245.27
679.794	255.17
680.24	259.07
680.685	261.97
681.131	252.27
681.576	251.57
682.021	256.88
682.466	251.87
682.912	250.17
683.357	257.17
683.802	274.57
684.247	295.67
684.692	331.98
685.137	348.27
685.583	393.97
686.028	408.97
686.473	372.48
686.918	318.87
687.363	300.87
687.807	281.37
688.252	265.48
688.697	256.57
689.142	248.27
689.587	241.07
690.032	229.77
690.477	246.48
690.921	251.37
691.366	270.97
691.811	284.77
692.255	306.17
692.7	334.77
693.145	360.87
693.589	477.67
694.034	778.57
694.478	1092.58
694.923	1278.07
695.367	1719.17
695.812	900.17
696.256	374.87
696.701	270.27
697.145	237.08
697.59	230.07
698.034	222.37
698.478	234.27
698.922	226.37
699.367	239.08
699.811	237.97
700.255	253.37
700.699	272.97
701.143	296.98
701.588	330.67
702.032	377.27
702.476	364.18
702.92	352.57
703.364	354.37
703.808	432.27
704.252	706.38
704.696	1027.98
705.14	1233.37
705.584	1607.67
706.027	791.07
706.471	386.07
706.915	287.57
707.359	257.77
707.803	224.37
708.246	228.07
708.69	220.87
709.134	229.27
709.577	220.97
710.021	228.57
710.465	218.07
710.908	209.67
711.352	217.58
711.795	221.07
712.239	247.97
712.682	264.57
713.126	292.77
713.569	339.47
714.012	261.77
714.456	223.57
714.899	211.97
715.342	205.87
715.786	185.17
716.229	185.87
716.672	186.17
717.115	180.57
717.558	179.67
718.002	172.87
718.445	188.27
718.888	205.87
719.331	211.98
719.774	219.97
720.217	215.88
720.66	205.48
721.103	189.07
721.546	177.67
721.989	177.77
722.432	170.57
722.874	172.77
723.317	162.38
723.76	164.97
724.203	182.37
724.645	215.77
725.088	300.37
725.531	401.17
725.974	467.97
726.416	403.57
726.859	218.37
727.301	177.88
727.744	179.17
728.187	166.17
728.629	170.97
729.071	177.97
729.514	187.67
729.956	185.48
730.399	197.17
730.841	202.37
731.283	197.68
731.726	195.18
732.168	185.07
732.61	181.67
733.053	201.68
733.495	217.18
733.937	249.07
734.379	280.67
734.821	309.47
735.263	376.87
735.705	565.88
736.148	1079.97
736.59	1823.67
737.032	2288.47
737.474	1886.37
737.916	606.38
738.357	309.38
738.799	237.97
739.241	216.27
739.683	202.67
740.125	220.47
740.567	215.47
741.008	237.27
741.45	229.58
741.892	233.08
742.334	265.48
742.775	277.57
743.217	270.67
743.658	196.07
744.1	180.98
744.542	193.27
744.983	236.67
745.425	273.77
745.866	268.47
746.307	203.97
746.749	194.38
747.19	221.48
747.632	307.07
748.073	585.27
748.514	1271.17
748.956	2073.07
749.397	2580.88
749.838	2154.38
750.279	2238.17
750.72	1130.47
751.162	407.38
751.603	230.87
752.044	183.17
752.485	152.38
752.926	148.97
753.367	143.37
753.808	138.97
754.249	125.07
754.69	130.47
755.131	131.27
755.572	131.07
756.013	130.67
756.453	131.47
756.894	128.88
757.335	126.88
757.776	134.57
758.216	142.87
758.657	137.07
759.098	141.97
759.538	161.07
759.979	186.87
760.42	255.77
760.86	481.97
761.301	1234.67
761.741	3131.17
762.182	4990.48
762.622	3544.87
763.063	994.88
763.503	402.37
763.943	234.17
764.384	199.27
764.824	181.57
765.264	166.27
765.705	150.97
766.145	130.57
766.585	129.67
767.025	117.47
767.465	112.87
767.906	124.47
768.346	144.77
768.786	150.27
769.226	147.17
769.666	213.77
770.106	404.27
770.546	1043.68
770.986	1928.97
771.426	1796.47
771.866	585.77
772.306	232.17
772.745	149.37
773.185	120.17
773.625	118.37
774.065	104.27
774.505	119.87
774.944	145.67
775.384	270.67
775.824	490.07
776.263	484.97
776.703	217.98
777.142	115.38
777.582	94.07
778.021	87.27
778.461	89.07
778.9	93.57
779.34	93.57
779.779	85.07
780.219	74.07
780.658	73.17
781.097	72.47
781.537	75.77
781.976	72.57
782.415	70.57
782.855	68.87
783.294	68.07
783.733	68.57
784.172	73.57
784.611	70.17
785.05	73.87
785.489	86.67
785.928	87.37
786.367	88.07
786.806	78.37
787.245	82.77
787.684	93.17
788.123	105.67
788.562	96.77
789.001	86.77
789.44	83.77
789.879	76.57
790.317	84.67
790.756	97.17
791.195	86.38
791.634	104.57
792.072	148.27
792.511	246.27
792.95	672.98
793.388	1546.87
793.827	1466.97
794.265	499.77
794.704	199.17
795.142	128.98
795.581	108.17
796.019	96.87
796.458	91.67
796.896	83.97
797.334	89.57
797.773	108.77
798.211	156.87
798.649	289.37
799.087	714.77
799.526	1147.47
799.964	1447.67
800.402	1544.47
800.84	563.47
801.278	216.08
801.716	131.17
802.154	107.17
802.592	106.17
803.03	96.77
803.468	98.77
803.906	98.38
804.344	108.38
804.782	97.17
805.22	97.47
805.658	86.77
806.096	105.38
806.533	117.77
806.971	126.57
807.409	158.37
807.847	220.67
808.284	445.27
808.722	1304.67
809.16	2462.38
809.597	2257.07
810.035	4040.98
810.472	4625.98
810.91	1648.17
811.347	598.37
811.785	306.07
812.222	196.37
812.66	152.57
813.097	122.57
813.535	100.37
813.972	93.97
814.409	90.37
814.846	80.17
815.284	76.47
815.721	66.57
816.158	73.07
816.595	78.38
817.032	117.87
817.47	148.37
817.907	112.88
818.344	70.47
818.781	71.27
819.218	66.17
819.655	92.07
820.092	151.27
820.529	177.87
820.966	136.98
821.403	105.47
821.839	73.97
822.276	63.57
822.713	94.67
823.15	103.38
823.587	89.67
824.023	106.77
824.46	199.68
824.897	614.88
825.333	1029.28
825.77	443.47
826.206	166.77
826.643	98.97
827.08	67.88
827.516	62.38
827.953	57.57
828.389	61.97
828.825	49.07
829.262	47.17
829.698	43.27
830.135	46.97
830.571	44.87
831.007	41.88
831.443	47.37
831.88	41.27
832.316	39.37
832.752	37.67
833.188	44.67
833.624	40.27
834.06	47.97
834.497	48.37
834.933	52.07
835.369	54.17
835.805	50.47
836.241	51.07
836.677	59.38
837.112	62.07
837.548	67.97
837.984	88.47
838.42	139.48
838.856	345.67
839.292	1087.07
839.727	1759.97
840.163	816.17
840.599	665.17
841.034	1496.27
841.47	1678.97
841.906	597.27
842.341	248.88
842.777	147.98
843.212	154.67
843.648	153.27
844.083	82.37
844.519	55.57
844.954	53.67
845.39	38.07
845.825	42.97
846.261	44.38
846.696	39.27
847.131	40.27
847.566	42.37
848.002	39.77
848.437	38.07
848.872	41.38
849.307	43.17
849.742	51.07
850.177	125.48
850.613	389.07
851.048	658.98
851.483	278.57
851.918	111.47
852.353	56.87
852.788	36.97
853.223	35.57
853.657	38.27
854.092	34.38
854.527	31.47
854.962	28.47
855.397	31.88
855.832	37.97
856.266	27.57
856.701	25.48
857.136	22.27
857.57	30.77
858.005	35.88
858.44	43.77
858.874	37.77
859.309	42.48
859.743	31.47
860.178	33.27
860.612	32.37
861.047	37.67
861.481	52.57
861.915	57.38
862.35	33.47
862.784	24.97
863.218	25.77
863.653	20.87
864.087	33.17
864.521	44.47
864.955	56.27
865.39	108.57
865.824	132.27
866.258	93.98
866.692	145.57
867.126	163.77
867.56	93.87
867.994	40.17
868.428	29.67
868.862	40.07
869.296	52.67
869.73	48.77
870.164	34.47
870.598	38.88
871.031	28.67
871.465	22.97
871.899	23.48
872.333	20.77
872.766	16.27
873.2	14.87
873.634	21.97
874.067	23.67
874.501	19.47
874.935	24.57
875.368	19.17
875.802	14.17
876.235	20.17
876.669	16.67
877.102	20.27
877.535	16.07
877.969	17.38
878.402	17.47
878.836	9.77
879.269	17.88
879.702	12.47
880.135	14.17
880.569	11.17
881.002	23.17
881.435	14.47
881.868	11.97
882.301	11.27
882.734	10.07
883.167	23.38
883.601	8.77
884.034	15.27
884.467	3.77
884.899	14.87
885.332	12.88
885.765	5.27
886.198	14.37
886.631	13.27
887.064	12.37
887.497	11.87
887.929	14.67
888.362	9.17
888.795	10.07
889.228	13.97
889.66	12.97
890.093	5.27
890.526	10.67
890.958	15.48
891.391	11.88
891.823	17.07
892.256	11.97
892.688	5.27
893.121	7.57
893.553	6.77
893.985	13.37
894.418	13.87
894.85	4.77
895.282	14.27
895.715	12.87
896.147	8.38
896.579	7.57
897.011	11.48
897.444	11.38
897.876	8.67
898.308	11.67
898.74	12.27
899.172	4.07
899.604	16.07
900.036	12.07
900.468	8.47
900.9	5.07
901.332	15.47
901.764	6.37
902.196	9.48
902.628	14.37
903.06	7.17
903.491	17.07
903.923	13.67
904.355	13.07
904.787	18.57
905.218	13.77
905.65	15.97
906.082	2.17
906.513	4.37
906.945	12.87
907.376	11.47
907.808	9.37
908.239	14.57
908.671	10.07
909.102	13.27
909.534	13.57
909.965	36.67
910.397	65.77
910.828	234.67
911.259	373.07
911.691	162.27
912.122	75.57
912.553	36.47
912.984	25.27
913.415	22.77
913.847	20.77
914.278	9.57
914.709	7.97
915.14	14.38
915.571	13.97
916.002	5.07
916.433	12.27
916.864	12.67
917.295	7.87
917.726	12.57
918.157	4.77
918.587	19.07
919.018	13.57
919.449	9.38
919.88	21.67
920.311	25.27
920.741	31.17
921.172	122.57
921.603	114.37
922.033	52.67
922.464	33.38
922.895	17.27
923.325	13.47
923.756	9.97
924.186	-1.33
924.617	11.48
925.047	15.27
925.478	16.97
925.908	21.17
926.338	14.47
926.769	3.07
927.199	16.38
927.629	2.38
928.06	5.27
928.49	12.88
928.92	6.17
929.35	5.67
929.78	3.37
930.21	-1.83
930.641	7.87
931.071	4.97
931.501	1.17
931.931	4.88
932.361	3.77
932.791	-2.33
933.221	2.97
933.651	-0.93
934.08	4.47
934.51	22.87
934.94	6.57
935.37	3.67
935.8	10.47
936.229	0.17
936.659	1.97
937.089	1.47
937.519	11.37
937.948	19.17
938.378	15.07
938.807	3.57
939.237	2.67
939.666	3.38
940.096	-8.13
940.525	-1.23
940.955	6.57
941.384	5.48
941.814	-6.23
942.243	-1.53
942.672	5.87
943.102	-3.83
943.531	-4.62
943.96	3.37
944.39	-3.03
944.819	2.27
945.248	1.27
945.677	6.47
946.106	5.47
946.535	0.47
946.964	-3.73
947.393	-2.03
947.822	1.67
948.251	-6.53
948.68	0.67
949.109	-0.63
949.538	3.17
949.967	-4.43
950.396	1.47
950.825	-0.93
951.254	0.38
951.682	-10.93
952.111	2.38
952.54	7.77
952.969	-9.13
953.397	-9.93
953.826	0.47
954.254	-1.73
954.683	2.17
955.112	-6.03
955.54	-0.23
955.969	-2.53
956.397	-2.23
956.826	0.97
957.254	0.27
957.682	0.87
958.111	7.47
958.539	-0.03
958.967	2.47
959.396	2.47
959.824	-1.62
960.252	1.67
960.68	-4.23
961.109	-3.43
961.537	-8.23
961.965	-4.83
962.393	-2.62
962.821	-9.52
963.249	3.27
963.677	1.88
964.105	9.17
964.533	26.48
964.961	31.77
965.389	12.98
965.817	4.17
966.245	-2.83
966.672	-1.62
967.1	-8.83
967.528	2.77
967.956	-1.83
968.383	-3.63
968.811	-5.62
969.239	-5.93
969.666	-2.43
970.094	-0.53
970.522	2.67
970.949	0.77
971.377	-4.43
971.804	-8.43
972.232	-3.83
972.659	-3.73
973.087	-6.53
973.514	-4.93
973.941	-6.13
974.369	3.47
974.796	2.57
975.223	3.67
975.651	1.17
976.078	6.97
976.505	-0.73
976.932	3.47
977.359	7.67
977.786	7.97
978.214	2.97
978.641	-3.13
979.068	-2.33
979.495	-6.93
979.922	-3.23
980.349	-3.73
980.776	-2.23
981.202	1.47
981.629	-0.23
982.056	0.77
982.483	-2.23
982.91	3.88
983.337	-9.63
983.763	1.67
984.19	1.47
984.617	-4.83
985.043	-1.43
985.47	-4.03
985.897	-7.12
986.323	-8.23
986.75	2.88
987.176	-1.63
987.603	-4.03
988.029	-1.33
988.456	-4.03
988.882	2.27
989.308	-12.93
989.735	-4.63
990.161	-5.13
990.587	-3.23
991.014	-3.63
991.44	6.47
991.866	-2.52
992.292	-6.33
992.719	-3.43
993.145	-0.12
993.571	-7.62
993.997	-5.23
994.423	6.47
994.849	-6.93
995.275	-0.62
995.701	-3.43
996.127	-1.73
996.553	1.97
996.979	-5.03
997.405	0.27
997.83	-8.93
998.256	-3.83
998.682	-0.83
999.108	-10.63
999.534	-2.73
999.959	-2.93
1000.385	-4.23
1000.811	3.17
1001.236	-3.23
1001.662	-6.03
1002.087	-5.73
1002.513	-5.13
1002.938	4.98
1003.364	-0.93
1003.789	-8.73
1004.215	5.17
1004.64	-6.43
1005.066	6.97
1005.491	-0.02
1005.916	-1.43
1006.342	-2.52
1006.767	-7.33
1007.192	4.67
1007.617	-0.23
1008.042	0.77
1008.468	-8.83
1008.893	-3.83
1009.318	-3.23
1009.743	0.57
1010.168	4.97
1010.593	-0.73
1011.018	-6.03
1011.443	-1.43
1011.868	0.67
1012.293	-4.23
1012.718	-3.43
1013.143	1.77
1013.567	1.87
1013.992	-0.73
1014.417	-6.83
1014.842	-4.23
1015.267	-4.93
1015.691	-3.73
1016.116	3.67
1016.541	3.07
1016.965	1.17
1017.39	7.87
1017.814	1.27
1018.239	0.17
1018.663	-11.63
1019.088	-11.93
1019.512	-1.33
1019.937	1.17
1020.361	-5.83
1020.785	-10.23
1021.21	-1.73
1021.634	-5.62
1022.058	3.87
1022.483	-2.33
1022.907	-7.93
1023.331	-1.52
1023.755	-11.23
1024.179	-4.13
1024.604	-8.23
1025.028	-1.43
1025.452	-11.13
1025.876	-1.33
1026.3	-6.03
1026.724	-11.93
1027.148	-5.93
1027.572	-7.62
1027.996	-2.03
1028.42	-0.43
1028.843	-2.03
1029.267	-6.63
1029.691	1.17
1030.115	-4.93
1030.539	-1.43
1030.962	-6.73
1031.386	-10.43
1031.81	-0.43
1032.233	2.27
1032.657	-0.73
1033.08	-2.43
1033.504	-1.53
1033.927	-5.43
1034.351	5.27
1034.774	-1.63
1035.198	-1.23
1035.621	-9.52
1036.045	-10.63
1036.468	-2.03
1036.891	-6.33
1037.315	-7.03
1037.738	-6.93
1038.161	0.77
1038.584	-8.43
1039.008	-4.83
1039.431	-4.13
1039.854	-2.63
1040.277	-15.43
1040.7	-10.12
1041.123	-2.13
1041.546	-13.12
1041.969	-3.23
1042.392	-10.13
1042.815	-0.73
1043.238	-4.23
1043.661	-1.13
1044.084	-8.73
1044.507	-5.53
1044.93	-1.83
1045.352	-9.43
1045.775	-1.73
1046.198	-5.12
1046.621	-0.23
1047.043	-3.62
1047.466	5.57
1047.889	-1.93
1048.311	-6.23
1048.734	-6.03
1049.156	-3.12
1049.579	-5.33
1050.001	-4.43
1050.424	-4.43
1050.846	-4.43
1051.269	-3.02
1051.691	-5.52
1052.113	-5.03
1052.536	1.88
1052.958	1.67
1053.38	-1.63
1053.802	-6.33
1054.225	-3.03
1054.647	-13.73
1055.069	-5.63
1055.491	1.57
1055.913	-7.83
1056.335	2.97
1056.757	-7.33
1057.179	-7.93
1057.601	-2.12
1058.023	-2.12
1058.445	-7.13
1058.867	-7.83
1059.289	-4.93
1059.711	-11.62
1060.133	-1.23
1060.555	-7.63
1060.976	-3.43
1061.398	-3.93
1061.82	-7.73
1062.241	-8.13
1062.663	-8.23
1063.085	-5.33
1063.506	-6.12
1063.928	-6.13
1064.35	1.77
1064.771	-13.23
1065.193	-5.43
1065.614	-13.83
1066.035	-4.33
1066.457	-9.43
1066.878	-4.93
1067.3	-6.23
1067.721	-0.83
1068.142	-6.23
1068.564	-1.93
1068.985	-3.53
1069.406	-4.12
1069.827	-11.23
1070.248	0.67
1070.67	-4.93
1071.091	-4.12
1071.512	-4.23
1071.933	-6.53
1072.354	-0.93
1072.775	-5.53
1073.196	-2.62
1073.617	-4.43
1074.038	-7.43
1074.459	-4.62
1074.88	-6.53
1075.3	1.37
1075.721	-11.73
1076.142	-0.73
1076.563	-8.13
1076.983	-12.83
1077.404	-4.12
1077.825	-10.02
1078.246	-3.83
1078.666	-6.43
1079.087	-2.33
1079.507	-4.03
1079.928	2.97
1080.348	-2.12
1080.769	-3.63
1081.189	-2.23
1081.61	0.38
1082.03	-9.03
1082.451	-8.13
1082.871	-5.12
1083.291	-8.83
1083.711	-9.43
1084.132	-5.43
1084.552	-5.53
1084.972	2.57
1085.392	-11.13
1085.813	-15.53
1086.233	-7.13
1086.653	-8.43
1087.073	-4.83
1087.493	-6.03
1087.913	-8.63
1088.333	-5.93
1088.753	-8.93
1089.173	-1.53
1089.593	-6.02
1090.013	-1.23
1090.433	3.27
1090.852	-5.13
1091.272	-0.23
1091.692	3.77
1092.112	-1.43
1092.531	-8.23
1092.951	-7.83
1093.371	4.27
1093.79	1.17
1094.21	-3.03
1094.63	-7.03
1095.049	-6.33
1095.469	-1.43
1095.888	-5.43
1096.308	-1.23
1096.727	6.47
1097.146	-0.33
1097.566	1.07
1097.985	-0.73
1098.405	-0.23
1098.824	-6.53
1099.243	-3.12
1099.662	-10.43
1100.082	-6.73
1100.501	-0.13
1100.92	-7.43
1101.339	-1.33
1101.758	-8.12
