Data from 20171114-ORNL-Ar_H_NY_Subt18_08-08-30-125.txt Node
Date: Tue Nov 14 08:08:30 EST 2017
User: Ender
Spectrometer: HR+D1039
Trigger mode: 0
Integration Time (sec): 2.730000E-2
Scans to average: 10
Electric dark correction enabled: true
Nonlinearity correction enabled: false
Boxcar width: 0
XAxis mode: Wavelengths
Number of Pixels in Spectrum: 2048
>>>>>Begin Spectral Data<<<<<
187.836	-4.41
188.309	-4.41
188.782	-4.41
189.255	-0.91
189.728	-5.41
190.201	5.39
190.674	0.29
191.147	5.39
191.619	-8.51
192.092	6.49
192.565	5.09
193.038	-1.01
193.511	0.79
193.984	-1.81
194.456	1.39
194.929	3.49
195.402	-5.01
195.874	-1.31
196.347	-4.21
196.82	-1.71
197.292	4.49
197.765	-2.81
198.237	-5.71
198.71	-3.21
199.182	-5.01
199.655	7.49
200.127	1.89
200.6	5.89
201.072	-7.31
201.544	-1.31
202.017	0.69
202.489	7.29
202.961	-1.11
203.433	-5.11
203.906	-8.71
204.378	-6.91
204.85	-6.51
205.322	-11.41
205.794	-1.21
206.266	-3.21
206.739	-9.41
207.211	3.19
207.683	-8.91
208.155	-9.21
208.627	-2.01
209.099	1.09
209.57	-4.31
210.042	-6.51
210.514	-6.41
210.986	-0.21
211.458	-7.01
211.93	-1.31
212.402	1.69
212.873	-7.41
213.345	-9.81
213.817	-13.31
214.288	-2.01
214.76	-7.11
215.232	-2.41
215.703	-0.41
216.175	-2.51
216.646	-2.31
217.118	-4.91
217.589	-3.71
218.061	-3.51
218.532	-7.61
219.004	-1.51
219.475	-4.61
219.946	-4.51
220.418	-7.21
220.889	5.19
221.36	-1.61
221.832	-6.01
222.303	-9.81
222.774	-0.21
223.245	-8.41
223.717	-4.01
224.188	-4.71
224.659	-3.61
225.13	-2.81
225.601	-2.41
226.072	5.09
226.543	-4.81
227.014	-4.51
227.485	1.79
227.956	-1.21
228.427	-2.41
228.898	-0.31
229.369	3.79
229.839	-3.11
230.31	-2.61
230.781	6.19
231.252	0.39
231.722	-2.21
232.193	2.99
232.664	-0.01
233.135	1.59
233.605	0.39
234.076	-6.01
234.546	0.19
235.017	5.79
235.487	-0.21
235.958	-4.41
236.428	-3.31
236.899	-1.91
237.369	2.59
237.84	0.39
238.31	3.79
238.78	-7.21
239.251	-2.71
239.721	0.19
240.191	-0.81
240.662	-1.21
241.132	-3.11
241.602	-4.51
242.072	-5.91
242.542	0.89
243.013	-2.21
243.483	-2.01
243.953	2.69
244.423	-2.61
244.893	-1.71
245.363	-1.41
245.833	-2.51
246.303	-0.31
246.773	5.79
247.243	6.99
247.712	-4.11
248.182	0.09
248.652	2.59
249.122	-6.31
249.592	1.59
250.061	6.99
250.531	8.49
251.001	-0.11
251.471	8.29
251.94	7.49
252.41	6.39
252.879	0.69
253.349	10.19
253.818	7.39
254.288	2.79
254.757	2.09
255.227	-0.11
255.696	-1.21
256.166	6.39
256.635	5.29
257.105	-0.01
257.574	1.19
258.043	2.69
258.513	-1.51
258.982	7.49
259.451	0.39
259.92	4.89
260.389	4.99
260.859	10.69
261.328	8.99
261.797	8.79
262.266	1.89
262.735	8.09
263.204	1.19
263.673	-2.51
264.142	6.89
264.611	-4.71
265.08	2.59
265.549	-3.51
266.018	1.89
266.487	-2.41
266.955	0.69
267.424	-3.51
267.893	5.29
268.362	-3.31
268.83	4.39
269.299	16.29
269.768	3.99
270.236	8.59
270.705	2.29
271.174	4.29
271.642	3.19
272.111	1.89
272.579	3.19
273.048	2.29
273.516	5.19
273.985	10.69
274.453	18.29
274.922	17.19
275.39	9.09
275.858	3.59
276.327	10.39
276.795	19.09
277.263	0.09
277.731	16.09
278.2	19.59
278.668	17.79
279.136	14.09
279.604	2.59
280.072	6.69
280.54	13.39
281.008	7.79
281.477	8.99
281.945	10.29
282.413	9.09
282.881	14.59
283.348	7.09
283.816	12.29
284.284	12.89
284.752	22.69
285.22	10.49
285.688	11.69
286.156	14.29
286.623	30.39
287.091	20.29
287.559	15.79
288.026	13.59
288.494	11.99
288.962	7.89
289.429	11.19
289.897	19.49
290.364	12.79
290.832	11.69
291.3	15.39
291.767	8.39
292.234	12.09
292.702	14.29
293.169	16.49
293.637	24.99
294.104	18.09
294.571	7.59
295.039	6.99
295.506	16.29
295.973	14.19
296.44	15.19
296.908	17.49
297.375	14.09
297.842	18.69
298.309	14.69
298.776	11.09
299.243	22.19
299.71	10.19
300.177	16.99
300.644	23.39
301.111	21.89
301.578	19.99
302.045	19.09
302.512	19.59
302.979	21.39
303.446	9.09
303.913	13.19
304.379	15.29
304.846	22.99
305.313	22.99
305.78	22.79
306.246	24.89
306.713	24.19
307.18	20.49
307.646	24.49
308.113	26.19
308.579	22.69
309.046	30.79
309.512	28.59
309.979	23.49
310.445	26.09
310.912	29.39
311.378	25.49
311.845	31.69
312.311	27.29
312.777	32.59
313.244	31.79
313.71	42.89
314.176	28.59
314.642	29.89
315.109	33.09
315.575	35.99
316.041	31.19
316.507	31.59
316.973	31.89
317.439	33.09
317.905	33.29
318.371	32.19
318.837	31.59
319.303	27.39
319.769	32.19
320.235	32.89
320.701	35.89
321.167	36.39
321.633	31.09
322.099	33.49
322.564	36.49
323.03	37.29
323.496	36.89
323.962	37.89
324.427	28.99
324.893	42.39
325.359	32.99
325.824	39.29
326.29	36.99
326.755	35.59
327.221	37.09
327.686	34.29
328.152	42.69
328.617	43.49
329.083	48.09
329.548	45.49
330.014	50.59
330.479	34.39
330.944	46.09
331.41	40.99
331.875	49.09
332.34	38.99
332.805	35.49
333.271	44.59
333.736	37.79
334.201	49.79
334.666	45.39
335.131	48.19
335.596	52.29
336.061	44.09
336.526	44.59
336.991	50.49
337.456	55.39
337.921	50.29
338.386	43.89
338.851	43.89
339.316	50.39
339.781	46.09
340.246	52.09
340.711	44.39
341.175	50.99
341.64	42.29
342.105	45.19
342.569	57.69
343.034	57.19
343.499	56.49
343.963	49.69
344.428	64.59
344.893	59.79
345.357	58.19
345.822	62.39
346.286	67.59
346.751	78.59
347.215	69.39
347.679	68.39
348.144	95.39
348.608	79.69
349.073	70.09
349.537	75.99
350.001	80.19
350.465	82.29
350.93	86.69
351.394	83.39
351.858	82.19
352.322	89.49
352.786	81.19
353.25	102.69
353.715	110.09
354.179	97.09
354.643	118.89
355.107	119.89
355.571	99.99
356.035	108.09
356.498	112.69
356.962	118.09
357.426	119.89
357.89	117.59
358.354	88.79
358.818	78.99
359.281	79.89
359.745	75.99
360.209	76.19
360.673	69.79
361.136	76.59
361.6	84.49
362.064	82.79
362.527	85.09
362.991	92.49
363.454	79.79
363.918	79.69
364.381	78.29
364.845	80.09
365.308	82.99
365.772	87.99
366.235	82.79
366.698	77.29
367.162	85.39
367.625	90.89
368.088	91.79
368.552	90.29
369.015	91.99
369.478	93.49
369.941	104.89
370.404	97.49
370.867	112.49
371.331	101.09
371.794	112.19
372.257	101.19
372.72	108.39
373.183	101.69
373.646	98.79
374.109	98.59
374.572	103.29
375.035	100.29
375.497	113.09
375.96	115.59
376.423	104.49
376.886	108.69
377.349	108.19
377.811	106.89
378.274	104.89
378.737	108.69
379.199	106.19
379.662	114.39
380.125	119.49
380.587	115.69
381.05	109.59
381.512	118.99
381.975	127.09
382.437	122.49
382.9	124.99
383.362	124.89
383.825	131.19
384.287	132.39
384.75	129.69
385.212	132.29
385.674	140.29
386.136	137.99
386.599	127.69
387.061	126.09
387.523	125.19
387.985	132.69
388.447	134.79
388.91	132.89
389.372	128.69
389.834	135.99
390.296	131.39
390.758	134.59
391.22	150.09
391.682	158.69
392.144	186.79
392.606	167.69
393.068	146.49
393.529	160.19
393.991	143.49
394.453	140.49
394.915	136.69
395.377	145.59
395.838	153.79
396.3	148.09
396.762	149.09
397.224	144.69
397.685	136.39
398.147	136.39
398.608	131.99
399.07	140.79
399.531	145.69
399.993	153.99
400.454	163.09
400.916	155.39
401.377	147.89
401.839	151.89
402.3	155.59
402.762	173.69
403.223	184.49
403.684	176.19
404.145	163.39
404.607	168.39
405.068	164.99
405.529	178.59
405.99	187.29
406.451	179.59
406.913	179.59
407.374	168.09
407.835	169.19
408.296	181.69
408.757	182.99
409.218	202.19
409.679	183.39
410.14	182.89
410.601	185.69
411.062	187.79
411.522	191.39
411.983	187.39
412.444	179.39
412.905	186.69
413.366	190.29
413.826	207.19
414.287	237.29
414.748	274.79
415.208	261.99
415.669	224.89
416.13	225.29
416.59	220.99
417.051	229.49
417.511	234.99
417.972	255.59
418.432	262.29
418.893	321.19
419.353	274.89
419.814	215.49
420.274	199.19
420.734	192.39
421.195	202.99
421.655	205.59
422.115	208.89
422.576	205.29
423.036	216.99
423.496	222.49
423.956	231.89
424.416	241.89
424.876	286.09
425.336	285.29
425.797	278.89
426.257	269.29
426.717	254.29
427.177	236.19
427.637	233.59
428.097	243.29
428.556	257.59
429.016	283.29
429.476	280.29
429.936	287.79
430.396	288.19
430.856	296.19
431.315	323.99
431.775	363.49
432.235	397.99
432.694	365.89
433.154	376.09
433.614	403.29
434.073	343.49
434.533	301.59
434.993	285.69
435.452	290.49
435.912	303.89
436.371	301.49
436.83	289.39
437.29	277.09
437.749	262.59
438.209	262.59
438.668	292.09
439.127	294.79
439.587	279.89
440.046	260.59
440.505	274.99
440.964	295.29
441.424	339.89
441.883	325.79
442.342	277.49
442.801	242.89
443.26	239.99
443.719	235.39
444.178	236.59
444.637	227.09
445.096	242.79
445.555	238.79
446.014	242.29
446.473	245.79
446.932	251.79
447.391	246.89
447.849	242.99
448.308	228.79
448.767	232.19
449.226	257.99
449.685	247.19
450.143	269.19
450.602	257.09
451.061	241.19
451.519	251.39
451.978	253.69
452.436	254.39
452.895	262.19
453.353	268.09
453.812	256.79
454.27	257.99
454.729	253.69
455.187	257.39
455.646	260.29
456.104	267.19
456.562	276.19
457.021	285.59
457.479	283.89
457.937	291.09
458.395	287.39
458.854	262.59
459.312	276.49
459.77	295.09
460.228	276.59
460.686	261.09
461.144	262.99
461.602	263.99
462.06	270.59
462.518	278.19
462.976	274.19
463.434	278.79
463.892	277.69
464.35	293.29
464.808	299.29
465.266	290.69
465.724	290.59
466.181	292.19
466.639	285.79
467.097	311.49
467.555	321.09
468.012	325.19
468.47	328.09
468.928	349.79
469.385	366.19
469.843	374.39
470.3	369.69
470.758	386.69
471.215	411.19
471.673	434.89
472.13	433.59
472.588	447.09
473.045	394.49
473.503	408.99
473.96	424.39
474.417	432.99
474.875	460.99
475.332	509.49
475.789	491.59
476.246	496.29
476.704	517.49
477.161	539.29
477.618	548.09
478.075	589.19
478.532	639.09
478.989	713.59
479.446	828.19
479.903	799.49
480.36	819.69
480.817	866.99
481.274	959.89
481.731	1059.49
482.188	1137.19
482.645	1271.49
483.102	1364.39
483.558	1484.49
484.015	1529.39
484.472	1497.69
484.929	1446.49
485.385	1401.09
485.842	1379.99
486.299	1320.19
486.755	1280.19
487.212	1100.69
487.668	946.29
488.125	871.99
488.582	798.29
489.038	770.59
489.494	739.19
489.951	710.79
490.407	688.69
490.864	670.69
491.32	678.09
491.776	665.69
492.233	675.19
492.689	634.39
493.145	633.09
493.602	634.69
494.058	642.29
494.514	630.79
494.97	660.79
495.426	679.49
495.882	650.89
496.338	641.09
496.794	653.59
497.251	636.39
497.707	661.29
498.163	657.99
498.618	660.29
499.074	666.09
499.53	696.89
499.986	706.99
500.442	677.09
500.898	654.89
501.354	649.69
501.809	657.99
502.265	655.09
502.721	669.09
503.177	673.59
503.632	680.69
504.088	685.19
504.543	708.29
504.999	728.49
505.455	689.19
505.91	663.99
506.366	668.39
506.821	674.49
507.277	661.79
507.732	667.89
508.187	670.49
508.643	679.59
509.098	678.79
509.553	694.99
510.009	699.29
510.464	705.59
510.919	737.99
511.375	728.39
511.83	749.09
512.285	762.19
512.74	802.39
513.195	817.09
513.65	799.79
514.105	801.99
514.56	811.39
515.015	825.89
515.47	837.89
515.925	813.89
516.38	819.29
516.835	835.59
517.29	815.49
517.745	813.39
518.2	800.29
518.655	794.09
519.109	776.79
519.564	772.19
520.019	760.69
520.474	757.59
520.928	757.89
521.383	752.19
521.838	750.89
522.292	748.79
522.747	742.29
523.201	739.09
523.656	736.29
524.11	733.99
524.565	738.29
525.019	729.09
525.474	731.39
525.928	726.29
526.382	734.59
526.837	729.79
527.291	746.09
527.745	730.59
528.2	729.69
528.654	720.79
529.108	715.59
529.562	723.59
530.016	725.29
530.47	724.09
530.925	718.29
531.379	721.99
531.833	732.89
532.287	731.59
532.741	728.99
533.195	731.09
533.649	740.49
534.103	753.49
534.556	743.99
535.01	751.49
535.464	737.39
535.918	744.49
536.372	753.19
536.826	747.49
537.279	734.79
537.733	737.09
538.187	740.89
538.64	747.69
539.094	759.19
539.548	766.09
540.001	751.09
540.455	767.59
540.908	776.69
541.362	784.29
541.815	790.09
542.269	799.69
542.722	799.09
543.175	803.69
543.629	807.29
544.082	824.99
544.536	832.19
544.989	824.29
545.442	832.29
545.895	823.59
546.349	825.99
546.802	842.09
547.255	847.99
547.708	854.69
548.161	855.69
548.614	871.49
549.067	864.99
549.52	863.09
549.973	855.99
550.426	848.29
550.879	840.19
551.332	848.59
551.785	849.69
552.238	850.79
552.691	860.59
553.144	867.19
553.596	896.89
554.049	912.19
554.502	939.49
554.955	951.09
555.407	951.49
555.86	949.49
556.313	936.09
556.765	919.69
557.218	930.59
557.67	919.19
558.123	918.49
558.576	923.19
559.028	922.69
559.48	934.49
559.933	911.59
560.385	885.39
560.838	855.39
561.29	831.69
561.742	834.69
562.195	814.09
562.647	813.79
563.099	818.09
563.551	811.59
564.004	823.49
564.456	806.19
564.908	801.99
565.36	778.49
565.812	767.89
566.264	754.09
566.716	746.89
567.168	740.09
567.62	749.99
568.072	728.59
568.524	736.39
568.976	723.49
569.428	714.79
569.88	707.49
570.332	716.09
570.784	726.39
571.235	719.59
571.687	736.09
572.139	737.19
572.59	748.49
573.042	746.49
573.494	742.89
573.945	745.29
574.397	724.29
574.849	717.89
575.3	728.39
575.752	727.39
576.203	717.79
576.655	706.89
577.106	708.79
577.557	701.69
578.009	702.49
578.46	700.09
578.912	701.69
579.363	694.39
579.814	703.49
580.265	699.99
580.717	707.79
581.168	700.49
581.619	717.19
582.07	719.79
582.521	709.89
582.972	705.29
583.423	706.99
583.875	703.09
584.326	717.49
584.777	740.69
585.227	773.19
585.678	793.79
586.129	827.09
586.58	848.09
587.031	873.99
587.482	936.39
587.933	988.49
588.384	944.29
588.834	858.29
589.285	825.69
589.736	814.69
590.186	820.89
590.637	805.79
591.088	786.39
591.538	776.79
591.989	757.79
592.439	766.39
592.89	756.99
593.34	737.59
593.791	736.09
594.241	729.89
594.692	723.79
595.142	749.49
595.593	734.69
596.043	736.29
596.493	746.39
596.943	743.59
597.394	757.59
597.844	755.49
598.294	775.79
598.744	797.69
599.195	823.29
599.645	861.89
600.095	918.39
600.545	962.29
600.995	1022.29
601.445	1065.79
601.895	1124.79
602.345	1188.39
602.795	1166.99
603.245	1119.89
603.695	1061.39
604.145	1007.29
604.594	957.69
605.044	896.89
605.494	839.79
605.944	807.79
606.393	783.89
606.843	776.19
607.293	766.09
607.743	765.69
608.192	776.89
608.642	791.39
609.091	791.69
609.541	798.69
609.99	797.99
610.44	800.19
610.889	754.29
611.339	729.99
611.788	720.49
612.238	728.29
612.687	740.09
613.136	731.49
613.586	743.09
614.035	736.39
614.484	752.69
614.933	742.19
615.383	743.19
615.832	737.59
616.281	738.99
616.73	708.69
617.179	697.19
617.628	688.49
618.077	663.49
618.526	657.49
618.975	646.89
619.424	653.59
619.873	646.39
620.322	650.79
620.771	639.89
621.22	627.09
621.669	625.99
622.118	611.89
622.567	600.49
623.015	598.49
623.464	600.89
623.913	589.89
624.361	588.09
624.81	578.39
625.259	573.09
625.707	582.79
626.156	578.39
626.604	599.69
627.053	592.99
627.501	592.39
627.95	593.69
628.398	609.09
628.847	603.99
629.295	591.79
629.744	604.19
630.192	596.99
630.64	598.49
631.089	575.09
631.537	568.79
631.985	567.89
632.433	568.79
632.881	559.79
633.33	578.59
633.778	563.69
634.226	559.99
634.674	572.29
635.122	571.89
635.57	583.99
636.018	599.89
636.466	586.29
636.914	587.99
637.362	606.09
637.81	601.89
638.258	612.69
638.705	611.19
639.153	638.99
639.601	653.99
640.049	676.99
640.497	710.29
640.944	725.39
641.392	678.09
641.84	648.59
642.287	614.29
642.735	598.69
643.182	594.79
643.63	596.89
644.078	589.99
644.525	607.09
644.973	603.69
645.42	618.69
645.867	636.89
646.315	658.19
646.762	673.59
647.21	718.59
647.657	739.99
648.104	766.49
648.551	795.49
648.999	860.39
649.446	926.59
649.893	1009.69
650.34	1162.29
650.787	1395.59
651.234	1715.99
651.682	2209.49
652.129	3011.69
652.576	4268.49
653.023	6220.19
653.47	8362.09
653.917	10391.19
654.363	11850.49
654.81	13055.89
655.257	12339.99
655.704	8220.79
656.151	4939.39
656.598	3237.09
657.044	2341.29
657.491	1815.99
657.938	1463.99
658.385	1232.09
658.831	1076.39
659.278	967.19
659.724	860.29
660.171	799.79
660.618	738.79
661.064	708.59
661.511	685.39
661.957	683.79
662.404	659.79
662.85	668.19
663.296	648.09
663.743	578.79
664.189	558.59
664.635	557.39
665.082	545.69
665.528	549.09
665.974	531.79
666.42	533.69
666.867	526.89
667.313	500.99
667.759	489.69
668.205	476.79
668.651	476.09
669.097	473.49
669.543	472.19
669.989	468.59
670.435	464.79
670.881	469.09
671.327	472.09
671.773	489.09
672.219	519.59
672.665	583.49
673.11	621.59
673.556	656.99
674.002	702.19
674.448	695.79
674.893	573.59
675.339	508.09
675.785	471.29
676.23	437.59
676.676	411.89
677.122	403.09
677.567	394.89
678.013	387.29
678.458	379.79
678.904	376.49
679.349	373.89
679.794	381.19
680.24	374.29
680.685	368.59
681.131	366.59
681.576	374.39
682.021	378.49
682.466	368.09
682.912	372.79
683.357	369.39
683.802	407.09
684.247	435.69
684.692	482.39
685.137	516.99
685.583	567.29
686.028	593.29
686.473	546.29
686.918	477.09
687.363	447.19
687.807	423.49
688.252	386.59
688.697	370.79
689.142	354.19
689.587	346.09
690.032	347.29
690.477	361.99
690.921	372.29
691.366	403.89
691.811	430.79
692.255	458.09
692.7	490.49
693.145	539.69
693.589	753.39
694.034	1223.29
694.478	1641.69
694.923	1838.59
695.367	2371.59
695.812	1272.29
696.256	527.29
696.701	395.99
697.145	361.89
697.59	356.09
698.034	339.39
698.478	345.99
698.922	341.69
699.367	345.99
699.811	358.59
700.255	373.99
700.699	406.09
701.143	447.69
701.588	498.69
702.032	538.99
702.476	539.39
702.92	519.69
703.364	531.89
703.808	694.89
704.252	1128.89
704.696	1569.19
705.14	1771.09
705.584	2223.59
706.027	1136.59
706.471	553.29
706.915	426.49
707.359	374.79
707.803	349.69
708.246	331.49
708.69	333.99
709.134	329.09
709.577	333.79
710.021	329.69
710.465	326.99
710.908	319.59
711.352	314.69
711.795	334.69
712.239	376.49
712.682	406.79
713.126	431.29
713.569	482.49
714.012	379.39
714.456	328.39
714.899	310.29
715.342	296.29
715.786	285.29
716.229	276.89
716.672	278.69
717.115	270.39
717.558	266.99
718.002	267.39
718.445	284.89
718.888	293.79
719.331	314.39
719.774	324.09
720.217	323.59
720.66	310.39
721.103	278.09
721.546	267.59
721.989	262.99
722.432	245.79
722.874	252.29
723.317	236.29
723.76	250.19
724.203	274.29
724.645	340.49
725.088	476.39
725.531	597.49
725.974	680.39
726.416	580.19
726.859	320.59
727.301	262.09
727.744	251.29
728.187	251.99
728.629	250.19
729.071	258.29
729.514	271.39
729.956	292.49
730.399	301.39
730.841	308.89
731.283	298.39
731.726	287.89
732.168	279.49
732.61	287.69
733.053	303.79
733.495	332.69
733.937	379.49
734.379	428.29
734.821	468.19
735.263	588.29
735.705	912.89
736.148	1728.49
736.59	2792.39
737.032	3190.69
737.474	2610.59
737.916	861.29
738.357	463.09
738.799	351.49
739.241	321.79
739.683	303.69
740.125	310.09
740.567	316.19
741.008	338.99
741.45	343.89
741.892	348.99
742.334	371.29
742.775	386.29
743.217	365.29
743.658	290.49
744.1	268.09
744.542	281.99
744.983	336.79
745.425	380.29
745.866	371.29
746.307	301.39
746.749	297.39
747.19	347.69
747.632	495.49
748.073	980.29
748.514	2040.39
748.956	3028.69
749.397	3826.99
749.838	3184.59
750.279	3108.09
750.72	1594.19
751.162	584.49
751.603	339.69
752.044	271.89
752.485	235.69
752.926	219.89
753.367	215.49
753.808	206.99
754.249	204.89
754.69	200.69
755.131	201.89
755.572	198.09
756.013	194.49
756.453	195.89
756.894	203.49
757.335	201.49
757.776	214.89
758.216	212.89
758.657	209.29
759.098	219.19
759.538	246.39
759.979	298.59
760.42	405.19
760.86	772.09
761.301	2041.19
761.741	4799.09
762.182	6707.19
762.622	4751.99
763.063	1404.69
763.503	571.49
763.943	350.79
764.384	303.09
764.824	290.19
765.264	286.89
765.705	245.99
766.145	205.99
766.585	184.99
767.025	177.19
767.465	175.39
767.906	208.29
768.346	230.79
768.786	239.59
769.226	238.29
769.666	336.19
770.106	677.69
770.546	1717.99
770.986	2781.89
771.426	2477.89
771.866	855.59
772.306	350.69
772.745	223.29
773.185	180.59
773.625	170.89
774.065	158.29
774.505	171.19
774.944	239.99
775.384	419.89
775.824	698.59
776.263	663.59
776.703	317.29
777.142	175.09
777.582	151.49
778.021	135.69
778.461	128.69
778.9	137.29
779.34	140.29
779.779	123.19
780.219	107.69
780.658	119.69
781.097	117.09
781.537	121.19
781.976	112.79
782.415	110.59
782.855	108.39
783.294	104.89
783.733	113.09
784.172	112.19
784.611	111.49
785.05	111.09
785.489	120.99
785.928	123.69
786.367	130.39
786.806	126.09
787.245	143.09
787.684	146.69
788.123	159.29
788.562	144.19
789.001	135.89
789.44	130.39
789.879	125.49
790.317	123.09
790.756	137.59
791.195	136.19
791.634	154.59
792.072	217.49
792.511	403.49
792.95	1100.69
793.388	2245.99
793.827	1982.09
794.265	718.59
794.704	300.19
795.142	195.29
795.581	161.19
796.019	141.79
796.458	135.29
796.896	135.69
797.334	140.79
797.773	171.29
798.211	243.89
798.649	489.59
799.087	1101.29
799.526	1715.19
799.964	2165.49
800.402	2082.49
800.84	805.39
801.278	327.39
801.716	204.59
802.154	164.99
802.592	158.39
803.03	147.29
803.468	141.89
803.906	152.79
804.344	161.69
804.782	154.09
805.22	137.09
805.658	132.49
806.096	157.69
806.533	173.89
806.971	186.99
807.409	240.69
807.847	348.89
808.284	741.29
808.722	2042.59
809.16	3476.39
809.597	3414.89
810.035	5782.09
810.472	6007.89
810.91	2212.79
811.347	862.29
811.785	433.49
812.222	277.99
812.66	206.99
813.097	175.79
813.535	150.89
813.972	142.09
814.409	128.39
814.846	120.19
815.284	111.99
815.721	102.49
816.158	110.69
816.595	120.99
817.032	165.29
817.47	191.09
817.907	131.79
818.344	110.79
818.781	98.59
819.218	98.89
819.655	128.79
820.092	201.09
820.529	231.29
820.966	177.89
821.403	132.69
821.839	107.79
822.276	107.69
822.713	133.09
823.15	141.99
823.587	125.49
824.023	162.09
824.46	335.69
824.897	975.99
825.333	1411.19
825.77	610.79
826.206	248.19
826.643	145.59
827.08	111.69
827.516	82.49
827.953	78.09
828.389	83.49
828.825	78.59
829.262	75.79
829.698	67.69
830.135	67.09
830.571	68.69
831.007	65.69
831.443	66.09
831.88	64.09
832.316	64.99
832.752	69.89
833.188	70.29
833.624	65.89
834.06	73.39
834.497	72.89
834.933	74.09
835.369	82.89
835.805	75.89
836.241	81.39
836.677	84.59
837.112	91.39
837.548	118.19
837.984	144.59
838.42	220.49
838.856	550.69
839.292	1643.39
839.727	2417.39
840.163	1139.19
840.599	1017.99
841.034	2167.09
841.47	2206.89
841.906	814.29
842.341	350.59
842.777	217.79
843.212	226.49
843.648	219.19
844.083	126.09
844.519	87.09
844.954	77.09
845.39	58.49
845.825	63.49
846.261	59.89
846.696	55.69
847.131	53.49
847.566	60.89
848.002	52.79
848.437	56.39
848.872	66.89
849.307	72.19
849.742	92.39
850.177	203.29
850.613	608.79
851.048	916.79
851.483	409.09
851.918	165.19
852.353	93.69
852.788	57.49
853.223	53.89
853.657	56.99
854.092	55.59
854.527	47.09
854.962	44.99
855.397	54.79
855.832	57.59
856.266	45.29
856.701	40.79
857.136	37.99
857.57	47.99
858.005	53.99
858.44	63.39
858.874	48.99
859.309	61.19
859.743	46.69
860.178	49.59
860.612	46.99
861.047	53.49
861.481	71.39
861.915	71.39
862.35	54.29
862.784	30.59
863.218	45.79
863.653	42.79
864.087	50.29
864.521	58.99
864.955	68.59
865.39	163.69
865.824	180.99
866.258	125.39
866.692	178.79
867.126	188.89
867.56	109.29
867.994	55.29
868.428	46.19
868.862	51.09
869.296	55.89
869.73	66.09
870.164	56.79
870.598	46.39
871.031	41.89
871.465	34.39
871.899	37.29
872.333	27.79
872.766	31.29
873.2	26.79
873.634	35.59
874.067	26.69
874.501	22.79
874.935	33.39
875.368	34.59
875.802	25.49
876.235	29.69
876.669	26.89
877.102	21.69
877.535	29.59
877.969	21.79
878.402	23.39
878.836	20.39
879.269	24.29
879.702	29.29
880.135	23.09
880.569	23.59
881.002	32.49
881.435	21.49
881.868	16.89
882.301	21.29
882.734	19.49
883.167	25.99
883.601	23.89
884.034	21.49
884.467	21.99
884.899	20.69
885.332	21.39
885.765	15.59
886.198	18.19
886.631	14.49
887.064	20.49
887.497	24.89
887.929	26.99
888.362	13.89
888.795	14.99
889.228	19.59
889.66	17.69
890.093	15.09
890.526	16.09
890.958	14.69
891.391	19.39
891.823	21.79
892.256	15.49
892.688	16.49
893.121	17.29
893.553	15.79
893.985	22.29
894.418	23.79
894.85	14.39
895.282	22.69
895.715	19.99
896.147	20.99
896.579	15.39
897.011	21.59
897.444	17.59
897.876	18.09
898.308	22.49
898.74	18.99
899.172	15.59
899.604	22.99
900.036	19.39
900.468	17.59
900.9	14.49
901.332	15.39
901.764	17.89
902.196	23.19
902.628	19.69
903.06	14.89
903.491	27.89
903.923	19.49
904.355	28.49
904.787	27.89
905.218	22.29
905.65	24.39
906.082	17.29
906.513	13.29
906.945	18.99
907.376	10.69
907.808	20.99
908.239	23.99
908.671	21.29
909.102	25.09
909.534	25.19
909.965	47.99
910.397	106.89
910.828	340.09
911.259	499.19
911.691	230.19
912.122	122.29
912.553	54.69
912.984	36.59
913.415	27.29
913.847	26.69
914.278	13.69
914.709	19.69
915.14	18.89
915.571	18.59
916.002	13.89
916.433	15.39
916.864	16.69
917.295	15.19
917.726	18.39
918.157	17.09
918.587	29.99
919.018	27.39
919.449	26.29
919.88	26.19
920.311	37.49
920.741	59.89
921.172	174.49
921.603	159.29
922.033	80.89
922.464	54.99
922.895	25.89
923.325	21.29
923.756	15.69
924.186	16.89
924.617	19.89
925.047	23.09
925.478	36.79
925.908	26.39
926.338	16.49
926.769	9.99
927.199	17.59
927.629	10.29
928.06	19.79
928.49	12.79
928.92	14.39
929.35	12.29
929.78	10.59
930.21	11.29
930.641	8.79
931.071	12.69
931.501	7.69
931.931	7.29
932.361	9.79
932.791	1.69
933.221	9.59
933.651	8.79
934.08	15.59
934.51	30.89
934.94	13.79
935.37	13.09
935.8	16.09
936.229	13.79
936.659	13.59
937.089	8.59
937.519	10.69
937.948	21.79
938.378	15.99
938.807	7.99
939.237	7.59
939.666	0.19
940.096	-4.21
940.525	1.99
940.955	-3.41
941.384	3.79
941.814	-4.81
942.243	-2.61
942.672	9.99
943.102	0.29
943.531	1.89
943.96	11.39
944.39	3.39
944.819	-0.61
945.248	7.59
945.677	8.89
946.106	8.29
946.535	11.59
946.964	1.39
947.393	2.59
947.822	2.89
948.251	-1.61
948.68	2.59
949.109	0.69
949.538	7.59
949.967	3.99
950.396	2.19
950.825	-2.21
951.254	-0.41
951.682	-5.61
952.111	4.39
952.54	9.29
952.969	0.69
953.397	-3.81
953.826	0.99
954.254	-5.51
954.683	-0.41
955.112	-2.31
955.54	3.69
955.969	6.39
956.397	1.59
956.826	0.89
957.254	3.39
957.682	-2.61
958.111	6.39
958.539	-3.01
958.967	5.49
959.396	0.49
959.824	2.19
960.252	4.99
960.68	-5.51
961.109	-1.81
961.537	-2.11
961.965	4.39
962.393	-1.41
962.821	0.99
963.249	-3.81
963.677	0.59
964.105	10.49
964.533	40.59
964.961	46.29
965.389	19.09
965.817	11.29
966.245	2.89
966.672	-3.61
967.1	-2.91
967.528	0.69
967.956	0.59
968.383	2.19
968.811	-3.21
969.239	-0.31
969.666	-3.61
970.094	-2.81
970.522	2.29
970.949	-2.11
971.377	-1.51
971.804	-5.41
972.232	1.69
972.659	1.49
973.087	-1.31
973.514	-3.71
973.941	-4.41
974.369	8.69
974.796	3.09
975.223	0.49
975.651	-2.61
976.078	6.49
976.505	-8.21
976.932	7.39
977.359	18.99
977.786	13.49
978.214	3.29
978.641	-1.71
979.068	1.99
979.495	-3.11
979.922	2.79
980.349	0.79
980.776	4.39
981.202	0.29
981.629	3.59
982.056	6.09
982.483	-0.81
982.91	3.79
983.337	-2.91
983.763	3.89
984.19	-1.31
984.617	-3.01
985.043	-1.51
985.47	0.19
985.897	0.69
986.323	-7.71
986.75	6.39
987.176	0.29
987.603	-1.31
988.029	-2.21
988.456	-2.01
988.882	0.19
989.308	-3.81
989.735	-2.21
990.161	0.59
990.587	-5.91
991.014	-8.61
991.44	-1.21
991.866	-4.61
992.292	-3.11
992.719	-2.61
993.145	2.19
993.571	-6.01
993.997	-4.51
994.423	-5.11
994.849	-9.21
995.275	-1.41
995.701	3.89
996.127	-2.41
996.553	3.29
996.979	-4.61
997.405	-0.21
997.83	-5.51
998.256	-1.01
998.682	-8.01
999.108	-8.31
999.534	-3.31
999.959	-3.21
1000.385	-0.01
1000.811	0.29
1001.236	-4.71
1001.662	-1.91
1002.087	-3.81
1002.513	-0.11
1002.938	1.29
1003.364	-1.61
1003.789	0.59
1004.215	0.79
1004.64	-2.41
1005.066	4.69
1005.491	-4.51
1005.916	-4.01
1006.342	-7.81
1006.767	-7.81
1007.192	4.59
1007.617	-5.21
1008.042	-5.01
1008.468	-6.21
1008.893	-5.51
1009.318	-4.41
1009.743	3.09
1010.168	4.99
1010.593	-0.41
1011.018	-3.81
1011.443	5.89
1011.868	-2.11
1012.293	2.39
1012.718	-7.11
1013.143	-5.01
1013.567	9.89
1013.992	1.09
1014.417	-15.81
1014.842	-2.51
1015.267	-1.91
1015.691	-5.41
1016.116	3.79
1016.541	-0.81
1016.965	4.19
1017.39	1.99
1017.814	3.69
1018.239	3.39
1018.663	-3.61
1019.088	-12.11
1019.512	-2.81
1019.937	-2.31
1020.361	-11.31
1020.785	-10.11
1021.21	-2.31
1021.634	1.99
1022.058	0.69
1022.483	6.99
1022.907	-5.01
1023.331	-0.21
1023.755	-7.11
1024.179	-0.91
1024.604	-4.81
1025.028	-5.11
1025.452	-5.51
1025.876	-1.01
1026.3	0.59
1026.724	-11.01
1027.148	-6.31
1027.572	-13.61
1027.996	-4.91
1028.42	-7.41
1028.843	-5.01
1029.267	-1.11
1029.691	-5.21
1030.115	-0.91
1030.539	-2.51
1030.962	-8.01
1031.386	-11.81
1031.81	4.99
1032.233	-2.11
1032.657	1.09
1033.08	-3.11
1033.504	-7.21
1033.927	-4.11
1034.351	-0.81
1034.774	4.79
1035.198	-7.41
1035.621	-7.01
1036.045	-8.61
1036.468	0.29
1036.891	-9.91
1037.315	-12.01
1037.738	-5.51
1038.161	2.09
1038.584	-5.11
1039.008	-4.11
1039.431	2.09
1039.854	-2.61
1040.277	-6.01
1040.7	-12.81
1041.123	-4.21
1041.546	-5.11
1041.969	-5.51
1042.392	-4.51
1042.815	-6.01
1043.238	0.59
1043.661	4.19
1044.084	-10.31
1044.507	-2.11
1044.93	-2.31
1045.352	-1.51
1045.775	-4.71
1046.198	1.49
1046.621	-2.41
1047.043	-0.01
1047.466	8.89
1047.889	-3.31
1048.311	-3.21
1048.734	0.39
1049.156	-8.61
1049.579	-3.21
1050.001	-1.01
1050.424	-4.61
1050.846	-8.91
1051.269	-5.91
1051.691	-6.71
1052.113	-8.11
1052.536	-3.31
1052.958	-0.61
1053.38	-4.81
1053.802	-7.31
1054.225	2.49
1054.647	-8.81
1055.069	-5.81
1055.491	4.39
1055.913	-7.21
1056.335	3.09
1056.757	-2.71
1057.179	-6.91
1057.601	-4.91
1058.023	-3.81
1058.445	0.39
1058.867	-1.61
1059.289	-2.21
1059.711	-4.61
1060.133	-3.31
1060.555	-5.31
1060.976	-2.71
1061.398	-5.21
1061.82	-4.81
1062.241	-7.21
1062.663	-5.81
1063.085	-4.51
1063.506	-1.11
1063.928	-4.21
1064.35	-0.41
1064.771	-13.31
1065.193	-10.81
1065.614	-11.71
1066.035	-5.01
1066.457	-0.71
1066.878	1.29
1067.3	-6.11
1067.721	-1.91
1068.142	-6.71
1068.564	-2.81
1068.985	-6.11
1069.406	-5.51
1069.827	-4.21
1070.248	-4.61
1070.67	-10.41
1071.091	-6.41
1071.512	-2.31
1071.933	-3.81
1072.354	-10.61
1072.775	-6.61
1073.196	-8.81
1073.617	-5.01
1074.038	-12.61
1074.459	-1.71
1074.88	-5.81
1075.3	-2.11
1075.721	-8.11
1076.142	-3.71
1076.563	0.29
1076.983	-11.01
1077.404	-7.71
1077.825	-10.91
1078.246	-3.11
1078.666	-11.41
1079.087	-2.81
1079.507	-1.71
1079.928	2.29
1080.348	-6.81
1080.769	-2.91
1081.189	-6.71
1081.61	1.49
1082.03	3.49
1082.451	-0.51
1082.871	-3.11
1083.291	-9.71
1083.711	-10.81
1084.132	-5.11
1084.552	-6.71
1084.972	-6.61
1085.392	-10.71
1085.813	-12.71
1086.233	-8.41
1086.653	-4.01
1087.073	3.79
1087.493	-5.21
1087.913	-0.61
1088.333	-6.91
1088.753	-3.31
1089.173	2.09
1089.593	-5.31
1090.013	-4.51
1090.433	2.59
1090.852	-5.61
1091.272	-0.61
1091.692	-7.11
1092.112	0.79
1092.531	-5.51
1092.951	-9.41
1093.371	-3.81
1093.79	-2.81
1094.21	-0.61
1094.63	-5.61
1095.049	-3.01
1095.469	-5.21
1095.888	-2.71
1096.308	2.89
1096.727	6.29
1097.146	-7.21
1097.566	0.19
1097.985	-3.91
1098.405	-2.21
1098.824	-0.41
1099.243	-9.31
1099.662	-6.21
1100.082	-9.71
1100.501	-3.11
1100.92	-7.21
1101.339	-5.91
1101.758	-8.51
