Data from 20171114-ORNL-Ar_H_NY_Subt18_08-06-35-202.txt Node
Date: Tue Nov 14 08:06:35 EST 2017
User: Ender
Spectrometer: HR+D1039
Trigger mode: 0
Integration Time (sec): 2.730000E-2
Scans to average: 10
Electric dark correction enabled: true
Nonlinearity correction enabled: false
Boxcar width: 0
XAxis mode: Wavelengths
Number of Pixels in Spectrum: 2048
>>>>>Begin Spectral Data<<<<<
187.836	-3.93
188.309	-3.93
188.782	-3.93
189.255	1.38
189.728	-3.02
190.201	5.67
190.674	0.57
191.147	3.88
191.619	-6.73
192.092	-4.62
192.565	9.57
193.038	4.17
193.511	-0.02
193.984	-3.83
194.456	-4.02
194.929	2.68
195.402	-2.12
195.874	0.38
196.347	-1.33
196.82	-7.33
197.292	7.57
197.765	2.58
198.237	-3.73
198.71	5.38
199.182	3.27
199.655	4.57
200.127	2.67
200.6	-2.33
201.072	0.07
201.544	-1.52
202.017	-6.02
202.489	3.98
202.961	-5.62
203.433	-0.23
203.906	-8.22
204.378	-4.72
204.85	-4.93
205.322	-6.62
205.794	-2.23
206.266	-3.73
206.739	-2.12
207.211	4.58
207.683	-2.72
208.155	-5.12
208.627	-3.92
209.099	0.48
209.57	-4.22
210.042	-2.73
210.514	-4.42
210.986	2.38
211.458	-9.62
211.93	2.47
212.402	0.88
212.873	-5.12
213.345	-9.02
213.817	-14.73
214.288	-3.93
214.76	-15.02
215.232	-1.02
215.703	-5.73
216.175	0.17
216.646	-8.52
217.118	-4.93
217.589	2.78
218.061	-2.93
218.532	1.98
219.004	-0.52
219.475	-0.62
219.946	-6.43
220.418	-5.72
220.889	-2.52
221.36	2.08
221.832	-8.23
222.303	-7.02
222.774	0.48
223.245	-11.82
223.717	-3.93
224.188	-6.52
224.659	-3.12
225.13	-5.02
225.601	-1.62
226.072	-1.82
226.543	2.38
227.014	2.17
227.485	-4.62
227.956	2.38
228.427	0.18
228.898	-0.02
229.369	11.27
229.839	-7.73
230.31	-5.62
230.781	1.48
231.252	0.27
231.722	-3.12
232.193	1.58
232.664	2.48
233.135	-0.93
233.605	5.48
234.076	-3.83
234.546	4.17
235.017	5.98
235.487	7.08
235.958	-3.52
236.428	-1.33
236.899	0.88
237.369	4.48
237.84	-3.92
238.31	3.98
238.78	-1.42
239.251	1.08
239.721	6.58
240.191	-3.62
240.662	-4.82
241.132	1.98
241.602	1.67
242.072	3.08
242.542	8.68
243.013	2.67
243.483	6.98
243.953	4.88
244.423	3.78
244.893	-3.02
245.363	3.27
245.833	8.67
246.303	-3.12
246.773	5.58
247.243	4.17
247.712	1.67
248.182	8.67
248.652	7.17
249.122	0.07
249.592	7.98
250.061	17.77
250.531	26.38
251.001	17.38
251.471	19.27
251.94	16.97
252.41	5.68
252.879	-1.32
253.349	9.88
253.818	11.67
254.288	10.88
254.757	6.08
255.227	2.98
255.696	-3.43
256.166	2.38
256.635	12.38
257.105	12.48
257.574	4.07
258.043	10.78
258.513	12.48
258.982	16.28
259.451	9.48
259.92	9.67
260.389	11.38
260.859	19.58
261.328	9.58
261.797	17.98
262.266	10.48
262.735	12.48
263.204	8.57
263.673	2.98
264.142	7.48
264.611	-6.23
265.08	0.98
265.549	2.48
266.018	5.98
266.487	4.77
266.955	1.38
267.424	4.18
267.893	5.28
268.362	0.38
268.83	2.17
269.299	15.68
269.768	4.67
270.236	6.88
270.705	5.08
271.174	5.78
271.642	8.38
272.111	13.58
272.579	14.77
273.048	26.97
273.516	30.27
273.985	27.88
274.453	21.58
274.922	20.88
275.39	11.88
275.858	4.67
276.327	10.77
276.795	19.77
277.263	14.17
277.731	24.17
278.2	54.77
278.668	61.68
279.136	48.67
279.604	20.88
280.072	14.88
280.54	14.08
281.008	10.67
281.477	13.67
281.945	10.48
282.413	15.48
282.881	16.48
283.348	9.58
283.816	13.27
284.284	15.77
284.752	24.77
285.22	11.27
285.688	19.47
286.156	22.68
286.623	40.88
287.091	46.68
287.559	26.48
288.026	13.58
288.494	17.77
288.962	2.38
289.429	10.17
289.897	22.18
290.364	12.48
290.832	13.08
291.3	18.77
291.767	19.28
292.234	13.17
292.702	12.48
293.169	26.18
293.637	24.98
294.104	17.58
294.571	7.17
295.039	10.77
295.506	11.27
295.973	20.48
296.44	17.38
296.908	17.78
297.375	19.08
297.842	21.67
298.309	19.38
298.776	17.68
299.243	22.88
299.71	15.38
300.177	16.38
300.644	21.18
301.111	21.08
301.578	28.07
302.045	18.77
302.512	25.27
302.979	22.48
303.446	24.67
303.913	18.78
304.379	19.48
304.846	27.68
305.313	24.67
305.78	25.57
306.246	23.58
306.713	20.77
307.18	25.28
307.646	28.47
308.113	31.27
308.579	22.57
309.046	24.78
309.512	28.78
309.979	19.57
310.445	24.17
310.912	29.88
311.378	31.77
311.845	27.08
312.311	27.38
312.777	32.88
313.244	30.08
313.71	36.27
314.176	29.58
314.642	32.58
315.109	39.08
315.575	33.48
316.041	41.08
316.507	27.07
316.973	42.57
317.439	32.88
317.905	37.98
318.371	36.38
318.837	31.98
319.303	31.07
319.769	31.48
320.235	33.77
320.701	38.07
321.167	35.88
321.633	34.68
322.099	35.27
322.564	40.67
323.03	36.77
323.496	34.68
323.962	40.28
324.427	38.27
324.893	43.07
325.359	44.77
325.824	40.48
326.29	37.67
326.755	33.67
327.221	40.07
327.686	40.48
328.152	44.88
328.617	40.48
329.083	48.17
329.548	45.57
330.014	47.77
330.479	41.77
330.944	41.88
331.41	40.27
331.875	45.48
332.34	44.77
332.805	43.17
333.271	47.27
333.736	46.67
334.201	57.98
334.666	51.47
335.131	54.07
335.596	52.88
336.061	51.38
336.526	41.67
336.991	48.58
337.456	56.48
337.921	49.57
338.386	45.98
338.851	47.88
339.316	50.17
339.781	39.08
340.246	48.27
340.711	43.88
341.175	49.98
341.64	48.68
342.105	51.88
342.569	51.17
343.034	59.47
343.499	47.27
343.963	49.38
344.428	63.38
344.893	56.67
345.357	59.77
345.822	57.38
346.286	72.17
346.751	80.18
347.215	69.38
347.679	77.18
348.144	99.38
348.608	78.38
349.073	64.98
349.537	69.68
350.001	79.17
350.465	89.68
350.93	77.38
351.394	80.58
351.858	74.28
352.322	85.88
352.786	84.68
353.25	105.67
353.715	108.18
354.179	97.88
354.643	125.58
355.107	128.08
355.571	100.98
356.035	99.27
356.498	120.67
356.962	123.97
357.426	128.38
357.89	117.48
358.354	90.77
358.818	82.98
359.281	76.68
359.745	76.78
360.209	73.27
360.673	80.48
361.136	84.88
361.6	82.38
362.064	85.58
362.527	87.38
362.991	93.17
363.454	76.98
363.918	76.67
364.381	74.98
364.845	83.88
365.308	84.98
365.772	85.88
366.235	81.98
366.698	79.38
367.162	87.07
367.625	86.88
368.088	85.27
368.552	86.88
369.015	90.58
369.478	97.58
369.941	99.67
370.404	100.17
370.867	105.48
371.331	110.67
371.794	113.88
372.257	113.68
372.72	116.57
373.183	110.18
373.646	105.98
374.109	95.68
374.572	107.27
375.035	109.07
375.497	107.17
375.96	104.27
376.423	109.38
376.886	114.88
377.349	106.77
377.811	103.77
378.274	107.08
378.737	109.38
379.199	110.78
379.662	112.98
380.125	112.88
380.587	119.08
381.05	124.18
381.512	138.27
381.975	141.27
382.437	129.08
382.9	126.48
383.362	130.67
383.825	144.98
384.287	149.67
384.75	142.17
385.212	135.97
385.674	138.07
386.136	136.18
386.599	124.98
387.061	125.08
387.523	122.58
387.985	136.38
388.447	142.38
388.91	146.88
389.372	162.78
389.834	160.97
390.296	145.57
390.758	159.08
391.22	173.38
391.682	217.48
392.144	316.27
392.606	243.47
393.068	173.58
393.529	162.57
393.991	160.18
394.453	147.17
394.915	159.17
395.377	192.77
395.838	225.07
396.3	154.27
396.762	137.68
397.224	135.98
397.685	123.38
398.147	130.88
398.608	128.48
399.07	120.77
399.531	134.27
399.993	139.48
400.454	152.57
400.916	146.48
401.377	140.38
401.839	154.17
402.3	147.77
402.762	164.58
403.223	185.88
403.684	169.67
404.145	157.77
404.607	157.48
405.068	166.77
405.529	173.77
405.99	184.77
406.451	176.38
406.913	172.98
407.374	162.08
407.835	161.77
408.296	166.58
408.757	172.88
409.218	184.48
409.679	178.98
410.14	175.98
410.601	178.77
411.062	184.38
411.522	188.48
411.983	192.17
412.444	180.98
412.905	178.98
413.366	188.27
413.826	188.27
414.287	216.77
414.748	257.88
415.208	241.97
415.669	210.08
416.13	204.38
416.59	203.58
417.051	211.47
417.511	216.67
417.972	237.48
418.432	240.57
418.893	285.88
419.353	252.38
419.814	199.48
420.274	183.57
420.734	182.27
421.195	197.57
421.655	198.17
422.115	197.17
422.576	193.17
423.036	198.67
423.496	207.38
423.956	215.48
424.416	229.67
424.876	269.58
425.336	265.67
425.797	259.08
426.257	254.08
426.717	236.88
427.177	233.77
427.637	229.67
428.097	244.67
428.556	240.77
429.016	265.57
429.476	260.97
429.936	271.98
430.396	281.77
430.856	295.58
431.315	322.17
431.775	351.77
432.235	376.87
432.694	359.97
433.154	367.68
433.614	398.27
434.073	338.08
434.533	286.08
434.993	273.27
435.452	279.37
435.912	305.27
436.371	287.08
436.83	283.88
437.29	265.17
437.749	247.88
438.209	252.98
438.668	270.98
439.127	286.38
439.587	271.58
440.046	244.48
440.505	268.67
440.964	274.27
441.424	329.78
441.883	310.47
442.342	253.88
442.801	221.98
443.26	217.37
443.719	223.38
444.178	215.68
444.637	208.58
445.096	225.38
445.555	227.77
446.014	225.38
446.473	229.88
446.932	234.67
447.391	226.87
447.849	227.17
448.308	214.38
448.767	221.97
449.226	238.17
449.685	239.07
450.143	245.48
450.602	239.08
451.061	227.77
451.519	235.38
451.978	237.57
452.436	234.68
452.895	237.88
453.353	251.47
453.812	246.48
454.27	240.27
454.729	241.38
455.187	244.77
455.646	243.97
456.104	249.98
456.562	261.88
457.021	272.18
457.479	254.07
457.937	271.67
458.395	263.17
458.854	245.57
459.312	250.18
459.77	281.18
460.228	260.27
460.686	240.07
461.144	247.77
461.602	238.17
462.06	241.08
462.518	258.78
462.976	254.27
463.434	264.27
463.892	268.27
464.35	270.58
464.808	292.88
465.266	265.38
465.724	264.67
466.181	279.18
466.639	271.27
467.097	285.68
467.555	296.27
468.012	300.87
468.47	311.98
468.928	333.17
469.385	347.48
469.843	355.07
470.3	351.08
470.758	361.98
471.215	396.48
471.673	411.57
472.13	408.78
472.588	419.68
473.045	381.17
473.503	380.48
473.96	391.27
474.417	403.77
474.875	427.38
475.332	470.98
475.789	462.58
476.246	473.88
476.704	487.78
477.161	510.18
477.618	530.98
478.075	564.78
478.532	618.77
478.989	696.88
479.446	814.88
479.903	769.67
480.36	810.57
480.817	865.08
481.274	978.98
481.731	1077.08
482.188	1163.97
482.645	1304.58
483.102	1405.78
483.558	1563.07
484.015	1609.18
484.472	1568.28
484.929	1529.88
485.385	1486.17
485.842	1443.38
486.299	1363.98
486.755	1304.67
487.212	1091.58
487.668	926.77
488.125	848.48
488.582	782.88
489.038	750.68
489.494	717.17
489.951	681.68
490.407	666.08
490.864	654.78
491.32	646.07
491.776	645.27
492.233	647.08
492.689	608.57
493.145	611.88
493.602	600.27
494.058	608.87
494.514	615.88
494.97	653.58
495.426	651.98
495.882	626.68
496.338	620.68
496.794	620.18
497.251	624.68
497.707	636.17
498.163	637.37
498.618	644.27
499.074	654.68
499.53	684.58
499.986	676.27
500.442	648.17
500.898	636.08
501.354	625.67
501.809	647.88
502.265	648.57
502.721	670.08
503.177	674.67
503.632	672.27
504.088	677.97
504.543	718.67
504.999	717.38
505.455	658.88
505.91	635.38
506.366	638.87
506.821	627.58
507.277	624.97
507.732	631.17
508.187	632.27
508.643	638.07
509.098	636.38
509.553	659.88
510.009	663.58
510.464	672.48
510.919	687.68
511.375	698.08
511.83	712.67
512.285	729.67
512.74	763.07
513.195	794.27
513.65	772.78
514.105	778.17
514.56	778.77
515.015	799.08
515.47	815.07
515.925	787.38
516.38	794.98
516.835	797.07
517.29	790.17
517.745	768.17
518.2	767.97
518.655	756.58
519.109	748.78
519.564	735.97
520.019	729.48
520.474	726.38
520.928	731.58
521.383	722.67
521.838	716.98
522.292	716.07
522.747	716.48
523.201	701.67
523.656	702.98
524.11	699.78
524.565	700.98
525.019	695.78
525.474	714.27
525.928	706.17
526.382	697.68
526.837	709.48
527.291	701.57
527.745	705.77
528.2	698.97
528.654	700.57
529.108	692.27
529.562	697.87
530.016	683.38
530.47	696.98
530.925	698.27
531.379	710.68
531.833	706.58
532.287	695.47
532.741	706.48
533.195	703.88
533.649	719.27
534.103	727.18
534.556	716.47
535.01	716.17
535.464	710.98
535.918	727.08
536.372	729.97
536.826	724.38
537.279	706.88
537.733	711.77
538.187	720.87
538.64	712.77
539.094	724.18
539.548	741.78
540.001	736.97
540.455	720.77
540.908	728.37
541.362	736.07
541.815	748.88
542.269	763.58
542.722	767.48
543.175	776.68
543.629	770.47
544.082	785.77
544.536	787.57
544.989	782.38
545.442	792.77
545.895	791.58
546.349	794.67
546.802	793.08
547.255	808.68
547.708	809.48
548.161	810.17
548.614	824.47
549.067	831.68
549.52	823.48
549.973	818.07
550.426	812.97
550.879	804.87
551.332	808.67
551.785	804.48
552.238	815.87
552.691	827.38
553.144	830.38
553.596	842.17
554.049	864.87
554.502	901.68
554.955	908.08
555.407	899.37
555.86	921.98
556.313	898.38
556.765	889.38
557.218	882.38
557.67	887.27
558.123	878.38
558.576	878.57
559.028	879.58
559.48	894.08
559.933	882.18
560.385	850.38
560.838	810.58
561.29	791.18
561.742	793.88
562.195	777.27
562.647	775.48
563.099	776.38
563.551	785.18
564.004	793.08
564.456	771.67
564.908	765.77
565.36	747.37
565.812	734.17
566.264	743.78
566.716	727.58
567.168	726.67
567.62	725.58
568.072	706.27
568.524	697.48
568.976	696.38
569.428	671.27
569.88	685.48
570.332	680.88
570.784	687.08
571.235	686.17
571.687	689.98
572.139	711.17
572.59	717.38
573.042	711.38
573.494	717.47
573.945	705.67
574.397	687.77
574.849	688.98
575.3	693.77
575.752	684.98
576.203	681.27
576.655	686.67
577.106	681.38
577.557	675.38
578.009	671.98
578.46	660.88
578.912	664.78
579.363	674.98
579.814	666.77
580.265	667.28
580.717	675.98
581.168	682.98
581.619	672.58
582.07	681.98
582.521	677.67
582.972	672.58
583.423	674.88
583.875	687.88
584.326	699.58
584.777	746.67
585.227	832.07
585.678	904.18
586.129	1001.67
586.58	1074.98
587.031	1146.88
587.482	1310.08
587.933	1476.78
588.384	1289.97
588.834	969.38
589.285	806.38
589.736	786.57
590.186	775.08
590.637	768.48
591.088	742.67
591.538	743.07
591.989	738.88
592.439	731.08
592.89	725.47
593.34	724.98
593.791	717.08
594.241	709.38
594.692	720.57
595.142	696.18
595.593	699.98
596.043	711.17
596.493	722.27
596.943	719.67
597.394	729.88
597.844	712.48
598.294	731.78
598.744	751.18
599.195	784.27
599.645	824.38
600.095	861.28
600.545	923.17
600.995	973.78
601.445	1016.58
601.895	1082.78
602.345	1148.18
602.795	1119.97
603.245	1075.28
603.695	1015.97
604.145	949.88
604.594	910.08
605.044	868.98
605.494	803.08
605.944	756.87
606.393	748.17
606.843	734.77
607.293	734.67
607.743	742.07
608.192	760.08
608.642	762.77
609.091	782.48
609.541	776.48
609.99	767.58
610.44	757.08
610.889	719.88
611.339	700.97
611.788	693.48
612.238	703.78
612.687	719.47
613.136	721.57
613.586	749.88
614.035	747.48
614.484	765.07
614.933	761.68
615.383	758.98
615.832	740.08
616.281	728.67
616.73	693.38
617.179	665.47
617.628	666.58
618.077	634.48
618.526	623.58
618.975	618.28
619.424	611.08
619.873	613.17
620.322	626.87
620.771	611.57
621.22	606.88
621.669	594.48
622.118	589.97
622.567	582.98
623.015	567.87
623.464	588.37
623.913	558.67
624.361	555.47
624.81	560.77
625.259	555.78
625.707	560.08
626.156	560.48
626.604	557.47
627.053	560.58
627.501	563.67
627.95	572.78
628.398	587.77
628.847	576.58
629.295	573.27
629.744	571.08
630.192	570.67
630.64	566.27
631.089	570.77
631.537	576.57
631.985	590.68
632.433	592.57
632.881	609.17
633.33	653.97
633.778	640.18
634.226	575.98
634.674	573.17
635.122	588.17
635.57	604.67
636.018	614.77
636.466	575.77
636.914	559.48
637.362	573.38
637.81	585.78
638.258	577.78
638.705	584.37
639.153	607.37
639.601	613.27
640.049	640.77
640.497	676.38
640.944	690.17
641.392	642.57
641.84	612.08
642.287	585.18
642.735	567.88
643.182	573.67
643.63	572.77
644.078	586.28
644.525	598.17
644.973	597.07
645.42	603.17
645.867	623.18
646.315	631.88
646.762	667.08
647.21	685.28
647.657	719.97
648.104	749.27
648.551	772.48
648.999	849.98
649.446	919.77
649.893	1020.47
650.34	1161.28
650.787	1390.67
651.234	1734.78
651.682	2276.07
652.129	3099.67
652.576	4482.77
653.023	6612.87
653.47	9074.57
653.917	11316.07
654.363	13055.98
654.81	14414.58
655.257	13721.38
655.704	8949.27
656.151	5294.48
656.598	3435.58
657.044	2429.48
657.491	1873.18
657.938	1488.47
658.385	1241.77
658.831	1087.17
659.278	962.77
659.724	865.47
660.171	786.27
660.618	718.77
661.064	686.67
661.511	671.38
661.957	654.17
662.404	641.27
662.85	652.58
663.296	627.07
663.743	564.17
664.189	536.08
664.635	535.18
665.082	521.18
665.528	517.58
665.974	516.48
666.42	515.88
666.867	507.27
667.313	483.18
667.759	482.67
668.205	482.67
668.651	489.17
669.097	482.88
669.543	502.58
669.989	466.18
670.435	451.48
670.881	451.17
671.327	441.57
671.773	467.58
672.219	487.88
672.665	546.28
673.11	581.77
673.556	613.87
674.002	666.48
674.448	658.08
674.893	543.38
675.339	475.17
675.785	435.07
676.23	423.47
676.676	391.18
677.122	378.28
677.567	367.77
678.013	371.77
678.458	357.27
678.904	354.28
679.349	345.77
679.794	355.88
680.24	346.67
680.685	352.98
681.131	340.68
681.576	354.67
682.021	355.68
682.466	351.17
682.912	351.97
683.357	349.88
683.802	379.08
684.247	416.08
684.692	454.08
685.137	497.98
685.583	542.37
686.028	556.97
686.473	515.58
686.918	448.97
687.363	420.38
687.807	390.47
688.252	371.17
688.697	357.47
689.142	338.77
689.587	336.67
690.032	327.17
690.477	340.88
690.921	350.67
691.366	378.37
691.811	405.38
692.255	422.57
692.7	453.68
693.145	503.78
693.589	692.17
694.034	1116.38
694.478	1524.88
694.923	1724.47
695.367	2256.68
695.812	1186.97
696.256	496.08
696.701	375.38
697.145	341.07
697.59	325.08
698.034	319.27
698.478	326.48
698.922	327.38
699.367	323.88
699.811	338.87
700.255	358.28
700.699	385.18
701.143	431.58
701.588	479.47
702.032	522.38
702.476	516.78
702.92	486.78
703.364	495.67
703.808	626.88
704.252	1029.78
704.696	1444.67
705.14	1677.78
705.584	2129.47
706.027	1066.77
706.471	520.97
706.915	396.58
707.359	347.87
707.803	322.88
708.246	309.17
708.69	307.08
709.134	312.77
709.577	307.07
710.021	316.78
710.465	302.47
710.908	293.77
711.352	300.77
711.795	314.88
712.239	351.18
712.682	383.67
713.126	415.97
713.569	469.87
714.012	368.88
714.456	326.67
714.899	298.77
715.342	271.28
715.786	258.18
716.229	255.58
716.672	256.98
717.115	243.38
717.558	250.88
718.002	253.58
718.445	269.68
718.888	289.47
719.331	287.98
719.774	305.98
720.217	305.18
720.66	284.17
721.103	264.47
721.546	254.48
721.989	253.58
722.432	233.27
722.874	237.27
723.317	232.27
723.76	232.07
724.203	260.88
724.645	317.07
725.088	444.08
725.531	563.97
725.974	644.88
726.416	540.27
726.859	306.38
727.301	243.48
727.744	238.48
728.187	225.28
728.629	236.47
729.071	244.57
729.514	259.48
729.956	267.88
730.399	284.98
730.841	286.67
731.283	272.08
731.726	261.17
732.168	261.07
732.61	262.27
733.053	284.78
733.495	314.38
733.937	349.88
734.379	388.77
734.821	434.68
735.263	537.17
735.705	828.48
736.148	1575.68
736.59	2565.57
737.032	3019.57
737.474	2461.38
737.916	799.68
738.357	421.37
738.799	315.87
739.241	300.68
739.683	289.38
740.125	291.48
740.567	294.98
741.008	315.17
741.45	319.07
741.892	317.88
742.334	346.67
742.775	352.38
743.217	337.88
743.658	273.78
744.1	257.98
744.542	263.27
744.983	315.68
745.425	328.17
745.866	336.48
746.307	282.38
746.749	280.57
747.19	319.17
747.632	454.17
748.073	873.88
748.514	1840.58
748.956	2841.68
749.397	3539.88
749.838	2938.68
750.279	2934.28
750.72	1471.58
751.162	546.38
751.603	318.67
752.044	253.08
752.485	215.88
752.926	211.28
753.367	204.08
753.808	199.77
754.249	194.77
754.69	193.98
755.131	182.18
755.572	180.67
756.013	180.48
756.453	184.38
756.894	190.38
757.335	188.68
757.776	199.08
758.216	192.67
758.657	193.38
759.098	206.18
759.538	228.88
759.979	267.27
760.42	367.77
760.86	702.68
761.301	1804.78
761.741	4413.27
762.182	6366.48
762.622	4456.38
763.063	1293.57
763.503	534.28
763.943	344.08
764.384	333.28
764.824	397.48
765.264	442.37
765.705	296.88
766.145	212.27
766.585	185.07
767.025	183.27
767.465	189.48
767.906	238.48
768.346	313.17
768.786	330.67
769.226	256.77
769.666	319.27
770.106	623.17
770.546	1540.47
770.986	2624.27
771.426	2339.98
771.866	789.08
772.306	327.57
772.745	212.27
773.185	178.98
773.625	173.88
774.065	167.98
774.505	200.58
774.944	306.08
775.384	679.28
775.824	1218.67
776.263	1191.57
776.703	503.38
777.142	222.18
777.582	157.07
778.021	139.88
778.461	138.78
778.9	138.77
779.34	135.18
779.779	123.27
780.219	109.38
780.658	111.88
781.097	115.08
781.537	112.27
781.976	114.07
782.415	104.47
782.855	106.08
783.294	111.58
783.733	106.58
784.172	108.07
784.611	102.48
785.05	108.57
785.489	109.38
785.928	118.17
786.367	122.67
786.806	121.17
787.245	133.27
787.684	136.48
788.123	144.38
788.562	135.58
789.001	134.28
789.44	124.08
789.879	116.38
790.317	115.88
790.756	125.27
791.195	129.28
791.634	148.28
792.072	203.28
792.511	359.88
792.95	999.28
793.388	2120.57
793.827	1915.18
794.265	675.48
794.704	280.48
795.142	184.28
795.581	154.57
796.019	135.98
796.458	128.38
796.896	122.88
797.334	128.48
797.773	156.88
798.211	212.68
798.649	435.77
799.087	1010.78
799.526	1568.18
799.964	1998.68
800.402	1994.78
800.84	750.58
801.278	295.98
801.716	187.67
802.154	149.77
802.592	146.48
803.03	134.88
803.468	134.08
803.906	143.38
804.344	147.48
804.782	140.27
805.22	132.88
805.658	131.38
806.096	151.88
806.533	162.58
806.971	168.67
807.409	211.97
807.847	313.88
808.284	647.38
808.722	1841.37
809.16	3225.58
809.597	3085.18
810.035	5371.48
810.472	5709.88
810.91	2063.47
811.347	790.17
811.785	402.48
812.222	251.97
812.66	194.18
813.097	163.47
813.535	146.38
813.972	129.88
814.409	116.58
814.846	107.28
815.284	109.48
815.721	103.88
816.158	104.58
816.595	119.88
817.032	179.17
817.47	195.77
817.907	172.48
818.344	147.47
818.781	114.28
819.218	101.77
819.655	124.38
820.092	183.57
820.529	218.47
820.966	178.68
821.403	129.98
821.839	108.88
822.276	106.98
822.713	117.97
823.15	135.08
823.587	117.98
824.023	152.38
824.46	305.28
824.897	882.57
825.333	1342.18
825.77	575.67
826.206	231.77
826.643	130.67
827.08	104.98
827.516	82.08
827.953	83.17
828.389	85.27
828.825	75.88
829.262	67.38
829.698	62.98
830.135	71.27
830.571	67.47
831.007	66.58
831.443	68.67
831.88	63.18
832.316	64.27
832.752	68.77
833.188	61.78
833.624	59.28
834.06	67.48
834.497	64.27
834.933	82.28
835.369	78.08
835.805	71.67
836.241	72.67
836.677	83.28
837.112	92.47
837.548	100.27
837.984	127.67
838.42	198.98
838.856	496.87
839.292	1503.07
839.727	2274.38
840.163	1054.67
840.599	914.27
841.034	2008.88
841.47	2101.78
841.906	774.38
842.341	328.57
842.777	232.67
843.212	318.78
843.648	311.88
844.083	154.47
844.519	98.88
844.954	77.78
845.39	61.08
845.825	61.77
846.261	59.78
846.696	55.98
847.131	56.18
847.566	58.07
848.002	51.38
848.437	53.08
848.872	64.77
849.307	70.48
849.742	88.78
850.177	183.58
850.613	549.88
851.048	869.17
851.483	381.08
851.918	149.77
852.353	85.57
852.788	63.88
853.223	62.77
853.657	54.67
854.092	50.58
854.527	41.48
854.962	43.38
855.397	47.48
855.832	48.27
856.266	43.58
856.701	41.68
857.136	32.68
857.57	41.08
858.005	57.18
858.44	63.17
858.874	43.88
859.309	51.08
859.743	39.88
860.178	47.07
860.612	45.77
861.047	46.07
861.481	65.27
861.915	68.78
862.35	53.58
862.784	36.97
863.218	40.67
863.653	32.27
864.087	41.57
864.521	57.27
864.955	66.88
865.39	157.17
865.824	172.68
866.258	116.88
866.692	160.38
867.126	176.27
867.56	106.57
867.994	58.57
868.428	38.67
868.862	49.68
869.296	61.18
869.73	56.38
870.164	55.67
870.598	48.68
871.031	44.48
871.465	29.48
871.899	34.78
872.333	26.28
872.766	29.38
873.2	27.98
873.634	32.08
874.067	25.27
874.501	23.97
874.935	29.67
875.368	30.47
875.802	31.88
876.235	28.27
876.669	26.38
877.102	22.18
877.535	28.38
877.969	28.18
878.402	23.48
878.836	21.17
879.269	22.68
879.702	28.17
880.135	16.47
880.569	28.57
881.002	30.48
881.435	22.57
881.868	16.58
882.301	22.68
882.734	19.77
883.167	28.68
883.601	17.08
884.034	23.17
884.467	18.48
884.899	18.58
885.332	18.08
885.765	16.38
886.198	17.88
886.631	17.77
887.064	19.58
887.497	22.67
887.929	36.38
888.362	18.08
888.795	15.07
889.228	17.98
889.66	20.17
890.093	14.67
890.526	17.47
890.958	15.68
891.391	20.38
891.823	25.08
892.256	17.77
892.688	13.88
893.121	19.38
893.553	8.38
893.985	23.57
894.418	19.38
894.85	11.77
895.282	19.57
895.715	11.77
896.147	19.58
896.579	19.88
897.011	9.18
897.444	16.27
897.876	14.98
898.308	22.67
898.74	13.48
899.172	15.08
899.604	29.58
900.036	22.17
900.468	16.98
900.9	18.57
901.332	18.57
901.764	16.38
902.196	16.28
902.628	17.48
903.06	21.27
903.491	27.38
903.923	25.88
904.355	18.98
904.787	24.67
905.218	25.08
905.65	17.88
906.082	17.27
906.513	14.57
906.945	19.98
907.376	17.57
907.808	26.58
908.239	22.38
908.671	20.08
909.102	23.88
909.534	19.78
909.965	42.08
910.397	85.77
910.828	319.27
911.259	470.58
911.691	215.77
912.122	106.08
912.553	53.17
912.984	37.88
913.415	27.28
913.847	26.38
914.278	19.77
914.709	17.88
915.14	22.28
915.571	14.98
916.002	10.77
916.433	19.78
916.864	21.77
917.295	16.77
917.726	19.27
918.157	14.38
918.587	31.08
919.018	24.88
919.449	23.58
919.88	21.88
920.311	35.27
920.741	48.07
921.172	168.68
921.603	154.77
922.033	72.57
922.464	45.28
922.895	19.17
923.325	19.88
923.756	16.27
924.186	14.38
924.617	32.58
925.047	46.18
925.478	58.98
925.908	49.48
926.338	31.98
926.769	21.78
927.199	22.98
927.629	8.38
928.06	19.77
928.49	16.88
928.92	16.58
929.35	15.98
929.78	16.07
930.21	10.97
930.641	6.77
931.071	6.77
931.501	8.48
931.931	8.98
932.361	11.58
932.791	6.27
933.221	11.08
933.651	2.68
934.08	18.98
934.51	38.88
934.94	13.68
935.37	14.18
935.8	13.27
936.229	12.57
936.659	14.07
937.089	-0.73
937.519	12.08
937.948	24.07
938.378	14.68
938.807	9.27
939.237	8.98
939.666	7.28
940.096	-4.62
940.525	0.48
940.955	6.18
941.384	6.88
941.814	-5.02
942.243	-3.62
942.672	5.38
943.102	-1.82
943.531	0.27
943.96	4.08
944.39	2.67
944.819	2.17
945.248	2.38
945.677	6.98
946.106	1.18
946.535	3.07
946.964	2.67
947.393	-0.42
947.822	5.58
948.251	-1.83
948.68	7.08
949.109	2.27
949.538	9.98
949.967	13.17
950.396	5.67
950.825	2.47
951.254	2.58
951.682	-3.43
952.111	5.88
952.54	3.88
952.969	-6.02
953.397	-3.33
953.826	2.57
954.254	-4.92
954.683	4.97
955.112	-1.82
955.54	5.48
955.969	4.48
956.397	2.27
956.826	-4.02
957.254	8.68
957.682	3.98
958.111	7.17
958.539	-2.12
958.967	-2.12
959.396	-9.12
959.824	-0.62
960.252	5.17
960.68	-1.73
961.109	2.47
961.537	-3.02
961.965	-1.73
962.393	-0.82
962.821	-1.92
963.249	0.88
963.677	2.98
964.105	5.48
964.533	50.18
964.961	45.57
965.389	24.38
965.817	6.88
966.245	0.48
966.672	3.88
967.1	-5.72
967.528	-0.33
967.956	-2.02
968.383	-2.93
968.811	-2.52
969.239	-3.12
969.666	-8.23
970.094	-2.52
970.522	4.38
970.949	-5.83
971.377	-4.22
971.804	-6.32
972.232	4.58
972.659	-0.23
973.087	-2.62
973.514	0.27
973.941	-5.23
974.369	3.67
974.796	2.68
975.223	-7.53
975.651	-2.92
976.078	2.38
976.505	-0.43
976.932	3.08
977.359	13.07
977.786	14.67
978.214	0.98
978.641	-8.12
979.068	2.88
979.495	-6.62
979.922	3.57
980.349	-1.52
980.776	3.98
981.202	0.07
981.629	5.08
982.056	7.27
982.483	-7.82
982.91	4.38
983.337	-9.02
983.763	5.67
984.19	-3.02
984.617	0.88
985.043	-4.92
985.47	-1.02
985.897	-4.32
986.323	-4.62
986.75	3.38
987.176	-2.23
987.603	3.67
988.029	-0.33
988.456	-1.83
988.882	-0.12
989.308	-5.43
989.735	-4.62
990.161	1.08
990.587	-0.23
991.014	-3.02
991.44	6.67
991.866	1.58
992.292	-0.12
992.719	1.77
993.145	5.38
993.571	-5.92
993.997	-4.83
994.423	3.17
994.849	-2.12
995.275	5.88
995.701	2.17
996.127	-2.03
996.553	3.77
996.979	-3.12
997.405	-5.02
997.83	-8.93
998.256	-5.43
998.682	-5.52
999.108	-8.43
999.534	-2.83
999.959	-3.52
1000.385	-6.73
1000.811	-1.53
1001.236	-8.23
1001.662	-0.02
1002.087	-3.72
1002.513	-5.03
1002.938	0.78
1003.364	-1.52
1003.789	-0.73
1004.215	11.08
1004.64	-3.02
1005.066	2.48
1005.491	3.58
1005.916	-4.73
1006.342	-2.12
1006.767	-6.42
1007.192	3.88
1007.617	-0.73
1008.042	-7.02
1008.468	-3.43
1008.893	-3.22
1009.318	-5.42
1009.743	-0.53
1010.168	5.48
1010.593	3.58
1011.018	-3.32
1011.443	-0.92
1011.868	-2.42
1012.293	-3.52
1012.718	-4.32
1013.143	-1.23
1013.567	4.48
1013.992	-4.23
1014.417	-9.23
1014.842	2.77
1015.267	-2.93
1015.691	-4.62
1016.116	8.07
1016.541	-1.12
1016.965	1.57
1017.39	-0.12
1017.814	0.78
1018.239	2.17
1018.663	-7.83
1019.088	-5.73
1019.512	-5.62
1019.937	0.77
1020.361	-8.73
1020.785	-13.03
1021.21	-4.33
1021.634	-5.12
1022.058	-0.73
1022.483	5.48
1022.907	0.57
1023.331	1.68
1023.755	-2.33
1024.179	-4.83
1024.604	-2.23
1025.028	-3.43
1025.452	-5.23
1025.876	-2.73
1026.3	1.77
1026.724	-7.83
1027.148	-6.92
1027.572	-9.62
1027.996	1.17
1028.42	2.67
1028.843	-6.03
1029.267	-2.83
1029.691	-6.12
1030.115	-4.52
1030.539	-2.83
1030.962	-6.52
1031.386	-6.02
1031.81	-0.12
1032.233	-1.73
1032.657	-4.32
1033.08	-3.23
1033.504	0.17
1033.927	-4.12
1034.351	0.78
1034.774	-1.02
1035.198	-3.12
1035.621	-4.82
1036.045	-11.93
1036.468	-3.33
1036.891	-11.62
1037.315	-6.83
1037.738	-12.62
1038.161	-0.93
1038.584	-6.83
1039.008	-2.12
1039.431	-3.83
1039.854	-2.62
1040.277	-4.52
1040.7	-10.02
1041.123	-3.23
1041.546	-10.92
1041.969	-3.42
1042.392	-3.93
1042.815	-7.73
1043.238	-2.02
1043.661	2.48
1044.084	-7.23
1044.507	-8.42
1044.93	-4.83
1045.352	-5.52
1045.775	1.17
1046.198	0.48
1046.621	1.38
1047.043	-4.02
1047.466	7.98
1047.889	-0.23
1048.311	-10.12
1048.734	0.67
1049.156	-2.02
1049.579	0.27
1050.001	-1.02
1050.424	4.27
1050.846	-2.73
1051.269	-7.42
1051.691	-5.82
1052.113	-6.62
1052.536	-2.92
1052.958	-2.92
1053.38	-4.73
1053.802	-12.23
1054.225	-2.73
1054.647	-11.02
1055.069	-2.62
1055.491	1.38
1055.913	-7.43
1056.335	1.88
1056.757	-8.52
1057.179	-9.73
1057.601	-4.12
1058.023	-7.22
1058.445	-4.43
1058.867	-6.83
1059.289	-5.53
1059.711	-4.32
1060.133	-1.93
1060.555	-4.33
1060.976	-5.73
1061.398	-5.73
1061.82	-0.42
1062.241	-7.53
1062.663	-3.23
1063.085	-6.33
1063.506	0.38
1063.928	-1.23
1064.35	-2.32
1064.771	-13.93
1065.193	-1.93
1065.614	-9.12
1066.035	-0.22
1066.457	2.08
1066.878	-1.62
1067.3	-5.52
1067.721	-2.23
1068.142	-11.73
1068.564	-6.43
1068.985	-9.73
1069.406	-5.73
1069.827	-6.92
1070.248	6.08
1070.67	-6.62
1071.091	-6.12
1071.512	-0.03
1071.933	-9.12
1072.354	-7.22
1072.775	-3.73
1073.196	-7.12
1073.617	-4.33
1074.038	-4.32
1074.459	-1.62
1074.88	-3.32
1075.3	-2.33
1075.721	-0.12
1076.142	1.08
1076.563	-0.23
1076.983	-7.33
1077.404	-9.32
1077.825	-9.42
1078.246	-2.12
1078.666	-14.93
1079.087	-6.82
1079.507	-7.93
1079.928	0.77
1080.348	3.28
1080.769	-4.52
1081.189	0.28
1081.61	-3.12
1082.03	-9.73
1082.451	-11.12
1082.871	-4.32
1083.291	-4.03
1083.711	-4.82
1084.132	-5.52
1084.552	-9.02
1084.972	-4.12
1085.392	-13.53
1085.813	-8.12
1086.233	-3.83
1086.653	-3.02
1087.073	-4.02
1087.493	-5.83
1087.913	-6.33
1088.333	-1.02
1088.753	0.27
1089.173	-0.93
1089.593	-6.82
1090.013	-2.12
1090.433	4.38
1090.852	-0.73
1091.272	-1.43
1091.692	-2.62
1092.112	-3.52
1092.531	-12.33
1092.951	-11.02
1093.371	-3.53
1093.79	3.08
1094.21	-4.73
1094.63	-2.32
1095.049	2.08
1095.469	-2.33
1095.888	-1.83
1096.308	2.17
1096.727	1.88
1097.146	-6.32
1097.566	3.27
1097.985	-5.92
1098.405	-2.22
1098.824	-7.33
1099.243	-4.92
1099.662	-10.93
1100.082	-10.02
1100.501	0.77
1100.92	-5.43
1101.339	-3.03
1101.758	-4.32
