Data from 20171114-ORNL-Ar_H_NY_Subt18_08-04-36-730.txt Node
Date: Tue Nov 14 08:04:36 EST 2017
User: Ender
Spectrometer: HR+D1039
Trigger mode: 0
Integration Time (sec): 2.730000E-2
Scans to average: 10
Electric dark correction enabled: true
Nonlinearity correction enabled: false
Boxcar width: 0
XAxis mode: Wavelengths
Number of Pixels in Spectrum: 2048
>>>>>Begin Spectral Data<<<<<
187.836	-3.11
188.309	-3.11
188.782	-3.11
189.255	0.09
189.728	1.49
190.201	3.69
190.674	2.59
191.147	3.79
191.619	-7.01
192.092	-3.31
192.565	1.39
193.038	5.89
193.511	6.49
193.984	-1.21
194.456	-1.91
194.929	0.79
195.402	-9.71
195.874	-0.01
196.347	-0.81
196.82	-1.51
197.292	8.19
197.765	-1.51
198.237	-6.81
198.71	2.69
199.182	4.99
199.655	0.99
200.127	1.39
200.6	-0.61
201.072	-0.01
201.544	-6.31
202.017	-0.41
202.489	4.69
202.961	-4.01
203.433	-3.01
203.906	-3.21
204.378	-3.91
204.85	-6.91
205.322	-9.31
205.794	1.29
206.266	-2.81
206.739	-0.61
207.211	1.49
207.683	-6.71
208.155	-5.71
208.627	-5.31
209.099	-1.01
209.57	-1.91
210.042	-4.11
210.514	-5.81
210.986	-0.31
211.458	-7.91
211.93	1.39
212.402	0.29
212.873	-7.81
213.345	-4.81
213.817	-14.91
214.288	-0.91
214.76	-7.31
215.232	-5.21
215.703	-1.81
216.175	-3.51
216.646	-0.61
217.118	-1.81
217.589	-7.51
218.061	-5.51
218.532	-4.41
219.004	-1.71
219.475	-0.31
219.946	-2.11
220.418	-7.21
220.889	2.59
221.36	5.49
221.832	-7.21
222.303	-1.21
222.774	2.49
223.245	-10.01
223.717	-4.41
224.188	-7.61
224.659	-3.91
225.13	-3.51
225.601	2.69
226.072	-4.71
226.543	-2.41
227.014	7.99
227.485	-1.41
227.956	-2.81
228.427	-10.51
228.898	0.09
229.369	3.89
229.839	0.29
230.31	-6.71
230.781	-0.71
231.252	0.79
231.722	-0.71
232.193	-1.31
232.664	-0.51
233.135	0.99
233.605	-1.31
234.076	-9.31
234.546	3.69
235.017	10.49
235.487	3.89
235.958	-1.11
236.428	0.39
236.899	4.99
237.369	7.39
237.84	0.69
238.31	15.69
238.78	4.69
239.251	1.19
239.721	3.89
240.191	2.09
240.662	1.39
241.132	6.49
241.602	-6.41
242.072	2.89
242.542	7.49
243.013	2.39
243.483	9.19
243.953	0.49
244.423	3.39
244.893	-5.91
245.363	4.79
245.833	3.59
246.303	-1.71
246.773	12.99
247.243	3.09
247.712	10.29
248.182	4.89
248.652	8.39
249.122	3.69
249.592	18.29
250.061	27.99
250.531	31.99
251.001	19.79
251.471	29.89
251.94	22.59
252.41	11.59
252.879	1.29
253.349	11.89
253.818	16.69
254.288	8.59
254.757	6.09
255.227	0.29
255.696	7.59
256.166	8.79
256.635	8.99
257.105	14.39
257.574	13.19
258.043	16.19
258.513	17.09
258.982	22.19
259.451	14.89
259.92	16.29
260.389	11.79
260.859	12.09
261.328	9.29
261.797	19.19
262.266	11.69
262.735	16.29
263.204	7.89
263.673	-0.21
264.142	4.89
264.611	2.59
265.08	1.39
265.549	3.69
266.018	9.39
266.487	-0.41
266.955	0.39
267.424	-0.61
267.893	8.79
268.362	0.59
268.83	4.29
269.299	13.69
269.768	6.69
270.236	6.39
270.705	0.79
271.174	12.49
271.642	8.99
272.111	10.79
272.579	21.49
273.048	27.99
273.516	31.09
273.985	27.99
274.453	24.79
274.922	17.29
275.39	19.49
275.858	2.29
276.327	12.59
276.795	20.49
277.263	13.99
277.731	32.49
278.2	57.49
278.668	63.89
279.136	51.79
279.604	26.99
280.072	19.69
280.54	13.39
281.008	12.19
281.477	22.29
281.945	19.09
282.413	17.29
282.881	16.09
283.348	8.99
283.816	12.09
284.284	13.89
284.752	25.09
285.22	15.09
285.688	16.89
286.156	26.99
286.623	46.09
287.091	51.09
287.559	33.69
288.026	25.19
288.494	18.39
288.962	10.49
289.429	11.99
289.897	22.89
290.364	18.89
290.832	24.29
291.3	15.49
291.767	17.19
292.234	20.79
292.702	15.19
293.169	22.09
293.637	30.69
294.104	26.19
294.571	14.09
295.039	12.59
295.506	18.39
295.973	17.99
296.44	14.69
296.908	16.39
297.375	22.09
297.842	26.59
298.309	20.39
298.776	15.89
299.243	23.69
299.71	13.49
300.177	26.39
300.644	19.39
301.111	25.09
301.578	23.49
302.045	20.19
302.512	24.19
302.979	30.19
303.446	18.49
303.913	21.79
304.379	22.59
304.846	33.79
305.313	26.99
305.78	24.69
306.246	26.69
306.713	23.89
307.18	31.49
307.646	32.29
308.113	26.49
308.579	23.69
309.046	21.49
309.512	25.49
309.979	22.89
310.445	31.79
310.912	31.39
311.378	33.39
311.845	31.39
312.311	31.49
312.777	35.49
313.244	30.29
313.71	41.39
314.176	34.29
314.642	31.89
315.109	36.49
315.575	37.99
316.041	41.99
316.507	33.09
316.973	42.09
317.439	32.69
317.905	37.89
318.371	38.69
318.837	38.09
319.303	30.59
319.769	36.79
320.235	37.49
320.701	38.29
321.167	40.09
321.633	33.29
322.099	39.79
322.564	47.79
323.03	44.69
323.496	39.09
323.962	40.49
324.427	39.99
324.893	39.09
325.359	43.89
325.824	33.09
326.29	37.89
326.755	48.69
327.221	42.19
327.686	37.49
328.152	45.99
328.617	48.89
329.083	46.89
329.548	51.99
330.014	51.99
330.479	44.49
330.944	45.09
331.41	48.09
331.875	46.69
332.34	47.89
332.805	45.99
333.271	49.29
333.736	43.79
334.201	52.49
334.666	51.69
335.131	53.99
335.596	60.89
336.061	52.09
336.526	41.09
336.991	48.49
337.456	54.89
337.921	52.49
338.386	42.89
338.851	49.79
339.316	44.49
339.781	42.89
340.246	50.69
340.711	47.79
341.175	53.09
341.64	42.39
342.105	50.49
342.569	50.79
343.034	60.79
343.499	57.49
343.963	48.89
344.428	59.89
344.893	58.89
345.357	62.29
345.822	62.29
346.286	61.29
346.751	71.79
347.215	65.99
347.679	79.09
348.144	102.39
348.608	84.19
349.073	65.89
349.537	68.99
350.001	72.09
350.465	85.99
350.93	84.49
351.394	82.99
351.858	72.49
352.322	86.59
352.786	77.59
353.25	99.49
353.715	110.69
354.179	100.59
354.643	121.89
355.107	121.49
355.571	108.69
356.035	104.19
356.498	112.79
356.962	122.99
357.426	127.19
357.89	105.19
358.354	84.89
358.818	86.19
359.281	76.69
359.745	76.79
360.209	78.89
360.673	75.59
361.136	75.19
361.6	85.69
362.064	84.29
362.527	83.79
362.991	85.19
363.454	81.79
363.918	74.29
364.381	77.59
364.845	74.69
365.308	82.29
365.772	82.89
366.235	85.09
366.698	79.79
367.162	86.69
367.625	75.49
368.088	87.79
368.552	83.59
369.015	91.19
369.478	92.09
369.941	98.19
370.404	94.79
370.867	100.69
371.331	107.39
371.794	105.99
372.257	107.09
372.72	119.09
373.183	111.99
373.646	99.49
374.109	100.49
374.572	101.59
375.035	107.79
375.497	105.99
375.96	104.19
376.423	103.59
376.886	101.39
377.349	112.09
377.811	96.79
378.274	108.29
378.737	108.49
379.199	110.79
379.662	104.59
380.125	113.29
380.587	114.39
381.05	116.59
381.512	126.49
381.975	125.49
382.437	123.99
382.9	115.79
383.362	122.19
383.825	129.79
384.287	144.69
384.75	133.39
385.212	137.69
385.674	134.69
386.136	131.39
386.599	114.29
387.061	123.09
387.523	123.99
387.985	127.39
388.447	135.79
388.91	132.49
389.372	150.59
389.834	145.59
390.296	139.89
390.758	149.79
391.22	155.09
391.682	204.09
392.144	277.39
392.606	218.99
393.068	152.89
393.529	165.89
393.991	151.39
394.453	142.29
394.915	147.49
395.377	186.09
395.838	205.29
396.3	143.99
396.762	133.69
397.224	127.79
397.685	125.09
398.147	124.59
398.608	119.39
399.07	120.09
399.531	124.09
399.993	132.59
400.454	144.99
400.916	135.29
401.377	138.29
401.839	148.89
402.3	147.49
402.762	160.29
403.223	169.39
403.684	164.69
404.145	151.99
404.607	150.79
405.068	152.89
405.529	150.89
405.99	177.69
406.451	169.59
406.913	160.69
407.374	153.29
407.835	152.49
408.296	157.19
408.757	155.99
409.218	179.59
409.679	169.49
410.14	161.89
410.601	158.59
411.062	171.99
411.522	183.59
411.983	179.79
412.444	169.59
412.905	169.09
413.366	173.09
413.826	189.79
414.287	206.69
414.748	245.89
415.208	229.99
415.669	200.49
416.13	198.89
416.59	189.39
417.051	196.89
417.511	206.89
417.972	223.09
418.432	231.79
418.893	272.19
419.353	234.69
419.814	188.19
420.274	173.09
420.734	175.79
421.195	190.49
421.655	187.09
422.115	177.49
422.576	183.59
423.036	179.99
423.496	188.39
423.956	202.99
424.416	223.19
424.876	247.99
425.336	242.19
425.797	242.99
426.257	237.09
426.717	221.99
427.177	215.29
427.637	201.09
428.097	221.49
428.556	226.39
429.016	259.99
429.476	243.49
429.936	252.29
430.396	252.99
430.856	280.29
431.315	295.29
431.775	323.09
432.235	360.89
432.694	323.29
433.154	336.79
433.614	359.49
434.073	318.99
434.533	273.99
434.993	244.49
435.452	261.89
435.912	273.69
436.371	263.29
436.83	263.49
437.29	250.59
437.749	231.29
438.209	225.09
438.668	254.69
439.127	265.39
439.587	243.79
440.046	229.79
440.505	237.39
440.964	256.49
441.424	296.19
441.883	283.29
442.342	237.79
442.801	213.49
443.26	207.79
443.719	202.59
444.178	201.99
444.637	191.29
445.096	197.79
445.555	207.19
446.014	205.59
446.473	210.19
446.932	210.99
447.391	209.89
447.849	208.39
448.308	198.19
448.767	206.89
449.226	225.99
449.685	219.69
450.143	232.49
450.602	218.29
451.061	213.29
451.519	212.89
451.978	213.99
452.436	220.29
452.895	222.69
453.353	235.79
453.812	224.29
454.27	227.99
454.729	225.19
455.187	225.99
455.646	230.29
456.104	228.39
456.562	237.99
457.021	253.69
457.479	244.09
457.937	252.49
458.395	245.79
458.854	238.39
459.312	241.09
459.77	247.99
460.228	243.09
460.686	223.79
461.144	230.39
461.602	226.69
462.06	224.69
462.518	237.89
462.976	235.39
463.434	233.69
463.892	245.49
464.35	251.39
464.808	274.19
465.266	248.09
465.724	251.79
466.181	250.09
466.639	249.59
467.097	270.79
467.555	276.69
468.012	279.19
468.47	290.39
468.928	309.89
469.385	316.39
469.843	322.39
470.3	326.99
470.758	334.99
471.215	359.29
471.673	377.99
472.13	374.49
472.588	385.29
473.045	337.49
473.503	345.19
473.96	368.29
474.417	384.39
474.875	405.39
475.332	440.99
475.789	428.79
476.246	433.59
476.704	458.29
477.161	474.49
477.618	482.09
478.075	517.99
478.532	564.69
478.989	643.59
479.446	745.99
479.903	722.29
480.36	750.29
480.817	807.29
481.274	909.89
481.731	991.89
482.188	1091.99
482.645	1223.49
483.102	1326.39
483.558	1453.19
484.015	1502.29
484.472	1489.99
484.929	1440.79
485.385	1399.59
485.842	1351.29
486.299	1285.79
486.755	1204.39
487.212	1013.49
487.668	864.79
488.125	805.19
488.582	736.49
489.038	699.09
489.494	665.99
489.951	645.19
490.407	629.79
490.864	604.09
491.32	598.19
491.776	602.79
492.233	604.29
492.689	564.69
493.145	557.49
493.602	560.89
494.058	567.99
494.514	570.99
494.97	593.19
495.426	603.39
495.882	582.79
496.338	576.89
496.794	588.29
497.251	584.09
497.707	597.79
498.163	597.59
498.618	596.69
499.074	609.39
499.53	634.49
499.986	630.49
500.442	597.79
500.898	588.59
501.354	575.49
501.809	592.69
502.265	599.99
502.721	620.59
503.177	625.89
503.632	612.79
504.088	628.19
504.543	657.19
504.999	654.99
505.455	608.39
505.91	594.89
506.366	581.79
506.821	574.89
507.277	579.59
507.732	581.19
508.187	570.89
508.643	586.49
509.098	593.19
509.553	621.89
510.009	617.19
510.464	617.49
510.919	644.89
511.375	638.59
511.83	653.99
512.285	676.89
512.74	705.49
513.195	727.69
513.65	719.89
514.105	721.19
514.56	713.39
515.015	735.09
515.47	762.89
515.925	733.59
516.38	740.39
516.835	739.39
517.29	733.49
517.745	724.99
518.2	712.39
518.655	697.69
519.109	702.19
519.564	683.99
520.019	679.29
520.474	673.89
520.928	677.29
521.383	665.39
521.838	659.69
522.292	660.09
522.747	653.29
523.201	659.79
523.656	643.49
524.11	644.89
524.565	643.09
525.019	640.19
525.474	654.39
525.928	654.79
526.382	652.09
526.837	633.59
527.291	641.89
527.745	635.59
528.2	649.09
528.654	644.59
529.108	644.69
529.562	647.09
530.016	637.39
530.47	640.29
530.925	639.39
531.379	647.89
531.833	646.99
532.287	648.99
532.741	650.69
533.195	659.19
533.649	655.99
534.103	672.19
534.556	658.99
535.01	665.69
535.464	655.39
535.918	663.49
536.372	678.19
536.826	660.09
537.279	656.89
537.733	654.89
538.187	666.19
538.64	662.09
539.094	670.99
539.548	680.49
540.001	669.69
540.455	659.09
540.908	666.89
541.362	679.69
541.815	672.49
542.269	692.29
542.722	707.09
543.175	709.89
543.629	715.29
544.082	718.89
544.536	729.99
544.989	719.39
545.442	730.09
545.895	725.59
546.349	727.09
546.802	711.49
547.255	725.89
547.708	738.59
548.161	752.19
548.614	743.39
549.067	762.59
549.52	751.39
549.973	746.09
550.426	737.79
550.879	725.99
551.332	731.59
551.785	734.69
552.238	736.39
552.691	745.39
553.144	751.79
553.596	771.59
554.049	784.99
554.502	819.09
554.955	831.49
555.407	836.09
555.86	829.29
556.313	823.19
556.765	805.19
557.218	814.79
557.67	791.79
558.123	800.59
558.576	788.89
559.028	796.79
559.48	806.89
559.933	801.39
560.385	758.99
560.838	727.79
561.29	705.09
561.742	711.39
562.195	694.39
562.647	689.59
563.099	708.49
563.551	687.09
564.004	709.39
564.456	701.69
564.908	684.79
565.36	686.79
565.812	664.59
566.264	650.19
566.716	653.99
567.168	650.79
567.62	664.19
568.072	634.89
568.524	625.19
568.976	620.59
569.428	604.29
569.88	608.89
570.332	605.39
570.784	619.69
571.235	615.79
571.687	636.49
572.139	627.59
572.59	640.29
573.042	641.79
573.494	642.19
573.945	645.99
574.397	612.39
574.849	621.59
575.3	623.59
575.752	619.59
576.203	606.29
576.655	614.79
577.106	604.69
577.557	595.59
578.009	600.49
578.46	595.09
578.912	589.29
579.363	598.59
579.814	597.49
580.265	585.69
580.717	601.59
581.168	591.89
581.619	592.09
582.07	610.09
582.521	598.49
582.972	609.09
583.423	606.79
583.875	606.49
584.326	623.19
584.777	667.89
585.227	735.99
585.678	821.39
586.129	910.89
586.58	971.49
587.031	1057.39
587.482	1210.39
587.933	1376.99
588.384	1189.99
588.834	873.99
589.285	721.99
589.736	700.49
590.186	691.69
590.637	689.59
591.088	670.89
591.538	653.39
591.989	651.99
592.439	648.59
592.89	641.99
593.34	628.19
593.791	628.29
594.241	624.49
594.692	631.79
595.142	627.99
595.593	618.49
596.043	621.49
596.493	628.89
596.943	637.29
597.394	636.89
597.844	626.89
598.294	649.09
598.744	665.99
599.195	683.59
599.645	718.79
600.095	766.89
600.545	805.39
600.995	849.69
601.445	902.39
601.895	966.09
602.345	999.99
602.795	980.69
603.245	949.09
603.695	882.09
604.145	846.49
604.594	812.29
605.044	756.89
605.494	700.09
605.944	669.59
606.393	661.89
606.843	643.09
607.293	656.99
607.743	636.79
608.192	654.99
608.642	667.39
609.091	674.79
609.541	676.99
609.99	673.19
610.44	670.59
610.889	626.89
611.339	614.19
611.788	601.89
612.238	615.09
612.687	630.09
613.136	632.69
613.586	647.39
614.035	648.29
614.484	667.19
614.933	662.39
615.383	647.59
615.832	643.79
616.281	633.69
616.73	599.39
617.179	586.39
617.628	566.89
618.077	555.69
618.526	547.09
618.975	527.59
619.424	535.49
619.873	534.69
620.322	542.99
620.771	531.19
621.22	528.39
621.669	520.09
622.118	518.99
622.567	506.69
623.015	497.19
623.464	490.99
623.913	488.79
624.361	484.49
624.81	480.29
625.259	474.39
625.707	482.09
626.156	489.19
626.604	485.89
627.053	485.19
627.501	490.09
627.95	496.09
628.398	503.09
628.847	495.29
629.295	497.49
629.744	497.19
630.192	493.49
630.64	488.09
631.089	483.89
631.537	486.99
631.985	501.09
632.433	527.19
632.881	520.09
633.33	576.49
633.778	552.49
634.226	488.99
634.674	494.29
635.122	493.19
635.57	508.49
636.018	533.69
636.466	501.39
636.914	491.39
637.362	489.39
637.81	500.79
638.258	502.69
638.705	501.19
639.153	515.19
639.601	522.99
640.049	554.09
640.497	573.19
640.944	597.79
641.392	556.29
641.84	528.19
642.287	500.89
642.735	490.49
643.182	494.59
643.63	492.59
644.078	494.99
644.525	510.99
644.973	515.29
645.42	511.79
645.867	536.49
646.315	555.59
646.762	573.99
647.21	597.59
647.657	607.29
648.104	634.79
648.551	660.69
648.999	722.69
649.446	785.29
649.893	860.69
650.34	997.19
650.787	1187.99
651.234	1459.39
651.682	1906.69
652.129	2623.39
652.576	3725.79
653.023	5566.59
653.47	7638.59
653.917	9718.89
654.363	11338.49
654.81	12731.59
655.257	12120.39
655.704	7851.69
656.151	4590.99
656.598	2956.39
657.044	2099.29
657.491	1607.69
657.938	1284.59
658.385	1077.69
658.831	925.99
659.278	833.39
659.724	738.49
660.171	675.79
660.618	616.59
661.064	594.29
661.511	562.29
661.957	560.39
662.404	545.59
662.85	544.29
663.296	525.89
663.743	476.09
664.189	458.19
664.635	456.99
665.082	452.49
665.528	445.29
665.974	444.49
666.42	438.09
666.867	427.29
667.313	412.29
667.759	407.59
668.205	409.49
668.651	418.19
669.097	416.59
669.543	429.49
669.989	403.19
670.435	388.39
670.881	372.19
671.327	383.89
671.773	397.59
672.219	417.19
672.665	460.39
673.11	498.99
673.556	532.99
674.002	568.09
674.448	563.09
674.893	471.29
675.339	408.09
675.785	374.59
676.23	354.09
676.676	329.19
677.122	320.69
677.567	309.19
678.013	308.19
678.458	299.89
678.904	307.39
679.349	292.79
679.794	296.59
680.24	300.19
680.685	292.89
681.131	290.79
681.576	288.69
682.021	302.39
682.466	297.39
682.912	288.59
683.357	297.79
683.802	320.09
684.247	343.49
684.692	379.49
685.137	418.19
685.583	455.09
686.028	481.29
686.473	443.79
686.918	371.49
687.363	353.49
687.807	330.29
688.252	306.49
688.697	301.89
689.142	280.09
689.587	283.39
690.032	270.79
690.477	283.99
690.921	296.69
691.366	318.69
691.811	336.59
692.255	369.59
692.7	392.29
693.145	419.29
693.589	567.19
694.034	921.59
694.478	1280.49
694.923	1482.29
695.367	1955.79
695.812	1021.19
696.256	424.99
696.701	320.79
697.145	287.79
697.59	277.19
698.034	272.19
698.478	282.49
698.922	276.89
699.367	279.59
699.811	283.19
700.255	299.89
700.699	320.39
701.143	355.49
701.588	410.69
702.032	439.79
702.476	434.29
702.92	411.49
703.364	417.29
703.808	519.59
704.252	840.99
704.696	1207.69
705.14	1427.39
705.584	1836.09
706.027	899.89
706.471	443.39
706.915	337.69
707.359	292.89
707.803	267.29
708.246	257.99
708.69	263.89
709.134	262.89
709.577	268.99
710.021	267.69
710.465	254.89
710.908	249.09
711.352	248.79
711.795	264.19
712.239	290.49
712.682	318.49
713.126	349.39
713.569	399.89
714.012	312.49
714.456	273.49
714.899	250.99
715.342	230.59
715.786	224.19
716.229	212.29
716.672	215.49
717.115	206.89
717.558	213.79
718.002	211.89
718.445	221.09
718.888	231.99
719.331	239.09
719.774	263.19
720.217	257.09
720.66	230.99
721.103	218.19
721.546	210.99
721.989	211.69
722.432	194.89
722.874	200.89
723.317	190.59
723.76	195.49
724.203	214.69
724.645	271.49
725.088	365.39
725.531	475.09
725.974	551.19
726.416	461.49
726.859	258.09
727.301	201.39
727.744	200.09
728.187	192.49
728.629	197.59
729.071	200.89
729.514	211.29
729.956	228.59
730.399	239.59
730.841	242.69
731.283	228.89
731.726	226.59
732.168	223.29
732.61	222.59
733.053	237.59
733.495	254.59
733.937	292.79
734.379	330.49
734.821	367.69
735.263	447.69
735.705	676.09
736.148	1264.39
736.59	2132.49
737.032	2618.29
737.474	2128.09
737.916	682.09
738.357	361.49
738.799	275.59
739.241	247.69
739.683	237.09
740.125	241.49
740.567	247.59
741.008	266.29
741.45	262.19
741.892	268.59
742.334	289.89
742.775	295.19
743.217	297.99
743.658	220.49
744.1	210.19
744.542	213.09
744.983	259.19
745.425	288.29
745.866	289.59
746.307	242.09
746.749	232.89
747.19	262.99
747.632	367.59
748.073	706.29
748.514	1515.99
748.956	2370.19
749.397	2977.19
749.838	2486.89
750.279	2545.29
750.72	1267.59
751.162	454.99
751.603	272.69
752.044	214.89
752.485	179.39
752.926	168.09
753.367	171.99
753.808	166.49
754.249	153.79
754.69	161.19
755.131	150.29
755.572	153.49
756.013	148.09
756.453	153.69
756.894	151.29
757.335	158.69
757.776	162.19
758.216	154.89
758.657	160.09
759.098	167.19
759.538	183.29
759.979	214.79
760.42	302.89
760.86	564.89
761.301	1452.69
761.741	3649.49
762.182	5571.79
762.622	3939.99
763.063	1113.39
763.503	457.59
763.943	285.99
764.384	288.89
764.824	342.89
765.264	391.39
765.705	261.79
766.145	174.89
766.585	155.29
767.025	149.59
767.465	152.39
767.906	199.99
768.346	271.99
768.786	295.09
769.226	219.09
769.666	256.79
770.106	494.89
770.546	1250.19
770.986	2241.09
771.426	2049.09
771.866	671.09
772.306	272.29
772.745	180.29
773.185	146.49
773.625	136.09
774.065	138.39
774.505	164.29
774.944	255.89
775.384	564.19
775.824	1060.99
776.263	1050.39
776.703	437.99
777.142	188.39
777.582	137.19
778.021	116.89
778.461	118.59
778.9	113.39
779.34	112.89
779.779	93.99
780.219	92.09
780.658	82.89
781.097	89.19
781.537	94.89
781.976	90.29
782.415	91.99
782.855	88.79
783.294	86.09
783.733	86.59
784.172	93.59
784.611	87.49
785.05	92.69
785.489	96.29
785.928	95.59
786.367	102.69
786.806	100.49
787.245	116.09
787.684	110.59
788.123	126.79
788.562	107.59
789.001	111.19
789.44	100.89
789.879	100.99
790.317	96.69
790.756	111.39
791.195	108.19
791.634	122.79
792.072	172.29
792.511	289.39
792.95	811.99
793.388	1812.79
793.827	1684.59
794.265	569.09
794.704	233.19
795.142	156.79
795.581	129.39
796.019	115.59
796.458	111.69
796.896	100.69
797.334	107.59
797.773	123.89
798.211	177.99
798.649	353.29
799.087	834.59
799.526	1334.29
799.964	1677.29
800.402	1729.59
800.84	638.99
801.278	248.49
801.716	157.69
802.154	124.19
802.592	116.19
803.03	111.89
803.468	112.49
803.906	115.99
804.344	124.29
804.782	121.69
805.22	111.09
805.658	99.89
806.096	120.89
806.533	127.69
806.971	149.99
807.409	177.99
807.847	264.79
808.284	531.29
808.722	1526.39
809.16	2795.99
809.597	2563.59
810.035	4585.69
810.472	5089.89
810.91	1810.79
811.347	668.79
811.785	346.49
812.222	215.49
812.66	161.19
813.097	137.69
813.535	119.79
813.972	99.19
814.409	94.79
814.846	93.69
815.284	97.89
815.721	80.09
816.158	95.79
816.595	102.39
817.032	148.39
817.47	168.79
817.907	150.89
818.344	130.49
818.781	101.09
819.218	84.59
819.655	104.29
820.092	158.49
820.529	187.19
820.966	151.69
821.403	109.39
821.839	91.79
822.276	87.79
822.713	101.59
823.15	109.79
823.587	96.69
824.023	121.19
824.46	235.39
824.897	737.09
825.333	1173.99
825.77	496.99
826.206	199.09
826.643	112.79
827.08	86.19
827.516	73.19
827.953	58.99
828.389	74.29
828.825	57.59
829.262	58.19
829.698	54.29
830.135	50.69
830.571	45.89
831.007	55.49
831.443	53.49
831.88	53.89
832.316	53.39
832.752	48.19
833.188	54.59
833.624	52.19
834.06	52.89
834.497	58.49
834.933	65.79
835.369	68.89
835.805	53.39
836.241	59.69
836.677	62.89
837.112	75.19
837.548	82.29
837.984	110.69
838.42	164.69
838.856	399.59
839.292	1256.89
839.727	1989.09
840.163	918.79
840.599	748.29
841.034	1699.49
841.47	1852.39
841.906	665.39
842.341	275.79
842.777	190.99
843.212	269.29
843.648	280.19
844.083	131.29
844.519	82.79
844.954	66.89
845.39	51.19
845.825	47.29
846.261	50.49
846.696	50.39
847.131	41.19
847.566	45.19
848.002	42.19
848.437	45.79
848.872	48.29
849.307	53.19
849.742	69.09
850.177	146.09
850.613	456.59
851.048	752.39
851.483	317.69
851.918	117.99
852.353	70.19
852.788	48.39
853.223	50.19
853.657	52.79
854.092	39.69
854.527	28.09
854.962	34.89
855.397	32.69
855.832	37.79
856.266	33.29
856.701	28.09
857.136	31.59
857.57	30.29
858.005	42.09
858.44	48.29
858.874	40.19
859.309	41.99
859.743	32.99
860.178	37.19
860.612	34.39
861.047	44.29
861.481	54.29
861.915	62.29
862.35	40.59
862.784	28.39
863.218	28.59
863.653	23.09
864.087	39.79
864.521	47.09
864.955	60.69
865.39	125.39
865.824	147.99
866.258	95.19
866.692	143.29
867.126	159.69
867.56	90.89
867.994	48.69
868.428	33.49
868.862	42.39
869.296	46.09
869.73	50.59
870.164	45.89
870.598	40.79
871.031	29.59
871.465	29.09
871.899	26.79
872.333	20.09
872.766	22.89
873.2	16.59
873.634	25.59
874.067	24.79
874.501	22.79
874.935	28.19
875.368	24.29
875.802	26.49
876.235	21.29
876.669	20.69
877.102	22.69
877.535	22.39
877.969	16.99
878.402	13.59
878.836	17.39
879.269	22.39
879.702	21.19
880.135	12.79
880.569	17.39
881.002	23.19
881.435	19.39
881.868	13.49
882.301	21.49
882.734	15.49
883.167	22.09
883.601	19.19
884.034	18.69
884.467	17.59
884.899	20.09
885.332	8.89
885.765	12.99
886.198	13.79
886.631	14.99
887.064	12.89
887.497	22.39
887.929	18.59
888.362	16.09
888.795	14.69
889.228	18.49
889.66	16.79
890.093	13.29
890.526	15.89
890.958	9.99
891.391	11.69
891.823	14.89
892.256	12.29
892.688	8.09
893.121	15.39
893.553	13.89
893.985	20.59
894.418	15.19
894.85	11.39
895.282	12.79
895.715	9.59
896.147	13.59
896.579	17.09
897.011	14.19
897.444	10.59
897.876	10.69
898.308	14.89
898.74	12.59
899.172	9.49
899.604	25.29
900.036	23.49
900.468	11.09
900.9	12.89
901.332	15.69
901.764	11.99
902.196	15.59
902.628	14.19
903.06	10.19
903.491	21.39
903.923	21.19
904.355	23.59
904.787	24.79
905.218	19.89
905.65	16.19
906.082	10.79
906.513	17.19
906.945	14.69
907.376	14.39
907.808	14.69
908.239	17.49
908.671	16.69
909.102	21.39
909.534	19.89
909.965	37.49
910.397	76.69
910.828	261.59
911.259	417.39
911.691	185.39
912.122	85.59
912.553	44.79
912.984	30.19
913.415	24.09
913.847	22.69
914.278	11.39
914.709	12.09
915.14	18.09
915.571	19.49
916.002	9.69
916.433	16.49
916.864	15.19
917.295	12.49
917.726	18.69
918.157	8.19
918.587	26.89
919.018	22.09
919.449	17.69
919.88	22.89
920.311	19.79
920.741	40.69
921.172	139.69
921.603	127.19
922.033	57.49
922.464	43.09
922.895	18.19
923.325	16.79
923.756	13.79
924.186	14.89
924.617	24.29
925.047	37.59
925.478	43.49
925.908	41.09
926.338	27.49
926.769	14.19
927.199	19.79
927.629	6.19
928.06	17.79
928.49	15.79
928.92	13.59
929.35	12.99
929.78	8.49
930.21	7.69
930.641	9.69
931.071	7.59
931.501	2.09
931.931	11.79
932.361	3.09
932.791	6.09
933.221	4.29
933.651	1.69
934.08	13.09
934.51	32.59
934.94	13.29
935.37	9.09
935.8	14.49
936.229	9.89
936.659	11.49
937.089	5.29
937.519	13.19
937.948	21.09
938.378	15.09
938.807	1.39
939.237	7.69
939.666	10.29
940.096	-7.61
940.525	0.59
940.955	2.29
941.384	5.59
941.814	-2.61
942.243	0.99
942.672	1.69
943.102	-4.21
943.531	0.39
943.96	4.39
944.39	1.39
944.819	0.09
945.248	1.19
945.677	4.09
946.106	4.29
946.535	9.29
946.964	-3.21
947.393	2.99
947.822	1.89
948.251	-6.11
948.68	6.59
949.109	4.79
949.538	6.89
949.967	7.29
950.396	-0.51
950.825	-8.11
951.254	-0.61
951.682	-2.41
952.111	-1.61
952.54	0.99
952.969	-4.41
953.397	-4.51
953.826	0.79
954.254	-5.41
954.683	-2.81
955.112	1.99
955.54	6.69
955.969	3.39
956.397	2.49
956.826	1.29
957.254	1.89
957.682	-0.71
958.111	4.49
958.539	-3.01
958.967	2.89
959.396	-4.61
959.824	1.09
960.252	1.19
960.68	-1.91
961.109	-2.31
961.537	0.89
961.965	-0.61
962.393	-0.01
962.821	-4.61
963.249	4.29
963.677	5.29
964.105	-0.91
964.533	34.99
964.961	36.29
965.389	11.79
965.817	8.09
966.245	0.79
966.672	-0.51
967.1	-5.81
967.528	-0.91
967.956	-2.41
968.383	-2.11
968.811	1.09
969.239	-3.11
969.666	-2.11
970.094	1.89
970.522	-1.91
970.949	-3.11
971.377	-4.41
971.804	-1.91
972.232	-2.91
972.659	-2.61
973.087	-1.81
973.514	-4.41
973.941	-6.61
974.369	1.89
974.796	1.19
975.223	2.09
975.651	-0.11
976.078	-0.01
976.505	-3.41
976.932	0.09
977.359	12.49
977.786	11.99
978.214	3.09
978.641	-7.91
979.068	-6.41
979.495	-3.11
979.922	-0.91
980.349	-6.61
980.776	1.69
981.202	3.89
981.629	1.79
982.056	-1.81
982.483	-2.11
982.91	-1.51
983.337	-10.01
983.763	1.39
984.19	-10.11
984.617	-1.81
985.043	-5.71
985.47	-3.91
985.897	-2.11
986.323	-0.51
986.75	4.89
987.176	-6.41
987.603	0.29
988.029	-1.31
988.456	-0.01
988.882	5.19
989.308	-11.51
989.735	-3.51
990.161	1.49
990.587	-5.81
991.014	-7.01
991.44	5.39
991.866	-6.21
992.292	-4.91
992.719	-3.01
993.145	0.19
993.571	-6.61
993.997	-3.91
994.423	-3.71
994.849	-8.51
995.275	1.19
995.701	-0.21
996.127	-2.41
996.553	5.89
996.979	-3.61
997.405	-4.41
997.83	-3.51
998.256	-4.51
998.682	-7.71
999.108	-7.21
999.534	-1.61
999.959	3.99
1000.385	-5.01
1000.811	5.19
1001.236	-11.51
1001.662	-10.21
1002.087	-8.31
1002.513	1.89
1002.938	3.29
1003.364	-1.91
1003.789	2.09
1004.215	2.09
1004.64	-0.81
1005.066	-0.61
1005.491	-2.91
1005.916	-1.11
1006.342	2.19
1006.767	-6.11
1007.192	4.19
1007.617	-1.11
1008.042	-2.81
1008.468	-5.11
1008.893	0.99
1009.318	-4.21
1009.743	2.29
1010.168	4.59
1010.593	-0.31
1011.018	-10.41
1011.443	0.39
1011.868	-6.91
1012.293	-3.81
1012.718	-8.31
1013.143	-1.81
1013.567	1.99
1013.992	-4.51
1014.417	-7.91
1014.842	-1.51
1015.267	-2.01
1015.691	-6.51
1016.116	0.29
1016.541	-0.41
1016.965	0.39
1017.39	1.19
1017.814	-2.71
1018.239	-2.01
1018.663	-7.21
1019.088	-5.61
1019.512	-7.31
1019.937	-1.91
1020.361	-2.51
1020.785	-8.91
1021.21	-4.01
1021.634	-6.01
1022.058	-3.31
1022.483	6.99
1022.907	-4.11
1023.331	-1.81
1023.755	-2.81
1024.179	-6.91
1024.604	-2.31
1025.028	-6.21
1025.452	-3.81
1025.876	3.69
1026.3	2.99
1026.724	-7.41
1027.148	0.39
1027.572	-7.51
1027.996	-6.11
1028.42	-3.01
1028.843	-2.41
1029.267	-5.81
1029.691	-1.51
1030.115	-2.21
1030.539	-7.41
1030.962	-5.91
1031.386	-7.71
1031.81	-1.71
1032.233	-2.01
1032.657	-1.21
1033.08	-8.21
1033.504	-1.61
1033.927	-3.21
1034.351	0.59
1034.774	-5.71
1035.198	-2.31
1035.621	-4.01
1036.045	-7.11
1036.468	4.89
1036.891	-8.71
1037.315	-4.81
1037.738	-4.21
1038.161	-2.21
1038.584	-7.01
1039.008	-9.21
1039.431	-1.41
1039.854	-2.21
1040.277	-6.41
1040.7	-11.41
1041.123	-3.81
1041.546	-6.21
1041.969	-8.81
1042.392	-8.71
1042.815	-4.11
1043.238	-2.41
1043.661	-1.41
1044.084	-11.11
1044.507	-9.21
1044.93	-0.61
1045.352	-5.71
1045.775	-6.51
1046.198	-8.51
1046.621	-1.31
1047.043	-3.11
1047.466	1.99
1047.889	-3.81
1048.311	-4.41
1048.734	-1.31
1049.156	-3.41
1049.579	-1.41
1050.001	-4.51
1050.424	-1.01
1050.846	-3.21
1051.269	2.09
1051.691	-14.41
1052.113	-1.91
1052.536	-1.71
1052.958	-4.91
1053.38	-8.01
1053.802	-11.21
1054.225	-1.01
1054.647	-3.01
1055.069	-5.21
1055.491	1.49
1055.913	-4.01
1056.335	1.59
1056.757	-4.51
1057.179	-6.41
1057.601	-3.51
1058.023	-3.71
1058.445	-5.71
1058.867	0.99
1059.289	-3.71
1059.711	-12.51
1060.133	1.49
1060.555	-2.21
1060.976	-2.21
1061.398	-10.41
1061.82	-3.41
1062.241	-6.51
1062.663	-7.51
1063.085	-4.81
1063.506	1.89
1063.928	-1.01
1064.35	-1.51
1064.771	-4.61
1065.193	-6.81
1065.614	-2.71
1066.035	2.39
1066.457	-5.71
1066.878	-0.61
1067.3	1.69
1067.721	-1.71
1068.142	-1.61
1068.564	-3.01
1068.985	-0.01
1069.406	-3.71
1069.827	-8.91
1070.248	-2.61
1070.67	-7.21
1071.091	-5.11
1071.512	-4.81
1071.933	-2.81
1072.354	-14.31
1072.775	-5.61
1073.196	-5.61
1073.617	-5.01
1074.038	-8.21
1074.459	-1.61
1074.88	-8.81
1075.3	-2.91
1075.721	-8.21
1076.142	1.09
1076.563	-3.81
1076.983	-9.91
1077.404	-9.51
1077.825	-9.61
1078.246	-7.21
1078.666	-4.41
1079.087	-3.91
1079.507	-3.51
1079.928	0.09
1080.348	0.39
1080.769	-5.51
1081.189	-1.71
1081.61	-5.51
1082.03	-5.31
1082.451	-6.11
1082.871	-5.31
1083.291	-2.81
1083.711	-10.81
1084.132	-9.41
1084.552	-2.91
1084.972	-2.31
1085.392	-4.51
1085.813	-8.21
1086.233	-3.41
1086.653	-4.21
1087.073	-4.01
1087.493	-11.91
1087.913	-5.21
1088.333	-8.21
1088.753	-5.41
1089.173	0.79
1089.593	-7.31
1090.013	3.49
1090.433	-5.71
1090.852	-6.31
1091.272	0.19
1091.692	0.39
1092.112	-5.31
1092.531	-11.01
1092.951	-10.81
1093.371	-10.11
1093.79	-1.61
1094.21	-8.61
1094.63	-6.01
1095.049	-4.31
1095.469	-3.11
1095.888	-7.41
1096.308	2.29
1096.727	3.29
1097.146	-2.71
1097.566	-2.41
1097.985	-7.51
1098.405	-3.71
1098.824	-11.51
1099.243	-8.11
1099.662	-8.51
1100.082	-0.91
1100.501	-1.51
1100.92	-1.31
1101.339	-7.31
1101.758	-5.91
