Data from 20171114-ORNL-Ar_H_NY_Subt18_08-04-25-265.txt Node
Date: Tue Nov 14 08:04:25 EST 2017
User: Ender
Spectrometer: HR+D1039
Trigger mode: 0
Integration Time (sec): 2.730000E-2
Scans to average: 10
Electric dark correction enabled: true
Nonlinearity correction enabled: false
Boxcar width: 0
XAxis mode: Wavelengths
Number of Pixels in Spectrum: 2048
>>>>>Begin Spectral Data<<<<<
187.836	-6.39
188.309	-6.39
188.782	-6.39
189.255	-0.59
189.728	-3.69
190.201	5.61
190.674	2.41
191.147	3.41
191.619	-11.49
192.092	-3.69
192.565	9.51
193.038	-4.09
193.511	1.81
193.984	3.31
194.456	-1.39
194.929	1.11
195.402	1.71
195.874	2.51
196.347	6.31
196.82	-6.09
197.292	4.91
197.765	2.41
198.237	-5.59
198.71	2.11
199.182	-3.29
199.655	2.81
200.127	0.31
200.6	-3.49
201.072	-6.89
201.544	-4.99
202.017	2.41
202.489	4.41
202.961	-6.69
203.433	-6.19
203.906	-2.69
204.378	-4.19
204.85	-0.19
205.322	-8.89
205.794	1.11
206.266	-6.69
206.739	-6.79
207.211	6.11
207.683	-6.79
208.155	-5.99
208.627	-9.09
209.099	-3.69
209.57	-2.89
210.042	-4.69
210.514	-2.19
210.986	-6.19
211.458	-5.39
211.93	-3.89
212.402	3.21
212.873	-6.69
213.345	-8.19
213.817	-13.39
214.288	-9.09
214.76	-10.19
215.232	-6.49
215.703	-0.49
216.175	-2.39
216.646	-4.49
217.118	-6.79
217.589	-4.39
218.061	-0.59
218.532	-6.39
219.004	-5.89
219.475	-7.09
219.946	-0.39
220.418	-4.49
220.889	3.41
221.36	-0.99
221.832	0.81
222.303	-9.19
222.774	-2.19
223.245	-8.49
223.717	-3.79
224.188	-0.69
224.659	-7.29
225.13	-5.49
225.601	-6.39
226.072	-0.39
226.543	-4.89
227.014	4.91
227.485	-3.39
227.956	0.61
228.427	-3.89
228.898	-0.49
229.369	4.51
229.839	-3.09
230.31	-7.39
230.781	-0.39
231.252	2.71
231.722	-7.99
232.193	2.41
232.664	-0.79
233.135	1.51
233.605	-1.19
234.076	-8.99
234.546	6.61
235.017	10.21
235.487	1.11
235.958	4.41
236.428	-0.79
236.899	6.91
237.369	4.61
237.84	0.91
238.31	5.41
238.78	5.81
239.251	3.81
239.721	3.11
240.191	-0.99
240.662	-2.89
241.132	4.11
241.602	-3.89
242.072	2.41
242.542	6.91
243.013	3.61
243.483	4.51
243.953	5.51
244.423	-1.29
244.893	-3.39
245.363	3.51
245.833	2.61
246.303	4.01
246.773	11.71
247.243	9.61
247.712	6.61
248.182	7.51
248.652	7.91
249.122	6.31
249.592	15.51
250.061	26.81
250.531	32.71
251.001	17.31
251.471	24.91
251.94	24.11
252.41	9.71
252.879	-3.39
253.349	10.71
253.818	11.71
254.288	16.21
254.757	2.51
255.227	2.21
255.696	7.71
256.166	12.81
256.635	8.81
257.105	11.81
257.574	11.71
258.043	8.81
258.513	14.91
258.982	18.51
259.451	6.51
259.92	13.51
260.389	17.41
260.859	22.21
261.328	13.31
261.797	22.01
262.266	9.71
262.735	11.61
263.204	9.51
263.673	0.21
264.142	6.81
264.611	2.01
265.08	7.61
265.549	1.41
266.018	4.51
266.487	-3.19
266.955	1.71
267.424	-4.49
267.893	9.91
268.362	2.71
268.83	3.61
269.299	15.21
269.768	8.01
270.236	8.11
270.705	6.11
271.174	18.21
271.642	10.91
272.111	11.11
272.579	16.51
273.048	25.21
273.516	32.11
273.985	23.01
274.453	26.61
274.922	14.11
275.39	14.01
275.858	5.11
276.327	13.21
276.795	18.91
277.263	13.41
277.731	33.21
278.2	56.01
278.668	60.51
279.136	46.81
279.604	24.41
280.072	14.41
280.54	12.71
281.008	14.01
281.477	14.81
281.945	17.61
282.413	18.81
282.881	11.81
283.348	12.81
283.816	9.91
284.284	17.51
284.752	26.81
285.22	14.11
285.688	17.61
286.156	18.31
286.623	48.61
287.091	56.31
287.559	31.41
288.026	16.21
288.494	10.11
288.962	10.11
289.429	10.01
289.897	17.21
290.364	15.11
290.832	19.91
291.3	18.01
291.767	15.81
292.234	22.51
292.702	14.91
293.169	18.91
293.637	21.01
294.104	20.21
294.571	6.61
295.039	6.91
295.506	15.11
295.973	15.81
296.44	18.91
296.908	20.21
297.375	16.81
297.842	25.81
298.309	24.21
298.776	17.41
299.243	23.41
299.71	10.31
300.177	20.31
300.644	26.31
301.111	20.71
301.578	23.51
302.045	17.01
302.512	23.91
302.979	25.81
303.446	24.41
303.913	22.21
304.379	18.71
304.846	26.91
305.313	27.31
305.78	20.61
306.246	27.21
306.713	26.91
307.18	27.61
307.646	27.71
308.113	34.51
308.579	25.01
309.046	31.51
309.512	26.91
309.979	18.61
310.445	28.01
310.912	25.51
311.378	32.41
311.845	33.01
312.311	31.81
312.777	28.61
313.244	31.81
313.71	39.11
314.176	36.31
314.642	29.21
315.109	32.01
315.575	39.51
316.041	38.61
316.507	32.11
316.973	42.41
317.439	33.71
317.905	36.61
318.371	36.91
318.837	33.01
319.303	36.81
319.769	32.41
320.235	37.61
320.701	42.01
321.167	33.71
321.633	35.51
322.099	43.21
322.564	46.71
323.03	40.91
323.496	39.91
323.962	35.81
324.427	34.91
324.893	43.01
325.359	33.71
325.824	36.51
326.29	39.11
326.755	41.21
327.221	36.11
327.686	39.11
328.152	42.61
328.617	45.11
329.083	47.01
329.548	48.01
330.014	46.11
330.479	35.41
330.944	45.31
331.41	41.01
331.875	42.91
332.34	45.71
332.805	40.81
333.271	48.91
333.736	41.01
334.201	53.31
334.666	48.41
335.131	55.71
335.596	50.21
336.061	52.01
336.526	40.41
336.991	45.11
337.456	54.71
337.921	44.81
338.386	47.41
338.851	46.81
339.316	51.61
339.781	43.11
340.246	49.81
340.711	43.21
341.175	52.41
341.64	45.41
342.105	55.31
342.569	49.91
343.034	52.91
343.499	53.21
343.963	45.01
344.428	63.31
344.893	56.21
345.357	61.91
345.822	62.91
346.286	67.11
346.751	65.41
347.215	66.41
347.679	63.21
348.144	86.21
348.608	79.81
349.073	63.61
349.537	71.31
350.001	75.61
350.465	86.51
350.93	82.71
351.394	75.21
351.858	62.61
352.322	82.81
352.786	78.21
353.25	92.11
353.715	103.01
354.179	91.61
354.643	118.01
355.107	118.01
355.571	103.11
356.035	102.01
356.498	114.11
356.962	109.91
357.426	115.41
357.89	103.01
358.354	87.21
358.818	76.61
359.281	82.31
359.745	76.11
360.209	72.61
360.673	66.91
361.136	80.81
361.6	84.51
362.064	84.51
362.527	81.11
362.991	81.31
363.454	77.91
363.918	68.51
364.381	75.41
364.845	76.01
365.308	78.81
365.772	81.31
366.235	80.01
366.698	76.71
367.162	86.21
367.625	80.81
368.088	81.01
368.552	85.41
369.015	84.11
369.478	97.51
369.941	94.81
370.404	84.91
370.867	90.31
371.331	88.21
371.794	105.41
372.257	105.91
372.72	112.81
373.183	103.61
373.646	95.11
374.109	95.61
374.572	103.71
375.035	98.81
375.497	101.61
375.96	94.51
376.423	97.51
376.886	105.11
377.349	104.71
377.811	99.51
378.274	100.61
378.737	101.51
379.199	102.51
379.662	111.21
380.125	111.61
380.587	112.51
381.05	116.71
381.512	120.01
381.975	127.01
382.437	116.01
382.9	113.31
383.362	120.31
383.825	131.51
384.287	129.91
384.75	128.51
385.212	127.61
385.674	119.11
386.136	130.81
386.599	116.61
387.061	115.81
387.523	124.31
387.985	123.71
388.447	141.41
388.91	141.01
389.372	145.81
389.834	143.61
390.296	129.31
390.758	141.61
391.22	149.61
391.682	193.11
392.144	270.51
392.606	210.11
393.068	150.81
393.529	159.81
393.991	144.31
394.453	132.21
394.915	143.01
395.377	171.11
395.838	195.01
396.3	142.41
396.762	127.71
397.224	117.31
397.685	114.81
398.147	120.71
398.608	117.71
399.07	115.81
399.531	124.71
399.993	134.71
400.454	137.31
400.916	135.21
401.377	131.51
401.839	137.81
402.3	142.61
402.762	154.31
403.223	162.41
403.684	156.61
404.145	147.01
404.607	146.81
405.068	147.81
405.529	155.31
405.99	167.11
406.451	154.31
406.913	160.71
407.374	147.91
407.835	143.21
408.296	151.21
408.757	155.21
409.218	170.31
409.679	160.01
410.14	161.81
410.601	167.21
411.062	166.01
411.522	177.81
411.983	177.31
412.444	167.61
412.905	176.21
413.366	174.61
413.826	184.51
414.287	192.41
414.748	242.41
415.208	225.71
415.669	194.91
416.13	190.21
416.59	185.71
417.051	193.31
417.511	204.01
417.972	220.31
418.432	224.61
418.893	263.31
419.353	219.41
419.814	182.01
420.274	168.51
420.734	159.41
421.195	173.21
421.655	179.11
422.115	173.81
422.576	165.11
423.036	179.51
423.496	188.41
423.956	196.71
424.416	199.71
424.876	245.11
425.336	241.11
425.797	242.71
426.257	240.01
426.717	215.51
427.177	214.21
427.637	207.51
428.097	220.31
428.556	220.11
429.016	244.11
429.476	242.01
429.936	249.31
430.396	249.01
430.856	267.61
431.315	292.31
431.775	318.01
432.235	347.71
432.694	319.61
433.154	324.91
433.614	346.11
434.073	298.91
434.533	255.81
434.993	243.91
435.452	253.31
435.912	259.71
436.371	255.51
436.83	254.91
437.29	238.81
437.749	223.61
438.209	221.41
438.668	243.71
439.127	254.61
439.587	247.11
440.046	224.91
440.505	235.91
440.964	242.21
441.424	284.01
441.883	275.91
442.342	231.61
442.801	203.71
443.26	199.81
443.719	202.11
444.178	200.21
444.637	186.31
445.096	199.51
445.555	201.71
446.014	202.91
446.473	199.11
446.932	218.91
447.391	201.11
447.849	205.61
448.308	196.81
448.767	205.61
449.226	215.61
449.685	216.81
450.143	223.41
450.602	209.91
451.061	210.81
451.519	212.81
451.978	212.31
452.436	205.41
452.895	216.01
453.353	223.81
453.812	218.71
454.27	218.61
454.729	204.71
455.187	212.91
455.646	216.11
456.104	228.21
456.562	237.51
457.021	242.31
457.479	235.61
457.937	242.31
458.395	235.11
458.854	220.21
459.312	236.91
459.77	240.11
460.228	225.31
460.686	219.41
461.144	228.01
461.602	220.21
462.06	222.91
462.518	227.81
462.976	225.51
463.434	238.21
463.892	237.21
464.35	248.61
464.808	264.41
465.266	239.41
465.724	239.61
466.181	242.01
466.639	247.11
467.097	272.21
467.555	273.61
468.012	280.01
468.47	291.31
468.928	298.61
469.385	309.11
469.843	305.71
470.3	325.11
470.758	331.11
471.215	342.01
471.673	360.21
472.13	356.91
472.588	370.51
473.045	328.91
473.503	338.71
473.96	358.01
474.417	365.11
474.875	385.51
475.332	424.11
475.789	410.61
476.246	420.51
476.704	441.01
477.161	453.01
477.618	470.91
478.075	516.61
478.532	558.21
478.989	618.51
479.446	714.51
479.903	695.51
480.36	731.31
480.817	790.71
481.274	885.81
481.731	981.81
482.188	1062.91
482.645	1197.21
483.102	1288.51
483.558	1417.81
484.015	1486.71
484.472	1461.21
484.929	1400.01
485.385	1360.41
485.842	1329.21
486.299	1252.41
486.755	1182.01
487.212	996.11
487.668	842.41
488.125	776.21
488.582	713.91
489.038	683.81
489.494	648.61
489.951	627.01
490.407	609.11
490.864	585.61
491.32	581.31
491.776	584.41
492.233	594.01
492.689	555.51
493.145	548.71
493.602	544.91
494.058	556.61
494.514	554.01
494.97	578.41
495.426	583.11
495.882	566.71
496.338	562.81
496.794	570.11
497.251	570.91
497.707	588.71
498.163	582.21
498.618	600.41
499.074	594.71
499.53	615.41
499.986	616.21
500.442	589.71
500.898	574.01
501.354	566.11
501.809	584.11
502.265	587.51
502.721	613.31
503.177	600.51
503.632	594.21
504.088	606.91
504.543	641.01
504.999	642.11
505.455	600.61
505.91	572.01
506.366	580.21
506.821	569.01
507.277	561.11
507.732	559.51
508.187	566.41
508.643	570.31
509.098	575.71
509.553	590.81
510.009	597.71
510.464	603.31
510.919	615.31
511.375	627.11
511.83	631.21
512.285	659.41
512.74	689.21
513.195	719.51
513.65	690.11
514.105	700.51
514.56	705.31
515.015	716.61
515.47	740.61
515.925	721.71
516.38	722.31
516.835	720.91
517.29	714.01
517.745	716.51
518.2	697.11
518.655	679.71
519.109	675.41
519.564	673.21
520.019	658.91
520.474	662.91
520.928	652.81
521.383	659.21
521.838	645.91
522.292	639.41
522.747	642.11
523.201	638.31
523.656	630.31
524.11	627.11
524.565	624.41
525.019	626.41
525.474	626.21
525.928	628.51
526.382	634.71
526.837	629.11
527.291	636.11
527.745	630.01
528.2	622.81
528.654	622.51
529.108	613.71
529.562	613.51
530.016	621.41
530.47	620.21
530.925	625.11
531.379	632.41
531.833	643.71
532.287	641.71
532.741	639.41
533.195	635.81
533.649	644.31
534.103	653.61
534.556	639.01
535.01	641.41
535.464	635.51
535.918	656.01
536.372	655.21
536.826	646.01
537.279	635.01
537.733	641.11
538.187	637.41
538.64	651.01
539.094	648.31
539.548	659.11
540.001	653.31
540.455	645.91
540.908	656.51
541.362	653.81
541.815	672.31
542.269	685.81
542.722	682.01
543.175	689.41
543.629	690.61
544.082	701.01
544.536	701.91
544.989	694.11
545.442	704.41
545.895	707.41
546.349	708.81
546.802	702.11
547.255	714.61
547.708	718.31
548.161	721.71
548.614	743.41
549.067	742.01
549.52	731.31
549.973	731.71
550.426	725.11
550.879	706.61
551.332	711.61
551.785	721.91
552.238	724.61
552.691	720.51
553.144	744.61
553.596	756.51
554.049	767.61
554.502	808.91
554.955	810.01
555.407	809.11
555.86	802.21
556.313	786.21
556.765	776.91
557.218	785.51
557.67	782.91
558.123	774.61
558.576	769.21
559.028	784.41
559.48	788.21
559.933	778.71
560.385	741.31
560.838	713.41
561.29	697.11
561.742	689.81
562.195	674.31
562.647	672.01
563.099	696.51
563.551	672.01
564.004	697.01
564.456	675.71
564.908	680.41
565.36	659.71
565.812	651.61
566.264	637.31
566.716	639.21
567.168	642.71
567.62	639.31
568.072	615.61
568.524	617.21
568.976	603.41
569.428	594.31
569.88	586.81
570.332	587.11
570.784	588.01
571.235	605.01
571.687	603.41
572.139	616.11
572.59	631.61
573.042	624.21
573.494	621.81
573.945	620.21
574.397	602.21
574.849	603.71
575.3	609.21
575.752	601.01
576.203	598.21
576.655	604.01
577.106	597.41
577.557	578.61
578.009	586.11
578.46	579.81
578.912	573.31
579.363	588.41
579.814	574.81
580.265	571.51
580.717	592.51
581.168	579.11
581.619	591.81
582.07	587.71
582.521	582.01
582.972	582.81
583.423	590.01
583.875	592.01
584.326	611.81
584.777	655.71
585.227	726.71
585.678	805.91
586.129	902.71
586.58	967.11
587.031	1036.31
587.482	1187.41
587.933	1370.91
588.384	1190.11
588.834	865.81
589.285	697.11
589.736	678.11
590.186	669.21
590.637	663.91
591.088	642.41
591.538	637.31
591.989	629.91
592.439	629.81
592.89	631.71
593.34	619.21
593.791	611.61
594.241	605.41
594.692	607.31
595.142	607.71
595.593	601.61
596.043	613.41
596.493	611.41
596.943	607.71
597.394	615.81
597.844	625.51
598.294	628.81
598.744	649.31
599.195	666.01
599.645	697.41
600.095	733.61
600.545	776.31
600.995	832.31
601.445	886.81
601.895	935.01
602.345	977.61
602.795	966.31
603.245	923.11
603.695	876.91
604.145	822.01
604.594	781.01
605.044	733.01
605.494	697.21
605.944	641.51
606.393	637.11
606.843	624.81
607.293	627.91
607.743	628.91
608.192	642.51
608.642	647.11
609.091	654.51
609.541	655.01
609.99	663.01
610.44	647.31
610.889	620.31
611.339	592.31
611.788	586.51
612.238	585.51
612.687	617.51
613.136	623.01
613.586	639.41
614.035	633.11
614.484	642.31
614.933	645.71
615.383	644.31
615.832	641.41
616.281	613.71
616.73	588.01
617.179	571.31
617.628	550.21
618.077	544.51
618.526	530.11
618.975	511.31
619.424	526.51
619.873	516.91
620.322	521.81
620.771	513.51
621.22	509.41
621.669	508.81
622.118	498.91
622.567	483.31
623.015	472.81
623.464	478.31
623.913	470.11
624.361	463.61
624.81	467.31
625.259	469.51
625.707	468.41
626.156	464.31
626.604	479.81
627.053	475.41
627.501	473.41
627.95	479.01
628.398	486.41
628.847	480.31
629.295	467.51
629.744	488.51
630.192	479.91
630.64	470.91
631.089	468.71
631.537	480.11
631.985	494.11
632.433	499.31
632.881	509.71
633.33	550.81
633.778	528.11
634.226	478.31
634.674	483.01
635.122	479.01
635.57	502.41
636.018	527.11
636.466	489.01
636.914	464.51
637.362	473.71
637.81	477.41
638.258	489.61
638.705	487.31
639.153	498.51
639.601	506.11
640.049	529.11
640.497	558.21
640.944	582.91
641.392	540.41
641.84	517.41
642.287	488.71
642.735	475.91
643.182	479.01
643.63	479.81
644.078	484.01
644.525	498.01
644.973	498.11
645.42	503.11
645.867	521.21
646.315	523.31
646.762	550.01
647.21	578.21
647.657	601.31
648.104	636.61
648.551	641.61
648.999	701.81
649.446	757.61
649.893	834.51
650.34	964.71
650.787	1160.21
651.234	1432.91
651.682	1846.21
652.129	2546.71
652.576	3657.41
653.023	5432.31
653.47	7457.11
653.917	9458.81
654.363	11121.71
654.81	12529.31
655.257	11922.51
655.704	7685.81
656.151	4507.91
656.598	2913.71
657.044	2063.61
657.491	1578.61
657.938	1261.01
658.385	1050.31
658.831	909.71
659.278	805.71
659.724	714.61
660.171	672.51
660.618	615.91
661.064	562.11
661.511	544.91
661.957	537.61
662.404	518.61
662.85	526.41
663.296	509.01
663.743	469.11
664.189	446.61
664.635	442.41
665.082	435.81
665.528	435.11
665.974	431.41
666.42	421.81
666.867	424.61
667.313	397.91
667.759	400.11
668.205	402.31
668.651	405.61
669.097	405.51
669.543	425.91
669.989	390.61
670.435	379.21
670.881	366.31
671.327	374.11
671.773	391.91
672.219	401.21
672.665	448.31
673.11	478.91
673.556	518.01
674.002	554.91
674.448	547.61
674.893	457.01
675.339	383.51
675.785	365.31
676.23	346.21
676.676	321.21
677.122	312.61
677.567	301.31
678.013	303.91
678.458	289.91
678.904	297.61
679.349	287.81
679.794	289.11
680.24	281.51
680.685	285.41
681.131	275.61
681.576	287.21
682.021	288.71
682.466	281.61
682.912	284.31
683.357	283.21
683.802	305.81
684.247	320.21
684.692	369.61
685.137	405.81
685.583	441.31
686.028	459.51
686.473	425.41
686.918	363.11
687.363	339.21
687.807	324.81
688.252	292.31
688.697	286.01
689.142	276.81
689.587	274.21
690.032	265.51
690.477	282.31
690.921	279.51
691.366	313.71
691.811	328.71
692.255	360.71
692.7	374.01
693.145	401.61
693.589	552.61
694.034	898.91
694.478	1249.41
694.923	1450.01
695.367	1911.71
695.812	987.61
696.256	410.51
696.701	303.91
697.145	276.01
697.59	273.21
698.034	262.91
698.478	268.71
698.922	265.41
699.367	268.91
699.811	272.61
700.255	289.31
700.699	321.61
701.143	344.91
701.588	387.21
702.032	429.31
702.476	415.61
702.92	396.81
703.364	391.91
703.808	494.41
704.252	811.91
704.696	1158.21
705.14	1381.61
705.584	1803.01
706.027	876.51
706.471	428.91
706.915	319.21
707.359	284.61
707.803	260.11
708.246	251.31
708.69	255.71
709.134	253.11
709.577	251.31
710.021	253.21
710.465	244.11
710.908	242.11
711.352	241.71
711.795	245.11
712.239	284.31
712.682	312.91
713.126	350.11
713.569	392.81
714.012	300.11
714.456	268.51
714.899	240.61
715.342	228.31
715.786	212.01
716.229	203.61
716.672	211.21
717.115	196.81
717.558	202.81
718.002	202.31
718.445	210.61
718.888	230.11
719.331	238.61
719.774	245.01
720.217	247.91
720.66	230.11
721.103	223.61
721.546	208.71
721.989	203.01
722.432	182.51
722.874	189.81
723.317	184.31
723.76	180.71
724.203	207.01
724.645	255.61
725.088	352.11
725.531	458.61
725.974	536.61
726.416	451.41
726.859	242.01
727.301	199.31
727.744	192.21
728.187	188.61
728.629	195.71
729.071	197.21
729.514	206.31
729.956	212.51
730.399	226.71
730.841	231.91
731.283	222.01
731.726	222.91
732.168	211.71
732.61	211.01
733.053	230.11
733.495	252.21
733.937	280.61
734.379	323.31
734.821	344.11
735.263	433.11
735.705	652.91
736.148	1238.01
736.59	2067.91
737.032	2558.51
737.474	2071.51
737.916	663.41
738.357	351.71
738.799	268.11
739.241	241.11
739.683	226.51
740.125	239.81
740.567	244.71
741.008	256.31
741.45	258.91
741.892	254.71
742.334	278.01
742.775	288.61
743.217	280.61
743.658	215.41
744.1	206.91
744.542	204.01
744.983	253.41
745.425	282.31
745.866	283.41
746.307	233.81
746.749	224.51
747.19	264.71
747.632	353.51
748.073	683.61
748.514	1463.01
748.956	2333.61
749.397	2908.91
749.838	2420.11
750.279	2495.01
750.72	1236.21
751.162	442.21
751.603	251.11
752.044	205.31
752.485	176.71
752.926	177.31
753.367	168.41
753.808	160.21
754.249	152.41
754.69	148.91
755.131	146.71
755.572	144.81
756.013	144.01
756.453	144.71
756.894	150.91
757.335	153.01
757.776	156.51
758.216	150.81
758.657	157.11
759.098	161.31
759.538	183.41
759.979	212.71
760.42	292.31
760.86	553.41
761.301	1418.11
761.741	3536.11
762.182	5479.21
762.622	3845.01
763.063	1085.31
763.503	441.01
763.943	287.01
764.384	276.31
764.824	341.31
765.264	385.11
765.705	263.71
766.145	170.91
766.585	154.11
767.025	152.01
767.465	141.41
767.906	202.21
768.346	274.91
768.786	292.91
769.226	212.61
769.666	253.21
770.106	485.61
770.546	1205.51
770.986	2197.21
771.426	1997.31
771.866	648.11
772.306	263.31
772.745	174.31
773.185	138.71
773.625	133.11
774.065	137.01
774.505	166.81
774.944	249.71
775.384	551.11
775.824	1040.41
776.263	1051.61
776.703	438.31
777.142	185.81
777.582	130.11
778.021	112.91
778.461	116.71
778.9	118.91
779.34	108.51
779.779	94.51
780.219	91.31
780.658	90.51
781.097	92.01
781.537	90.01
781.976	81.61
782.415	88.91
782.855	87.01
783.294	88.11
783.733	89.71
784.172	85.21
784.611	84.31
785.05	90.21
785.489	89.31
785.928	92.31
786.367	103.21
786.806	95.81
787.245	102.01
787.684	106.71
788.123	116.21
788.562	111.31
789.001	104.51
789.44	99.91
789.879	96.61
790.317	93.11
790.756	109.21
791.195	96.91
791.634	113.41
792.072	163.41
792.511	282.01
792.95	778.81
793.388	1760.31
793.827	1638.81
794.265	553.11
794.704	227.91
795.142	150.91
795.581	124.61
796.019	110.11
796.458	105.31
796.896	100.21
797.334	105.11
797.773	119.81
798.211	173.11
798.649	342.11
799.087	809.71
799.526	1298.61
799.964	1626.31
800.402	1709.41
800.84	622.91
801.278	241.01
801.716	147.81
802.154	123.61
802.592	117.31
803.03	117.51
803.468	112.51
803.906	117.01
804.344	124.11
804.782	112.41
805.22	109.51
805.658	97.21
806.096	116.21
806.533	125.51
806.971	143.51
807.409	181.31
807.847	250.11
808.284	510.71
808.722	1491.31
809.16	2736.61
809.597	2505.61
810.035	4445.21
810.472	4976.81
810.91	1762.01
811.347	655.01
811.785	330.91
812.222	211.31
812.66	161.51
813.097	133.71
813.535	111.81
813.972	104.71
814.409	100.41
814.846	84.61
815.284	89.81
815.721	80.51
816.158	85.21
816.595	94.81
817.032	149.81
817.47	163.21
817.907	153.71
818.344	124.31
818.781	94.61
819.218	85.11
819.655	95.01
820.092	160.61
820.529	179.91
820.966	151.31
821.403	110.81
821.839	91.21
822.276	80.91
822.713	99.71
823.15	109.31
823.587	90.41
824.023	118.61
824.46	230.01
824.897	708.41
825.333	1138.71
825.77	479.81
826.206	183.31
826.643	109.51
827.08	79.61
827.516	66.71
827.953	64.21
828.389	65.81
828.825	59.01
829.262	50.71
829.698	55.61
830.135	55.31
830.571	51.01
831.007	50.61
831.443	49.01
831.88	48.11
832.316	45.71
832.752	53.91
833.188	50.61
833.624	52.61
834.06	55.61
834.497	53.51
834.933	55.11
835.369	59.61
835.805	61.51
836.241	65.11
836.677	64.81
837.112	72.11
837.548	84.01
837.984	105.71
838.42	163.51
838.856	382.21
839.292	1218.41
839.727	1938.41
840.163	887.61
840.599	735.71
841.034	1664.91
841.47	1810.61
841.906	649.41
842.341	271.91
842.777	192.91
843.212	262.71
843.648	275.81
844.083	127.31
844.519	85.11
844.954	60.91
845.39	50.21
845.825	48.21
846.261	46.61
846.696	44.01
847.131	41.71
847.566	45.01
848.002	43.21
848.437	43.81
848.872	48.81
849.307	51.91
849.742	68.31
850.177	141.91
850.613	441.61
851.048	729.61
851.483	316.91
851.918	122.31
852.353	70.61
852.788	50.81
853.223	46.31
853.657	42.11
854.092	38.01
854.527	35.81
854.962	34.01
855.397	38.11
855.832	41.01
856.266	41.01
856.701	33.51
857.136	27.91
857.57	32.31
858.005	42.01
858.44	51.71
858.874	32.01
859.309	46.41
859.743	36.71
860.178	35.81
860.612	35.91
861.047	42.81
861.481	50.71
861.915	56.81
862.35	45.41
862.784	28.31
863.218	31.41
863.653	34.91
864.087	36.61
864.521	44.51
864.955	55.61
865.39	122.21
865.824	148.21
866.258	92.51
866.692	137.21
867.126	148.51
867.56	90.51
867.994	38.01
868.428	31.81
868.862	40.71
869.296	40.61
869.73	47.21
870.164	45.61
870.598	39.71
871.031	32.41
871.465	26.71
871.899	23.51
872.333	21.41
872.766	17.21
873.2	18.01
873.634	29.11
874.067	19.41
874.501	19.71
874.935	23.91
875.368	23.41
875.802	21.01
876.235	23.81
876.669	16.61
877.102	18.51
877.535	19.71
877.969	13.01
878.402	21.01
878.836	15.91
879.269	21.01
879.702	16.01
880.135	18.21
880.569	17.21
881.002	25.41
881.435	16.81
881.868	13.81
882.301	17.61
882.734	7.71
883.167	19.81
883.601	15.71
884.034	18.41
884.467	7.61
884.899	16.21
885.332	12.51
885.765	7.11
886.198	9.51
886.631	15.81
887.064	16.51
887.497	14.21
887.929	22.11
888.362	12.61
888.795	11.51
889.228	16.01
889.66	14.31
890.093	14.01
890.526	12.61
890.958	17.51
891.391	11.81
891.823	14.41
892.256	16.41
892.688	10.51
893.121	14.11
893.553	10.81
893.985	16.91
894.418	14.31
894.85	11.21
895.282	11.91
895.715	12.61
896.147	15.61
896.579	14.21
897.011	10.21
897.444	12.51
897.876	12.01
898.308	10.91
898.74	9.71
899.172	8.71
899.604	27.31
900.036	20.21
900.468	11.11
900.9	9.51
901.332	9.41
901.764	11.81
902.196	11.81
902.628	12.61
903.06	14.91
903.491	27.01
903.923	19.71
904.355	11.91
904.787	18.71
905.218	18.31
905.65	18.31
906.082	7.21
906.513	11.11
906.945	11.51
907.376	14.61
907.808	16.41
908.239	16.51
908.671	12.41
909.102	19.71
909.534	19.01
909.965	35.01
910.397	78.11
910.828	264.51
911.259	407.81
911.691	182.91
912.122	90.51
912.553	36.81
912.984	29.51
913.415	28.11
913.847	22.21
914.278	14.01
914.709	11.31
915.14	20.71
915.571	20.01
916.002	5.31
916.433	18.71
916.864	16.21
917.295	5.81
917.726	20.21
918.157	14.71
918.587	20.31
919.018	16.41
919.449	18.51
919.88	19.21
920.311	29.01
920.741	37.71
921.172	136.61
921.603	120.61
922.033	62.41
922.464	37.41
922.895	17.91
923.325	16.81
923.756	12.01
924.186	10.01
924.617	28.61
925.047	37.11
925.478	47.11
925.908	38.91
926.338	17.61
926.769	15.51
927.199	20.31
927.629	8.91
928.06	12.01
928.49	9.51
928.92	9.81
929.35	11.41
929.78	9.31
930.21	1.21
930.641	7.81
931.071	1.91
931.501	4.91
931.931	-0.39
932.361	-1.19
932.791	-1.79
933.221	1.81
933.651	-1.99
934.08	11.41
934.51	28.21
934.94	3.11
935.37	5.51
935.8	6.61
936.229	8.31
936.659	8.01
937.089	-1.89
937.519	13.01
937.948	18.51
938.378	14.71
938.807	-1.69
939.237	2.81
939.666	4.21
940.096	-4.59
940.525	3.11
940.955	-1.09
941.384	-0.49
941.814	2.31
942.243	1.21
942.672	2.41
943.102	-4.09
943.531	-2.29
943.96	-1.69
944.39	-0.99
944.819	6.51
945.248	3.71
945.677	4.71
946.106	2.91
946.535	6.71
946.964	4.21
947.393	6.11
947.822	1.11
948.251	-2.09
948.68	5.71
949.109	5.51
949.538	9.31
949.967	5.41
950.396	-1.29
950.825	1.91
951.254	1.31
951.682	-4.59
952.111	0.31
952.54	1.91
952.969	-6.19
953.397	-6.79
953.826	6.21
954.254	-4.59
954.683	3.81
955.112	-5.49
955.54	2.11
955.969	4.31
956.397	3.51
956.826	-5.49
957.254	-1.89
957.682	-0.29
958.111	4.91
958.539	2.41
958.967	0.31
959.396	-1.29
959.824	-5.59
960.252	-2.89
960.68	-7.79
961.109	0.41
961.537	0.61
961.965	-1.39
962.393	0.91
962.821	-2.99
963.249	0.41
963.677	-3.49
964.105	1.21
964.533	33.91
964.961	32.21
965.389	16.71
965.817	6.91
966.245	0.51
966.672	3.01
967.1	-0.99
967.528	3.01
967.956	-1.49
968.383	1.41
968.811	-8.39
969.239	1.61
969.666	-4.99
970.094	-1.89
970.522	0.11
970.949	3.21
971.377	-6.49
971.804	-4.19
972.232	-2.39
972.659	-5.29
973.087	-1.49
973.514	1.61
973.941	-10.99
974.369	6.61
974.796	1.91
975.223	2.01
975.651	-0.09
976.078	1.11
976.505	-1.39
976.932	2.41
977.359	5.51
977.786	11.41
978.214	-3.69
978.641	-4.09
979.068	-8.29
979.495	-3.29
979.922	-2.29
980.349	0.81
980.776	7.01
981.202	1.41
981.629	-2.89
982.056	-1.59
982.483	-6.99
982.91	3.01
983.337	-10.59
983.763	1.11
984.19	-0.69
984.617	-4.79
985.043	-5.39
985.47	-6.29
985.897	-2.29
986.323	-5.09
986.75	7.21
987.176	3.11
987.603	-0.89
988.029	2.61
988.456	-3.69
988.882	8.01
989.308	-1.49
989.735	-5.69
990.161	5.01
990.587	-8.79
991.014	2.81
991.44	0.81
991.866	-1.09
992.292	-3.29
992.719	0.51
993.145	-0.29
993.571	-8.99
993.997	-4.29
994.423	1.61
994.849	-3.19
995.275	2.71
995.701	2.71
996.127	-8.69
996.553	1.81
996.979	-1.89
997.405	0.11
997.83	-8.09
998.256	-8.79
998.682	-6.29
999.108	-2.89
999.534	-3.39
999.959	-0.29
1000.385	-5.59
1000.811	-1.59
1001.236	-4.59
1001.662	-4.29
1002.087	-7.89
1002.513	0.61
1002.938	3.31
1003.364	3.31
1003.789	-3.99
1004.215	-0.49
1004.64	2.11
1005.066	-0.39
1005.491	-0.79
1005.916	-3.69
1006.342	-2.29
1006.767	-3.69
1007.192	4.31
1007.617	-3.99
1008.042	-0.49
1008.468	-3.39
1008.893	-4.59
1009.318	-1.99
1009.743	-4.59
1010.168	6.31
1010.593	3.01
1011.018	-6.29
1011.443	-0.49
1011.868	-1.09
1012.293	-0.19
1012.718	-11.39
1013.143	6.71
1013.567	2.91
1013.992	-2.49
1014.417	-14.19
1014.842	-1.99
1015.267	0.31
1015.691	-3.99
1016.116	2.61
1016.541	4.11
1016.965	2.11
1017.39	3.81
1017.814	-2.99
1018.239	1.81
1018.663	-9.39
1019.088	-11.99
1019.512	0.91
1019.937	-3.69
1020.361	0.81
1020.785	-5.99
1021.21	-1.19
1021.634	-5.09
1022.058	4.31
1022.483	4.61
1022.907	-9.99
1023.331	0.21
1023.755	-9.69
1024.179	-2.89
1024.604	-5.69
1025.028	-4.49
1025.452	-5.69
1025.876	-1.89
1026.3	3.91
1026.724	-7.69
1027.148	-3.69
1027.572	-11.79
1027.996	-8.49
1028.42	-4.09
1028.843	0.11
1029.267	-9.99
1029.691	-4.79
1030.115	-11.79
1030.539	-8.99
1030.962	-3.39
1031.386	-10.19
1031.81	6.51
1032.233	1.01
1032.657	-3.19
1033.08	-2.69
1033.504	-2.99
1033.927	-6.79
1034.351	4.51
1034.774	-4.69
1035.198	-4.99
1035.621	-5.09
1036.045	-7.79
1036.468	3.41
1036.891	-12.59
1037.315	-11.89
1037.738	-7.09
1038.161	-2.09
1038.584	-8.29
1039.008	-10.89
1039.431	-0.79
1039.854	-4.89
1040.277	-8.79
1040.7	-7.29
1041.123	3.91
1041.546	-5.79
1041.969	-5.99
1042.392	0.21
1042.815	-5.49
1043.238	6.71
1043.661	2.81
1044.084	-4.69
1044.507	-7.59
1044.93	-6.09
1045.352	-0.49
1045.775	1.11
1046.198	3.21
1046.621	-5.09
1047.043	-3.09
1047.466	5.81
1047.889	-4.99
1048.311	-5.09
1048.734	-5.69
1049.156	-2.69
1049.579	-2.99
1050.001	-0.99
1050.424	2.61
1050.846	1.51
1051.269	-9.29
1051.691	-8.79
1052.113	-4.69
1052.536	1.61
1052.958	-5.09
1053.38	-3.79
1053.802	-7.39
1054.225	0.91
1054.647	-6.19
1055.069	-7.39
1055.491	0.51
1055.913	-8.49
1056.335	-3.79
1056.757	-3.69
1057.179	-4.29
1057.601	-2.89
1058.023	-6.09
1058.445	-1.69
1058.867	-9.99
1059.289	-4.79
1059.711	-2.19
1060.133	-3.69
1060.555	-2.89
1060.976	-5.99
1061.398	-5.39
1061.82	-7.09
1062.241	-6.29
1062.663	-10.59
1063.085	-0.99
1063.506	-3.69
1063.928	-8.09
1064.35	2.21
1064.771	-7.89
1065.193	-0.39
1065.614	-8.09
1066.035	3.71
1066.457	-1.29
1066.878	3.51
1067.3	-3.69
1067.721	-2.79
1068.142	0.41
1068.564	0.11
1068.985	-3.89
1069.406	-6.39
1069.827	-7.79
1070.248	-0.29
1070.67	-10.79
1071.091	-6.79
1071.512	3.71
1071.933	-5.69
1072.354	-4.39
1072.775	-3.59
1073.196	-5.59
1073.617	-4.89
1074.038	-5.49
1074.459	0.41
1074.88	-7.99
1075.3	-1.59
1075.721	-10.39
1076.142	-3.49
1076.563	-5.59
1076.983	-8.79
1077.404	-9.79
1077.825	-12.89
1078.246	-2.59
1078.666	-9.59
1079.087	-3.59
1079.507	1.51
1079.928	0.21
1080.348	-1.59
1080.769	-9.49
1081.189	4.51
1081.61	-5.39
1082.03	-7.29
1082.451	-5.59
1082.871	-1.49
1083.291	-1.79
1083.711	-5.99
1084.132	-5.49
1084.552	-8.49
1084.972	3.61
1085.392	-9.59
1085.813	-8.39
1086.233	-8.69
1086.653	-6.29
1087.073	-2.89
1087.493	-4.39
1087.913	-6.79
1088.333	-8.79
1088.753	-3.09
1089.173	-2.49
1089.593	-2.49
1090.013	-0.79
1090.433	3.61
1090.852	-2.99
1091.272	2.31
1091.692	2.71
1092.112	3.31
1092.531	-11.49
1092.951	-14.99
1093.371	-1.19
1093.79	-2.29
1094.21	-6.59
1094.63	-2.19
1095.049	-4.99
1095.469	-9.09
1095.888	-1.69
1096.308	-1.39
1096.727	3.41
1097.146	-6.79
1097.566	-0.69
1097.985	-3.89
1098.405	-1.29
1098.824	-7.49
1099.243	-6.79
1099.662	-8.59
1100.082	-10.39
1100.501	0.71
1100.92	-6.59
1101.339	-10.19
1101.758	-12.69
