Data from 20171114-ORNL-Ar_H_NY_Subt18_08-04-47-376.txt Node
Date: Tue Nov 14 08:04:47 EST 2017
User: Ender
Spectrometer: HR+D1039
Trigger mode: 0
Integration Time (sec): 2.730000E-2
Scans to average: 10
Electric dark correction enabled: true
Nonlinearity correction enabled: false
Boxcar width: 0
XAxis mode: Wavelengths
Number of Pixels in Spectrum: 2048
>>>>>Begin Spectral Data<<<<<
187.836	-0.52
188.309	-0.52
188.782	-0.52
189.255	-0.82
189.728	6.28
190.201	1.48
190.674	2.28
191.147	2.68
191.619	-9.12
192.092	1.48
192.565	5.58
193.038	-5.32
193.511	1.38
193.984	-3.32
194.456	-4.32
194.929	1.38
195.402	0.08
195.874	0.78
196.347	-2.72
196.82	-10.32
197.292	1.18
197.765	0.58
198.237	-7.42
198.71	3.88
199.182	0.68
199.655	5.38
200.127	2.68
200.6	1.08
201.072	-2.62
201.544	-9.22
202.017	-6.02
202.489	5.18
202.961	-1.42
203.433	-2.12
203.906	-0.42
204.378	-3.92
204.85	-5.92
205.322	-9.12
205.794	0.28
206.266	-0.22
206.739	-5.32
207.211	0.78
207.683	-8.42
208.155	-5.52
208.627	-7.02
209.099	-7.32
209.57	-5.02
210.042	-4.82
210.514	-4.32
210.986	-1.72
211.458	-15.32
211.93	-3.62
212.402	2.48
212.873	-9.22
213.345	-11.02
213.817	-10.72
214.288	-8.12
214.76	-11.82
215.232	-8.92
215.703	0.78
216.175	0.28
216.646	-4.02
217.118	-8.62
217.589	-2.32
218.061	-3.02
218.532	-1.12
219.004	-0.32
219.475	0.68
219.946	-1.82
220.418	-1.12
220.889	2.38
221.36	4.58
221.832	-5.02
222.303	-7.32
222.774	4.58
223.245	-10.32
223.717	-4.92
224.188	-7.22
224.659	-4.52
225.13	-6.42
225.601	2.08
226.072	-0.92
226.543	3.48
227.014	-0.12
227.485	-5.72
227.956	-6.72
228.427	4.08
228.898	-2.02
229.369	3.18
229.839	-6.72
230.31	-6.12
230.781	2.78
231.252	-7.92
231.722	-9.72
232.193	-7.72
232.664	0.68
233.135	3.88
233.605	-0.22
234.076	-4.62
234.546	3.88
235.017	4.78
235.487	-3.82
235.958	0.58
236.428	-1.42
236.899	5.58
237.369	6.78
237.84	-4.72
238.31	0.78
238.78	0.78
239.251	5.98
239.721	5.48
240.191	4.58
240.662	-5.32
241.132	1.58
241.602	2.48
242.072	5.58
242.542	8.38
243.013	0.28
243.483	3.18
243.953	1.78
244.423	1.28
244.893	4.08
245.363	8.48
245.833	2.98
246.303	3.88
246.773	10.98
247.243	2.88
247.712	1.28
248.182	9.28
248.652	10.88
249.122	1.38
249.592	14.68
250.061	29.28
250.531	32.88
251.001	14.08
251.471	24.08
251.94	20.78
252.41	10.58
252.879	4.08
253.349	14.88
253.818	11.58
254.288	9.38
254.757	6.38
255.227	-1.52
255.696	4.08
256.166	5.58
256.635	8.08
257.105	14.58
257.574	6.48
258.043	11.38
258.513	10.28
258.982	23.48
259.451	3.88
259.92	18.88
260.389	14.18
260.859	16.98
261.328	18.38
261.797	22.68
262.266	9.88
262.735	11.68
263.204	5.48
263.673	4.98
264.142	11.48
264.611	-2.22
265.08	-0.42
265.549	0.18
266.018	2.78
266.487	-2.92
266.955	-0.22
267.424	1.68
267.893	6.08
268.362	4.18
268.83	9.08
269.299	14.98
269.768	9.68
270.236	9.28
270.705	-0.62
271.174	5.68
271.642	12.18
272.111	15.18
272.579	21.58
273.048	24.48
273.516	30.78
273.985	30.58
274.453	27.78
274.922	25.48
275.39	10.98
275.858	3.78
276.327	11.98
276.795	16.08
277.263	11.68
277.731	28.38
278.2	53.58
278.668	59.58
279.136	48.08
279.604	25.08
280.072	19.68
280.54	10.88
281.008	12.08
281.477	15.78
281.945	8.68
282.413	15.28
282.881	15.68
283.348	8.08
283.816	12.78
284.284	20.08
284.752	27.08
285.22	11.28
285.688	16.48
286.156	17.38
286.623	46.78
287.091	55.88
287.559	31.48
288.026	20.28
288.494	17.08
288.962	3.88
289.429	12.88
289.897	17.78
290.364	18.18
290.832	15.78
291.3	15.78
291.767	20.08
292.234	15.38
292.702	20.08
293.169	22.48
293.637	26.68
294.104	21.48
294.571	12.98
295.039	16.68
295.506	18.28
295.973	18.98
296.44	17.08
296.908	17.28
297.375	18.58
297.842	17.08
298.309	17.48
298.776	12.78
299.243	21.18
299.71	18.18
300.177	25.48
300.644	24.58
301.111	22.28
301.578	21.48
302.045	20.38
302.512	20.08
302.979	24.68
303.446	24.78
303.913	20.08
304.379	19.28
304.846	29.88
305.313	26.48
305.78	22.48
306.246	27.58
306.713	34.08
307.18	25.08
307.646	26.18
308.113	31.88
308.579	32.58
309.046	28.18
309.512	31.68
309.979	21.38
310.445	28.28
310.912	33.58
311.378	35.98
311.845	30.58
312.311	38.38
312.777	31.78
313.244	32.18
313.71	41.38
314.176	29.88
314.642	34.18
315.109	35.48
315.575	40.58
316.041	37.28
316.507	30.68
316.973	38.68
317.439	32.78
317.905	39.68
318.371	38.88
318.837	40.28
319.303	32.18
319.769	36.68
320.235	36.78
320.701	34.68
321.167	32.48
321.633	35.28
322.099	45.28
322.564	46.38
323.03	44.48
323.496	42.88
323.962	44.88
324.427	36.08
324.893	51.28
325.359	44.68
325.824	43.48
326.29	34.38
326.755	36.38
327.221	44.48
327.686	40.48
328.152	50.38
328.617	41.68
329.083	46.58
329.548	58.28
330.014	50.98
330.479	43.08
330.944	44.38
331.41	42.38
331.875	51.28
332.34	47.98
332.805	41.48
333.271	55.28
333.736	48.58
334.201	57.48
334.666	54.48
335.131	62.28
335.596	53.68
336.061	51.48
336.526	45.68
336.991	51.98
337.456	61.58
337.921	47.08
338.386	41.58
338.851	47.18
339.316	47.28
339.781	49.18
340.246	53.18
340.711	48.98
341.175	55.78
341.64	51.08
342.105	49.68
342.569	58.58
343.034	54.98
343.499	58.48
343.963	51.78
344.428	63.08
344.893	64.88
345.357	65.58
345.822	65.48
346.286	71.18
346.751	74.28
347.215	70.48
347.679	77.98
348.144	98.48
348.608	87.98
349.073	72.68
349.537	72.58
350.001	75.68
350.465	87.18
350.93	84.28
351.394	82.48
351.858	70.98
352.322	90.18
352.786	83.08
353.25	101.18
353.715	102.98
354.179	97.48
354.643	126.38
355.107	127.78
355.571	103.88
356.035	103.98
356.498	115.88
356.962	119.78
357.426	126.98
357.89	114.18
358.354	89.68
358.818	82.78
359.281	79.58
359.745	71.28
360.209	74.48
360.673	78.18
361.136	75.28
361.6	90.78
362.064	86.18
362.527	85.78
362.991	93.78
363.454	78.98
363.918	77.18
364.381	77.18
364.845	82.78
365.308	93.08
365.772	90.08
366.235	90.28
366.698	87.88
367.162	83.58
367.625	86.38
368.088	93.08
368.552	88.88
369.015	88.68
369.478	98.38
369.941	98.28
370.404	93.58
370.867	105.48
371.331	107.98
371.794	112.58
372.257	110.28
372.72	115.98
373.183	105.78
373.646	96.78
374.109	101.68
374.572	107.38
375.035	105.18
375.497	111.58
375.96	110.18
376.423	107.48
376.886	110.68
377.349	109.18
377.811	99.88
378.274	109.28
378.737	108.68
379.199	114.28
379.662	110.38
380.125	119.08
380.587	122.78
381.05	115.48
381.512	121.58
381.975	134.28
382.437	125.78
382.9	122.48
383.362	125.08
383.825	137.78
384.287	147.08
384.75	136.48
385.212	139.28
385.674	135.78
386.136	133.18
386.599	124.88
387.061	127.98
387.523	122.58
387.985	137.88
388.447	147.68
388.91	133.78
389.372	153.38
389.834	147.18
390.296	147.28
390.758	144.88
391.22	160.08
391.682	200.78
392.144	278.98
392.606	217.98
393.068	161.98
393.529	165.58
393.991	153.98
394.453	148.78
394.915	149.38
395.377	179.08
395.838	215.98
396.3	150.78
396.762	139.58
397.224	126.88
397.685	124.88
398.147	123.98
398.608	125.48
399.07	125.48
399.531	133.28
399.993	136.68
400.454	150.08
400.916	146.28
401.377	143.48
401.839	150.78
402.3	150.98
402.762	163.28
403.223	178.58
403.684	168.28
404.145	154.38
404.607	160.08
405.068	157.68
405.529	163.58
405.99	183.08
406.451	176.38
406.913	167.68
407.374	164.68
407.835	159.38
408.296	162.98
408.757	167.78
409.218	182.78
409.679	174.08
410.14	173.08
410.601	176.08
411.062	186.18
411.522	176.48
411.983	181.48
412.444	167.28
412.905	178.38
413.366	175.38
413.826	190.48
414.287	210.38
414.748	255.38
415.208	242.18
415.669	198.48
416.13	202.58
416.59	198.18
417.051	206.88
417.511	209.28
417.972	232.38
418.432	234.58
418.893	275.18
419.353	243.18
419.814	194.88
420.274	176.28
420.734	176.88
421.195	193.78
421.655	180.38
422.115	185.48
422.576	184.78
423.036	184.98
423.496	192.48
423.956	202.18
424.416	224.38
424.876	252.98
425.336	254.98
425.797	251.08
426.257	242.88
426.717	232.38
427.177	222.98
427.637	215.48
428.097	227.88
428.556	235.28
429.016	266.58
429.476	259.28
429.936	262.58
430.396	257.78
430.856	287.58
431.315	301.78
431.775	330.48
432.235	372.78
432.694	330.78
433.154	348.68
433.614	372.78
434.073	327.78
434.533	277.48
434.993	265.38
435.452	273.78
435.912	280.78
436.371	269.88
436.83	275.38
437.29	259.28
437.749	234.68
438.209	227.98
438.668	262.38
439.127	274.68
439.587	253.38
440.046	243.38
440.505	244.18
440.964	263.28
441.424	315.98
441.883	300.18
442.342	255.68
442.801	217.38
443.26	211.08
443.719	208.58
444.178	214.28
444.637	202.38
445.096	212.88
445.555	218.48
446.014	226.28
446.473	219.78
446.932	223.38
447.391	209.38
447.849	217.28
448.308	214.88
448.767	214.78
449.226	221.78
449.685	231.68
450.143	238.08
450.602	221.58
451.061	221.28
451.519	228.18
451.978	225.48
452.436	227.18
452.895	236.48
453.353	243.18
453.812	235.48
454.27	230.88
454.729	229.48
455.187	222.58
455.646	237.08
456.104	240.18
456.562	251.48
457.021	253.38
457.479	248.28
457.937	262.78
458.395	243.88
458.854	241.68
459.312	238.08
459.77	263.48
460.228	252.08
460.686	234.88
461.144	237.28
461.602	236.18
462.06	229.08
462.518	241.38
462.976	243.28
463.434	249.28
463.892	259.78
464.35	265.08
464.808	279.28
465.266	253.58
465.724	259.08
466.181	257.88
466.639	260.58
467.097	269.18
467.555	288.08
468.012	283.08
468.47	295.98
468.928	318.28
469.385	333.68
469.843	336.18
470.3	337.98
470.758	349.18
471.215	364.58
471.673	389.48
472.13	390.68
472.588	403.18
473.045	362.08
473.503	362.18
473.96	371.08
474.417	392.88
474.875	414.18
475.332	456.68
475.789	434.78
476.246	445.78
476.704	473.48
477.161	485.38
477.618	506.88
478.075	538.08
478.532	588.58
478.989	666.68
479.446	774.38
479.903	741.98
480.36	776.68
480.817	829.38
481.274	926.38
481.731	1025.18
482.188	1123.78
482.645	1253.38
483.102	1375.38
483.558	1480.68
484.015	1542.78
484.472	1517.48
484.929	1477.18
485.385	1427.28
485.842	1381.68
486.299	1321.38
486.755	1247.98
487.212	1052.48
487.668	897.88
488.125	812.38
488.582	745.78
489.038	720.28
489.494	681.48
489.951	664.28
490.407	638.08
490.864	613.58
491.32	614.78
491.776	615.78
492.233	625.28
492.689	585.98
493.145	576.78
493.602	563.88
494.058	588.68
494.514	584.68
494.97	610.38
495.426	627.68
495.882	598.58
496.338	587.68
496.794	604.18
497.251	602.58
497.707	610.58
498.163	606.28
498.618	622.08
499.074	631.08
499.53	653.88
499.986	645.68
500.442	624.18
500.898	608.28
501.354	598.48
501.809	608.58
502.265	617.28
502.721	634.78
503.177	632.48
503.632	642.98
504.088	642.98
504.543	679.98
504.999	679.08
505.455	629.68
505.91	608.08
506.366	608.28
506.821	601.18
507.277	591.98
507.732	592.68
508.187	589.78
508.643	608.68
509.098	602.48
509.553	619.38
510.009	631.68
510.464	634.58
510.919	650.48
511.375	665.38
511.83	674.48
512.285	690.18
512.74	723.48
513.195	742.08
513.65	736.78
514.105	733.88
514.56	732.08
515.015	751.48
515.47	777.48
515.925	757.98
516.38	750.18
516.835	765.28
517.29	748.88
517.745	739.68
518.2	719.58
518.655	711.08
519.109	709.68
519.564	709.98
520.019	696.08
520.474	691.68
520.928	687.18
521.383	680.18
521.838	680.18
522.292	678.78
522.747	672.08
523.201	665.88
523.656	662.48
524.11	656.38
524.565	647.88
525.019	656.38
525.474	663.98
525.928	665.98
526.382	651.38
526.837	667.08
527.291	669.38
527.745	663.98
528.2	660.78
528.654	653.88
529.108	646.58
529.562	652.88
530.016	661.18
530.47	659.28
530.925	660.08
531.379	667.38
531.833	666.88
532.287	673.18
532.741	674.28
533.195	672.18
533.649	672.88
534.103	682.48
534.556	666.48
535.01	676.08
535.464	673.28
535.918	689.18
536.372	679.58
536.826	676.78
537.279	663.28
537.733	677.98
538.187	678.48
538.64	679.88
539.094	676.38
539.548	677.98
540.001	680.78
540.455	676.88
540.908	694.98
541.362	700.58
541.815	708.68
542.269	708.98
542.722	705.98
543.175	727.98
543.629	720.58
544.082	734.08
544.536	731.98
544.989	749.28
545.442	749.48
545.895	736.18
546.349	748.08
546.802	739.58
547.255	737.38
547.708	747.08
548.161	761.38
548.614	756.48
549.067	775.88
549.52	770.08
549.973	769.98
550.426	760.18
550.879	739.48
551.332	748.48
551.785	748.18
552.238	752.28
552.691	763.48
553.144	775.98
553.596	791.78
554.049	801.58
554.502	833.58
554.955	861.78
555.407	846.28
555.86	842.08
556.313	835.98
556.765	826.68
557.218	816.88
557.67	836.18
558.123	819.08
558.576	823.48
559.028	821.08
559.48	826.08
559.933	818.28
560.385	781.08
560.838	757.28
561.29	744.78
561.742	728.88
562.195	716.68
562.647	714.58
563.099	720.98
563.551	728.68
564.004	732.88
564.456	724.48
564.908	705.68
565.36	692.78
565.812	680.68
566.264	677.18
566.716	671.58
567.168	673.48
567.62	663.68
568.072	650.88
568.524	647.88
568.976	642.48
569.428	625.28
569.88	626.48
570.332	633.08
570.784	632.88
571.235	630.48
571.687	647.08
572.139	655.98
572.59	663.38
573.042	653.78
573.494	656.08
573.945	664.28
574.397	633.18
574.849	645.28
575.3	647.78
575.752	641.48
576.203	621.88
576.655	639.98
577.106	612.08
577.557	606.08
578.009	613.58
578.46	612.98
578.912	607.88
579.363	612.08
579.814	609.88
580.265	610.48
580.717	617.38
581.168	627.08
581.619	629.28
582.07	633.98
582.521	625.38
582.972	625.38
583.423	626.88
583.875	623.38
584.326	644.98
584.777	689.98
585.227	762.58
585.678	846.38
586.129	929.48
586.58	1005.38
587.031	1073.98
587.482	1220.48
587.933	1409.08
588.384	1212.98
588.834	898.28
589.285	732.48
589.736	712.28
590.186	715.68
590.637	709.08
591.088	679.08
591.538	681.88
591.989	672.98
592.439	671.78
592.89	664.78
593.34	646.38
593.791	649.88
594.241	646.58
594.692	646.48
595.142	637.68
595.593	646.38
596.043	637.98
596.493	647.68
596.943	649.68
597.394	659.08
597.844	656.78
598.294	664.58
598.744	686.08
599.195	709.58
599.645	738.78
600.095	773.38
600.545	825.08
600.995	880.88
601.445	927.48
601.895	985.58
602.345	1029.58
602.795	1004.48
603.245	966.88
603.695	920.68
604.145	874.38
604.594	833.88
605.044	781.58
605.494	729.98
605.944	681.08
606.393	672.78
606.843	666.78
607.293	660.38
607.743	663.48
608.192	667.08
608.642	691.08
609.091	691.58
609.541	701.08
609.99	698.08
610.44	689.28
610.889	651.98
611.339	631.28
611.788	619.58
612.238	634.08
612.687	647.38
613.136	651.28
613.586	665.78
614.035	673.48
614.484	687.48
614.933	684.78
615.383	676.88
615.832	661.18
616.281	654.98
616.73	608.68
617.179	602.88
617.628	578.08
618.077	572.18
618.526	572.78
618.975	554.18
619.424	548.88
619.873	546.88
620.322	554.58
620.771	545.68
621.22	543.88
621.669	524.78
622.118	523.18
622.567	521.58
623.015	511.88
623.464	514.58
623.913	507.88
624.361	502.28
624.81	490.08
625.259	494.88
625.707	492.68
626.156	504.28
626.604	514.38
627.053	510.88
627.501	508.78
627.95	507.28
628.398	513.18
628.847	507.88
629.295	507.08
629.744	512.08
630.192	503.78
630.64	504.28
631.089	511.08
631.537	507.18
631.985	521.88
632.433	530.48
632.881	531.18
633.33	580.78
633.778	571.38
634.226	504.58
634.674	511.78
635.122	522.28
635.57	534.48
636.018	551.78
636.466	520.68
636.914	505.58
637.362	507.38
637.81	515.88
638.258	520.28
638.705	511.28
639.153	543.98
639.601	540.98
640.049	569.48
640.497	588.28
640.944	620.38
641.392	564.38
641.84	547.18
642.287	517.88
642.735	498.48
643.182	505.98
643.63	500.98
644.078	515.18
644.525	533.98
644.973	532.88
645.42	530.38
645.867	558.38
646.315	561.08
646.762	584.68
647.21	605.78
647.657	642.58
648.104	667.18
648.551	681.98
648.999	732.48
649.446	813.68
649.893	881.38
650.34	1017.88
650.787	1219.38
651.234	1525.28
651.682	1971.08
652.129	2686.08
652.576	3855.58
653.023	5738.28
653.47	7870.48
653.917	9970.08
654.363	11655.68
654.81	13014.28
655.257	12379.18
655.704	8025.28
656.151	4717.08
656.598	3044.18
657.044	2169.18
657.491	1661.98
657.938	1309.98
658.385	1106.58
658.831	951.98
659.278	860.28
659.724	762.48
660.171	707.88
660.618	647.78
661.064	611.18
661.511	587.78
661.957	573.18
662.404	564.38
662.85	568.18
663.296	554.38
663.743	500.58
664.189	475.38
664.635	467.18
665.082	464.68
665.528	466.88
665.974	455.58
666.42	439.68
666.867	436.18
667.313	429.18
667.759	413.08
668.205	424.08
668.651	421.58
669.097	431.68
669.543	449.08
669.989	421.38
670.435	394.18
670.881	389.18
671.327	396.98
671.773	409.28
672.219	433.58
672.665	476.18
673.11	517.28
673.556	544.38
674.002	592.88
674.448	575.28
674.893	486.78
675.339	420.38
675.785	385.98
676.23	369.08
676.676	346.88
677.122	338.88
677.567	330.08
678.013	324.08
678.458	314.68
678.904	318.88
679.349	301.48
679.794	310.58
680.24	306.88
680.685	295.28
681.131	303.48
681.576	301.28
682.021	307.18
682.466	303.78
682.912	302.28
683.357	298.28
683.802	329.98
684.247	355.88
684.692	383.58
685.137	428.68
685.583	473.68
686.028	492.48
686.473	453.28
686.918	379.88
687.363	358.98
687.807	338.78
688.252	313.08
688.697	307.98
689.142	291.88
689.587	287.88
690.032	279.88
690.477	292.68
690.921	300.58
691.366	329.78
691.811	352.98
692.255	374.18
692.7	403.38
693.145	430.28
693.589	589.28
694.034	954.38
694.478	1324.48
694.923	1525.18
695.367	2018.28
695.812	1039.98
696.256	433.68
696.701	324.08
697.145	309.48
697.59	283.88
698.034	269.68
698.478	279.58
698.922	278.98
699.367	280.38
699.811	289.78
700.255	297.78
700.699	336.38
701.143	362.88
701.588	409.68
702.032	450.18
702.476	443.68
702.92	427.98
703.364	419.18
703.808	531.58
704.252	875.58
704.696	1237.58
705.14	1473.48
705.584	1876.58
706.027	933.68
706.471	444.58
706.915	344.18
707.359	294.68
707.803	275.78
708.246	264.68
708.69	269.98
709.134	274.48
709.577	269.38
710.021	272.98
710.465	261.18
710.908	260.88
711.352	251.08
711.795	270.08
712.239	301.98
712.682	327.78
713.126	364.88
713.569	408.78
714.012	324.28
714.456	279.58
714.899	256.68
715.342	235.78
715.786	222.68
716.229	226.68
716.672	226.28
717.115	215.98
717.558	217.98
718.002	220.38
718.445	222.38
718.888	248.08
719.331	257.58
719.774	267.08
720.217	267.08
720.66	252.28
721.103	230.88
721.546	222.98
721.989	215.28
722.432	198.18
722.874	208.78
723.317	199.68
723.76	202.78
724.203	220.98
724.645	265.58
725.088	375.48
725.531	486.48
725.974	569.88
726.416	485.08
726.859	268.88
727.301	208.28
727.744	208.38
728.187	196.28
728.629	207.48
729.071	206.88
729.514	228.68
729.956	233.08
730.399	243.58
730.841	251.28
731.283	228.78
731.726	228.38
732.168	219.08
732.61	229.38
733.053	241.38
733.495	261.58
733.937	297.88
734.379	341.78
734.821	369.58
735.263	459.88
735.705	707.58
736.148	1306.18
736.59	2199.98
737.032	2683.98
737.474	2191.18
737.916	707.78
738.357	368.08
738.799	283.08
739.241	258.78
739.683	248.18
740.125	248.68
740.567	257.48
741.008	277.18
741.45	274.78
741.892	282.28
742.334	301.48
742.775	311.68
743.217	293.68
743.658	224.88
744.1	216.68
744.542	225.78
744.983	266.48
745.425	297.48
745.866	298.58
746.307	250.98
746.749	242.48
747.19	274.28
747.632	382.08
748.073	727.98
748.514	1543.98
748.956	2468.68
749.397	3076.38
749.838	2557.38
750.279	2615.68
750.72	1308.08
751.162	471.58
751.603	273.58
752.044	214.28
752.485	184.98
752.926	179.18
753.367	176.78
753.808	168.18
754.249	169.28
754.69	166.08
755.131	155.48
755.572	153.88
756.013	156.68
756.453	154.48
756.894	161.28
757.335	161.38
757.776	165.98
758.216	171.98
758.657	173.08
759.098	175.28
759.538	195.28
759.979	229.48
760.42	317.48
760.86	565.78
761.301	1500.98
761.741	3725.98
762.182	5731.18
762.622	4023.08
763.063	1141.88
763.503	466.58
763.943	298.48
764.384	295.08
764.824	349.68
765.264	396.98
765.705	270.38
766.145	186.78
766.585	166.48
767.025	154.88
767.465	161.78
767.906	211.68
768.346	284.78
768.786	310.08
769.226	221.78
769.666	268.38
770.106	518.98
770.546	1295.28
770.986	2313.78
771.426	2107.38
771.866	686.88
772.306	287.88
772.745	179.88
773.185	147.58
773.625	143.08
774.065	142.08
774.505	169.38
774.944	255.28
775.384	573.38
775.824	1077.48
776.263	1074.78
776.703	445.38
777.142	183.88
777.582	137.58
778.021	119.68
778.461	119.48
778.9	119.38
779.34	114.98
779.779	97.88
780.219	96.38
780.658	85.68
781.097	94.58
781.537	99.38
781.976	89.38
782.415	93.48
782.855	84.28
783.294	93.08
783.733	89.98
784.172	96.08
784.611	87.88
785.05	92.88
785.489	98.38
785.928	103.68
786.367	114.08
786.806	103.78
787.245	111.08
787.684	117.18
788.123	130.08
788.562	113.08
789.001	105.68
789.44	106.88
789.879	101.98
790.317	101.08
790.756	113.18
791.195	107.88
791.634	124.58
792.072	168.68
792.511	299.18
792.95	837.18
793.388	1848.78
793.827	1729.98
794.265	589.08
794.704	240.18
795.142	158.78
795.581	131.58
796.019	122.58
796.458	115.38
796.896	106.28
797.334	112.18
797.773	131.38
798.211	184.48
798.649	367.08
799.087	867.18
799.526	1364.98
799.964	1721.88
800.402	1780.38
800.84	652.28
801.278	252.68
801.716	165.98
802.154	129.58
802.592	126.08
803.03	123.48
803.468	110.48
803.906	127.58
804.344	125.68
804.782	124.88
805.22	119.18
805.658	106.18
806.096	124.88
806.533	138.98
806.971	144.88
807.409	187.88
807.847	265.48
808.284	548.98
808.722	1577.18
809.16	2876.28
809.597	2642.38
810.035	4701.78
810.472	5186.68
810.91	1828.58
811.347	695.68
811.785	348.58
812.222	221.98
812.66	175.58
813.097	142.88
813.535	124.98
813.972	108.58
814.409	99.08
814.846	88.68
815.284	94.28
815.721	89.58
816.158	90.58
816.595	98.88
817.032	152.68
817.47	176.78
817.907	136.18
818.344	130.98
818.781	97.48
819.218	86.58
819.655	103.38
820.092	162.08
820.529	182.38
820.966	154.38
821.403	118.38
821.839	93.48
822.276	86.58
822.713	103.28
823.15	117.98
823.587	105.58
824.023	123.58
824.46	244.28
824.897	755.18
825.333	1202.98
825.77	509.88
826.206	192.68
826.643	116.18
827.08	87.78
827.516	73.08
827.953	65.08
828.389	67.58
828.825	62.88
829.262	54.98
829.698	52.18
830.135	56.68
830.571	54.88
831.007	59.18
831.443	52.98
831.88	53.88
832.316	53.18
832.752	60.18
833.188	59.68
833.624	54.38
834.06	55.08
834.497	58.88
834.933	61.88
835.369	68.18
835.805	57.78
836.241	65.98
836.677	66.68
837.112	76.28
837.548	88.48
837.984	118.18
838.42	167.58
838.856	402.78
839.292	1295.48
839.727	2049.08
840.163	942.78
840.599	775.28
841.034	1752.18
841.47	1886.08
841.906	680.88
842.341	284.58
842.777	200.18
843.212	270.18
843.648	272.18
844.083	133.98
844.519	83.78
844.954	66.18
845.39	52.18
845.825	58.88
846.261	47.28
846.696	42.08
847.131	42.88
847.566	54.58
848.002	41.58
848.437	48.88
848.872	51.68
849.307	49.78
849.742	74.28
850.177	146.68
850.613	473.78
851.048	770.98
851.483	333.88
851.918	130.58
852.353	77.78
852.788	50.68
853.223	46.68
853.657	45.38
854.092	44.08
854.527	41.18
854.962	35.38
855.397	43.68
855.832	50.68
856.266	33.18
856.701	35.08
857.136	32.58
857.57	36.68
858.005	45.58
858.44	47.18
858.874	35.98
859.309	43.88
859.743	31.68
860.178	37.78
860.612	33.68
861.047	47.48
861.481	60.48
861.915	64.28
862.35	42.18
862.784	27.78
863.218	38.38
863.653	28.08
864.087	39.38
864.521	47.48
864.955	59.28
865.39	133.98
865.824	156.78
866.258	101.38
866.692	142.38
867.126	152.98
867.56	96.78
867.994	44.38
868.428	32.48
868.862	37.58
869.296	49.18
869.73	50.98
870.164	44.38
870.598	46.98
871.031	34.08
871.465	22.58
871.899	24.88
872.333	22.98
872.766	27.88
873.2	15.98
873.634	27.48
874.067	21.88
874.501	21.88
874.935	38.98
875.368	28.08
875.802	26.68
876.235	28.28
876.669	21.28
877.102	15.98
877.535	19.28
877.969	16.98
878.402	21.38
878.836	19.38
879.269	18.58
879.702	15.38
880.135	20.88
880.569	17.08
881.002	24.08
881.435	19.08
881.868	17.58
882.301	16.28
882.734	12.38
883.167	21.68
883.601	21.18
884.034	22.48
884.467	14.48
884.899	12.48
885.332	15.18
885.765	13.18
886.198	18.78
886.631	19.78
887.064	16.48
887.497	18.58
887.929	26.68
888.362	13.38
888.795	10.98
889.228	14.28
889.66	16.88
890.093	13.38
890.526	16.88
890.958	13.18
891.391	14.48
891.823	16.08
892.256	9.48
892.688	6.98
893.121	11.18
893.553	10.48
893.985	18.98
894.418	17.38
894.85	11.38
895.282	15.78
895.715	11.38
896.147	6.78
896.579	16.28
897.011	16.98
897.444	10.58
897.876	8.68
898.308	10.38
898.74	14.98
899.172	13.28
899.604	20.68
900.036	12.78
900.468	9.08
900.9	13.08
901.332	15.28
901.764	7.28
902.196	14.38
902.628	14.18
903.06	16.38
903.491	27.68
903.923	23.08
904.355	18.38
904.787	19.18
905.218	20.78
905.65	16.48
906.082	8.18
906.513	10.78
906.945	14.98
907.376	10.18
907.808	10.18
908.239	16.78
908.671	15.98
909.102	18.08
909.534	20.78
909.965	40.68
910.397	80.08
910.828	271.68
911.259	421.28
911.691	193.88
912.122	100.18
912.553	43.78
912.984	28.78
913.415	25.08
913.847	19.58
914.278	16.08
914.709	15.68
915.14	21.58
915.571	14.48
916.002	6.88
916.433	18.48
916.864	15.38
917.295	7.78
917.726	13.18
918.157	11.68
918.587	27.58
919.018	17.98
919.449	24.38
919.88	19.68
920.311	27.18
920.741	38.38
921.172	142.68
921.603	138.58
922.033	59.88
922.464	41.38
922.895	22.98
923.325	18.38
923.756	12.08
924.186	13.48
924.617	19.48
925.047	34.28
925.478	44.58
925.908	40.78
926.338	26.38
926.769	12.98
927.199	17.58
927.629	8.58
928.06	8.88
928.49	10.08
928.92	11.58
929.35	7.78
929.78	8.38
930.21	5.88
930.641	10.38
931.071	6.18
931.501	3.18
931.931	3.78
932.361	2.48
932.791	2.28
933.221	7.08
933.651	9.38
934.08	20.28
934.51	25.38
934.94	9.88
935.37	6.78
935.8	5.98
936.229	2.78
936.659	4.18
937.089	-1.72
937.519	5.18
937.948	21.98
938.378	10.38
938.807	0.98
939.237	7.98
939.666	8.98
940.096	-5.52
940.525	-0.42
940.955	4.58
941.384	-0.52
941.814	-3.32
942.243	-0.12
942.672	3.28
943.102	-6.22
943.531	-0.62
943.96	4.08
944.39	2.78
944.819	-3.72
945.248	4.08
945.677	1.28
946.106	6.08
946.535	3.48
946.964	-2.32
947.393	3.38
947.822	1.98
948.251	-1.82
948.68	-1.82
949.109	5.18
949.538	0.98
949.967	3.28
950.396	-6.52
950.825	-3.02
951.254	2.88
951.682	-2.02
952.111	3.08
952.54	1.38
952.969	-4.12
953.397	-6.32
953.826	-3.22
954.254	-4.52
954.683	0.68
955.112	0.08
955.54	1.88
955.969	1.78
956.397	-4.62
956.826	-3.02
957.254	-0.82
957.682	0.58
958.111	9.18
958.539	-2.92
958.967	1.38
959.396	-1.42
959.824	2.18
960.252	5.38
960.68	-9.22
961.109	-5.92
961.537	-4.82
961.965	-0.82
962.393	-0.72
962.821	-1.12
963.249	-1.72
963.677	0.78
964.105	2.88
964.533	40.68
964.961	35.78
965.389	19.08
965.817	6.08
966.245	7.38
966.672	-0.82
967.1	-7.42
967.528	-4.02
967.956	-0.62
968.383	-0.32
968.811	-2.42
969.239	-3.42
969.666	-4.02
970.094	1.18
970.522	0.98
970.949	0.68
971.377	-2.92
971.804	-4.62
972.232	-2.52
972.659	-0.52
973.087	-0.02
973.514	-6.52
973.941	-1.52
974.369	-1.62
974.796	-2.32
975.223	-0.82
975.651	0.58
976.078	1.88
976.505	-7.92
976.932	4.18
977.359	8.78
977.786	10.38
978.214	0.28
978.641	-0.32
979.068	-0.92
979.495	-4.42
979.922	-3.32
980.349	1.68
980.776	2.28
981.202	-1.22
981.629	4.58
982.056	11.28
982.483	-3.62
982.91	-0.92
983.337	-3.12
983.763	1.98
984.19	-3.22
984.617	-9.22
985.043	-3.72
985.47	-2.12
985.897	-9.32
986.323	-7.12
986.75	5.78
987.176	-4.52
987.603	-1.22
988.029	-4.52
988.456	-4.62
988.882	4.28
989.308	-12.52
989.735	-5.32
990.161	5.38
990.587	-6.12
991.014	-0.02
991.44	6.08
991.866	1.58
992.292	-3.02
992.719	-0.92
993.145	5.38
993.571	-8.62
993.997	-5.62
994.423	0.68
994.849	-7.72
995.275	1.88
995.701	-3.72
996.127	-3.22
996.553	3.28
996.979	-2.02
997.405	-2.22
997.83	-2.12
998.256	-2.62
998.682	1.38
999.108	-5.12
999.534	2.98
999.959	-5.92
1000.385	-7.52
1000.811	0.78
1001.236	-7.62
1001.662	-3.52
1002.087	-9.82
1002.513	-3.52
1002.938	-4.22
1003.364	-1.12
1003.789	-12.82
1004.215	7.48
1004.64	-2.12
1005.066	4.88
1005.491	7.28
1005.916	-2.32
1006.342	-3.62
1006.767	-9.42
1007.192	6.28
1007.617	-3.82
1008.042	-13.72
1008.468	-8.52
1008.893	-3.82
1009.318	-3.42
1009.743	-6.62
1010.168	3.38
1010.593	5.18
1011.018	-3.82
1011.443	-4.52
1011.868	3.28
1012.293	-3.72
1012.718	-5.32
1013.143	-0.82
1013.567	-6.82
1013.992	-8.42
1014.417	-16.12
1014.842	4.28
1015.267	-2.62
1015.691	1.68
1016.116	0.68
1016.541	-5.22
1016.965	6.08
1017.39	6.58
1017.814	-1.92
1018.239	-5.52
1018.663	-4.12
1019.088	-8.52
1019.512	-3.92
1019.937	-3.52
1020.361	-9.32
1020.785	-10.32
1021.21	5.18
1021.634	-0.22
1022.058	2.48
1022.483	-2.32
1022.907	-5.62
1023.331	-4.42
1023.755	-6.22
1024.179	0.58
1024.604	-5.02
1025.028	-8.12
1025.452	-3.52
1025.876	-2.12
1026.3	1.58
1026.724	-5.22
1027.148	-2.72
1027.572	-12.12
1027.996	-4.22
1028.42	-2.42
1028.843	-6.32
1029.267	-2.52
1029.691	2.78
1030.115	-0.72
1030.539	-2.72
1030.962	-13.22
1031.386	-11.52
1031.81	-0.12
1032.233	-2.72
1032.657	0.08
1033.08	2.38
1033.504	-7.12
1033.927	-1.42
1034.351	2.18
1034.774	-4.32
1035.198	-2.42
1035.621	-12.12
1036.045	-2.52
1036.468	1.58
1036.891	-1.82
1037.315	-10.92
1037.738	-7.92
1038.161	1.78
1038.584	-9.02
1039.008	2.08
1039.431	-5.02
1039.854	-5.62
1040.277	-4.92
1040.7	-8.62
1041.123	-1.02
1041.546	-8.72
1041.969	-4.62
1042.392	-6.32
1042.815	-2.62
1043.238	-0.62
1043.661	2.18
1044.084	-7.32
1044.507	-4.42
1044.93	-4.52
1045.352	-8.02
1045.775	0.68
1046.198	0.28
1046.621	-1.22
1047.043	3.78
1047.466	5.48
1047.889	-0.32
1048.311	-7.02
1048.734	-1.92
1049.156	-1.22
1049.579	-1.02
1050.001	-7.52
1050.424	-0.52
1050.846	-0.02
1051.269	-3.12
1051.691	-4.22
1052.113	-5.32
1052.536	-2.52
1052.958	-3.92
1053.38	-0.92
1053.802	-2.92
1054.225	-0.22
1054.647	-10.22
1055.069	-8.42
1055.491	5.48
1055.913	-7.82
1056.335	-2.32
1056.757	-8.82
1057.179	-6.42
1057.601	-5.82
1058.023	-9.22
1058.445	-9.72
1058.867	-7.62
1059.289	1.08
1059.711	-10.82
1060.133	-2.72
1060.555	-3.02
1060.976	-7.22
1061.398	-7.42
1061.82	-5.02
1062.241	-5.72
1062.663	-7.22
1063.085	-6.72
1063.506	-0.22
1063.928	-0.12
1064.35	-0.52
1064.771	-11.82
1065.193	-2.02
1065.614	-9.02
1066.035	-2.82
1066.457	-3.02
1066.878	-1.02
1067.3	2.48
1067.721	-5.72
1068.142	-3.02
1068.564	-5.92
1068.985	-7.92
1069.406	-7.02
1069.827	-3.62
1070.248	3.88
1070.67	-3.62
1071.091	-6.62
1071.512	0.88
1071.933	-5.02
1072.354	-8.52
1072.775	-6.62
1073.196	-3.12
1073.617	-0.62
1074.038	-1.72
1074.459	-1.72
1074.88	-6.62
1075.3	3.08
1075.721	-4.22
1076.142	2.48
1076.563	-1.92
1076.983	-9.12
1077.404	-5.82
1077.825	-7.62
1078.246	-4.22
1078.666	-11.52
1079.087	0.08
1079.507	-7.12
1079.928	2.88
1080.348	-3.52
1080.769	-3.62
1081.189	-1.52
1081.61	-0.92
1082.03	-6.12
1082.451	-9.62
1082.871	0.18
1083.291	-8.02
1083.711	-9.62
1084.132	-10.02
1084.552	-4.62
1084.972	-1.82
1085.392	-5.52
1085.813	-12.02
1086.233	-6.32
1086.653	-5.42
1087.073	-3.02
1087.493	-5.92
1087.913	-3.42
1088.333	-9.72
1088.753	-3.32
1089.173	6.38
1089.593	-6.62
1090.013	3.38
1090.433	2.48
1090.852	-5.32
1091.272	0.68
1091.692	-5.42
1092.112	-4.42
1092.531	-10.12
1092.951	-11.42
1093.371	-1.62
1093.79	-2.62
1094.21	-3.22
1094.63	-3.22
1095.049	-6.92
1095.469	-5.62
1095.888	-3.82
1096.308	1.98
1096.727	6.28
1097.146	-12.82
1097.566	0.38
1097.985	-11.72
1098.405	-2.62
1098.824	-7.42
1099.243	-6.72
1099.662	-12.62
1100.082	-1.52
1100.501	-5.42
1100.92	-4.72
1101.339	-5.02
1101.758	-9.12
