Data from 20171114-ORNL-Ar_H_NY_Subt18_08-04-36-184.txt Node
Date: Tue Nov 14 08:04:36 EST 2017
User: Ender
Spectrometer: HR+D1039
Trigger mode: 0
Integration Time (sec): 2.730000E-2
Scans to average: 10
Electric dark correction enabled: true
Nonlinearity correction enabled: false
Boxcar width: 0
XAxis mode: Wavelengths
Number of Pixels in Spectrum: 2048
>>>>>Begin Spectral Data<<<<<
187.836	-3.01
188.309	-3.01
188.782	-3.01
189.255	1.39
189.728	1.79
190.201	3.89
190.674	0.99
191.147	4.39
191.619	-2.81
192.092	0.49
192.565	6.79
193.038	-1.91
193.511	-3.71
193.984	2.09
194.456	-3.11
194.929	-0.61
195.402	-5.61
195.874	-1.01
196.347	-1.71
196.82	-8.21
197.292	5.89
197.765	0.79
198.237	-0.91
198.71	5.19
199.182	-4.31
199.655	4.59
200.127	3.49
200.6	3.89
201.072	-3.31
201.544	-5.81
202.017	-4.81
202.489	8.79
202.961	-1.71
203.433	-3.11
203.906	-7.41
204.378	-5.21
204.85	-1.81
205.322	-12.61
205.794	-3.51
206.266	-0.31
206.739	-8.91
207.211	-1.01
207.683	-10.61
208.155	-2.31
208.627	-4.31
209.099	-0.61
209.57	-6.81
210.042	-3.11
210.514	-0.51
210.986	-4.21
211.458	-10.81
211.93	1.79
212.402	-0.71
212.873	-4.91
213.345	-6.21
213.817	-9.91
214.288	-1.21
214.76	-10.01
215.232	-8.81
215.703	-1.51
216.175	-0.91
216.646	-5.91
217.118	-7.11
217.589	-2.61
218.061	-1.11
218.532	-2.81
219.004	-2.51
219.475	-7.51
219.946	-3.31
220.418	-3.41
220.889	-0.61
221.36	0.79
221.832	-6.31
222.303	-8.11
222.774	-0.31
223.245	-12.81
223.717	-4.31
224.188	-3.81
224.659	-7.51
225.13	-6.21
225.601	-3.21
226.072	6.09
226.543	1.59
227.014	1.29
227.485	-6.01
227.956	-3.01
228.427	4.49
228.898	-3.21
229.369	3.89
229.839	-7.71
230.31	-4.11
230.781	4.39
231.252	-2.31
231.722	-7.51
232.193	0.89
232.664	-0.71
233.135	-2.21
233.605	2.69
234.076	-6.11
234.546	-2.01
235.017	2.89
235.487	5.89
235.958	0.49
236.428	-2.01
236.899	7.69
237.369	4.49
237.84	0.09
238.31	7.79
238.78	6.19
239.251	3.29
239.721	1.59
240.191	2.79
240.662	3.19
241.132	4.59
241.602	-4.81
242.072	5.49
242.542	9.69
243.013	-2.71
243.483	7.29
243.953	4.89
244.423	-0.61
244.893	-2.21
245.363	1.69
245.833	5.29
246.303	0.99
246.773	3.99
247.243	2.09
247.712	-1.11
248.182	11.89
248.652	3.89
249.122	-1.41
249.592	16.39
250.061	24.49
250.531	35.09
251.001	17.99
251.471	25.99
251.94	20.69
252.41	11.29
252.879	-1.81
253.349	15.29
253.818	7.09
254.288	3.79
254.757	-0.71
255.227	5.39
255.696	11.09
256.166	5.19
256.635	14.49
257.105	8.79
257.574	8.89
258.043	12.99
258.513	17.29
258.982	23.39
259.451	12.69
259.92	21.39
260.389	17.69
260.859	11.79
261.328	11.19
261.797	16.79
262.266	14.79
262.735	10.29
263.204	3.29
263.673	3.39
264.142	8.59
264.611	-1.11
265.08	-3.51
265.549	-0.71
266.018	6.69
266.487	-2.51
266.955	1.29
267.424	-4.31
267.893	6.29
268.362	6.09
268.83	8.09
269.299	10.89
269.768	9.29
270.236	4.19
270.705	-0.91
271.174	6.49
271.642	7.89
272.111	11.19
272.579	17.59
273.048	22.49
273.516	26.79
273.985	26.99
274.453	27.59
274.922	21.29
275.39	17.29
275.858	0.99
276.327	10.09
276.795	24.69
277.263	13.49
277.731	35.19
278.2	57.99
278.668	66.79
279.136	51.09
279.604	22.89
280.072	13.99
280.54	13.09
281.008	12.79
281.477	19.89
281.945	21.19
282.413	15.19
282.881	21.09
283.348	6.79
283.816	16.49
284.284	22.29
284.752	26.29
285.22	18.59
285.688	18.99
286.156	26.59
286.623	46.29
287.091	51.29
287.559	33.09
288.026	17.89
288.494	19.39
288.962	6.19
289.429	13.09
289.897	16.49
290.364	17.99
290.832	16.59
291.3	12.59
291.767	18.49
292.234	21.59
292.702	17.89
293.169	23.79
293.637	18.29
294.104	23.59
294.571	15.09
295.039	16.09
295.506	14.89
295.973	24.39
296.44	16.99
296.908	18.89
297.375	20.59
297.842	18.69
298.309	20.89
298.776	18.49
299.243	22.29
299.71	16.69
300.177	20.89
300.644	24.09
301.111	21.09
301.578	26.19
302.045	11.09
302.512	22.09
302.979	25.29
303.446	25.89
303.913	22.99
304.379	19.29
304.846	32.59
305.313	25.29
305.78	25.49
306.246	30.59
306.713	24.79
307.18	30.39
307.646	32.79
308.113	33.79
308.579	27.99
309.046	27.89
309.512	27.39
309.979	21.89
310.445	30.29
310.912	25.99
311.378	29.69
311.845	27.69
312.311	37.29
312.777	27.19
313.244	31.99
313.71	40.59
314.176	29.29
314.642	32.79
315.109	37.09
315.575	30.69
316.041	37.59
316.507	36.59
316.973	42.29
317.439	38.09
317.905	40.99
318.371	42.59
318.837	33.19
319.303	34.39
319.769	30.79
320.235	31.09
320.701	33.59
321.167	38.09
321.633	32.89
322.099	39.29
322.564	48.49
323.03	50.19
323.496	45.09
323.962	42.79
324.427	37.89
324.893	41.69
325.359	42.49
325.824	39.39
326.29	39.49
326.755	41.79
327.221	36.49
327.686	40.99
328.152	54.59
328.617	35.89
329.083	50.29
329.548	54.89
330.014	49.29
330.479	36.79
330.944	43.99
331.41	47.29
331.875	44.09
332.34	48.69
332.805	41.49
333.271	42.69
333.736	38.49
334.201	53.59
334.666	48.49
335.131	48.09
335.596	47.29
336.061	46.89
336.526	40.99
336.991	47.59
337.456	52.39
337.921	51.49
338.386	48.89
338.851	43.59
339.316	48.89
339.781	49.09
340.246	54.29
340.711	46.99
341.175	51.99
341.64	40.39
342.105	52.59
342.569	59.29
343.034	58.69
343.499	55.99
343.963	47.69
344.428	66.99
344.893	58.09
345.357	58.69
345.822	66.09
346.286	75.19
346.751	70.29
347.215	68.89
347.679	72.39
348.144	94.39
348.608	80.89
349.073	66.69
349.537	76.49
350.001	80.09
350.465	83.09
350.93	81.69
351.394	77.09
351.858	69.29
352.322	86.09
352.786	81.09
353.25	94.49
353.715	103.29
354.179	97.29
354.643	116.69
355.107	125.29
355.571	99.19
356.035	100.19
356.498	115.89
356.962	115.19
357.426	132.39
357.89	106.69
358.354	83.99
358.818	85.09
359.281	77.49
359.745	75.19
360.209	74.69
360.673	77.39
361.136	79.99
361.6	87.49
362.064	83.19
362.527	83.39
362.991	89.19
363.454	78.19
363.918	71.79
364.381	83.19
364.845	78.29
365.308	89.29
365.772	87.19
366.235	84.39
366.698	77.89
367.162	83.99
367.625	85.49
368.088	81.79
368.552	85.19
369.015	91.99
369.478	97.99
369.941	97.29
370.404	96.99
370.867	101.09
371.331	107.39
371.794	108.79
372.257	105.39
372.72	115.89
373.183	106.99
373.646	100.29
374.109	102.29
374.572	105.39
375.035	100.79
375.497	104.89
375.96	107.59
376.423	104.49
376.886	107.29
377.349	110.19
377.811	100.89
378.274	97.09
378.737	100.49
379.199	106.59
379.662	106.49
380.125	110.29
380.587	115.79
381.05	115.79
381.512	124.89
381.975	127.39
382.437	128.29
382.9	119.29
383.362	127.99
383.825	134.49
384.287	142.29
384.75	133.99
385.212	133.29
385.674	134.49
386.136	129.39
386.599	123.79
387.061	119.89
387.523	121.89
387.985	126.09
388.447	140.69
388.91	133.49
389.372	150.89
389.834	145.39
390.296	140.99
390.758	150.89
391.22	161.29
391.682	202.29
392.144	272.39
392.606	212.69
393.068	155.49
393.529	158.49
393.991	143.89
394.453	135.69
394.915	154.59
395.377	181.79
395.838	200.89
396.3	149.49
396.762	140.39
397.224	127.39
397.685	122.29
398.147	125.99
398.608	121.39
399.07	124.49
399.531	128.39
399.993	134.79
400.454	144.59
400.916	135.59
401.377	136.39
401.839	139.99
402.3	144.79
402.762	157.79
403.223	170.89
403.684	156.59
404.145	149.29
404.607	149.09
405.068	158.19
405.529	155.69
405.99	179.19
406.451	166.89
406.913	170.99
407.374	152.59
407.835	157.29
408.296	154.59
408.757	164.19
409.218	178.19
409.679	171.69
410.14	171.99
410.601	166.59
411.062	175.19
411.522	180.49
411.983	178.49
412.444	169.59
412.905	177.39
413.366	178.29
413.826	182.99
414.287	205.59
414.748	254.39
415.208	241.19
415.669	209.09
416.13	193.09
416.59	189.89
417.051	194.19
417.511	208.89
417.972	220.59
418.432	228.89
418.893	274.89
419.353	231.29
419.814	191.99
420.274	173.69
420.734	172.19
421.195	182.29
421.655	186.39
422.115	185.89
422.576	180.89
423.036	184.69
423.496	188.69
423.956	202.29
424.416	215.69
424.876	258.89
425.336	243.49
425.797	242.89
426.257	239.99
426.717	228.29
427.177	222.19
427.637	211.29
428.097	224.49
428.556	231.89
429.016	248.59
429.476	239.19
429.936	257.59
430.396	259.79
430.856	277.29
431.315	301.19
431.775	329.19
432.235	355.39
432.694	329.69
433.154	337.69
433.614	368.89
434.073	318.09
434.533	264.09
434.993	256.99
435.452	266.29
435.912	278.19
436.371	273.09
436.83	274.39
437.29	256.29
437.749	233.09
438.209	223.69
438.668	251.09
439.127	265.59
439.587	247.79
440.046	232.89
440.505	246.79
440.964	263.19
441.424	302.49
441.883	289.19
442.342	237.29
442.801	204.39
443.26	205.99
443.719	208.89
444.178	204.09
444.637	200.29
445.096	206.09
445.555	209.99
446.014	209.99
446.473	213.49
446.932	219.49
447.391	209.09
447.849	214.19
448.308	211.09
448.767	207.79
449.226	228.09
449.685	230.19
450.143	236.29
450.602	228.79
451.061	210.79
451.519	220.39
451.978	217.89
452.436	211.59
452.895	224.79
453.353	237.59
453.812	229.69
454.27	229.89
454.729	222.29
455.187	223.69
455.646	225.99
456.104	234.49
456.562	241.39
457.021	259.59
457.479	245.49
457.937	255.69
458.395	249.59
458.854	226.49
459.312	236.39
459.77	250.49
460.228	251.49
460.686	233.69
461.144	235.79
461.602	230.39
462.06	230.79
462.518	237.79
462.976	230.19
463.434	247.09
463.892	243.99
464.35	258.29
464.808	279.49
465.266	248.89
465.724	249.99
466.181	262.29
466.639	255.79
467.097	272.89
467.555	281.99
468.012	284.29
468.47	285.09
468.928	305.29
469.385	319.59
469.843	324.19
470.3	327.69
470.758	341.19
471.215	356.39
471.673	377.69
472.13	380.79
472.588	390.79
473.045	342.89
473.503	349.89
473.96	372.39
474.417	378.19
474.875	406.09
475.332	441.59
475.789	433.09
476.246	434.09
476.704	449.39
477.161	476.19
477.618	488.69
478.075	519.49
478.532	573.09
478.989	646.49
479.446	754.99
479.903	723.89
480.36	765.49
480.817	812.89
481.274	905.99
481.731	1007.59
482.188	1093.49
482.645	1235.69
483.102	1337.89
483.558	1477.39
484.015	1503.19
484.472	1493.09
484.929	1436.59
485.385	1379.19
485.842	1353.39
486.299	1295.79
486.755	1219.99
487.212	1030.39
487.668	868.99
488.125	806.59
488.582	731.39
489.038	699.69
489.494	669.79
489.951	655.99
490.407	638.79
490.864	607.49
491.32	606.89
491.776	597.89
492.233	605.19
492.689	578.39
493.145	571.39
493.602	571.89
494.058	576.19
494.514	569.19
494.97	597.69
495.426	599.49
495.882	589.49
496.338	578.89
496.794	592.79
497.251	590.89
497.707	603.79
498.163	599.39
498.618	608.39
499.074	619.39
499.53	642.09
499.986	634.69
500.442	618.99
500.898	597.89
501.354	589.79
501.809	607.39
502.265	611.29
502.721	615.49
503.177	628.29
503.632	623.29
504.088	632.89
504.543	667.19
504.999	666.29
505.455	615.09
505.91	598.39
506.366	591.09
506.821	587.59
507.277	588.69
507.732	580.39
508.187	585.09
508.643	586.59
509.098	594.39
509.553	613.39
510.009	624.79
510.464	628.19
510.919	642.69
511.375	652.59
511.83	662.79
512.285	676.89
512.74	710.39
513.195	723.99
513.65	722.59
514.105	718.79
514.56	719.89
515.015	751.49
515.47	762.99
515.925	740.69
516.38	746.59
516.835	742.19
517.29	739.99
517.745	723.69
518.2	715.49
518.655	707.59
519.109	694.59
519.564	690.19
520.019	688.79
520.474	678.09
520.928	675.69
521.383	673.89
521.838	664.89
522.292	665.49
522.747	663.59
523.201	655.39
523.656	640.69
524.11	646.19
524.565	648.79
525.019	644.79
525.474	649.19
525.928	653.39
526.382	653.89
526.837	650.19
527.291	645.39
527.745	648.09
528.2	650.89
528.654	654.09
529.108	650.99
529.562	639.39
530.016	640.49
530.47	645.89
530.925	647.19
531.379	656.99
531.833	654.79
532.287	649.29
532.741	660.99
533.195	656.79
533.649	674.09
534.103	677.39
534.556	663.89
535.01	666.59
535.464	651.49
535.918	665.89
536.372	674.79
536.826	661.09
537.279	659.09
537.733	665.59
538.187	665.99
538.64	663.99
539.094	672.59
539.548	678.99
540.001	676.59
540.455	671.09
540.908	667.99
541.362	682.89
541.815	696.99
542.269	698.59
542.722	698.99
543.175	715.39
543.629	716.69
544.082	723.29
544.536	729.29
544.989	724.89
545.442	728.09
545.895	734.69
546.349	722.29
546.802	724.99
547.255	735.09
547.708	742.59
548.161	749.89
548.614	750.29
549.067	759.99
549.52	758.59
549.973	748.19
550.426	743.19
550.879	736.19
551.332	730.29
551.785	734.99
552.238	749.39
552.691	753.29
553.144	770.99
553.596	779.09
554.049	792.09
554.502	831.39
554.955	838.39
555.407	838.89
555.86	836.49
556.313	831.19
556.765	812.89
557.218	816.29
557.67	818.69
558.123	804.89
558.576	799.79
559.028	803.49
559.48	809.59
559.933	804.79
560.385	771.09
560.838	741.79
561.29	725.59
561.742	710.49
562.195	708.29
562.647	691.69
563.099	712.29
563.551	706.09
564.004	714.49
564.456	711.79
564.908	694.29
565.36	687.09
565.812	667.79
566.264	663.79
566.716	655.89
567.168	644.79
567.62	659.19
568.072	650.59
568.524	637.79
568.976	633.99
569.428	611.59
569.88	607.09
570.332	632.49
570.784	622.19
571.235	627.99
571.687	635.69
572.139	637.99
572.59	648.19
573.042	654.09
573.494	649.19
573.945	637.19
574.397	625.69
574.849	631.49
575.3	628.69
575.752	622.59
576.203	622.19
576.655	618.79
577.106	620.49
577.557	607.29
578.009	611.69
578.46	606.39
578.912	595.49
579.363	603.29
579.814	605.99
580.265	594.79
580.717	606.29
581.168	607.89
581.619	611.99
582.07	611.99
582.521	612.39
582.972	612.19
583.423	620.89
583.875	615.09
584.326	627.89
584.777	662.99
585.227	744.39
585.678	815.29
586.129	907.19
586.58	970.79
587.031	1043.09
587.482	1189.79
587.933	1354.59
588.384	1169.39
588.834	877.79
589.285	725.99
589.736	701.39
590.186	696.79
590.637	690.59
591.088	671.89
591.538	667.69
591.989	654.79
592.439	660.09
592.89	648.59
593.34	636.19
593.791	639.39
594.241	627.49
594.692	638.19
595.142	626.79
595.593	616.09
596.043	630.09
596.493	641.69
596.943	638.49
597.394	639.79
597.844	635.39
598.294	645.49
598.744	675.29
599.195	693.69
599.645	729.99
600.095	762.79
600.545	812.69
600.995	862.39
601.445	916.69
601.895	973.09
602.345	1011.79
602.795	989.99
603.245	945.99
603.695	916.59
604.145	854.19
604.594	815.49
605.044	770.79
605.494	716.19
605.944	670.89
606.393	664.09
606.843	636.09
607.293	643.49
607.743	660.19
608.192	657.99
608.642	664.99
609.091	679.09
609.541	683.29
609.99	673.19
610.44	676.09
610.889	631.09
611.339	625.29
611.788	602.39
612.238	614.89
612.687	633.49
613.136	634.49
613.586	643.79
614.035	654.39
614.484	666.79
614.933	668.69
615.383	664.09
615.832	656.89
616.281	639.39
616.73	610.29
617.179	587.49
617.628	567.39
618.077	559.69
618.526	551.59
618.975	546.99
619.424	539.39
619.873	545.49
620.322	555.79
620.771	534.29
621.22	530.49
621.669	526.79
622.118	512.09
622.567	504.99
623.015	505.89
623.464	507.79
623.913	496.99
624.361	484.99
624.81	488.89
625.259	479.99
625.707	488.99
626.156	481.09
626.604	494.69
627.053	502.89
627.501	493.79
627.95	492.49
628.398	507.89
628.847	502.79
629.295	498.49
629.744	506.49
630.192	493.19
630.64	496.99
631.089	495.99
631.537	504.19
631.985	509.99
632.433	519.89
632.881	520.69
633.33	572.09
633.778	553.49
634.226	489.19
634.674	489.49
635.122	510.59
635.57	517.49
636.018	542.69
636.466	511.09
636.914	483.49
637.362	497.69
637.81	503.19
638.258	504.29
638.705	496.89
639.153	529.89
639.601	526.39
640.049	553.19
640.497	578.99
640.944	601.39
641.392	557.99
641.84	526.39
642.287	499.09
642.735	501.09
643.182	501.49
643.63	499.19
644.078	496.89
644.525	511.79
644.973	515.49
645.42	524.59
645.867	545.19
646.315	561.59
646.762	577.99
647.21	602.49
647.657	619.69
648.104	651.89
648.551	672.79
648.999	719.79
649.446	783.09
649.893	856.89
650.34	989.59
650.787	1184.59
651.234	1485.39
651.682	1904.69
652.129	2624.09
652.576	3746.59
653.023	5517.99
653.47	7644.79
653.917	9660.19
654.363	11320.69
654.81	12720.29
655.257	12097.19
655.704	7830.69
656.151	4592.39
656.598	2990.69
657.044	2115.39
657.491	1618.99
657.938	1296.99
658.385	1077.79
658.831	933.59
659.278	829.49
659.724	741.69
660.171	678.89
660.618	628.09
661.064	587.79
661.511	569.29
661.957	566.49
662.404	553.09
662.85	561.59
663.296	532.59
663.743	484.19
664.189	458.99
664.635	455.09
665.082	461.09
665.528	458.19
665.974	439.09
666.42	438.39
666.867	438.79
667.313	425.09
667.759	418.69
668.205	410.49
668.651	412.69
669.097	406.39
669.543	430.79
669.989	406.99
670.435	393.39
670.881	388.49
671.327	388.09
671.773	404.29
672.219	416.99
672.665	465.69
673.11	498.79
673.556	539.79
674.002	575.89
674.448	556.79
674.893	469.19
675.339	406.29
675.785	381.99
676.23	361.39
676.676	333.99
677.122	320.89
677.567	310.79
678.013	320.39
678.458	305.79
678.904	311.79
679.349	293.99
679.794	303.39
680.24	294.59
680.685	297.79
681.131	294.29
681.576	296.99
682.021	300.49
682.466	302.09
682.912	291.09
683.357	289.39
683.802	324.89
684.247	349.39
684.692	390.39
685.137	417.79
685.583	456.49
686.028	484.29
686.473	444.59
686.918	378.39
687.363	357.19
687.807	332.69
688.252	310.69
688.697	301.29
689.142	288.89
689.587	282.09
690.032	278.29
690.477	290.79
690.921	298.09
691.366	326.49
691.811	346.39
692.255	374.09
692.7	395.79
693.145	427.49
693.589	568.79
694.034	926.69
694.478	1293.29
694.923	1494.69
695.367	1987.59
695.812	1027.29
696.256	426.59
696.701	323.39
697.145	294.59
697.59	280.29
698.034	267.79
698.478	280.89
698.922	273.79
699.367	272.29
699.811	288.09
700.255	294.99
700.699	326.19
701.143	362.09
701.588	398.39
702.032	440.99
702.476	437.49
702.92	416.99
703.364	410.79
703.808	519.19
704.252	848.19
704.696	1212.29
705.14	1434.69
705.584	1849.79
706.027	914.89
706.471	442.09
706.915	339.89
707.359	300.79
707.803	267.19
708.246	256.69
708.69	265.29
709.134	267.59
709.577	268.49
710.021	266.09
710.465	257.69
710.908	253.09
711.352	253.99
711.795	257.79
712.239	294.99
712.682	317.59
713.126	356.99
713.569	401.39
714.012	314.09
714.456	276.59
714.899	245.29
715.342	234.79
715.786	213.29
716.229	221.89
716.672	217.19
717.115	209.99
717.558	213.59
718.002	214.39
718.445	227.79
718.888	242.99
719.331	236.29
719.774	264.19
720.217	262.59
720.66	235.29
721.103	220.49
721.546	219.49
721.989	212.29
722.432	199.69
722.874	198.09
723.317	193.09
723.76	194.59
724.203	214.39
724.645	265.19
725.088	366.89
725.531	483.39
725.974	549.89
726.416	472.69
726.859	253.99
727.301	205.09
727.744	198.09
728.187	196.89
728.629	205.69
729.071	208.79
729.514	221.69
729.956	231.59
730.399	235.09
730.841	250.19
731.283	228.89
731.726	216.99
732.168	217.59
732.61	218.39
733.053	236.49
733.495	259.69
733.937	295.29
734.379	338.49
734.821	370.69
735.263	447.99
735.705	682.29
736.148	1279.19
736.59	2163.29
737.032	2659.89
737.474	2146.89
737.916	690.19
738.357	364.19
738.799	269.39
739.241	252.99
739.683	236.99
740.125	255.19
740.567	250.79
741.008	267.49
741.45	265.59
741.892	267.39
742.334	293.89
742.775	297.59
743.217	289.89
743.658	225.69
744.1	212.39
744.542	219.89
744.983	261.89
745.425	298.79
745.866	291.89
746.307	240.49
746.749	244.19
747.19	269.29
747.632	376.19
748.073	717.29
748.514	1528.79
748.956	2409.59
749.397	3022.69
749.838	2517.89
750.279	2580.99
750.72	1291.59
751.162	467.09
751.603	270.59
752.044	206.99
752.485	184.19
752.926	176.89
753.367	171.19
753.808	164.19
754.249	164.59
754.69	159.79
755.131	153.29
755.572	152.89
756.013	152.79
756.453	145.69
756.894	155.69
757.335	156.99
757.776	161.29
758.216	168.59
758.657	173.39
759.098	167.69
759.538	190.19
759.979	219.79
760.42	298.19
760.86	561.49
761.301	1472.49
761.741	3674.39
762.182	5633.69
762.622	3966.29
763.063	1120.69
763.503	456.09
763.943	289.69
764.384	276.59
764.824	350.79
765.264	372.39
765.705	261.69
766.145	176.29
766.585	152.49
767.025	156.19
767.465	152.79
767.906	204.49
768.346	269.49
768.786	296.09
769.226	217.39
769.666	261.99
770.106	494.89
770.546	1258.99
770.986	2278.09
771.426	2072.69
771.866	680.39
772.306	279.49
772.745	178.59
773.185	148.79
773.625	148.39
774.065	135.99
774.505	165.09
774.944	247.59
775.384	541.79
775.824	1030.09
776.263	1030.09
776.703	440.29
777.142	187.99
777.582	139.69
778.021	115.29
778.461	112.39
778.9	118.29
779.34	112.59
779.779	99.99
780.219	94.09
780.658	89.89
781.097	91.99
781.537	93.99
781.976	92.59
782.415	90.59
782.855	82.19
783.294	88.29
783.733	87.69
784.172	89.99
784.611	89.69
785.05	98.49
785.489	92.79
785.928	97.29
786.367	102.39
786.806	97.09
787.245	112.29
787.684	116.99
788.123	120.69
788.562	117.49
789.001	107.69
789.44	102.39
789.879	100.19
790.317	102.19
790.756	109.59
791.195	105.69
791.634	122.39
792.072	162.79
792.511	289.39
792.95	812.39
793.388	1815.89
793.827	1700.09
794.265	571.29
794.704	236.79
795.142	154.69
795.581	122.19
796.019	120.69
796.458	101.69
796.896	100.49
797.334	102.49
797.773	129.29
798.211	189.19
798.649	353.19
799.087	844.69
799.526	1338.29
799.964	1704.69
800.402	1757.79
800.84	651.59
801.278	251.69
801.716	152.49
802.154	129.39
802.592	119.79
803.03	118.69
803.468	118.79
803.906	121.69
804.344	126.09
804.782	115.19
805.22	107.99
805.658	112.09
806.096	124.29
806.533	130.99
806.971	137.89
807.409	178.49
807.847	257.39
808.284	532.89
808.722	1532.79
809.16	2819.19
809.597	2605.19
810.035	4613.39
810.472	5134.59
810.91	1812.99
811.347	683.89
811.785	344.39
812.222	214.29
812.66	158.69
813.097	136.29
813.535	115.99
813.972	107.69
814.409	97.49
814.846	87.09
815.284	95.29
815.721	86.09
816.158	86.19
816.595	95.69
817.032	152.59
817.47	170.89
817.907	148.29
818.344	130.29
818.781	93.19
819.218	80.79
819.655	110.19
820.092	166.49
820.529	183.19
820.966	146.49
821.403	111.99
821.839	91.79
822.276	84.89
822.713	98.69
823.15	117.89
823.587	99.49
824.023	124.39
824.46	243.89
824.897	735.59
825.333	1176.29
825.77	496.49
826.206	182.49
826.643	106.19
827.08	82.99
827.516	73.39
827.953	60.39
828.389	67.99
828.825	61.59
829.262	56.19
829.698	49.69
830.135	52.59
830.571	51.29
831.007	55.39
831.443	54.69
831.88	51.79
832.316	53.49
832.752	53.99
833.188	50.39
833.624	51.69
834.06	58.19
834.497	62.29
834.933	54.99
835.369	68.09
835.805	55.69
836.241	59.19
836.677	72.49
837.112	79.39
837.548	85.59
837.984	106.99
838.42	162.99
838.856	408.49
839.292	1267.29
839.727	1996.69
840.163	915.59
840.599	765.49
841.034	1724.79
841.47	1871.39
841.906	670.39
842.341	279.49
842.777	185.29
843.212	263.69
843.648	267.69
844.083	127.29
844.519	76.39
844.954	61.49
845.39	48.49
845.825	46.79
846.261	45.69
846.696	47.09
847.131	43.59
847.566	49.99
848.002	43.29
848.437	49.59
848.872	52.99
849.307	50.49
849.742	75.69
850.177	142.39
850.613	459.69
851.048	758.99
851.483	325.59
851.918	138.99
852.353	70.89
852.788	49.09
853.223	46.39
853.657	48.89
854.092	41.49
854.527	33.79
854.962	33.39
855.397	34.19
855.832	46.59
856.266	34.59
856.701	30.19
857.136	30.39
857.57	36.99
858.005	39.89
858.44	54.49
858.874	37.49
859.309	49.29
859.743	33.69
860.178	36.29
860.612	36.49
861.047	48.59
861.481	54.19
861.915	59.89
862.35	42.99
862.784	23.19
863.218	33.79
863.653	22.99
864.087	40.69
864.521	48.49
864.955	54.69
865.39	127.09
865.824	149.49
866.258	94.19
866.692	142.39
867.126	151.89
867.56	90.49
867.994	45.59
868.428	30.69
868.862	36.49
869.296	51.29
869.73	52.39
870.164	40.49
870.598	45.59
871.031	35.29
871.465	26.19
871.899	25.79
872.333	22.89
872.766	22.59
873.2	11.09
873.634	25.59
874.067	21.69
874.501	20.39
874.935	26.99
875.368	24.19
875.802	21.09
876.235	14.29
876.669	22.19
877.102	18.69
877.535	19.79
877.969	18.09
878.402	14.79
878.836	7.59
879.269	17.79
879.702	17.19
880.135	17.79
880.569	19.59
881.002	24.69
881.435	17.59
881.868	12.79
882.301	18.49
882.734	11.69
883.167	22.19
883.601	18.39
884.034	20.99
884.467	11.89
884.899	14.19
885.332	16.59
885.765	10.79
886.198	8.99
886.631	11.39
887.064	15.79
887.497	21.49
887.929	16.89
888.362	11.59
888.795	6.79
889.228	20.79
889.66	13.29
890.093	10.99
890.526	13.09
890.958	13.99
891.391	12.59
891.823	21.19
892.256	18.79
892.688	12.69
893.121	13.99
893.553	15.99
893.985	16.99
894.418	17.09
894.85	8.49
895.282	12.89
895.715	10.89
896.147	18.59
896.579	14.09
897.011	9.29
897.444	10.19
897.876	11.89
898.308	9.79
898.74	11.19
899.172	9.29
899.604	16.39
900.036	17.49
900.468	6.09
900.9	13.39
901.332	17.39
901.764	9.59
902.196	13.29
902.628	14.49
903.06	15.19
903.491	25.19
903.923	16.99
904.355	20.69
904.787	19.69
905.218	18.89
905.65	19.49
906.082	11.29
906.513	9.99
906.945	13.69
907.376	15.29
907.808	18.19
908.239	19.79
908.671	13.59
909.102	20.89
909.534	21.49
909.965	42.29
910.397	77.09
910.828	269.89
911.259	418.99
911.691	195.59
912.122	92.49
912.553	37.89
912.984	28.49
913.415	24.59
913.847	17.39
914.278	13.59
914.709	10.99
915.14	13.29
915.571	15.99
916.002	11.09
916.433	17.99
916.864	14.99
917.295	12.59
917.726	16.59
918.157	15.19
918.587	19.79
919.018	18.99
919.449	22.09
919.88	20.09
920.311	29.69
920.741	40.19
921.172	140.29
921.603	126.89
922.033	60.29
922.464	37.39
922.895	19.89
923.325	16.79
923.756	14.89
924.186	9.89
924.617	17.29
925.047	31.99
925.478	47.09
925.908	32.89
926.338	21.59
926.769	13.89
927.199	16.69
927.629	7.29
928.06	10.39
928.49	11.09
928.92	14.89
929.35	11.29
929.78	11.19
930.21	0.29
930.641	11.49
931.071	6.79
931.501	2.89
931.931	3.39
932.361	8.69
932.791	-2.31
933.221	11.79
933.651	8.39
934.08	10.59
934.51	25.39
934.94	6.99
935.37	3.89
935.8	4.99
936.229	7.19
936.659	7.59
937.089	5.29
937.519	14.39
937.948	18.29
938.378	14.19
938.807	4.99
939.237	6.09
939.666	9.79
940.096	-3.51
940.525	-0.11
940.955	1.69
941.384	-0.91
941.814	-4.21
942.243	-5.91
942.672	-0.51
943.102	-2.71
943.531	-4.61
943.96	6.09
944.39	8.29
944.819	-1.81
945.248	2.69
945.677	-0.41
946.106	3.69
946.535	4.69
946.964	-3.11
947.393	2.19
947.822	3.09
948.251	-3.91
948.68	5.99
949.109	5.19
949.538	5.49
949.967	0.29
950.396	0.39
950.825	-7.41
951.254	3.39
951.682	-0.51
952.111	3.89
952.54	7.89
952.969	-7.31
953.397	-6.61
953.826	1.79
954.254	-11.81
954.683	3.49
955.112	0.59
955.54	1.39
955.969	4.09
956.397	-2.01
956.826	-4.01
957.254	0.49
957.682	5.39
958.111	3.99
958.539	-2.81
958.967	3.79
959.396	-0.41
959.824	1.49
960.252	1.89
960.68	-5.11
961.109	-5.41
961.537	-6.31
961.965	-0.01
962.393	2.09
962.821	-2.81
963.249	-0.61
963.677	0.19
964.105	8.29
964.533	39.19
964.961	32.79
965.389	18.09
965.817	3.99
966.245	2.79
966.672	-7.11
967.1	-6.41
967.528	0.99
967.956	-3.31
968.383	-5.91
968.811	3.79
969.239	-4.91
969.666	-5.21
970.094	-0.21
970.522	-6.51
970.949	0.09
971.377	0.39
971.804	0.09
972.232	-3.31
972.659	-3.61
973.087	-1.01
973.514	-8.51
973.941	-6.21
974.369	3.79
974.796	-1.91
975.223	-1.91
975.651	-1.51
976.078	-1.31
976.505	-3.71
976.932	1.49
977.359	9.19
977.786	15.09
978.214	0.89
978.641	0.29
979.068	-6.11
979.495	-0.51
979.922	-0.91
980.349	-2.31
980.776	-0.21
981.202	-1.41
981.629	-0.31
982.056	1.89
982.483	-7.11
982.91	7.09
983.337	-4.11
983.763	5.19
984.19	-3.41
984.617	-4.21
985.043	-6.11
985.47	2.39
985.897	-0.51
986.323	-9.01
986.75	1.79
987.176	6.49
987.603	2.49
988.029	1.79
988.456	0.69
988.882	2.49
989.308	-9.11
989.735	-4.41
990.161	3.59
990.587	1.39
991.014	2.79
991.44	3.69
991.866	-0.51
992.292	-9.01
992.719	-2.61
993.145	-0.21
993.571	-10.21
993.997	-5.61
994.423	-1.31
994.849	-1.51
995.275	0.69
995.701	3.59
996.127	-4.21
996.553	3.49
996.979	-0.01
997.405	4.59
997.83	-3.81
998.256	-4.51
998.682	-5.01
999.108	-9.31
999.534	0.39
999.959	-2.71
1000.385	-3.21
1000.811	2.89
1001.236	-7.21
1001.662	-9.41
1002.087	-2.91
1002.513	1.69
1002.938	-0.91
1003.364	-2.31
1003.789	3.79
1004.215	3.59
1004.64	-5.61
1005.066	2.39
1005.491	3.19
1005.916	-0.61
1006.342	-0.11
1006.767	-7.31
1007.192	10.09
1007.617	-4.51
1008.042	-2.01
1008.468	-7.61
1008.893	-4.01
1009.318	-1.01
1009.743	-4.41
1010.168	0.49
1010.593	3.69
1011.018	-1.61
1011.443	-3.11
1011.868	-1.31
1012.293	-8.01
1012.718	-6.61
1013.143	-2.91
1013.567	-0.41
1013.992	-0.11
1014.417	-14.11
1014.842	1.29
1015.267	-7.91
1015.691	-1.11
1016.116	3.79
1016.541	-3.71
1016.965	0.39
1017.39	3.79
1017.814	-1.91
1018.239	-8.31
1018.663	-2.51
1019.088	-9.11
1019.512	0.29
1019.937	-2.91
1020.361	-3.41
1020.785	-8.91
1021.21	1.29
1021.634	-3.81
1022.058	-2.11
1022.483	0.49
1022.907	-4.31
1023.331	0.79
1023.755	-4.31
1024.179	5.89
1024.604	-5.71
1025.028	-6.41
1025.452	-1.91
1025.876	-1.41
1026.3	-4.91
1026.724	-9.01
1027.148	-7.31
1027.572	-9.31
1027.996	0.49
1028.42	-2.81
1028.843	3.99
1029.267	-3.91
1029.691	0.69
1030.115	-6.01
1030.539	-6.51
1030.962	-8.21
1031.386	-9.21
1031.81	0.69
1032.233	2.59
1032.657	0.39
1033.08	-4.71
1033.504	-5.11
1033.927	-4.81
1034.351	-2.21
1034.774	-5.71
1035.198	-1.21
1035.621	-7.41
1036.045	-4.81
1036.468	-2.21
1036.891	-15.71
1037.315	-9.31
1037.738	-4.81
1038.161	-3.31
1038.584	-5.21
1039.008	-7.31
1039.431	-2.61
1039.854	-1.71
1040.277	-9.41
1040.7	-8.61
1041.123	1.19
1041.546	-4.61
1041.969	-2.21
1042.392	-10.31
1042.815	-6.41
1043.238	-1.81
1043.661	3.39
1044.084	-8.01
1044.507	-7.31
1044.93	-5.71
1045.352	-5.11
1045.775	-4.01
1046.198	-3.31
1046.621	-4.11
1047.043	2.79
1047.466	8.99
1047.889	3.09
1048.311	-8.31
1048.734	-0.81
1049.156	-5.61
1049.579	4.79
1050.001	-0.81
1050.424	0.79
1050.846	0.59
1051.269	-4.91
1051.691	-1.91
1052.113	-5.71
1052.536	-1.71
1052.958	-4.01
1053.38	-2.51
1053.802	-9.41
1054.225	5.79
1054.647	-9.81
1055.069	-8.41
1055.491	1.49
1055.913	-11.81
1056.335	-0.61
1056.757	-2.01
1057.179	-3.51
1057.601	-1.51
1058.023	-2.91
1058.445	-5.61
1058.867	-3.71
1059.289	-1.61
1059.711	-6.71
1060.133	-3.91
1060.555	-2.51
1060.976	-12.31
1061.398	-10.01
1061.82	-7.61
1062.241	-5.81
1062.663	-6.01
1063.085	-8.11
1063.506	-3.51
1063.928	-8.41
1064.35	1.39
1064.771	-10.61
1065.193	-0.41
1065.614	-7.01
1066.035	2.09
1066.457	-3.01
1066.878	-2.71
1067.3	-3.31
1067.721	-0.51
1068.142	-6.31
1068.564	-5.31
1068.985	-2.01
1069.406	-7.51
1069.827	-7.31
1070.248	2.19
1070.67	-6.91
1071.091	-8.61
1071.512	-0.51
1071.933	-7.51
1072.354	-6.11
1072.775	-10.51
1073.196	-11.51
1073.617	-6.11
1074.038	-9.61
1074.459	-5.01
1074.88	-6.01
1075.3	0.39
1075.721	-8.31
1076.142	-0.91
1076.563	-3.91
1076.983	-16.91
1077.404	-4.91
1077.825	-15.81
1078.246	-3.81
1078.666	-9.51
1079.087	-5.51
1079.507	-3.01
1079.928	0.79
1080.348	-0.21
1080.769	-5.61
1081.189	-1.11
1081.61	3.09
1082.03	-6.51
1082.451	-8.51
1082.871	-2.31
1083.291	-6.51
1083.711	-13.01
1084.132	-12.01
1084.552	-3.01
1084.972	-4.01
1085.392	-10.01
1085.813	-9.21
1086.233	-4.41
1086.653	-2.81
1087.073	2.49
1087.493	-4.91
1087.913	-3.61
1088.333	-4.41
1088.753	-0.31
1089.173	4.49
1089.593	-2.91
1090.013	0.09
1090.433	-0.51
1090.852	-1.11
1091.272	1.29
1091.692	0.19
1092.112	4.59
1092.531	-11.71
1092.951	-15.11
1093.371	-1.61
1093.79	-1.71
1094.21	-7.41
1094.63	-11.01
1095.049	-2.81
1095.469	-1.41
1095.888	-3.71
1096.308	2.49
1096.727	7.39
1097.146	-5.91
1097.566	-5.61
1097.985	-7.01
1098.405	-4.21
1098.824	-9.31
1099.243	-8.01
1099.662	-11.41
1100.082	-6.11
1100.501	-3.31
1100.92	-6.91
1101.339	-2.91
1101.758	-5.51
