Data from 20171114-ORNL-Ar_H_NY_Subt18_08-07-57-913.txt Node
Date: Tue Nov 14 08:07:57 EST 2017
User: Ender
Spectrometer: HR+D1039
Trigger mode: 0
Integration Time (sec): 2.730000E-2
Scans to average: 10
Electric dark correction enabled: true
Nonlinearity correction enabled: false
Boxcar width: 0
XAxis mode: Wavelengths
Number of Pixels in Spectrum: 2048
>>>>>Begin Spectral Data<<<<<
187.836	-3.33
188.309	-3.33
188.782	-3.33
189.255	-0.43
189.728	-2.73
190.201	6.77
190.674	-1.63
191.147	3.07
191.619	-5.33
192.092	1.57
192.565	-0.83
193.038	1.87
193.511	-1.03
193.984	-4.13
194.456	1.27
194.929	1.97
195.402	-0.03
195.874	2.97
196.347	-0.83
196.82	-6.43
197.292	4.87
197.765	-1.03
198.237	-13.03
198.71	0.47
199.182	-3.13
199.655	1.47
200.127	2.07
200.6	-3.43
201.072	-0.23
201.544	-2.23
202.017	-1.13
202.489	5.87
202.961	-0.53
203.433	-3.13
203.906	-9.93
204.378	-6.53
204.85	-5.83
205.322	-1.43
205.794	2.67
206.266	-6.73
206.739	-10.53
207.211	1.67
207.683	1.17
208.155	-6.13
208.627	-6.03
209.099	-0.93
209.57	-11.23
210.042	-0.13
210.514	-7.63
210.986	-0.23
211.458	-7.53
211.93	-1.73
212.402	1.07
212.873	-8.53
213.345	-13.03
213.817	-14.43
214.288	-4.83
214.76	-16.93
215.232	-2.93
215.703	-7.83
216.175	2.37
216.646	-3.53
217.118	-8.33
217.589	1.27
218.061	2.27
218.532	-2.33
219.004	-0.93
219.475	-4.13
219.946	-5.73
220.418	-10.43
220.889	5.77
221.36	-2.93
221.832	-0.13
222.303	-8.43
222.774	-0.03
223.245	-11.13
223.717	-4.93
224.188	0.97
224.659	-6.63
225.13	-3.93
225.601	-8.83
226.072	2.67
226.543	0.37
227.014	1.97
227.485	-2.03
227.956	-3.33
228.427	-2.53
228.898	2.77
229.369	-1.23
229.839	-4.73
230.31	-6.73
230.781	-1.13
231.252	-9.23
231.722	-6.73
232.193	0.47
232.664	2.57
233.135	1.47
233.605	-0.03
234.076	-6.13
234.546	-0.83
235.017	2.17
235.487	5.97
235.958	-1.53
236.428	-0.73
236.899	9.27
237.369	3.97
237.84	-2.33
238.31	0.57
238.78	-1.53
239.251	-0.23
239.721	5.37
240.191	0.57
240.662	-2.53
241.132	0.77
241.602	2.67
242.072	-0.63
242.542	7.47
243.013	4.47
243.483	2.17
243.953	0.47
244.423	1.57
244.893	-7.93
245.363	-0.23
245.833	2.57
246.303	2.97
246.773	7.07
247.243	3.77
247.712	1.07
248.182	6.87
248.652	5.57
249.122	0.17
249.592	6.77
250.061	20.57
250.531	28.77
251.001	13.07
251.471	14.17
251.94	19.47
252.41	6.47
252.879	2.27
253.349	13.97
253.818	5.77
254.288	7.17
254.757	7.77
255.227	3.47
255.696	1.47
256.166	2.77
256.635	-0.83
257.105	2.97
257.574	3.37
258.043	8.77
258.513	7.67
258.982	17.87
259.451	-0.83
259.92	18.27
260.389	3.57
260.859	13.17
261.328	6.77
261.797	15.67
262.266	1.77
262.735	10.77
263.204	1.57
263.673	-0.33
264.142	9.17
264.611	-0.53
265.08	0.67
265.549	0.47
266.018	2.27
266.487	-1.43
266.955	-2.63
267.424	-0.53
267.893	2.27
268.362	4.17
268.83	5.07
269.299	14.57
269.768	-2.33
270.236	4.87
270.705	-0.73
271.174	8.27
271.642	8.67
272.111	7.37
272.579	8.77
273.048	20.57
273.516	23.47
273.985	21.97
274.453	23.77
274.922	20.57
275.39	10.67
275.858	3.27
276.327	11.07
276.795	20.27
277.263	5.17
277.731	25.17
278.2	46.27
278.668	57.57
279.136	44.17
279.604	18.17
280.072	14.97
280.54	13.47
281.008	4.67
281.477	9.67
281.945	9.97
282.413	15.37
282.881	10.47
283.348	6.97
283.816	13.47
284.284	12.97
284.752	19.07
285.22	9.37
285.688	13.57
286.156	17.27
286.623	41.87
287.091	50.17
287.559	31.57
288.026	14.27
288.494	13.67
288.962	5.87
289.429	7.77
289.897	23.17
290.364	14.77
290.832	10.87
291.3	15.17
291.767	7.27
292.234	15.37
292.702	12.87
293.169	17.17
293.637	12.97
294.104	17.77
294.571	12.27
295.039	6.47
295.506	15.37
295.973	18.77
296.44	15.47
296.908	14.37
297.375	15.17
297.842	13.37
298.309	11.47
298.776	11.57
299.243	20.67
299.71	10.07
300.177	15.27
300.644	22.07
301.111	17.47
301.578	21.97
302.045	13.87
302.512	19.27
302.979	23.67
303.446	18.27
303.913	13.07
304.379	16.87
304.846	24.47
305.313	21.47
305.78	16.87
306.246	19.07
306.713	20.97
307.18	19.87
307.646	27.17
308.113	26.57
308.579	18.77
309.046	18.77
309.512	22.67
309.979	17.87
310.445	21.97
310.912	27.47
311.378	30.57
311.845	27.37
312.311	23.67
312.777	28.67
313.244	24.57
313.71	36.67
314.176	30.37
314.642	25.67
315.109	29.67
315.575	34.37
316.041	37.07
316.507	28.67
316.973	37.17
317.439	35.27
317.905	29.17
318.371	28.77
318.837	35.07
319.303	33.07
319.769	32.07
320.235	33.37
320.701	39.27
321.167	39.47
321.633	32.17
322.099	36.17
322.564	39.97
323.03	37.77
323.496	30.57
323.962	34.27
324.427	34.57
324.893	45.87
325.359	37.57
325.824	34.07
326.29	33.07
326.755	36.77
327.221	42.87
327.686	32.77
328.152	38.97
328.617	42.37
329.083	43.27
329.548	46.17
330.014	42.47
330.479	33.77
330.944	39.37
331.41	35.37
331.875	44.67
332.34	43.67
332.805	43.07
333.271	42.17
333.736	44.97
334.201	50.87
334.666	46.37
335.131	52.67
335.596	48.57
336.061	49.57
336.526	38.77
336.991	42.87
337.456	58.47
337.921	48.97
338.386	39.87
338.851	42.77
339.316	39.87
339.781	43.07
340.246	49.97
340.711	41.17
341.175	43.97
341.64	44.37
342.105	45.87
342.569	49.57
343.034	61.07
343.499	57.07
343.963	47.37
344.428	59.77
344.893	56.17
345.357	58.07
345.822	57.47
346.286	63.57
346.751	66.77
347.215	59.87
347.679	75.87
348.144	86.17
348.608	82.67
349.073	66.57
349.537	76.87
350.001	80.07
350.465	81.17
350.93	74.77
351.394	75.07
351.858	75.67
352.322	81.27
352.786	78.57
353.25	90.07
353.715	111.87
354.179	96.37
354.643	114.67
355.107	117.77
355.571	102.07
356.035	101.77
356.498	109.57
356.962	122.67
357.426	135.27
357.89	115.87
358.354	80.67
358.818	79.67
359.281	74.37
359.745	80.57
360.209	71.47
360.673	68.97
361.136	76.67
361.6	77.67
362.064	76.37
362.527	84.17
362.991	82.67
363.454	85.17
363.918	72.67
364.381	74.27
364.845	81.57
365.308	80.17
365.772	75.37
366.235	74.97
366.698	76.17
367.162	84.47
367.625	83.27
368.088	83.07
368.552	86.37
369.015	83.17
369.478	94.17
369.941	104.87
370.404	97.67
370.867	94.17
371.331	102.27
371.794	113.67
372.257	100.07
372.72	109.67
373.183	102.67
373.646	103.27
374.109	103.07
374.572	104.87
375.035	106.37
375.497	107.27
375.96	97.27
376.423	98.27
376.886	109.97
377.349	106.27
377.811	97.17
378.274	104.27
378.737	101.87
379.199	104.67
379.662	107.07
380.125	121.67
380.587	109.17
381.05	124.07
381.512	131.77
381.975	134.77
382.437	125.17
382.9	127.27
383.362	129.07
383.825	135.77
384.287	141.17
384.75	130.27
385.212	134.27
385.674	134.47
386.136	135.27
386.599	124.87
387.061	126.37
387.523	126.47
387.985	134.27
388.447	140.97
388.91	143.37
389.372	159.57
389.834	151.37
390.296	147.07
390.758	152.97
391.22	169.97
391.682	207.17
392.144	302.57
392.606	226.97
393.068	159.27
393.529	159.77
393.991	154.77
394.453	145.47
394.915	157.97
395.377	194.07
395.838	209.67
396.3	147.57
396.762	132.67
397.224	127.77
397.685	125.87
398.147	127.27
398.608	128.97
399.07	125.57
399.531	129.87
399.993	138.47
400.454	150.87
400.916	145.67
401.377	146.57
401.839	144.77
402.3	148.97
402.762	166.87
403.223	173.87
403.684	173.97
404.145	158.97
404.607	157.97
405.068	161.27
405.529	165.67
405.99	190.27
406.451	173.67
406.913	165.87
407.374	157.97
407.835	159.77
408.296	161.97
408.757	170.47
409.218	180.87
409.679	179.77
410.14	173.27
410.601	176.47
411.062	180.47
411.522	186.27
411.983	188.47
412.444	167.07
412.905	183.67
413.366	183.27
413.826	191.37
414.287	209.27
414.748	260.37
415.208	236.67
415.669	203.27
416.13	200.57
416.59	195.77
417.051	207.97
417.511	215.67
417.972	228.97
418.432	243.27
418.893	276.27
419.353	245.47
419.814	192.57
420.274	174.77
420.734	177.57
421.195	194.97
421.655	198.77
422.115	187.27
422.576	189.67
423.036	189.97
423.496	206.17
423.956	216.47
424.416	225.87
424.876	263.17
425.336	263.17
425.797	264.17
426.257	248.77
426.717	235.27
427.177	228.67
427.637	222.37
428.097	225.67
428.556	236.97
429.016	264.37
429.476	263.77
429.936	266.07
430.396	280.67
430.856	285.77
431.315	313.57
431.775	350.67
432.235	378.57
432.694	345.57
433.154	358.27
433.614	394.37
434.073	341.07
434.533	284.17
434.993	266.27
435.452	277.97
435.912	295.17
436.371	284.17
436.83	280.57
437.29	269.57
437.749	249.77
438.209	241.97
438.668	270.77
439.127	281.87
439.587	259.97
440.046	244.97
440.505	252.97
440.964	278.17
441.424	318.77
441.883	309.27
442.342	259.17
442.801	228.87
443.26	221.87
443.719	216.37
444.178	216.07
444.637	210.07
445.096	216.37
445.555	216.27
446.014	217.27
446.473	222.77
446.932	229.57
447.391	220.87
447.849	221.67
448.308	206.77
448.767	220.57
449.226	233.07
449.685	227.47
450.143	250.07
450.602	232.17
451.061	228.37
451.519	230.57
451.978	227.47
452.436	230.87
452.895	236.47
453.353	240.37
453.812	234.27
454.27	241.97
454.729	234.07
455.187	231.47
455.646	239.07
456.104	245.67
456.562	251.07
457.021	263.67
457.479	257.07
457.937	272.77
458.395	263.27
458.854	245.47
459.312	257.97
459.77	274.07
460.228	251.57
460.686	234.17
461.144	244.07
461.602	238.37
462.06	239.77
462.518	251.47
462.976	249.27
463.434	259.17
463.892	261.57
464.35	272.27
464.808	277.07
465.266	256.77
465.724	265.57
466.181	271.27
466.639	262.57
467.097	283.97
467.555	297.47
468.012	287.37
468.47	299.67
468.928	322.47
469.385	337.07
469.843	337.47
470.3	339.37
470.758	362.87
471.215	374.37
471.673	405.87
472.13	398.77
472.588	412.17
473.045	368.77
473.503	370.87
473.96	392.97
474.417	396.07
474.875	423.37
475.332	467.67
475.789	458.17
476.246	458.77
476.704	485.07
477.161	502.37
477.618	512.97
478.075	551.97
478.532	597.97
478.989	683.97
479.446	794.57
479.903	761.97
480.36	792.67
480.817	848.87
481.274	947.77
481.731	1052.97
482.188	1141.87
482.645	1276.97
483.102	1375.97
483.558	1508.07
484.015	1561.17
484.472	1540.87
484.929	1501.77
485.385	1451.07
485.842	1403.47
486.299	1331.47
486.755	1266.57
487.212	1084.97
487.668	904.07
488.125	829.47
488.582	753.97
489.038	716.37
489.494	689.27
489.951	672.17
490.407	650.17
490.864	629.97
491.32	624.67
491.776	627.07
492.233	632.17
492.689	598.57
493.145	600.77
493.602	581.97
494.058	591.97
494.514	601.27
494.97	620.07
495.426	645.17
495.882	606.87
496.338	594.07
496.794	607.77
497.251	603.97
497.707	621.67
498.163	615.17
498.618	622.77
499.074	624.57
499.53	660.67
499.986	663.87
500.442	632.17
500.898	610.57
501.354	608.97
501.809	622.87
502.265	634.27
502.721	653.97
503.177	647.37
503.632	650.47
504.088	667.97
504.543	701.97
504.999	694.97
505.455	642.27
505.91	612.27
506.366	610.37
506.821	609.97
507.277	613.97
507.732	605.77
508.187	613.27
508.643	613.07
509.098	608.47
509.553	643.07
510.009	648.97
510.464	651.07
510.919	665.47
511.375	675.07
511.83	696.07
512.285	713.17
512.74	737.07
513.195	759.77
513.65	758.47
514.105	747.87
514.56	751.17
515.015	771.97
515.47	783.07
515.925	764.67
516.38	769.57
516.835	770.47
517.29	766.37
517.745	750.47
518.2	738.27
518.655	737.07
519.109	728.37
519.564	711.47
520.019	712.87
520.474	703.17
520.928	708.97
521.383	697.47
521.838	688.17
522.292	684.47
522.747	691.67
523.201	691.07
523.656	683.07
524.11	681.77
524.565	675.67
525.019	671.67
525.474	679.17
525.928	690.67
526.382	669.37
526.837	674.07
527.291	678.97
527.745	672.57
528.2	674.77
528.654	666.77
529.108	659.87
529.562	674.77
530.016	667.67
530.47	675.57
530.925	668.87
531.379	681.07
531.833	680.57
532.287	686.17
532.741	677.57
533.195	688.47
533.649	691.77
534.103	701.27
534.556	684.87
535.01	697.87
535.464	683.17
535.918	694.47
536.372	696.87
536.826	698.87
537.279	685.07
537.733	684.47
538.187	695.07
538.64	684.47
539.094	695.87
539.548	717.07
540.001	703.17
540.455	705.57
540.908	715.77
541.362	723.17
541.815	734.27
542.269	738.97
542.722	742.37
543.175	753.77
543.629	745.77
544.082	769.57
544.536	768.07
544.989	766.27
545.442	775.37
545.895	781.07
546.349	767.47
546.802	768.47
547.255	770.07
547.708	787.67
548.161	794.47
548.614	795.17
549.067	811.27
549.52	807.17
549.973	785.97
550.426	788.47
550.879	771.67
551.332	779.77
551.785	781.57
552.238	787.37
552.691	788.07
553.144	814.07
553.596	828.37
554.049	836.27
554.502	860.97
554.955	886.67
555.407	883.77
555.86	874.57
556.313	869.37
556.765	859.17
557.218	858.77
557.67	860.97
558.123	850.47
558.576	847.77
559.028	851.47
559.48	859.87
559.933	844.67
560.385	819.97
560.838	784.67
561.29	764.67
561.742	757.57
562.195	737.17
562.647	748.87
563.099	755.77
563.551	748.47
564.004	758.87
564.456	750.77
564.908	750.07
565.36	742.07
565.812	720.27
566.264	710.77
566.716	707.67
567.168	690.47
567.62	709.97
568.072	676.17
568.524	689.67
568.976	674.17
569.428	663.07
569.88	663.57
570.332	669.17
570.784	680.07
571.235	668.47
571.687	686.17
572.139	681.87
572.59	692.87
573.042	692.47
573.494	688.37
573.945	687.67
574.397	661.97
574.849	671.67
575.3	675.67
575.752	661.37
576.203	658.07
576.655	665.27
577.106	649.77
577.557	646.37
578.009	652.47
578.46	650.47
578.912	651.87
579.363	633.67
579.814	652.17
580.265	645.37
580.717	658.17
581.168	662.27
581.619	654.17
582.07	665.27
582.521	663.77
582.972	654.67
583.423	656.97
583.875	670.67
584.326	681.77
584.777	729.87
585.227	824.07
585.678	913.57
586.129	1000.97
586.58	1080.57
587.031	1161.67
587.482	1309.77
587.933	1489.47
588.384	1299.57
588.834	968.27
589.285	799.67
589.736	772.57
590.186	769.07
590.637	756.17
591.088	733.07
591.538	726.17
591.989	711.67
592.439	715.07
592.89	703.17
593.34	686.97
593.791	702.67
594.241	694.27
594.692	696.87
595.142	690.27
595.593	679.77
596.043	702.37
596.493	692.67
596.943	702.37
597.394	709.07
597.844	706.37
598.294	713.37
598.744	732.87
599.195	752.97
599.645	793.27
600.095	842.57
600.545	888.97
600.995	943.27
601.445	1005.77
601.895	1061.97
602.345	1110.57
602.795	1078.67
603.245	1043.67
603.695	975.17
604.145	928.77
604.594	880.47
605.044	834.87
605.494	779.87
605.944	742.67
606.393	728.87
606.843	710.87
607.293	719.67
607.743	722.57
608.192	734.07
608.642	743.07
609.091	743.57
609.541	755.47
609.99	754.47
610.44	749.97
610.889	704.67
611.339	683.67
611.788	672.97
612.238	684.67
612.687	700.67
613.136	704.37
613.586	734.17
614.035	728.67
614.484	742.27
614.933	744.17
615.383	745.67
615.832	730.47
616.281	710.47
616.73	676.67
617.179	660.27
617.628	636.07
618.077	622.77
618.526	612.37
618.975	604.67
619.424	597.27
619.873	599.07
620.322	607.67
620.771	589.57
621.22	590.97
621.669	576.97
622.118	590.77
622.567	574.27
623.015	558.27
623.464	562.27
623.913	559.27
624.361	545.17
624.81	541.67
625.259	546.47
625.707	536.57
626.156	544.07
626.604	555.67
627.053	550.57
627.501	560.77
627.95	558.57
628.398	565.17
628.847	558.57
629.295	550.97
629.744	561.77
630.192	559.77
630.64	558.97
631.089	550.87
631.537	575.37
631.985	573.07
632.433	596.07
632.881	611.97
633.33	664.07
633.778	643.77
634.226	562.87
634.674	566.17
635.122	578.47
635.57	578.17
636.018	623.17
636.466	578.57
636.914	549.87
637.362	564.47
637.81	561.97
638.258	566.57
638.705	567.17
639.153	599.77
639.601	602.27
640.049	632.27
640.497	657.67
640.944	679.17
641.392	627.07
641.84	593.97
642.287	569.67
642.735	564.67
643.182	568.87
643.63	564.77
644.078	567.47
644.525	581.87
644.973	578.97
645.42	598.07
645.867	625.57
646.315	628.47
646.762	646.97
647.21	675.77
647.657	694.47
648.104	733.17
648.551	763.17
648.999	829.67
649.446	915.47
649.893	1003.57
650.34	1153.97
650.787	1372.87
651.234	1732.77
651.682	2257.67
652.129	3113.97
652.576	4477.27
653.023	6623.97
653.47	9044.17
653.917	11221.27
654.363	12949.27
654.81	14233.27
655.257	13531.87
655.704	8824.07
656.151	5217.07
656.598	3377.27
657.044	2384.07
657.491	1825.17
657.938	1463.07
658.385	1222.37
658.831	1066.47
659.278	953.87
659.724	841.47
660.171	775.87
660.618	710.57
661.064	674.37
661.511	655.77
661.957	646.67
662.404	637.17
662.85	642.47
663.296	613.67
663.743	548.87
664.189	525.87
664.635	530.67
665.082	510.27
665.528	520.97
665.974	509.77
666.42	508.17
666.867	497.07
667.313	480.67
667.759	471.57
668.205	473.67
668.651	486.17
669.097	486.67
669.543	498.07
669.989	461.27
670.435	442.27
670.881	435.77
671.327	436.67
671.773	461.07
672.219	483.17
672.665	532.37
673.11	581.87
673.556	612.87
674.002	660.07
674.448	641.57
674.893	535.37
675.339	465.97
675.785	420.77
676.23	409.67
676.676	383.17
677.122	376.97
677.567	365.77
678.013	358.47
678.458	349.67
678.904	348.37
679.349	341.97
679.794	339.57
680.24	338.97
680.685	344.07
681.131	339.67
681.576	345.77
682.021	337.37
682.466	344.57
682.912	343.57
683.357	348.07
683.802	374.67
684.247	406.37
684.692	449.37
685.137	483.97
685.583	519.97
686.028	545.57
686.473	507.77
686.918	434.27
687.363	406.17
687.807	379.87
688.252	361.17
688.697	345.17
689.142	329.17
689.587	325.37
690.032	316.87
690.477	332.67
690.921	341.27
691.366	377.37
691.811	389.87
692.255	427.97
692.7	446.67
693.145	500.57
693.589	694.37
694.034	1116.47
694.478	1515.87
694.923	1682.87
695.367	2184.57
695.812	1162.27
696.256	487.97
696.701	359.87
697.145	340.57
697.59	319.47
698.034	312.37
698.478	317.67
698.922	316.47
699.367	327.47
699.811	328.27
700.255	344.57
700.699	383.37
701.143	422.57
701.588	465.97
702.032	503.97
702.476	501.27
702.92	480.47
703.364	483.37
703.808	632.87
704.252	1028.97
704.696	1430.67
705.14	1624.67
705.584	2051.27
706.027	1042.17
706.471	508.27
706.915	386.57
707.359	353.17
707.803	310.07
708.246	299.57
708.69	308.37
709.134	310.17
709.577	304.47
710.021	308.97
710.465	303.07
710.908	297.37
711.352	289.67
711.795	307.27
712.239	342.07
712.682	370.47
713.126	412.57
713.569	457.57
714.012	362.67
714.456	320.47
714.899	291.97
715.342	275.57
715.786	261.17
716.229	247.17
716.672	244.37
717.115	239.27
717.558	249.07
718.002	253.77
718.445	265.97
718.888	281.77
719.331	294.07
719.774	304.37
720.217	300.37
720.66	277.77
721.103	254.57
721.546	249.97
721.989	240.17
722.432	220.47
722.874	227.47
723.317	225.57
723.76	234.87
724.203	255.67
724.645	322.17
725.088	443.57
725.531	555.97
725.974	620.37
726.416	532.37
726.859	292.87
727.301	242.17
727.744	231.47
728.187	235.27
728.629	231.57
729.071	240.67
729.514	255.37
729.956	266.27
730.399	271.27
730.841	278.77
731.283	270.47
731.726	263.67
732.168	255.57
732.61	262.67
733.053	281.97
733.495	307.37
733.937	343.47
734.379	389.77
734.821	422.77
735.263	531.87
735.705	838.47
736.148	1579.17
736.59	2553.17
737.032	2960.47
737.474	2402.47
737.916	796.97
738.357	413.87
738.799	317.37
739.241	298.07
739.683	276.87
740.125	289.47
740.567	297.17
741.008	305.77
741.45	308.87
741.892	313.47
742.334	334.77
742.775	352.87
743.217	333.87
743.658	268.77
744.1	247.17
744.542	266.87
744.983	302.37
745.425	326.57
745.866	332.57
746.307	277.07
746.749	275.87
747.19	324.47
747.632	457.07
748.073	877.57
748.514	1870.57
748.956	2790.27
749.397	3499.97
749.838	2891.27
750.279	2854.97
750.72	1450.07
751.162	533.57
751.603	312.67
752.044	242.37
752.485	209.17
752.926	205.37
753.367	199.87
753.808	190.87
754.249	186.07
754.69	180.17
755.131	183.27
755.572	180.97
756.013	180.47
756.453	178.17
756.894	183.47
757.335	188.27
757.776	193.97
758.216	195.57
758.657	191.27
759.098	196.67
759.538	222.77
759.979	255.57
760.42	369.67
760.86	709.97
761.301	1862.47
761.741	4383.97
762.182	6207.27
762.622	4331.77
763.063	1274.77
763.503	524.97
763.943	349.87
764.384	341.37
764.824	408.87
765.264	436.67
765.705	311.37
766.145	202.77
766.585	181.17
767.025	182.77
767.465	183.67
767.906	244.47
768.346	318.07
768.786	340.97
769.226	265.57
769.666	328.97
770.106	624.57
770.546	1555.37
770.986	2564.77
771.426	2283.97
771.866	777.37
772.306	328.67
772.745	202.17
773.185	172.17
773.625	173.67
774.065	164.07
774.505	202.47
774.944	313.27
775.384	700.27
775.824	1247.67
776.263	1192.17
776.703	511.47
777.142	225.97
777.582	160.37
778.021	143.37
778.461	141.87
778.9	136.87
779.34	130.67
779.779	116.87
780.219	107.47
780.658	105.27
781.097	111.17
781.537	109.47
781.976	108.97
782.415	101.47
782.855	101.07
783.294	101.77
783.733	98.97
784.172	103.47
784.611	102.77
785.05	107.17
785.489	112.37
785.928	115.87
786.367	116.77
786.806	114.47
787.245	127.97
787.684	129.47
788.123	140.47
788.562	132.07
789.001	123.77
789.44	113.87
789.879	110.17
790.317	112.17
790.756	122.87
791.195	125.07
791.634	143.37
792.072	204.17
792.511	369.87
792.95	1009.17
793.388	2092.97
793.827	1860.67
794.265	659.57
794.704	271.77
795.142	177.87
795.581	151.77
796.019	138.77
796.458	129.07
796.896	118.97
797.334	127.17
797.773	150.57
798.211	211.17
798.649	438.87
799.087	1002.57
799.526	1564.27
799.964	1963.97
800.402	1925.97
800.84	730.27
801.278	298.37
801.716	177.07
802.154	151.17
802.592	141.07
803.03	130.87
803.468	131.07
803.906	138.37
804.344	140.37
804.782	141.57
805.22	128.07
805.658	119.57
806.096	145.07
806.533	158.67
806.971	166.17
807.409	220.37
807.847	309.37
808.284	666.47
808.722	1868.47
809.16	3199.57
809.597	3083.47
810.035	5317.77
810.472	5525.47
810.91	2017.27
811.347	773.97
811.785	392.87
812.222	248.77
812.66	188.37
813.097	159.87
813.535	134.77
813.972	125.57
814.409	117.17
814.846	106.77
815.284	109.17
815.721	103.67
816.158	101.07
816.595	116.47
817.032	174.57
817.47	198.77
817.907	160.77
818.344	150.77
818.781	123.77
819.218	97.87
819.655	123.87
820.092	178.87
820.529	207.07
820.966	168.67
821.403	135.57
821.839	106.07
822.276	109.47
822.713	121.27
823.15	131.87
823.587	114.37
824.023	148.77
824.46	301.07
824.897	897.97
825.333	1304.97
825.77	561.27
826.206	223.17
826.643	132.07
827.08	100.07
827.516	83.97
827.953	73.77
828.389	77.67
828.825	73.67
829.262	62.77
829.698	63.47
830.135	66.77
830.571	60.27
831.007	63.97
831.443	65.07
831.88	61.97
832.316	61.67
832.752	62.27
833.188	64.87
833.624	63.37
834.06	64.97
834.497	68.67
834.933	63.37
835.369	73.97
835.805	64.77
836.241	72.17
836.677	79.37
837.112	83.67
837.548	102.87
837.984	130.97
838.42	195.27
838.856	493.67
839.292	1507.37
839.727	2218.37
840.163	1042.77
840.599	920.47
841.034	2002.17
841.47	2028.17
841.906	756.17
842.341	326.37
842.777	221.87
843.212	319.07
843.648	310.97
844.083	155.47
844.519	93.27
844.954	79.57
845.39	61.47
845.825	55.87
846.261	58.07
846.696	48.27
847.131	49.97
847.566	57.17
848.002	51.47
848.437	57.17
848.872	56.37
849.307	63.97
849.742	79.87
850.177	180.37
850.613	549.97
851.048	846.57
851.483	368.37
851.918	153.17
852.353	88.87
852.788	54.07
853.223	54.77
853.657	51.77
854.092	42.97
854.527	42.27
854.962	36.87
855.397	45.57
855.832	50.17
856.266	35.57
856.701	37.47
857.136	38.47
857.57	37.97
858.005	44.97
858.44	54.17
858.874	46.87
859.309	43.57
859.743	37.07
860.178	45.07
860.612	42.37
861.047	52.87
861.481	62.97
861.915	64.77
862.35	48.97
862.784	36.57
863.218	39.57
863.653	25.97
864.087	45.07
864.521	49.27
864.955	72.27
865.39	154.67
865.824	168.87
866.258	107.97
866.692	158.77
867.126	163.57
867.56	97.37
867.994	47.87
868.428	32.97
868.862	40.07
869.296	52.17
869.73	54.77
870.164	46.67
870.598	42.87
871.031	31.97
871.465	27.07
871.899	25.27
872.333	24.97
872.766	23.67
873.2	20.67
873.634	32.37
874.067	23.07
874.501	27.57
874.935	31.67
875.368	30.37
875.802	27.67
876.235	23.27
876.669	25.07
877.102	22.57
877.535	27.47
877.969	19.37
878.402	27.57
878.836	18.17
879.269	29.27
879.702	19.27
880.135	18.27
880.569	19.07
881.002	23.67
881.435	18.67
881.868	16.37
882.301	23.07
882.734	14.07
883.167	27.07
883.601	20.87
884.034	25.17
884.467	8.77
884.899	13.17
885.332	16.57
885.765	18.47
886.198	16.97
886.631	18.17
887.064	23.77
887.497	23.07
887.929	27.67
888.362	14.67
888.795	12.77
889.228	19.97
889.66	21.17
890.093	15.67
890.526	13.67
890.958	13.77
891.391	21.07
891.823	24.37
892.256	17.07
892.688	12.67
893.121	11.37
893.553	17.17
893.985	20.87
894.418	19.27
894.85	13.67
895.282	9.47
895.715	14.17
896.147	11.37
896.579	16.67
897.011	14.77
897.444	13.67
897.876	16.17
898.308	17.57
898.74	21.47
899.172	16.67
899.604	25.97
900.036	18.17
900.468	13.47
900.9	10.37
901.332	15.97
901.764	15.97
902.196	18.47
902.628	22.27
903.06	14.07
903.491	21.67
903.923	17.27
904.355	23.57
904.787	27.27
905.218	20.37
905.65	21.67
906.082	10.57
906.513	14.37
906.945	15.17
907.376	9.87
907.808	16.77
908.239	18.17
908.671	16.37
909.102	19.57
909.534	24.67
909.965	46.67
910.397	93.67
910.828	306.07
911.259	453.97
911.691	210.47
912.122	107.17
912.553	51.77
912.984	34.47
913.415	25.47
913.847	23.17
914.278	16.77
914.709	17.67
915.14	15.07
915.571	18.27
916.002	6.77
916.433	12.87
916.864	19.37
917.295	7.27
917.726	18.47
918.157	16.17
918.587	26.37
919.018	17.67
919.449	19.07
919.88	17.97
920.311	31.27
920.741	49.87
921.172	165.47
921.603	139.47
922.033	69.87
922.464	40.97
922.895	23.77
923.325	21.47
923.756	11.87
924.186	20.67
924.617	28.37
925.047	44.27
925.478	54.07
925.908	45.67
926.338	25.77
926.769	16.97
927.199	15.27
927.629	10.07
928.06	18.57
928.49	11.37
928.92	13.57
929.35	11.77
929.78	9.37
930.21	5.67
930.641	11.17
931.071	8.87
931.501	11.37
931.931	13.67
932.361	10.27
932.791	7.87
933.221	6.37
933.651	5.77
934.08	20.27
934.51	30.37
934.94	14.07
935.37	11.07
935.8	10.37
936.229	10.67
936.659	11.47
937.089	0.37
937.519	19.47
937.948	17.87
938.378	15.87
938.807	8.07
939.237	7.97
939.666	7.27
940.096	-4.43
940.525	-3.53
940.955	1.37
941.384	3.07
941.814	-7.43
942.243	-0.13
942.672	-2.03
943.102	-4.93
943.531	0.17
943.96	2.27
944.39	-1.73
944.819	1.07
945.248	3.37
945.677	-2.63
946.106	-2.23
946.535	2.47
946.964	4.57
947.393	4.57
947.822	1.17
948.251	-1.93
948.68	2.77
949.109	2.17
949.538	3.27
949.967	1.57
950.396	4.67
950.825	-0.33
951.254	4.37
951.682	-5.43
952.111	-0.93
952.54	1.27
952.969	-4.13
953.397	-5.53
953.826	1.97
954.254	-5.73
954.683	1.77
955.112	-2.73
955.54	-2.23
955.969	1.37
956.397	-2.73
956.826	0.07
957.254	7.47
957.682	2.07
958.111	1.07
958.539	2.47
958.967	-0.83
959.396	-0.53
959.824	3.87
960.252	-1.83
960.68	-7.73
961.109	-6.33
961.537	-5.63
961.965	-3.33
962.393	0.77
962.821	-1.83
963.249	0.57
963.677	0.47
964.105	-0.53
964.533	43.67
964.961	39.57
965.389	20.27
965.817	9.87
966.245	4.97
966.672	1.87
967.1	-6.03
967.528	2.27
967.956	-1.43
968.383	1.07
968.811	-4.83
969.239	-1.63
969.666	-6.83
970.094	-5.63
970.522	-1.33
970.949	-3.53
971.377	-1.33
971.804	-9.13
972.232	-3.63
972.659	1.77
973.087	-3.83
973.514	-2.33
973.941	-8.03
974.369	2.27
974.796	2.57
975.223	-0.43
975.651	-1.93
976.078	-0.03
976.505	2.47
976.932	5.27
977.359	16.57
977.786	12.77
978.214	0.07
978.641	-2.83
979.068	-3.33
979.495	-3.83
979.922	-1.73
980.349	-4.83
980.776	10.97
981.202	-5.43
981.629	5.97
982.056	3.07
982.483	-7.33
982.91	-1.53
983.337	-6.83
983.763	1.67
984.19	-7.73
984.617	-5.53
985.043	-3.33
985.47	-1.73
985.897	-8.43
986.323	-4.43
986.75	7.57
987.176	0.57
987.603	1.37
988.029	-2.63
988.456	-5.13
988.882	2.87
989.308	-4.03
989.735	-6.83
990.161	-3.93
990.587	-2.13
991.014	0.07
991.44	7.57
991.866	-2.73
992.292	-9.03
992.719	-5.63
993.145	-3.03
993.571	-7.53
993.997	-6.63
994.423	0.67
994.849	-4.43
995.275	-1.63
995.701	1.17
996.127	-0.53
996.553	-5.53
996.979	-0.83
997.405	-2.13
997.83	-7.93
998.256	-4.33
998.682	-7.63
999.108	-10.53
999.534	-7.43
999.959	-2.73
1000.385	-2.53
1000.811	-1.73
1001.236	-8.53
1001.662	-7.13
1002.087	-8.73
1002.513	0.47
1002.938	1.47
1003.364	-0.73
1003.789	-0.83
1004.215	0.77
1004.64	-4.93
1005.066	1.37
1005.491	-0.13
1005.916	0.27
1006.342	-9.53
1006.767	-7.53
1007.192	4.57
1007.617	0.67
1008.042	-10.73
1008.468	-5.03
1008.893	-3.33
1009.318	1.17
1009.743	2.67
1010.168	-3.93
1010.593	-1.43
1011.018	-11.93
1011.443	-2.93
1011.868	-4.63
1012.293	-3.93
1012.718	-4.73
1013.143	0.47
1013.567	0.67
1013.992	-3.03
1014.417	-8.43
1014.842	2.47
1015.267	-4.63
1015.691	-10.23
1016.116	6.07
1016.541	0.07
1016.965	2.07
1017.39	0.97
1017.814	-0.33
1018.239	-1.43
1018.663	-11.63
1019.088	-11.53
1019.512	-3.43
1019.937	0.67
1020.361	-7.43
1020.785	-10.23
1021.21	-3.83
1021.634	-0.33
1022.058	0.57
1022.483	6.07
1022.907	-1.93
1023.331	0.77
1023.755	-3.63
1024.179	-1.53
1024.604	-12.73
1025.028	-10.23
1025.452	-4.53
1025.876	-2.53
1026.3	0.27
1026.724	-6.13
1027.148	-5.03
1027.572	-4.23
1027.996	-3.13
1028.42	-0.43
1028.843	-8.93
1029.267	-4.53
1029.691	-7.73
1030.115	-3.43
1030.539	-8.53
1030.962	-4.03
1031.386	-5.23
1031.81	-7.53
1032.233	1.07
1032.657	-7.53
1033.08	2.37
1033.504	-5.23
1033.927	-2.03
1034.351	-2.23
1034.774	-6.73
1035.198	-4.43
1035.621	-6.03
1036.045	-9.23
1036.468	0.87
1036.891	-14.23
1037.315	-7.83
1037.738	-5.63
1038.161	2.37
1038.584	-5.53
1039.008	-4.23
1039.431	-2.43
1039.854	-4.33
1040.277	-8.33
1040.7	-10.33
1041.123	2.57
1041.546	-10.23
1041.969	-6.73
1042.392	-10.13
1042.815	2.57
1043.238	4.67
1043.661	1.37
1044.084	-10.93
1044.507	-5.03
1044.93	-3.73
1045.352	-2.83
1045.775	-1.93
1046.198	-3.33
1046.621	2.27
1047.043	-0.43
1047.466	9.17
1047.889	2.07
1048.311	-3.73
1048.734	-9.83
1049.156	-2.53
1049.579	-0.73
1050.001	-2.33
1050.424	-0.43
1050.846	-1.23
1051.269	0.77
1051.691	-7.63
1052.113	-3.93
1052.536	-9.33
1052.958	-1.43
1053.38	-9.73
1053.802	-11.83
1054.225	2.37
1054.647	-11.63
1055.069	-5.43
1055.491	-6.23
1055.913	-3.93
1056.335	0.17
1056.757	-5.73
1057.179	-9.13
1057.601	-9.23
1058.023	-6.53
1058.445	-5.73
1058.867	-4.33
1059.289	-4.73
1059.711	-8.23
1060.133	-6.03
1060.555	-6.93
1060.976	-8.23
1061.398	-10.33
1061.82	-3.53
1062.241	-7.63
1062.663	-11.33
1063.085	-4.63
1063.506	4.87
1063.928	-5.43
1064.35	-4.73
1064.771	-15.43
1065.193	-10.43
1065.614	-8.43
1066.035	-7.43
1066.457	-4.73
1066.878	-1.03
1067.3	-3.33
1067.721	-5.03
1068.142	-5.53
1068.564	-5.83
1068.985	-7.23
1069.406	-5.93
1069.827	-4.83
1070.248	-0.03
1070.67	-7.63
1071.091	-4.93
1071.512	-0.23
1071.933	-6.73
1072.354	-11.53
1072.775	-8.63
1073.196	-10.63
1073.617	-2.23
1074.038	-5.13
1074.459	-4.23
1074.88	-3.93
1075.3	-3.53
1075.721	-9.63
1076.142	-1.23
1076.563	-1.03
1076.983	-9.03
1077.404	-12.53
1077.825	-7.03
1078.246	-1.13
1078.666	-9.93
1079.087	-2.13
1079.507	-2.03
1079.928	-3.73
1080.348	-5.03
1080.769	-6.33
1081.189	-6.33
1081.61	-5.93
1082.03	-6.93
1082.451	2.57
1082.871	-1.83
1083.291	-6.53
1083.711	-11.43
1084.132	-5.13
1084.552	-3.23
1084.972	-9.23
1085.392	-12.33
1085.813	-10.83
1086.233	-6.13
1086.653	-2.63
1087.073	0.77
1087.493	-8.43
1087.913	-3.23
1088.333	-3.63
1088.753	-3.83
1089.173	-3.33
1089.593	-6.53
1090.013	-2.73
1090.433	-1.93
1090.852	-0.63
1091.272	-3.23
1091.692	-4.03
1092.112	-1.43
1092.531	-6.03
1092.951	-8.03
1093.371	-3.03
1093.79	3.77
1094.21	-5.93
1094.63	-3.93
1095.049	-11.03
1095.469	-7.43
1095.888	-6.93
1096.308	-0.53
1096.727	3.47
1097.146	-7.73
1097.566	1.87
1097.985	-2.93
1098.405	-1.53
1098.824	-7.63
1099.243	-6.93
1099.662	-13.53
1100.082	-6.63
1100.501	-3.73
1100.92	-12.33
1101.339	-3.63
1101.758	-12.53
