Data from 20171114-ORNL-Ar_H_NY_Subt18_08-06-44-210.txt Node
Date: Tue Nov 14 08:06:44 EST 2017
User: Ender
Spectrometer: HR+D1039
Trigger mode: 0
Integration Time (sec): 2.730000E-2
Scans to average: 10
Electric dark correction enabled: true
Nonlinearity correction enabled: false
Boxcar width: 0
XAxis mode: Wavelengths
Number of Pixels in Spectrum: 2048
>>>>>Begin Spectral Data<<<<<
187.836	-8.5
188.309	-8.5
188.782	-8.5
189.255	-2.1
189.728	-2.6
190.201	0.6
190.674	0.5
191.147	7.2
191.619	-9.3
192.092	-0.2
192.565	5.3
193.038	-0.9
193.511	0.9
193.984	-0
194.456	3.8
194.929	3.6
195.402	0.1
195.874	1.6
196.347	0.7
196.82	-9.2
197.292	5
197.765	-4.4
198.237	-10.5
198.71	-3.2
199.182	-0.4
199.655	2.6
200.127	-3.3
200.6	-2.2
201.072	-2.9
201.544	-4.2
202.017	-5.3
202.489	2.4
202.961	-0.9
203.433	-2.6
203.906	-9
204.378	-6.6
204.85	-6
205.322	-10.1
205.794	-1.5
206.266	-3.5
206.739	-11.7
207.211	-0.6
207.683	-5.5
208.155	-3.1
208.627	-9.8
209.099	-3.4
209.57	-6.9
210.042	-3.4
210.514	-1
210.986	-6
211.458	-7.5
211.93	-3.4
212.402	3.3
212.873	-4.3
213.345	-5.9
213.817	-17.1
214.288	-5
214.76	-6.4
215.232	-5.3
215.703	3.3
216.175	-5
216.646	-4
217.118	-6.4
217.589	-5.6
218.061	-1.1
218.532	-7.2
219.004	-3.5
219.475	-2.9
219.946	-4.9
220.418	-4.5
220.889	9.1
221.36	3.9
221.832	-1.9
222.303	-5.8
222.774	-3.8
223.245	-12.5
223.717	-9.9
224.188	-7.3
224.659	-7.1
225.13	-9.9
225.601	-9.7
226.072	-5.2
226.543	-8.7
227.014	-6
227.485	-6.5
227.956	-8.3
228.427	-1.6
228.898	0.6
229.369	-3.1
229.839	-11.3
230.31	-10
230.781	-0
231.252	-0
231.722	-2
232.193	-6
232.664	1
233.135	-1
233.605	-1.4
234.076	-12.4
234.546	1
235.017	0.4
235.487	-3.9
235.958	-4.9
236.428	-8.3
236.899	-2.1
237.369	1.9
237.84	-5.1
238.31	7
238.78	-4
239.251	-8.8
239.721	-1.3
240.191	-5.3
240.662	-0.9
241.132	-2.8
241.602	-3.5
242.072	1
242.542	1.8
243.013	-7
243.483	0.8
243.953	-5
244.423	-1.5
244.893	-6
245.363	0.8
245.833	0.4
246.303	-4.8
246.773	1.3
247.243	-2
247.712	-0.3
248.182	-0.1
248.652	-2.7
249.122	-9.7
249.592	-2.4
250.061	1.3
250.531	9.7
251.001	-3.9
251.471	10.6
251.94	6.1
252.41	-0.6
252.879	-1.7
253.349	8.4
253.818	2
254.288	2.3
254.757	-0.7
255.227	-1.2
255.696	0.7
256.166	-3.2
256.635	3.8
257.105	1.9
257.574	2.4
258.043	-0.6
258.513	-2.7
258.982	-1.4
259.451	0.9
259.92	4.4
260.389	-0.5
260.859	8.9
261.328	-1.8
261.797	7.3
262.266	3.3
262.735	5.8
263.204	3
263.673	0.2
264.142	2.3
264.611	-2.4
265.08	-3.6
265.549	2.4
266.018	1.5
266.487	-0.2
266.955	-2.3
267.424	0.8
267.893	-0.9
268.362	-3.5
268.83	-0.4
269.299	14.4
269.768	1.4
270.236	-1.3
270.705	1.2
271.174	1.9
271.642	4.3
272.111	1
272.579	4.1
273.048	4.9
273.516	6.3
273.985	1.8
274.453	5.8
274.922	9.5
275.39	2.3
275.858	1.3
276.327	9.1
276.795	14.6
277.263	12.9
277.731	11.9
278.2	5.5
278.668	6.7
279.136	13.9
279.604	5.2
280.072	11.6
280.54	6.6
281.008	4.3
281.477	11.8
281.945	8.6
282.413	9.7
282.881	14.9
283.348	4.5
283.816	8.2
284.284	18.1
284.752	14.8
285.22	12.9
285.688	8.1
286.156	9.8
286.623	14.7
287.091	8.9
287.559	13.5
288.026	5.4
288.494	18.1
288.962	5.2
289.429	8.6
289.897	16.8
290.364	13.2
290.832	14.4
291.3	19.9
291.767	20.7
292.234	17.9
292.702	12.3
293.169	14.7
293.637	20.9
294.104	16.9
294.571	8.8
295.039	7.8
295.506	7.6
295.973	17.6
296.44	9.8
296.908	15.9
297.375	16.1
297.842	11.8
298.309	10.2
298.776	12.2
299.243	18.8
299.71	13.3
300.177	20
300.644	20.4
301.111	23.8
301.578	18
302.045	16.6
302.512	25.4
302.979	21.8
303.446	21.1
303.913	17.9
304.379	16.6
304.846	22.6
305.313	28
305.78	24.6
306.246	28.4
306.713	25.6
307.18	23.8
307.646	25.8
308.113	23.6
308.579	22.1
309.046	24.6
309.512	27.8
309.979	16.8
310.445	34
310.912	29
311.378	27.5
311.845	24.6
312.311	33.4
312.777	25.5
313.244	28.2
313.71	32.5
314.176	28.4
314.642	31.6
315.109	27.2
315.575	31.2
316.041	32.7
316.507	31.3
316.973	34.1
317.439	28.7
317.905	34.9
318.371	38.1
318.837	29.4
319.303	34.7
319.769	29.3
320.235	33.8
320.701	39.7
321.167	34.3
321.633	21.6
322.099	31.2
322.564	35.3
323.03	32.2
323.496	35.3
323.962	41.3
324.427	31.5
324.893	41.7
325.359	36
325.824	30.8
326.29	30
326.755	33.7
327.221	35.4
327.686	36.2
328.152	44.5
328.617	37.9
329.083	46.8
329.548	54.1
330.014	47.8
330.479	42
330.944	39.4
331.41	41.1
331.875	41.8
332.34	41
332.805	42
333.271	44.4
333.736	35.7
334.201	45.9
334.666	47.6
335.131	50.9
335.596	48
336.061	43.4
336.526	42.4
336.991	44.7
337.456	58.2
337.921	51.2
338.386	46.1
338.851	46.6
339.316	49.1
339.781	51.9
340.246	51.4
340.711	53
341.175	52.8
341.64	46.1
342.105	51.2
342.569	55.8
343.034	56.2
343.499	55.8
343.963	50.7
344.428	60.8
344.893	55.6
345.357	61.8
345.822	67.1
346.286	65
346.751	68.8
347.215	68.7
347.679	76.3
348.144	99.2
348.608	79.9
349.073	65.2
349.537	72.1
350.001	79.6
350.465	85.9
350.93	82.8
351.394	74.5
351.858	72.4
352.322	87.5
352.786	82
353.25	96.2
353.715	109.8
354.179	96.8
354.643	118.6
355.107	120.7
355.571	87.6
356.035	98.6
356.498	107.9
356.962	113.9
357.426	122.3
357.89	109.8
358.354	94.6
358.818	87.2
359.281	78.4
359.745	71.1
360.209	77.9
360.673	72.2
361.136	81.9
361.6	83.3
362.064	82
362.527	83.8
362.991	88.5
363.454	79.1
363.918	73.6
364.381	76.7
364.845	87.5
365.308	82.2
365.772	90.3
366.235	84
366.698	83
367.162	86.3
367.625	82
368.088	90.6
368.552	87.5
369.015	77
369.478	93.8
369.941	98.9
370.404	91.5
370.867	97
371.331	97.1
371.794	108.6
372.257	94.5
372.72	104.7
373.183	104.2
373.646	92
374.109	99.6
374.572	96
375.035	100.5
375.497	103.8
375.96	105
376.423	106.3
376.886	116.4
377.349	101
377.811	99.3
378.274	102.1
378.737	105.4
379.199	110.3
379.662	105.5
380.125	106.6
380.587	110
381.05	115.1
381.512	117.3
381.975	126.9
382.437	121.1
382.9	119.7
383.362	128.9
383.825	126.7
384.287	127.4
384.75	115.4
385.212	128
385.674	143.3
386.136	131
386.599	122.2
387.061	122.8
387.523	117.8
387.985	124.9
388.447	132.2
388.91	132.6
389.372	133.6
389.834	133.3
390.296	137.5
390.758	131.8
391.22	133.8
391.682	151.4
392.144	161.1
392.606	145.3
393.068	144.8
393.529	155.4
393.991	140.3
394.453	133.6
394.915	134
395.377	139
395.838	141.7
396.3	137.7
396.762	146.1
397.224	133.4
397.685	136.4
398.147	141.9
398.608	137.2
399.07	130.6
399.531	134.7
399.993	148.4
400.454	160.3
400.916	153.6
401.377	146.8
401.839	158.6
402.3	156.1
402.762	172.7
403.223	184
403.684	175.9
404.145	170.6
404.607	165.2
405.068	168.9
405.529	168
405.99	192.2
406.451	181.4
406.913	175.3
407.374	172.6
407.835	172.4
408.296	178.2
408.757	175.4
409.218	186.4
409.679	184.4
410.14	184.5
410.601	187.3
411.062	185
411.522	184.3
411.983	181.5
412.444	181.1
412.905	196.1
413.366	194.8
413.826	206.7
414.287	225.7
414.748	281.7
415.208	262.8
415.669	225.6
416.13	213
416.59	215.1
417.051	226.3
417.511	231.8
417.972	248.4
418.432	262.9
418.893	304.7
419.353	263.6
419.814	214.3
420.274	198.1
420.734	197.3
421.195	201.1
421.655	199.3
422.115	200.4
422.576	199.9
423.036	201.8
423.496	214.4
423.956	228.9
424.416	245.8
424.876	277.5
425.336	274.5
425.797	278.2
426.257	269
426.717	262.1
427.177	242.3
427.637	226.6
428.097	247.3
428.556	252.2
429.016	277.9
429.476	268.5
429.936	280.1
430.396	279.5
430.856	300.6
431.315	313.2
431.775	353
432.235	381.7
432.694	358.9
433.154	369.6
433.614	406.6
434.073	345.2
434.533	298.6
434.993	275.1
435.452	295.2
435.912	305.1
436.371	289.5
436.83	291
437.29	276
437.749	258.3
438.209	259.5
438.668	290.9
439.127	299
439.587	269.4
440.046	255
440.505	275.2
440.964	283.6
441.424	338.5
441.883	320.1
442.342	277.9
442.801	237.1
443.26	238.4
443.719	233.3
444.178	230.5
444.637	226.4
445.096	236.3
445.555	242.7
446.014	237.9
446.473	247.2
446.932	247.8
447.391	247.7
447.849	241.8
448.308	236.2
448.767	239.1
449.226	251.7
449.685	256.8
450.143	265.9
450.602	248.6
451.061	245
451.519	252
451.978	245.7
452.436	248.6
452.895	255.3
453.353	275.3
453.812	257.5
454.27	254.9
454.729	260.4
455.187	257.2
455.646	262.1
456.104	267
456.562	285.5
457.021	279.8
457.479	275.7
457.937	294.3
458.395	282.8
458.854	268.9
459.312	275.5
459.77	298.1
460.228	273.5
460.686	257.7
461.144	276.8
461.602	262.6
462.06	261.4
462.518	275.3
462.976	274.1
463.434	273.4
463.892	285.9
464.35	295.3
464.808	310.3
465.266	290.2
465.724	282.6
466.181	287.2
466.639	296.8
467.097	315.7
467.555	321
468.012	331
468.47	326
468.928	347.8
469.385	361.2
469.843	385.5
470.3	371
470.758	378.3
471.215	403.3
471.673	434.2
472.13	424.5
472.588	439.6
473.045	406.6
473.503	396.6
473.96	422.6
474.417	435.2
474.875	462.3
475.332	503.4
475.789	480.7
476.246	497.4
476.704	518.1
477.161	539.2
477.618	547.3
478.075	591.7
478.532	641.1
478.989	719.1
479.446	837.7
479.903	792
480.36	817
480.817	870.7
481.274	969.9
481.731	1064.4
482.188	1135.2
482.645	1273.6
483.102	1346.4
483.558	1476.6
484.015	1518.1
484.472	1480.4
484.929	1450.5
485.385	1416.4
485.842	1381.6
486.299	1338.6
486.755	1284.1
487.212	1121
487.668	938.3
488.125	880.3
488.582	800.4
489.038	770.5
489.494	731
489.951	705.7
490.407	705.5
490.864	670.3
491.32	672.6
491.776	672.1
492.233	684.5
492.689	644.2
493.145	647.2
493.602	634.3
494.058	650.1
494.514	651
494.97	668.6
495.426	682.9
495.882	666.1
496.338	650.6
496.794	657.5
497.251	650.8
497.707	663.9
498.163	669.6
498.618	674.3
499.074	673.8
499.53	700.4
499.986	706.2
500.442	681.2
500.898	665
501.354	647.3
501.809	656
502.265	661.1
502.721	672
503.177	669.4
503.632	675.5
504.088	685.2
504.543	707.5
504.999	728.7
505.455	693.6
505.91	680.2
506.366	683.8
506.821	676.5
507.277	674.2
507.732	671
508.187	672.5
508.643	679
509.098	682.7
509.553	708.3
510.009	712.9
510.464	714
510.919	737.9
511.375	740.9
511.83	752.2
512.285	770.7
512.74	812.4
513.195	811.6
513.65	809.2
514.105	809.3
514.56	809.6
515.015	824.9
515.47	846.5
515.925	825.2
516.38	836.3
516.835	837.7
517.29	824.7
517.745	824
518.2	817.8
518.655	796.4
519.109	794
519.564	789.3
520.019	774.5
520.474	767.3
520.928	769.4
521.383	767.7
521.838	759.6
522.292	751.7
522.747	757.3
523.201	739.9
523.656	732.1
524.11	738
524.565	732.8
525.019	731.8
525.474	731.4
525.928	732.4
526.382	740.9
526.837	739.8
527.291	747.4
527.745	740.7
528.2	751.3
528.654	728
529.108	738.3
529.562	736
530.016	741.1
530.47	738.5
530.925	723.9
531.379	735.3
531.833	740.5
532.287	747.4
532.741	746.8
533.195	753.2
533.649	748.9
534.103	760.6
534.556	754.5
535.01	747.6
535.464	737
535.918	750.4
536.372	760.8
536.826	763.7
537.279	746.7
537.733	749.5
538.187	748.3
538.64	764.9
539.094	763.9
539.548	778.1
540.001	767
540.455	758.8
540.908	773.2
541.362	781.5
541.815	792
542.269	796.8
542.722	799.5
543.175	809.9
543.629	810.6
544.082	833.1
544.536	836.3
544.989	834.5
545.442	844.6
545.895	838.3
546.349	843.8
546.802	844.3
547.255	842.6
547.708	856.6
548.161	862.8
548.614	875.4
549.067	884.9
549.52	871.4
549.973	866.3
550.426	861.2
550.879	839.9
551.332	864.2
551.785	857.7
552.238	858
552.691	873.8
553.144	886.4
553.596	901.2
554.049	911.2
554.502	946.9
554.955	965.4
555.407	960.2
555.86	966.5
556.313	947.1
556.765	928.7
557.218	929.4
557.67	929.7
558.123	926.1
558.576	909.7
559.028	927
559.48	938.4
559.933	914.6
560.385	901.3
560.838	852.4
561.29	834.9
561.742	829.7
562.195	807.8
562.647	810.8
563.099	818.4
563.551	811.9
564.004	835.6
564.456	823.3
564.908	809.5
565.36	786.9
565.812	784.6
566.264	761.3
566.716	758.7
567.168	750.6
567.62	751.8
568.072	732.6
568.524	726
568.976	730.2
569.428	724.5
569.88	707.8
570.332	724.3
570.784	731.7
571.235	733.5
571.687	735.6
572.139	738.5
572.59	757.5
573.042	757.9
573.494	749.8
573.945	747.2
574.397	721.6
574.849	728.6
575.3	737.2
575.752	733.9
576.203	715.5
576.655	719.5
577.106	701.1
577.557	701.8
578.009	707.8
578.46	704
578.912	699.8
579.363	707.6
579.814	708
580.265	697
580.717	702.3
581.168	712.8
581.619	711.6
582.07	718.9
582.521	705.7
582.972	707.6
583.423	712.9
583.875	709.9
584.326	717.9
584.777	726.6
585.227	750.1
585.678	764.7
586.129	777.9
586.58	809.5
587.031	839.2
587.482	866.5
587.933	910.4
588.384	869
588.834	824.3
589.285	796.3
589.736	823.9
590.186	811.5
590.637	799.6
591.088	784.4
591.538	770.8
591.989	760
592.439	755.6
592.89	756.7
593.34	734.2
593.791	743.6
594.241	731.1
594.692	734.6
595.142	730.2
595.593	736.4
596.043	737.5
596.493	736.3
596.943	730.7
597.394	751.3
597.844	757
598.294	766.6
598.744	790
599.195	819.5
599.645	849.6
600.095	900
600.545	955.7
600.995	1018.1
601.445	1078.1
601.895	1156.7
602.345	1183.3
602.795	1162.1
603.245	1116.3
603.695	1064.8
604.145	1007.7
604.594	962.8
605.044	911.3
605.494	830.3
605.944	799.6
606.393	770.1
606.843	768.2
607.293	771
607.743	755.6
608.192	769.7
608.642	787.2
609.091	780.5
609.541	794.7
609.99	800.5
610.44	797
610.889	751.8
611.339	725.9
611.788	707.1
612.238	719.9
612.687	734.8
613.136	736.4
613.586	733.4
614.035	722
614.484	743.4
614.933	737.7
615.383	743.7
615.832	732
616.281	730.5
616.73	699.3
617.179	687.2
617.628	678.4
618.077	659.6
618.526	644.5
618.975	643.4
619.424	631.1
619.873	636.7
620.322	642.1
620.771	636.8
621.22	624.1
621.669	620.5
622.118	604.6
622.567	609.4
623.015	591.7
623.464	593.8
623.913	577.1
624.361	570
624.81	571.9
625.259	581.9
625.707	577.2
626.156	586.1
626.604	584.7
627.053	584.1
627.501	588.7
627.95	597.2
628.398	603.4
628.847	586.1
629.295	596.9
629.744	599.3
630.192	587.9
630.64	575
631.089	570.8
631.537	565.3
631.985	556.7
632.433	553.4
632.881	545.2
633.33	550
633.778	544.5
634.226	550.5
634.674	559.3
635.122	565.3
635.57	581.9
636.018	578.7
636.466	581
636.914	571.5
637.362	586.8
637.81	606.3
638.258	604.3
638.705	591.7
639.153	640.5
639.601	647.5
640.049	665.5
640.497	700.2
640.944	711.3
641.392	672.6
641.84	631.1
642.287	605.4
642.735	588.6
643.182	601.9
643.63	582.6
644.078	591.1
644.525	592.7
644.973	599.3
645.42	616.9
645.867	634.3
646.315	656.6
646.762	673.9
647.21	698.1
647.657	716.4
648.104	757.4
648.551	776.4
648.999	837.1
649.446	909.5
649.893	988.7
650.34	1130.7
650.787	1350.3
651.234	1661.8
651.682	2144.7
652.129	2890.4
652.576	4105.5
653.023	5945.7
653.47	8087.6
653.917	10030
654.363	11592.9
654.81	12787.1
655.257	12116.7
655.704	8026.3
656.151	4849.9
656.598	3205.1
657.044	2289.2
657.491	1765.7
657.938	1445.6
658.385	1206.3
658.831	1050.3
659.278	955.5
659.724	854.6
660.171	785.9
660.618	722
661.064	693.7
661.511	681.5
661.957	671.7
662.404	649.3
662.85	664.6
663.296	642
663.743	564.1
664.189	540
664.635	546.6
665.082	534.5
665.528	544.6
665.974	536.5
666.42	524.5
666.867	521.2
667.313	498.5
667.759	481.3
668.205	469.3
668.651	466.8
669.097	467
669.543	458.8
669.989	457
670.435	461.7
670.881	459.4
671.327	468.8
671.773	473
672.219	502.7
672.665	561.9
673.11	607.4
673.556	644.1
674.002	692.2
674.448	681.9
674.893	575.1
675.339	505.2
675.785	465.7
676.23	438.3
676.676	410.7
677.122	404.9
677.567	389.2
678.013	386.1
678.458	379.4
678.904	371.9
679.349	360.3
679.794	367.8
680.24	367
680.685	364.1
681.131	361.1
681.576	368.9
682.021	362.5
682.466	364.3
682.912	367.5
683.357	357.3
683.802	397.4
684.247	431.3
684.692	478.7
685.137	512.3
685.583	562.9
686.028	574.3
686.473	535.4
686.918	470.4
687.363	433
687.807	415.2
688.252	383.3
688.697	369.8
689.142	351.2
689.587	339.9
690.032	339.4
690.477	359.8
690.921	365.2
691.366	399.5
691.811	421.3
692.255	458
692.7	479.4
693.145	526.9
693.589	734.1
694.034	1184.1
694.478	1619.2
694.923	1817.8
695.367	2367
695.812	1252.3
696.256	518.4
696.701	386.1
697.145	362.4
697.59	338.6
698.034	323.4
698.478	333.6
698.922	326.7
699.367	331.2
699.811	342.8
700.255	360.3
700.699	400.9
701.143	430.8
701.588	501.3
702.032	539.2
702.476	532.8
702.92	519.7
703.364	521.3
703.808	667.1
704.252	1084.9
704.696	1513.8
705.14	1759.1
705.584	2231.2
706.027	1106.7
706.471	544.9
706.915	411.9
707.359	367
707.803	328.7
708.246	330
708.69	323
709.134	328.2
709.577	330.8
710.021	327.3
710.465	313.5
710.908	302.1
711.352	306.7
711.795	328.7
712.239	359.3
712.682	404.8
713.126	430.7
713.569	472.5
714.012	372.4
714.456	322.9
714.899	301.9
715.342	282.1
715.786	270.5
716.229	267.1
716.672	262.4
717.115	260
717.558	256.5
718.002	256.3
718.445	269.4
718.888	297.5
719.331	311.1
719.774	320.9
720.217	317
720.66	290
721.103	280.8
721.546	268.2
721.989	256
722.432	248.2
722.874	248.8
723.317	239.5
723.76	245.9
724.203	271.3
724.645	331.5
725.088	453.6
725.531	592.9
725.974	670.6
726.416	572.1
726.859	320.2
727.301	257.7
727.744	242.6
728.187	237.2
728.629	245.2
729.071	254.4
729.514	268
729.956	283.6
730.399	294.1
730.841	292
731.283	274.4
731.726	279.1
732.168	283.1
732.61	281.3
733.053	298.5
733.495	327.8
733.937	365.8
734.379	415.9
734.821	460.2
735.263	565.1
735.705	867.6
736.148	1643.9
736.59	2714.4
737.032	3200.8
737.474	2611.1
737.916	858
738.357	453.4
738.799	340.6
739.241	314.7
739.683	289.2
740.125	304.5
740.567	309.2
741.008	336.8
741.45	329.6
741.892	333.9
742.334	361
742.775	376.2
743.217	366.5
743.658	289.7
744.1	262.5
744.542	284.8
744.983	332.6
745.425	366.1
745.866	363.3
746.307	294.2
746.749	295.1
747.19	336.5
747.632	481.2
748.073	923.4
748.514	1967
748.956	2985
749.397	3775.9
749.838	3129.7
750.279	3095.1
750.72	1577.9
751.162	574.7
751.603	334.6
752.044	267.3
752.485	225.7
752.926	221.9
753.367	215.3
753.808	201.5
754.249	201.8
754.69	193.4
755.131	195.5
755.572	185.3
756.013	184.4
756.453	189.8
756.894	198.4
757.335	196.6
757.776	206
758.216	203.6
758.657	212.1
759.098	210.7
759.538	233.9
759.979	276.2
760.42	398.6
760.86	738.5
761.301	1929.2
761.741	4665.2
762.182	6723.6
762.622	4738.7
763.063	1360.4
763.503	549.3
763.943	336.7
764.384	275.8
764.824	265.3
765.264	253.5
765.705	219.5
766.145	184.4
766.585	179.8
767.025	172.8
767.465	163.8
767.906	188.8
768.346	206.4
768.786	223.6
769.226	229.3
769.666	320.4
770.106	647.9
770.546	1622.1
770.986	2756.7
771.426	2468.8
771.866	826.7
772.306	341.3
772.745	211.8
773.185	176.4
773.625	166.1
774.065	152.8
774.505	169.3
774.944	206.4
775.384	368.6
775.824	613.3
776.263	595.8
776.703	287.9
777.142	164.3
777.582	140.2
778.021	123.1
778.461	131.9
778.9	126
779.34	136.9
779.779	123.4
780.219	114.9
780.658	113.1
781.097	110.3
781.537	118.4
781.976	111.6
782.415	103.6
782.855	109.9
783.294	107
783.733	105.3
784.172	109.5
784.611	101.9
785.05	112.4
785.489	118.5
785.928	116.7
786.367	120.6
786.806	117.8
787.245	134.9
787.684	140.3
788.123	148.3
788.562	133.5
789.001	132.1
789.44	121.3
789.879	123.2
790.317	125.4
790.756	132.9
791.195	135.5
791.634	150.7
792.072	205.8
792.511	379.2
792.95	1027.2
793.388	2204.9
793.827	1985
794.265	693.6
794.704	291.6
795.142	182.4
795.581	164.8
796.019	143.1
796.458	132.5
796.896	126.2
797.334	139.9
797.773	158.2
798.211	228.7
798.649	451.8
799.087	1069.3
799.526	1674.5
799.964	2100
800.402	2110.6
800.84	789.7
801.278	312.3
801.716	190.3
802.154	155.4
802.592	150.5
803.03	142.4
803.468	139.4
803.906	148.6
804.344	163.3
804.782	148
805.22	141.4
805.658	128.5
806.096	154
806.533	161.6
806.971	188.8
807.409	233.3
807.847	339.8
808.284	698
808.722	1950.8
809.16	3440.4
809.597	3302.6
810.035	5674.5
810.472	6055.9
810.91	2197
811.347	848.8
811.785	430.3
812.222	274.3
812.66	209.3
813.097	169.1
813.535	142.6
813.972	130.1
814.409	123.3
814.846	118.3
815.284	111
815.721	102.9
816.158	103.6
816.595	109.2
817.032	160
817.47	188
817.907	142.5
818.344	107
818.781	101.7
819.218	100.1
819.655	132.1
820.092	199.3
820.529	230
820.966	174.7
821.403	126.3
821.839	102.8
822.276	103.5
822.713	131.2
823.15	139.9
823.587	124.9
824.023	151.5
824.46	315.7
824.897	938.2
825.333	1417.3
825.77	611.1
826.206	245
826.643	143.7
827.08	103.2
827.516	83.5
827.953	83.3
828.389	80.6
828.825	75
829.262	70.6
829.698	68.1
830.135	64
830.571	66.3
831.007	58.6
831.443	69.4
831.88	57.4
832.316	60.3
832.752	68.7
833.188	67.7
833.624	66.6
834.06	69.4
834.497	70.4
834.933	74.5
835.369	73.5
835.805	67.1
836.241	83.7
836.677	83.6
837.112	95.3
837.548	112.5
837.984	143
838.42	209.6
838.856	521.1
839.292	1574
839.727	2395.8
840.163	1130.3
840.599	980.3
841.034	2118.3
841.47	2234.3
841.906	812.2
842.341	337.9
842.777	207.7
843.212	208.7
843.648	198.4
844.083	111.3
844.519	83.8
844.954	73.7
845.39	67.4
845.825	65.8
846.261	60.5
846.696	56.3
847.131	56.8
847.566	60.9
848.002	54.4
848.437	64.3
848.872	64.5
849.307	61.6
849.742	89.7
850.177	189.6
850.613	583.2
851.048	910.6
851.483	399.8
851.918	159.2
852.353	92.8
852.788	52.1
853.223	47.7
853.657	51.5
854.092	52.8
854.527	40
854.962	41.8
855.397	45
855.832	53.1
856.266	41.9
856.701	45.8
857.136	39.4
857.57	45
858.005	52.1
858.44	63.1
858.874	47.6
859.309	57.2
859.743	41.3
860.178	50.4
860.612	47.1
861.047	58.6
861.481	79.3
861.915	75.5
862.35	49.8
862.784	32
863.218	40.6
863.653	35.2
864.087	49.3
864.521	51.1
864.955	66.4
865.39	158.3
865.824	180.4
866.258	123.9
866.692	181
867.126	190.7
867.56	113.3
867.994	60.2
868.428	39.5
868.862	45.2
869.296	56.2
869.73	61.1
870.164	55.7
870.598	46.9
871.031	40
871.465	34.1
871.899	32.2
872.333	27.5
872.766	25.7
873.2	21.2
873.634	31.9
874.067	25
874.501	22
874.935	34.9
875.368	32.7
875.802	22.7
876.235	23.7
876.669	19.7
877.102	26.1
877.535	27.6
877.969	23.9
878.402	22.7
878.836	21.8
879.269	24.4
879.702	21.9
880.135	21.2
880.569	18.9
881.002	22
881.435	19.6
881.868	12.5
882.301	22.1
882.734	15.8
883.167	22.5
883.601	21.6
884.034	23.7
884.467	16.2
884.899	16.3
885.332	21.1
885.765	13.2
886.198	15.7
886.631	15.6
887.064	20.9
887.497	18.5
887.929	22.1
888.362	14.4
888.795	16
889.228	16.7
889.66	26.2
890.093	18.9
890.526	12.3
890.958	19
891.391	22.2
891.823	22.8
892.256	15.5
892.688	11.7
893.121	16.3
893.553	18.3
893.985	25.4
894.418	19.8
894.85	11.1
895.282	17.5
895.715	12.6
896.147	14.3
896.579	17.1
897.011	15.4
897.444	18.2
897.876	8.8
898.308	14
898.74	17.6
899.172	15.1
899.604	25.9
900.036	22.3
900.468	14.8
900.9	8
901.332	21.5
901.764	20.8
902.196	14.4
902.628	17.2
903.06	19.2
903.491	32
903.923	28.6
904.355	27.5
904.787	25
905.218	21.5
905.65	22.4
906.082	14.4
906.513	15.9
906.945	16.9
907.376	11.5
907.808	17.2
908.239	22.3
908.671	23.8
909.102	23.2
909.534	15.4
909.965	39.4
910.397	96.1
910.828	327.8
911.259	493.6
911.691	229
912.122	111.9
912.553	49.8
912.984	31.5
913.415	23.8
913.847	28.1
914.278	18.7
914.709	13.3
915.14	15.3
915.571	12.5
916.002	17.1
916.433	16.6
916.864	15.8
917.295	12.2
917.726	16.5
918.157	16.9
918.587	31.2
919.018	23.4
919.449	21.7
919.88	22.9
920.311	28
920.741	52
921.172	175.9
921.603	157.1
922.033	72.2
922.464	43.2
922.895	29.5
923.325	19.4
923.756	14.4
924.186	8.2
924.617	22.5
925.047	19
925.478	25.6
925.908	25.7
926.338	9
926.769	9.5
927.199	13.3
927.629	8.4
928.06	12.9
928.49	11.5
928.92	19.8
929.35	19.4
929.78	10.5
930.21	1.1
930.641	8
931.071	4.2
931.501	5.5
931.931	9.4
932.361	10.3
932.791	4.3
933.221	10.3
933.651	9
934.08	15.1
934.51	30.6
934.94	8.8
935.37	10.3
935.8	10.5
936.229	7.1
936.659	10.2
937.089	-0.1
937.519	9.5
937.948	24.9
938.378	19
938.807	6.4
939.237	-0.4
939.666	12.5
940.096	-5.1
940.525	1.4
940.955	-2.1
941.384	6.6
941.814	-5.8
942.243	-4.5
942.672	0.7
943.102	4.9
943.531	-3.7
943.96	6.3
944.39	1.4
944.819	-0.3
945.248	5.2
945.677	3.2
946.106	8
946.535	2.6
946.964	3.8
947.393	4.5
947.822	4
948.251	-8.2
948.68	4.7
949.109	6.3
949.538	3.4
949.967	-5.7
950.396	1.3
950.825	-5.1
951.254	0.2
951.682	1.3
952.111	4
952.54	3
952.969	-0.9
953.397	-4.8
953.826	-2.3
954.254	-3.5
954.683	1
955.112	-4.1
955.54	-1.7
955.969	-2.3
956.397	1
956.826	-1.3
957.254	-2.4
957.682	-0.8
958.111	3.6
958.539	-0.6
958.967	-7
959.396	-1.2
959.824	3.8
960.252	0.5
960.68	0.1
961.109	-3.3
961.537	-4.7
961.965	-2.1
962.393	-1.2
962.821	-0.9
963.249	-3.1
963.677	0.9
964.105	9.6
964.533	46.5
964.961	47
965.389	24.6
965.817	4.6
966.245	1.9
966.672	-5.2
967.1	-6.7
967.528	-3.3
967.956	-6.2
968.383	1.8
968.811	-5.2
969.239	0.8
969.666	-2.3
970.094	-1.3
970.522	1.6
970.949	-0.6
971.377	-3.7
971.804	-5.7
972.232	-6
972.659	-3.9
973.087	-3.2
973.514	-2.9
973.941	-8.2
974.369	1.2
974.796	-7.7
975.223	-3.7
975.651	-0.8
976.078	3.1
976.505	-2.3
976.932	5.2
977.359	15.1
977.786	15.1
978.214	2.9
978.641	-0.4
979.068	-9.6
979.495	-10
979.922	0.2
980.349	-5.4
980.776	2.8
981.202	-1.3
981.629	1.1
982.056	0.3
982.483	-3.1
982.91	1.7
983.337	-7.2
983.763	5.1
984.19	-1.7
984.617	-1.6
985.043	-8.7
985.47	-1.7
985.897	-4.7
986.323	-6.6
986.75	5.3
987.176	-1.6
987.603	0.4
988.029	3.4
988.456	-1
988.882	5.1
989.308	-11.5
989.735	-9
990.161	-3
990.587	-6.6
991.014	1.6
991.44	10
991.866	-5.9
992.292	-3.7
992.719	-2.1
993.145	-0.7
993.571	-15.4
993.997	-3.6
994.423	-4.3
994.849	-6.3
995.275	3.2
995.701	2.9
996.127	-6.2
996.553	4.1
996.979	-5.4
997.405	-8.8
997.83	-1.7
998.256	-6.9
998.682	-9.2
999.108	-8.9
999.534	-1.3
999.959	-0.7
1000.385	-1.8
1000.811	-2.8
1001.236	-8.4
1001.662	-4.8
1002.087	-8.9
1002.513	-3.9
1002.938	-1.5
1003.364	-2.2
1003.789	-2.4
1004.215	2.3
1004.64	-2.8
1005.066	-0.2
1005.491	0.2
1005.916	-0
1006.342	0.7
1006.767	-10.1
1007.192	4.6
1007.617	-1.5
1008.042	-2.5
1008.468	-8.1
1008.893	-5.4
1009.318	-5.9
1009.743	-0.6
1010.168	0.9
1010.593	0.3
1011.018	-4.2
1011.443	-1.3
1011.868	0.9
1012.293	-1.8
1012.718	-6.1
1013.143	6
1013.567	9.4
1013.992	-1.7
1014.417	-5.7
1014.842	-1.4
1015.267	-3.5
1015.691	-4.3
1016.116	9.5
1016.541	-3.3
1016.965	5.9
1017.39	2.8
1017.814	0.4
1018.239	-1.5
1018.663	-8.7
1019.088	-11.5
1019.512	-5.3
1019.937	-1
1020.361	-1.9
1020.785	-9.1
1021.21	0.7
1021.634	0.4
1022.058	-1.8
1022.483	1.4
1022.907	-1.2
1023.331	-7.6
1023.755	1.8
1024.179	2.7
1024.604	-8.1
1025.028	-6.5
1025.452	-2.8
1025.876	0.7
1026.3	-1
1026.724	-12.4
1027.148	-4.4
1027.572	-9.8
1027.996	-9.6
1028.42	-5.4
1028.843	0.8
1029.267	-2.7
1029.691	-1.5
1030.115	-3.5
1030.539	-8.2
1030.962	-3.7
1031.386	-11.6
1031.81	-0.7
1032.233	-3.4
1032.657	-3.6
1033.08	0.6
1033.504	-6.3
1033.927	-5.8
1034.351	1.1
1034.774	-7.5
1035.198	-8.6
1035.621	-6.5
1036.045	-13.8
1036.468	-0.6
1036.891	-10.9
1037.315	-10.9
1037.738	-9.6
1038.161	-7.9
1038.584	-3.1
1039.008	-6.7
1039.431	-0.1
1039.854	-9.6
1040.277	-11.7
1040.7	-6.2
1041.123	-0.5
1041.546	-4.9
1041.969	-8.5
1042.392	-9.5
1042.815	-3.5
1043.238	4.2
1043.661	2.2
1044.084	-9.3
1044.507	-9.7
1044.93	-12.4
1045.352	-4
1045.775	0.1
1046.198	0.8
1046.621	-0.2
1047.043	-0.2
1047.466	7.6
1047.889	-1.3
1048.311	-1.7
1048.734	-0.4
1049.156	-4.7
1049.579	-4.5
1050.001	-3.6
1050.424	2.5
1050.846	2.6
1051.269	-2.5
1051.691	-7.3
1052.113	-1.9
1052.536	-4
1052.958	-4.6
1053.38	-7
1053.802	-7.5
1054.225	1
1054.647	-4.5
1055.069	-10.5
1055.491	0.9
1055.913	-9.1
1056.335	5
1056.757	-6.5
1057.179	-11.5
1057.601	0.3
1058.023	-3.4
1058.445	-2.7
1058.867	-11.7
1059.289	3.6
1059.711	-5.8
1060.133	-7.9
1060.555	-4.7
1060.976	-7.1
1061.398	-0.9
1061.82	-7.1
1062.241	-6.2
1062.663	-7.8
1063.085	-0.3
1063.506	-1.3
1063.928	-2.9
1064.35	0.8
1064.771	-9.1
1065.193	-3.1
1065.614	-7.9
1066.035	-2.5
1066.457	-7.6
1066.878	-6.2
1067.3	-4.1
1067.721	-8.4
1068.142	-3.8
1068.564	-6
1068.985	-4.8
1069.406	-4.7
1069.827	-9.7
1070.248	-2.4
1070.67	-4.1
1071.091	-2.1
1071.512	-6.4
1071.933	-7
1072.354	-4.2
1072.775	-10.3
1073.196	-8.5
1073.617	-3.7
1074.038	-8.4
1074.459	-1.5
1074.88	-5.6
1075.3	-3.1
1075.721	-2.7
1076.142	-4.6
1076.563	-4.7
1076.983	-16
1077.404	-9.7
1077.825	-14.4
1078.246	-5.4
1078.666	-10.5
1079.087	-4.5
1079.507	-1.4
1079.928	0.9
1080.348	-1.6
1080.769	-7.4
1081.189	-2.6
1081.61	-6.8
1082.03	-8.3
1082.451	-10.9
1082.871	-6
1083.291	-7.3
1083.711	-7.1
1084.132	-4.8
1084.552	-10.3
1084.972	-3.9
1085.392	-13.5
1085.813	-10.1
1086.233	-15.3
1086.653	-14.4
1087.073	-6.1
1087.493	-6.5
1087.913	-4
1088.333	-10
1088.753	-1.7
1089.173	-2.4
1089.593	-2.7
1090.013	-0.8
1090.433	-2.1
1090.852	-0.9
1091.272	-0.8
1091.692	0.6
1092.112	-7
1092.531	-13.8
1092.951	-14.7
1093.371	-7.2
1093.79	-1.2
1094.21	-3.6
1094.63	-5.8
1095.049	-2.2
1095.469	-1.5
1095.888	-2.3
1096.308	4.4
1096.727	-0.2
1097.146	-4.8
1097.566	-0.3
1097.985	-2.3
1098.405	-9.2
1098.824	-3.1
1099.243	-6.6
1099.662	-10.4
1100.082	-0.3
1100.501	-2.2
1100.92	-8.9
1101.339	-4.3
1101.758	-5.6
