Data from 20171114-ORNL-Ar_H_NY_Subt18_08-06-05-720.txt Node
Date: Tue Nov 14 08:06:05 EST 2017
User: Ender
Spectrometer: HR+D1039
Trigger mode: 0
Integration Time (sec): 2.730000E-2
Scans to average: 10
Electric dark correction enabled: true
Nonlinearity correction enabled: false
Boxcar width: 0
XAxis mode: Wavelengths
Number of Pixels in Spectrum: 2048
>>>>>Begin Spectral Data<<<<<
187.836	-2.31
188.309	-2.31
188.782	-2.31
189.255	-0.41
189.728	-5.31
190.201	6.09
190.674	-1.51
191.147	-0.41
191.619	-3.61
192.092	-1.41
192.565	2.49
193.038	1.49
193.511	1.19
193.984	4.19
194.456	-0.61
194.929	-1.51
195.402	0.99
195.874	0.59
196.347	-0.31
196.82	-3.31
197.292	5.59
197.765	-1.71
198.237	-2.91
198.71	0.89
199.182	-3.41
199.655	0.89
200.127	5.39
200.6	-1.81
201.072	0.69
201.544	-2.11
202.017	-2.01
202.489	3.89
202.961	0.19
203.433	-1.41
203.906	-10.01
204.378	1.09
204.85	-4.41
205.322	-5.11
205.794	-2.51
206.266	-0.11
206.739	-12.61
207.211	2.79
207.683	-4.71
208.155	-3.51
208.627	-5.41
209.099	-10.11
209.57	-6.51
210.042	-0.91
210.514	-3.31
210.986	-2.21
211.458	-4.51
211.93	1.49
212.402	-2.21
212.873	-3.51
213.345	-7.81
213.817	-6.01
214.288	-2.01
214.76	-8.01
215.232	-4.51
215.703	-0.01
216.175	-1.11
216.646	-0.31
217.118	-5.61
217.589	-4.41
218.061	2.89
218.532	-3.81
219.004	0.19
219.475	-7.41
219.946	-4.71
220.418	-3.81
220.889	1.99
221.36	-1.31
221.832	-0.51
222.303	-4.41
222.774	0.89
223.245	-12.61
223.717	-3.81
224.188	-5.61
224.659	-12.51
225.13	-5.11
225.601	-4.81
226.072	-0.31
226.543	-1.31
227.014	-0.61
227.485	2.29
227.956	-6.21
228.427	1.69
228.898	-2.11
229.369	5.29
229.839	-4.61
230.31	-6.81
230.781	5.69
231.252	-5.41
231.722	0.59
232.193	-3.91
232.664	-6.81
233.135	2.89
233.605	-0.71
234.076	-2.51
234.546	1.09
235.017	3.19
235.487	-0.91
235.958	1.49
236.428	0.59
236.899	2.79
237.369	2.59
237.84	0.99
238.31	7.49
238.78	6.49
239.251	-1.61
239.721	5.49
240.191	1.19
240.662	-1.21
241.132	-1.01
241.602	-4.21
242.072	1.79
242.542	6.69
243.013	-4.81
243.483	4.89
243.953	5.09
244.423	-1.61
244.893	-6.41
245.363	6.89
245.833	2.09
246.303	5.59
246.773	10.19
247.243	5.49
247.712	0.89
248.182	6.39
248.652	9.29
249.122	-2.31
249.592	11.49
250.061	25.89
250.531	34.69
251.001	17.19
251.471	15.69
251.94	17.69
252.41	11.89
252.879	4.79
253.349	14.09
253.818	12.99
254.288	5.99
254.757	4.49
255.227	6.39
255.696	6.89
256.166	1.99
256.635	7.49
257.105	12.79
257.574	6.59
258.043	14.79
258.513	16.99
258.982	16.49
259.451	11.99
259.92	13.99
260.389	15.09
260.859	19.79
261.328	18.39
261.797	19.89
262.266	8.49
262.735	12.09
263.204	4.39
263.673	-1.21
264.142	5.59
264.611	0.49
265.08	-2.61
265.549	-1.61
266.018	8.39
266.487	0.89
266.955	-1.41
267.424	2.99
267.893	2.79
268.362	5.59
268.83	9.49
269.299	11.29
269.768	3.19
270.236	2.09
270.705	4.59
271.174	9.29
271.642	6.89
272.111	7.19
272.579	19.09
273.048	18.79
273.516	33.89
273.985	31.49
274.453	21.49
274.922	20.69
275.39	11.29
275.858	6.89
276.327	13.39
276.795	17.59
277.263	5.09
277.731	25.19
278.2	56.99
278.668	68.59
279.136	54.39
279.604	22.29
280.072	17.89
280.54	12.29
281.008	12.49
281.477	18.49
281.945	15.89
282.413	18.79
282.881	16.99
283.348	13.39
283.816	16.59
284.284	15.79
284.752	21.69
285.22	18.39
285.688	17.39
286.156	20.29
286.623	41.39
287.091	56.19
287.559	31.59
288.026	18.69
288.494	18.59
288.962	8.39
289.429	11.29
289.897	18.49
290.364	16.79
290.832	15.39
291.3	16.19
291.767	15.19
292.234	21.19
292.702	15.29
293.169	16.29
293.637	24.89
294.104	22.19
294.571	14.29
295.039	19.19
295.506	15.29
295.973	19.19
296.44	16.69
296.908	21.69
297.375	23.09
297.842	28.29
298.309	19.39
298.776	15.19
299.243	24.49
299.71	11.09
300.177	21.29
300.644	22.19
301.111	16.29
301.578	26.89
302.045	20.59
302.512	29.99
302.979	21.29
303.446	22.89
303.913	18.39
304.379	17.29
304.846	29.29
305.313	34.39
305.78	26.19
306.246	29.89
306.713	27.29
307.18	28.49
307.646	34.19
308.113	29.49
308.579	29.59
309.046	24.69
309.512	30.09
309.979	17.09
310.445	23.69
310.912	29.49
311.378	36.39
311.845	29.29
312.311	35.89
312.777	38.59
313.244	31.49
313.71	40.69
314.176	31.39
314.642	40.59
315.109	30.59
315.575	38.59
316.041	43.69
316.507	43.59
316.973	40.19
317.439	37.09
317.905	36.79
318.371	40.09
318.837	36.79
319.303	32.49
319.769	37.59
320.235	36.69
320.701	37.79
321.167	35.99
321.633	38.79
322.099	42.69
322.564	49.99
323.03	49.29
323.496	40.89
323.962	42.89
324.427	38.19
324.893	46.69
325.359	36.39
325.824	36.89
326.29	39.19
326.755	38.89
327.221	37.29
327.686	41.79
328.152	51.99
328.617	48.39
329.083	48.99
329.548	54.49
330.014	49.19
330.479	44.99
330.944	48.49
331.41	50.19
331.875	49.59
332.34	43.99
332.805	46.69
333.271	53.79
333.736	45.99
334.201	52.99
334.666	56.79
335.131	57.19
335.596	57.49
336.061	54.09
336.526	37.99
336.991	50.79
337.456	57.89
337.921	50.09
338.386	46.99
338.851	49.59
339.316	51.49
339.781	46.59
340.246	51.49
340.711	49.09
341.175	53.09
341.64	44.99
342.105	60.29
342.569	55.29
343.034	65.89
343.499	58.19
343.963	53.29
344.428	60.39
344.893	64.69
345.357	64.49
345.822	66.39
346.286	72.29
346.751	79.69
347.215	78.99
347.679	75.69
348.144	102.29
348.608	90.59
349.073	70.89
349.537	81.49
350.001	81.09
350.465	91.89
350.93	84.89
351.394	86.49
351.858	76.09
352.322	92.69
352.786	86.59
353.25	108.79
353.715	116.59
354.179	106.29
354.643	125.29
355.107	130.99
355.571	108.39
356.035	111.69
356.498	122.29
356.962	128.49
357.426	141.29
357.89	123.09
358.354	93.69
358.818	89.79
359.281	79.09
359.745	75.09
360.209	76.39
360.673	77.19
361.136	80.89
361.6	91.49
362.064	91.19
362.527	84.69
362.991	94.79
363.454	86.79
363.918	81.19
364.381	83.19
364.845	90.39
365.308	82.99
365.772	96.19
366.235	84.69
366.698	90.29
367.162	86.19
367.625	86.69
368.088	86.19
368.552	93.79
369.015	90.49
369.478	91.79
369.941	108.69
370.404	103.59
370.867	110.89
371.331	108.09
371.794	127.79
372.257	115.69
372.72	125.09
373.183	116.79
373.646	105.79
374.109	107.79
374.572	107.49
375.035	109.79
375.497	107.89
375.96	109.29
376.423	112.59
376.886	111.59
377.349	112.99
377.811	109.39
378.274	105.59
378.737	107.09
379.199	114.89
379.662	115.39
380.125	117.69
380.587	113.69
381.05	129.69
381.512	139.29
381.975	141.89
382.437	134.99
382.9	131.19
383.362	134.19
383.825	147.29
384.287	155.69
384.75	143.89
385.212	145.39
385.674	149.89
386.136	139.69
386.599	130.79
387.061	126.19
387.523	133.49
387.985	140.59
388.447	147.59
388.91	152.69
389.372	165.09
389.834	157.49
390.296	148.09
390.758	160.49
391.22	169.49
391.682	215.09
392.144	305.09
392.606	244.69
393.068	171.49
393.529	171.79
393.991	150.39
394.453	157.59
394.915	158.79
395.377	200.49
395.838	225.59
396.3	161.99
396.762	149.39
397.224	140.39
397.685	132.49
398.147	132.79
398.608	137.29
399.07	134.99
399.531	140.49
399.993	151.39
400.454	162.69
400.916	152.39
401.377	146.69
401.839	161.89
402.3	157.49
402.762	169.79
403.223	179.69
403.684	174.09
404.145	171.29
404.607	166.09
405.068	168.69
405.529	174.99
405.99	194.69
406.451	177.59
406.913	179.89
407.374	164.29
407.835	162.99
408.296	176.99
408.757	176.09
409.218	191.59
409.679	175.69
410.14	178.99
410.601	177.49
411.062	186.19
411.522	194.39
411.983	199.79
412.444	179.79
412.905	182.89
413.366	191.19
413.826	198.79
414.287	222.89
414.748	261.79
415.208	252.39
415.669	219.79
416.13	210.09
416.59	206.89
417.051	217.89
417.511	227.19
417.972	244.59
418.432	260.99
418.893	294.79
419.353	257.29
419.814	206.59
420.274	191.09
420.734	188.09
421.195	201.29
421.655	201.39
422.115	196.69
422.576	192.49
423.036	195.59
423.496	208.19
423.956	223.69
424.416	232.29
424.876	266.49
425.336	268.39
425.797	268.89
426.257	262.39
426.717	250.89
427.177	241.69
427.637	235.49
428.097	240.39
428.556	250.89
429.016	278.69
429.476	265.69
429.936	290.99
430.396	280.19
430.856	295.89
431.315	333.89
431.775	357.09
432.235	390.49
432.694	356.49
433.154	371.19
433.614	398.29
434.073	338.09
434.533	285.89
434.993	280.09
435.452	286.59
435.912	306.09
436.371	299.59
436.83	288.19
437.29	278.99
437.749	253.79
438.209	255.79
438.668	277.59
439.127	290.49
439.587	268.59
440.046	254.19
440.505	263.59
440.964	286.09
441.424	326.09
441.883	318.59
442.342	268.89
442.801	229.89
443.26	219.89
443.719	230.49
444.178	227.79
444.637	214.19
445.096	219.49
445.555	230.19
446.014	226.89
446.473	235.79
446.932	237.89
447.391	229.99
447.849	233.89
448.308	222.69
448.767	226.79
449.226	243.29
449.685	236.09
450.143	258.19
450.602	244.19
451.061	232.89
451.519	231.59
451.978	236.89
452.436	243.39
452.895	243.89
453.353	254.09
453.812	246.19
454.27	241.59
454.729	247.99
455.187	248.49
455.646	253.79
456.104	252.79
456.562	263.99
457.021	276.49
457.479	264.79
457.937	283.69
458.395	269.59
458.854	249.79
459.312	260.79
459.77	282.89
460.228	259.29
460.686	246.29
461.144	250.99
461.602	252.29
462.06	241.49
462.518	259.79
462.976	264.49
463.434	263.79
463.892	268.89
464.35	290.79
464.808	293.29
465.266	271.99
465.724	282.49
466.181	283.59
466.639	273.29
467.097	300.49
467.555	305.19
468.012	309.99
468.47	320.79
468.928	334.49
469.385	352.19
469.843	356.19
470.3	354.69
470.758	376.49
471.215	400.49
471.673	418.09
472.13	419.09
472.588	425.69
473.045	384.49
473.503	384.19
473.96	404.19
474.417	417.29
474.875	439.69
475.332	482.79
475.789	469.59
476.246	476.09
476.704	502.79
477.161	518.79
477.618	529.69
478.075	576.59
478.532	627.79
478.989	707.49
479.446	828.39
479.903	797.99
480.36	820.09
480.817	886.29
481.274	999.69
481.731	1113.69
482.188	1208.89
482.645	1340.69
483.102	1448.79
483.558	1596.99
484.015	1640.09
484.472	1608.99
484.929	1576.89
485.385	1509.29
485.842	1474.59
486.299	1396.39
486.755	1334.89
487.212	1129.89
487.668	951.79
488.125	871.29
488.582	801.59
489.038	771.89
489.494	731.09
489.951	702.79
490.407	683.29
490.864	665.49
491.32	661.69
491.776	657.99
492.233	664.39
492.689	621.89
493.145	614.09
493.602	607.59
494.058	622.89
494.514	632.39
494.97	657.89
495.426	670.89
495.882	641.99
496.338	630.59
496.794	632.79
497.251	632.29
497.707	648.69
498.163	654.59
498.618	665.29
499.074	657.79
499.53	695.19
499.986	693.39
500.442	664.89
500.898	654.39
501.354	648.29
501.809	646.99
502.265	655.59
502.721	681.69
503.177	685.49
503.632	672.39
504.088	689.49
504.543	726.69
504.999	734.29
505.455	683.69
505.91	640.69
506.366	645.59
506.821	643.39
507.277	638.99
507.732	637.89
508.187	633.79
508.643	646.39
509.098	650.19
509.553	653.49
510.009	682.89
510.464	688.49
510.919	706.69
511.375	706.59
511.83	724.49
512.285	734.89
512.74	777.19
513.195	800.59
513.65	789.59
514.105	785.69
514.56	791.89
515.015	812.49
515.47	825.19
515.925	804.09
516.38	804.69
516.835	800.59
517.29	790.39
517.745	790.29
518.2	775.59
518.655	765.59
519.109	754.99
519.564	754.79
520.019	748.49
520.474	743.99
520.928	740.39
521.383	738.79
521.838	724.79
522.292	727.39
522.747	719.59
523.201	716.79
523.656	718.59
524.11	711.69
524.565	706.09
525.019	704.19
525.474	714.99
525.928	710.89
526.382	701.19
526.837	707.69
527.291	721.19
527.745	699.79
528.2	713.39
528.654	706.89
529.108	702.19
529.562	704.29
530.016	702.19
530.47	708.29
530.925	706.49
531.379	699.09
531.833	721.79
532.287	717.89
532.741	719.79
533.195	722.09
533.649	729.09
534.103	736.09
534.556	725.69
535.01	728.19
535.464	728.19
535.918	726.49
536.372	730.39
536.826	727.19
537.279	714.49
537.733	728.09
538.187	735.89
538.64	734.89
539.094	732.69
539.548	737.89
540.001	732.39
540.455	726.59
540.908	744.99
541.362	756.69
541.815	755.59
542.269	766.49
542.722	779.59
543.175	788.79
543.629	789.69
544.082	801.39
544.536	799.79
544.989	795.29
545.442	812.89
545.895	802.39
546.349	802.29
546.802	812.89
547.255	808.29
547.708	815.89
548.161	828.99
548.614	829.29
549.067	848.59
549.52	833.29
549.973	821.99
550.426	820.99
550.879	803.69
551.332	818.69
551.785	820.09
552.238	814.59
552.691	835.79
553.144	844.29
553.596	858.79
554.049	873.89
554.502	905.39
554.955	925.89
555.407	930.49
555.86	916.69
556.313	905.39
556.765	894.49
557.218	891.29
557.67	887.89
558.123	891.79
558.576	884.39
559.028	889.79
559.48	891.29
559.933	888.39
560.385	854.29
560.838	819.09
561.29	794.99
561.742	801.09
562.195	776.99
562.647	770.29
563.099	781.99
563.551	785.39
564.004	791.19
564.456	787.49
564.908	773.79
565.36	754.99
565.812	737.09
566.264	735.29
566.716	743.09
567.168	723.99
567.62	737.59
568.072	713.69
568.524	700.09
568.976	705.79
569.428	698.69
569.88	685.09
570.332	696.09
570.784	697.29
571.235	694.59
571.687	714.99
572.139	705.99
572.59	724.39
573.042	716.49
573.494	721.29
573.945	710.09
574.397	703.59
574.849	704.79
575.3	691.09
575.752	692.19
576.203	693.89
576.655	700.89
577.106	679.19
577.557	672.89
578.009	677.39
578.46	673.89
578.912	673.39
579.363	678.89
579.814	675.09
580.265	665.09
580.717	675.99
581.168	675.09
581.619	695.69
582.07	696.59
582.521	683.59
582.972	684.69
583.423	690.99
583.875	692.39
584.326	704.99
584.777	754.59
585.227	827.49
585.678	920.69
586.129	1001.79
586.58	1071.49
587.031	1166.19
587.482	1330.39
587.933	1502.49
588.384	1310.69
588.834	986.89
589.285	814.49
589.736	788.59
590.186	778.39
590.637	771.19
591.088	758.89
591.538	747.69
591.989	737.49
592.439	738.89
592.89	728.89
593.34	727.19
593.791	713.79
594.241	714.69
594.692	718.59
595.142	708.59
595.593	704.29
596.043	720.09
596.493	717.19
596.943	728.99
597.394	724.79
597.844	727.29
598.294	730.49
598.744	759.29
599.195	784.59
599.645	825.59
600.095	859.19
600.545	910.29
600.995	967.29
601.445	1026.69
601.895	1096.29
602.345	1135.49
602.795	1122.39
603.245	1064.99
603.695	1016.99
604.145	963.29
604.594	922.59
605.044	868.19
605.494	810.19
605.944	768.99
606.393	747.89
606.843	739.69
607.293	740.19
607.743	736.49
608.192	745.29
608.642	769.29
609.091	778.99
609.541	767.99
609.99	767.49
610.44	770.29
610.889	729.49
611.339	702.39
611.788	683.79
612.238	708.69
612.687	720.19
613.136	731.29
613.586	745.39
614.035	739.69
614.484	756.39
614.933	758.79
615.383	747.09
615.832	743.29
616.281	732.49
616.73	689.99
617.179	677.99
617.628	654.69
618.077	634.99
618.526	626.99
618.975	619.19
619.424	616.59
619.873	621.49
620.322	612.79
620.771	605.19
621.22	610.29
621.669	593.79
622.118	593.49
622.567	580.19
623.015	570.39
623.464	574.49
623.913	565.69
624.361	551.29
624.81	549.29
625.259	564.69
625.707	553.09
626.156	551.79
626.604	565.89
627.053	557.29
627.501	571.09
627.95	572.99
628.398	584.89
628.847	567.69
629.295	581.59
629.744	575.59
630.192	571.39
630.64	571.69
631.089	567.29
631.537	581.59
631.985	579.79
632.433	603.79
632.881	606.69
633.33	654.89
633.778	642.29
634.226	562.19
634.674	565.89
635.122	584.09
635.57	600.29
636.018	623.89
636.466	586.79
636.914	563.89
637.362	578.89
637.81	584.79
638.258	584.39
638.705	576.19
639.153	608.19
639.601	614.59
640.049	645.09
640.497	669.19
640.944	691.39
641.392	636.99
641.84	617.69
642.287	591.79
642.735	559.49
643.182	567.09
643.63	580.69
644.078	570.29
644.525	590.19
644.973	592.59
645.42	598.79
645.867	620.09
646.315	642.09
646.762	666.89
647.21	700.79
647.657	705.69
648.104	750.89
648.551	774.09
648.999	830.59
649.446	919.69
649.893	1003.59
650.34	1159.49
650.787	1386.09
651.234	1732.69
651.682	2267.39
652.129	3095.69
652.576	4453.89
653.023	6554.49
653.47	9040.99
653.917	11324.09
654.363	13084.09
654.81	14426.09
655.257	13745.69
655.704	9019.69
656.151	5339.19
656.598	3444.59
657.044	2435.49
657.491	1873.59
657.938	1508.49
658.385	1256.99
658.831	1077.19
659.278	966.39
659.724	857.79
660.171	785.39
660.618	718.89
661.064	690.09
661.511	669.59
661.957	657.09
662.404	646.89
662.85	651.59
663.296	620.49
663.743	560.99
664.189	535.39
664.635	534.29
665.082	523.49
665.528	521.19
665.974	513.49
666.42	515.59
666.867	493.69
667.313	490.99
667.759	485.69
668.205	477.29
668.651	476.69
669.097	478.69
669.543	503.69
669.989	468.59
670.435	453.49
670.881	441.19
671.327	452.69
671.773	469.79
672.219	489.09
672.665	543.19
673.11	576.09
673.556	621.49
674.002	657.09
674.448	651.49
674.893	535.59
675.339	472.49
675.785	435.49
676.23	413.29
676.676	387.19
677.122	384.29
677.567	369.59
678.013	366.49
678.458	354.09
678.904	358.09
679.349	352.09
679.794	341.59
680.24	344.29
680.685	354.69
681.131	344.09
681.576	342.59
682.021	355.39
682.466	341.29
682.912	347.59
683.357	349.79
683.802	380.49
684.247	400.79
684.692	448.79
685.137	492.09
685.583	539.49
686.028	557.89
686.473	515.09
686.918	434.79
687.363	413.09
687.807	395.69
688.252	364.29
688.697	354.19
689.142	336.79
689.587	332.99
690.032	330.39
690.477	344.89
690.921	348.19
691.366	374.09
691.811	398.29
692.255	422.09
692.7	458.59
693.145	497.69
693.589	682.59
694.034	1104.89
694.478	1504.99
694.923	1721.19
695.367	2249.89
695.812	1175.59
696.256	495.99
696.701	363.69
697.145	342.69
697.59	325.99
698.034	322.29
698.478	326.49
698.922	327.69
699.367	321.59
699.811	341.59
700.255	351.89
700.699	381.59
701.143	417.39
701.588	469.19
702.032	513.99
702.476	510.69
702.92	469.89
703.364	473.29
703.808	624.99
704.252	1009.39
704.696	1413.59
705.14	1652.29
705.584	2120.59
706.027	1043.29
706.471	518.69
706.915	388.69
707.359	352.89
707.803	314.69
708.246	306.79
708.69	309.39
709.134	305.69
709.577	304.89
710.021	305.39
710.465	310.69
710.908	297.39
711.352	297.39
711.795	305.09
712.239	350.89
712.682	379.99
713.126	416.69
713.569	460.99
714.012	364.29
714.456	316.29
714.899	296.79
715.342	266.59
715.786	258.69
716.229	252.59
716.672	247.89
717.115	244.39
717.558	256.19
718.002	249.79
718.445	257.59
718.888	285.29
719.331	292.39
719.774	306.29
720.217	298.89
720.66	278.69
721.103	263.29
721.546	248.39
721.989	245.49
722.432	231.79
722.874	233.09
723.317	227.59
723.76	238.49
724.203	253.59
724.645	314.49
725.088	434.59
725.531	556.79
725.974	638.29
726.416	545.19
726.859	297.79
727.301	245.89
727.744	234.49
728.187	230.29
728.629	235.69
729.071	236.89
729.514	251.69
729.956	272.39
730.399	284.89
730.841	290.89
731.283	269.59
731.726	264.19
732.168	257.49
732.61	266.79
733.053	285.49
733.495	304.99
733.937	347.59
734.379	390.59
734.821	428.89
735.263	525.89
735.705	805.99
736.148	1527.79
736.59	2514.69
737.032	3005.59
737.474	2449.29
737.916	799.79
738.357	420.69
738.799	318.29
739.241	296.99
739.683	272.39
740.125	285.39
740.567	289.99
741.008	312.19
741.45	313.09
741.892	302.99
742.334	338.49
742.775	357.39
743.217	336.09
743.658	262.89
744.1	251.09
744.542	254.59
744.983	304.69
745.425	332.69
745.866	344.49
746.307	278.79
746.749	281.09
747.19	318.59
747.632	446.59
748.073	857.29
748.514	1812.99
748.956	2802.19
749.397	3501.59
749.838	2911.09
750.279	2929.09
750.72	1470.49
751.162	537.79
751.603	315.69
752.044	248.59
752.485	213.39
752.926	204.29
753.367	203.79
753.808	196.89
754.249	187.59
754.69	177.89
755.131	179.29
755.572	179.09
756.013	170.49
756.453	183.89
756.894	185.29
757.335	182.59
757.776	189.79
758.216	187.09
758.657	195.59
759.098	200.69
759.538	220.79
759.979	260.99
760.42	366.29
760.86	675.69
761.301	1747.49
761.741	4293.89
762.182	6332.59
762.622	4468.49
763.063	1272.79
763.503	530.09
763.943	335.79
764.384	325.49
764.824	393.79
765.264	429.99
765.705	298.89
766.145	199.09
766.585	186.99
767.025	177.29
767.465	176.49
767.906	237.79
768.346	311.59
768.786	334.49
769.226	252.49
769.666	311.69
770.106	598.29
770.546	1491.29
770.986	2584.69
771.426	2325.39
771.866	779.69
772.306	320.39
772.745	209.99
773.185	165.09
773.625	166.39
774.065	170.19
774.505	193.79
774.944	302.49
775.384	660.19
775.824	1217.59
776.263	1198.69
776.703	506.49
777.142	218.19
777.582	156.09
778.021	140.19
778.461	144.09
778.9	138.29
779.34	129.59
779.779	116.89
780.219	113.99
780.658	107.79
781.097	110.69
781.537	110.29
781.976	108.29
782.415	103.89
782.855	106.99
783.294	103.59
783.733	104.09
784.172	107.69
784.611	109.49
785.05	103.39
785.489	111.69
785.928	112.89
786.367	118.69
786.806	123.19
787.245	122.39
787.684	131.29
788.123	146.59
788.562	129.99
789.001	114.59
789.44	118.49
789.879	118.39
790.317	119.19
790.756	123.59
791.195	127.39
791.634	143.09
792.072	198.39
792.511	340.79
792.95	961.89
793.388	2103.39
793.827	1911.09
794.265	668.29
794.704	273.49
795.142	192.49
795.581	150.49
796.019	138.59
796.458	130.79
796.896	125.49
797.334	131.99
797.773	147.79
798.211	208.39
798.649	419.59
799.087	996.79
799.526	1549.79
799.964	1952.39
800.402	1981.39
800.84	738.59
801.278	297.79
801.716	177.89
802.154	153.09
802.592	142.59
803.03	133.09
803.468	127.79
803.906	142.19
804.344	140.69
804.782	142.49
805.22	130.99
805.658	123.09
806.096	140.19
806.533	152.59
806.971	175.59
807.409	207.99
807.847	308.69
808.284	641.69
808.722	1807.69
809.16	3195.59
809.597	3023.59
810.035	5269.39
810.472	5684.99
810.91	2043.09
811.347	784.09
811.785	397.89
812.222	254.79
812.66	194.69
813.097	158.09
813.535	140.89
813.972	128.89
814.409	116.29
814.846	103.39
815.284	105.69
815.721	97.19
816.158	112.09
816.595	118.49
817.032	167.39
817.47	195.29
817.907	170.79
818.344	143.79
818.781	114.49
819.218	96.69
819.655	122.39
820.092	181.19
820.529	209.99
820.966	172.39
821.403	133.89
821.839	111.09
822.276	104.39
822.713	118.59
823.15	129.89
823.587	117.59
824.023	138.99
824.46	289.19
824.897	869.89
825.333	1336.99
825.77	562.09
826.206	219.29
826.643	137.19
827.08	100.69
827.516	83.69
827.953	75.09
828.389	83.29
828.825	67.49
829.262	66.39
829.698	62.99
830.135	58.79
830.571	67.89
831.007	65.19
831.443	63.79
831.88	65.59
832.316	57.99
832.752	61.89
833.188	66.59
833.624	63.79
834.06	69.49
834.497	69.19
834.933	69.79
835.369	76.19
835.805	62.79
836.241	79.09
836.677	76.99
837.112	93.09
837.548	104.69
837.984	133.89
838.42	201.79
838.856	478.29
839.292	1459.99
839.727	2252.49
840.163	1045.49
840.599	892.49
841.034	1969.69
841.47	2096.69
841.906	767.39
842.341	333.79
842.777	221.29
843.212	316.49
843.648	309.49
844.083	153.69
844.519	93.39
844.954	78.99
845.39	56.99
845.825	52.59
846.261	54.89
846.696	51.89
847.131	50.79
847.566	56.49
848.002	56.09
848.437	51.29
848.872	60.89
849.307	62.39
849.742	83.89
850.177	180.59
850.613	535.29
851.048	869.79
851.483	376.99
851.918	151.59
852.353	84.99
852.788	60.49
853.223	57.89
853.657	50.19
854.092	49.59
854.527	47.59
854.962	45.09
855.397	43.69
855.832	49.99
856.266	38.29
856.701	39.49
857.136	41.19
857.57	42.19
858.005	49.89
858.44	59.39
858.874	42.39
859.309	51.49
859.743	40.19
860.178	44.39
860.612	38.19
861.047	45.49
861.481	65.09
861.915	67.89
862.35	49.09
862.784	37.29
863.218	40.39
863.653	34.79
864.087	47.89
864.521	51.09
864.955	66.99
865.39	153.89
865.824	171.89
866.258	108.49
866.692	156.89
867.126	165.69
867.56	102.19
867.994	49.49
868.428	38.99
868.862	46.09
869.296	57.09
869.73	54.09
870.164	53.29
870.598	52.69
871.031	36.19
871.465	34.29
871.899	30.59
872.333	26.99
872.766	30.59
873.2	27.39
873.634	34.19
874.067	24.79
874.501	25.89
874.935	34.99
875.368	28.79
875.802	30.59
876.235	26.69
876.669	25.69
877.102	25.89
877.535	18.59
877.969	23.99
878.402	28.39
878.836	17.49
879.269	22.59
879.702	22.19
880.135	31.39
880.569	27.39
881.002	27.89
881.435	14.19
881.868	15.79
882.301	20.69
882.734	17.89
883.167	25.69
883.601	18.29
884.034	18.99
884.467	18.79
884.899	20.19
885.332	17.39
885.765	13.69
886.198	17.49
886.631	17.79
887.064	19.59
887.497	16.09
887.929	29.79
888.362	16.39
888.795	16.99
889.228	19.99
889.66	20.69
890.093	15.19
890.526	16.89
890.958	17.59
891.391	19.99
891.823	26.39
892.256	14.49
892.688	16.09
893.121	19.79
893.553	10.29
893.985	20.59
894.418	22.09
894.85	11.39
895.282	18.89
895.715	21.89
896.147	23.99
896.579	17.39
897.011	16.19
897.444	23.09
897.876	16.09
898.308	24.09
898.74	21.19
899.172	18.49
899.604	26.39
900.036	18.29
900.468	17.09
900.9	15.29
901.332	16.49
901.764	13.29
902.196	18.39
902.628	19.89
903.06	17.89
903.491	28.99
903.923	26.39
904.355	23.29
904.787	24.69
905.218	21.09
905.65	25.19
906.082	20.49
906.513	15.09
906.945	16.09
907.376	16.09
907.808	16.69
908.239	22.49
908.671	23.89
909.102	22.69
909.534	27.39
909.965	44.39
910.397	92.69
910.828	311.29
911.259	462.39
911.691	214.69
912.122	109.19
912.553	45.59
912.984	32.49
913.415	26.69
913.847	20.09
914.278	14.79
914.709	17.59
915.14	17.39
915.571	17.39
916.002	18.09
916.433	17.49
916.864	17.29
917.295	18.09
917.726	22.29
918.157	15.79
918.587	26.79
919.018	29.49
919.449	24.99
919.88	20.69
920.311	27.69
920.741	47.89
921.172	161.09
921.603	155.89
922.033	71.69
922.464	39.19
922.895	24.89
923.325	19.39
923.756	14.59
924.186	19.79
924.617	21.09
925.047	40.29
925.478	55.59
925.908	44.69
926.338	29.19
926.769	21.39
927.199	23.09
927.629	15.09
928.06	16.19
928.49	16.49
928.92	16.19
929.35	9.09
929.78	15.69
930.21	11.19
930.641	7.59
931.071	13.29
931.501	6.89
931.931	8.29
932.361	12.99
932.791	-1.81
933.221	8.89
933.651	11.19
934.08	17.19
934.51	25.49
934.94	10.59
935.37	4.49
935.8	9.69
936.229	4.69
936.659	13.79
937.089	5.29
937.519	12.79
937.948	14.59
938.378	19.89
938.807	5.29
939.237	1.89
939.666	5.09
940.096	-5.61
940.525	-1.21
940.955	3.39
941.384	3.99
941.814	-4.51
942.243	-3.71
942.672	-0.11
943.102	-0.21
943.531	-1.51
943.96	3.89
944.39	4.89
944.819	0.69
945.248	1.19
945.677	5.79
946.106	6.69
946.535	6.89
946.964	4.99
947.393	8.49
947.822	2.29
948.251	-0.21
948.68	4.39
949.109	7.29
949.538	5.99
949.967	0.89
950.396	-2.11
950.825	-2.61
951.254	3.09
951.682	-3.51
952.111	5.29
952.54	10.69
952.969	-4.71
953.397	-6.51
953.826	3.19
954.254	-1.01
954.683	5.09
955.112	0.89
955.54	2.49
955.969	2.69
956.397	-0.21
956.826	-8.01
957.254	2.79
957.682	-5.71
958.111	0.59
958.539	-2.11
958.967	-1.21
959.396	-3.11
959.824	4.49
960.252	-0.81
960.68	-5.51
961.109	-0.61
961.537	-5.31
961.965	1.09
962.393	-0.91
962.821	-0.31
963.249	4.89
963.677	8.29
964.105	6.89
964.533	45.89
964.961	42.09
965.389	24.09
965.817	12.49
966.245	5.09
966.672	3.09
967.1	-5.51
967.528	1.49
967.956	0.99
968.383	7.39
968.811	-1.31
969.239	0.19
969.666	0.49
970.094	3.69
970.522	1.79
970.949	1.69
971.377	-10.11
971.804	-2.31
972.232	-0.41
972.659	4.39
973.087	-5.91
973.514	0.49
973.941	-3.21
974.369	8.59
974.796	1.69
975.223	1.39
975.651	2.89
976.078	0.79
976.505	3.59
976.932	4.19
977.359	15.79
977.786	15.49
978.214	2.39
978.641	1.99
979.068	-4.41
979.495	-2.31
979.922	-2.51
980.349	-1.61
980.776	7.09
981.202	0.59
981.629	5.79
982.056	-5.41
982.483	-0.61
982.91	-2.61
983.337	-7.61
983.763	1.89
984.19	-3.71
984.617	-4.61
985.043	-8.01
985.47	-0.81
985.897	-7.71
986.323	-10.11
986.75	8.19
987.176	-1.71
987.603	-3.71
988.029	-0.31
988.456	0.59
988.882	8.89
989.308	1.39
989.735	-5.51
990.161	2.99
990.587	-5.31
991.014	4.29
991.44	2.59
991.866	-3.91
992.292	-5.81
992.719	-4.41
993.145	3.89
993.571	-5.51
993.997	-4.81
994.423	-1.41
994.849	-2.01
995.275	4.79
995.701	-1.11
996.127	-0.11
996.553	9.79
996.979	-12.11
997.405	3.39
997.83	-6.81
998.256	-3.01
998.682	-6.71
999.108	-6.91
999.534	-2.71
999.959	-4.21
1000.385	1.49
1000.811	-3.31
1001.236	-7.51
1001.662	-6.81
1002.087	-13.71
1002.513	5.49
1002.938	5.19
1003.364	-4.11
1003.789	-8.01
1004.215	5.59
1004.64	-0.31
1005.066	-3.31
1005.491	-3.61
1005.916	-3.21
1006.342	-0.81
1006.767	-6.71
1007.192	7.79
1007.617	1.19
1008.042	-1.51
1008.468	-3.51
1008.893	-2.01
1009.318	-1.61
1009.743	2.19
1010.168	5.49
1010.593	-1.01
1011.018	-10.61
1011.443	0.49
1011.868	0.99
1012.293	-6.11
1012.718	-6.21
1013.143	-4.21
1013.567	0.39
1013.992	-8.21
1014.417	-20.11
1014.842	5.89
1015.267	-1.81
1015.691	0.79
1016.116	9.09
1016.541	1.49
1016.965	-1.21
1017.39	1.09
1017.814	1.19
1018.239	6.49
1018.663	-4.51
1019.088	-9.71
1019.512	0.69
1019.937	3.19
1020.361	-4.41
1020.785	-5.81
1021.21	-6.61
1021.634	5.79
1022.058	4.19
1022.483	-0.41
1022.907	-6.91
1023.331	-7.01
1023.755	-3.11
1024.179	-3.91
1024.604	-5.61
1025.028	-1.71
1025.452	-7.61
1025.876	-4.21
1026.3	3.89
1026.724	-9.21
1027.148	-6.41
1027.572	-10.71
1027.996	-0.91
1028.42	2.99
1028.843	-0.11
1029.267	-6.91
1029.691	-2.41
1030.115	-10.41
1030.539	-6.51
1030.962	-6.41
1031.386	-9.61
1031.81	-1.61
1032.233	4.09
1032.657	0.89
1033.08	-1.81
1033.504	-1.01
1033.927	-5.81
1034.351	-1.61
1034.774	-4.91
1035.198	-2.91
1035.621	-4.51
1036.045	0.99
1036.468	1.49
1036.891	-5.21
1037.315	-2.71
1037.738	-4.11
1038.161	2.79
1038.584	1.59
1039.008	-8.71
1039.431	-0.81
1039.854	-5.41
1040.277	-5.91
1040.7	-10.41
1041.123	-4.91
1041.546	-9.51
1041.969	-6.11
1042.392	-5.21
1042.815	-2.71
1043.238	-1.31
1043.661	-2.31
1044.084	-4.81
1044.507	-6.41
1044.93	-7.31
1045.352	-5.21
1045.775	-1.61
1046.198	0.39
1046.621	1.19
1047.043	4.29
1047.466	4.49
1047.889	-1.21
1048.311	-5.81
1048.734	-1.51
1049.156	-5.11
1049.579	-3.21
1050.001	-0.81
1050.424	3.29
1050.846	0.99
1051.269	-8.41
1051.691	-7.91
1052.113	2.19
1052.536	1.29
1052.958	-6.41
1053.38	-7.41
1053.802	-8.81
1054.225	5.99
1054.647	-6.91
1055.069	-7.51
1055.491	0.49
1055.913	-9.61
1056.335	3.09
1056.757	-1.61
1057.179	-9.21
1057.601	-3.91
1058.023	-4.81
1058.445	-5.51
1058.867	-4.11
1059.289	-1.81
1059.711	-10.81
1060.133	0.79
1060.555	-5.21
1060.976	-1.21
1061.398	-3.81
1061.82	-9.21
1062.241	-10.01
1062.663	-8.01
1063.085	-7.71
1063.506	-2.21
1063.928	-1.91
1064.35	1.09
1064.771	-9.81
1065.193	-1.61
1065.614	-7.61
1066.035	-2.01
1066.457	-9.61
1066.878	-2.51
1067.3	-4.41
1067.721	-1.61
1068.142	-5.71
1068.564	-3.21
1068.985	-4.61
1069.406	-1.21
1069.827	-4.91
1070.248	-1.31
1070.67	-5.91
1071.091	-3.01
1071.512	-4.81
1071.933	-7.01
1072.354	-1.71
1072.775	-0.61
1073.196	-6.51
1073.617	-8.91
1074.038	-6.01
1074.459	-2.21
1074.88	-7.31
1075.3	0.79
1075.721	-5.11
1076.142	-1.81
1076.563	-5.81
1076.983	-11.21
1077.404	-10.21
1077.825	-15.01
1078.246	-3.31
1078.666	-8.31
1079.087	-6.91
1079.507	-6.91
1079.928	3.79
1080.348	4.09
1080.769	-9.61
1081.189	-3.81
1081.61	-4.31
1082.03	-6.51
1082.451	-5.91
1082.871	-5.11
1083.291	-8.01
1083.711	-8.51
1084.132	-9.21
1084.552	-1.11
1084.972	1.59
1085.392	-9.41
1085.813	-3.61
1086.233	-9.41
1086.653	-0.01
1087.073	-0.31
1087.493	-5.31
1087.913	-3.21
1088.333	-8.91
1088.753	-4.01
1089.173	-1.31
1089.593	-3.61
1090.013	1.09
1090.433	-3.41
1090.852	-3.21
1091.272	-1.81
1091.692	4.69
1092.112	-4.11
1092.531	-9.01
1092.951	-8.61
1093.371	-6.21
1093.79	4.09
1094.21	-3.51
1094.63	-5.31
1095.049	-6.51
1095.469	-1.61
1095.888	-2.81
1096.308	-0.71
1096.727	5.39
1097.146	-8.51
1097.566	-0.51
1097.985	-8.41
1098.405	-7.91
1098.824	-4.21
1099.243	-2.21
1099.662	-11.71
1100.082	-2.71
1100.501	-6.41
1100.92	-11.81
1101.339	0.09
1101.758	-7.81
