Data from 20171114-ORNL-Ar_H_NY_Subt18_08-07-17-786.txt Node
Date: Tue Nov 14 08:07:17 EST 2017
User: Ender
Spectrometer: HR+D1039
Trigger mode: 0
Integration Time (sec): 2.730000E-2
Scans to average: 10
Electric dark correction enabled: true
Nonlinearity correction enabled: false
Boxcar width: 0
XAxis mode: Wavelengths
Number of Pixels in Spectrum: 2048
>>>>>Begin Spectral Data<<<<<
187.836	-1.33
188.309	-1.33
188.782	-1.33
189.255	-2.03
189.728	4.37
190.201	9.97
190.674	-0.43
191.147	-0.73
191.619	-9.73
192.092	-0.33
192.565	5.77
193.038	1.77
193.511	-2.13
193.984	-0.03
194.456	-4.73
194.929	5.47
195.402	-6.43
195.874	0.57
196.347	1.27
196.82	-7.23
197.292	3.67
197.765	0.47
198.237	-2.33
198.71	6.37
199.182	0.67
199.655	5.97
200.127	-1.53
200.6	-4.53
201.072	0.87
201.544	-4.23
202.017	-2.03
202.489	3.47
202.961	0.27
203.433	0.17
203.906	-6.33
204.378	-5.03
204.85	-3.63
205.322	-6.03
205.794	-0.93
206.266	-0.53
206.739	-9.33
207.211	5.67
207.683	-4.43
208.155	-5.23
208.627	-5.93
209.099	-8.03
209.57	-11.33
210.042	-0.93
210.514	-2.23
210.986	-0.93
211.458	-6.53
211.93	0.37
212.402	3.07
212.873	-11.43
213.345	-10.73
213.817	-6.73
214.288	-3.13
214.76	-8.13
215.232	2.07
215.703	-8.53
216.175	-3.23
216.646	-1.33
217.118	-4.43
217.589	-5.63
218.061	-5.83
218.532	-8.13
219.004	-2.23
219.475	-2.33
219.946	-1.73
220.418	-7.73
220.889	-1.23
221.36	-6.63
221.832	-7.73
222.303	-7.63
222.774	-3.83
223.245	-7.43
223.717	-4.83
224.188	-6.53
224.659	-6.33
225.13	-4.73
225.601	4.47
226.072	-4.93
226.543	0.77
227.014	-4.83
227.485	-5.83
227.956	-7.43
228.427	-3.93
228.898	1.27
229.369	2.87
229.839	-2.23
230.31	-7.83
230.781	0.87
231.252	-8.13
231.722	-5.63
232.193	-8.93
232.664	-5.33
233.135	-3.43
233.605	-9.53
234.076	-12.43
234.546	5.37
235.017	1.97
235.487	-5.23
235.958	-1.73
236.428	-7.93
236.899	-0.73
237.369	-1.33
237.84	-4.93
238.31	-0.23
238.78	-4.73
239.251	-4.33
239.721	4.27
240.191	-2.03
240.662	-3.53
241.132	5.27
241.602	-0.63
242.072	-4.13
242.542	2.57
243.013	-9.03
243.483	3.17
243.953	3.87
244.423	-4.93
244.893	-8.53
245.363	1.67
245.833	-3.83
246.303	-1.63
246.773	-0.13
247.243	-3.63
247.712	-5.63
248.182	1.97
248.652	2.57
249.122	-13.53
249.592	-2.43
250.061	2.27
250.531	5.07
251.001	-1.73
251.471	5.47
251.94	4.27
252.41	-1.63
252.879	-1.83
253.349	8.57
253.818	1.67
254.288	-3.33
254.757	1.77
255.227	-6.23
255.696	0.77
256.166	-1.33
256.635	2.87
257.105	2.87
257.574	-2.73
258.043	2.77
258.513	-4.13
258.982	-4.83
259.451	-5.93
259.92	-3.13
260.389	3.37
260.859	7.77
261.328	3.87
261.797	-1.53
262.266	-1.83
262.735	6.77
263.204	1.37
263.673	-4.53
264.142	-2.33
264.611	-5.53
265.08	-5.73
265.549	-6.53
266.018	3.37
266.487	-7.03
266.955	-10.13
267.424	-3.13
267.893	-2.53
268.362	-2.03
268.83	0.07
269.299	9.47
269.768	-0.33
270.236	6.77
270.705	-1.83
271.174	-2.03
271.642	7.67
272.111	-0.23
272.579	-1.33
273.048	-3.93
273.516	-0.33
273.985	2.17
274.453	10.27
274.922	9.57
275.39	5.07
275.858	-6.13
276.327	3.27
276.795	5.87
277.263	3.27
277.731	11.97
278.2	4.47
278.668	6.27
279.136	8.87
279.604	2.07
280.072	8.67
280.54	9.97
281.008	2.57
281.477	13.67
281.945	7.77
282.413	10.47
282.881	2.77
283.348	3.17
283.816	7.47
284.284	7.07
284.752	17.57
285.22	13.37
285.688	10.77
286.156	7.77
286.623	16.67
287.091	7.87
287.559	11.97
288.026	5.77
288.494	11.27
288.962	2.77
289.429	4.17
289.897	11.57
290.364	12.67
290.832	13.07
291.3	12.17
291.767	12.37
292.234	16.17
292.702	9.17
293.169	8.67
293.637	13.77
294.104	9.87
294.571	3.37
295.039	7.87
295.506	7.97
295.973	11.17
296.44	10.57
296.908	13.07
297.375	5.67
297.842	10.37
298.309	7.57
298.776	5.47
299.243	11.77
299.71	14.47
300.177	22.97
300.644	18.27
301.111	12.77
301.578	16.17
302.045	8.97
302.512	13.57
302.979	17.77
303.446	15.07
303.913	9.87
304.379	8.37
304.846	22.27
305.313	13.17
305.78	15.77
306.246	22.47
306.713	23.27
307.18	20.47
307.646	15.97
308.113	24.87
308.579	20.27
309.046	18.67
309.512	18.27
309.979	11.47
310.445	27.47
310.912	25.27
311.378	25.97
311.845	21.57
312.311	24.67
312.777	23.67
313.244	16.47
313.71	29.77
314.176	21.17
314.642	22.27
315.109	22.17
315.575	23.57
316.041	24.67
316.507	23.17
316.973	27.67
317.439	25.17
317.905	26.67
318.371	28.67
318.837	27.77
319.303	27.07
319.769	28.77
320.235	19.37
320.701	28.57
321.167	32.07
321.633	22.47
322.099	29.87
322.564	32.07
323.03	26.07
323.496	24.57
323.962	29.67
324.427	25.27
324.893	32.27
325.359	32.87
325.824	25.97
326.29	26.17
326.755	30.07
327.221	34.37
327.686	32.97
328.152	40.27
328.617	34.67
329.083	37.27
329.548	36.87
330.014	38.17
330.479	28.17
330.944	33.37
331.41	32.57
331.875	34.77
332.34	36.27
332.805	25.27
333.271	36.97
333.736	28.87
334.201	45.57
334.666	45.47
335.131	48.77
335.596	39.17
336.061	47.37
336.526	34.87
336.991	30.37
337.456	45.97
337.921	38.17
338.386	36.97
338.851	39.37
339.316	37.87
339.781	41.97
340.246	42.27
340.711	35.47
341.175	43.17
341.64	36.17
342.105	43.77
342.569	45.27
343.034	49.67
343.499	50.97
343.963	43.07
344.428	48.87
344.893	51.57
345.357	49.67
345.822	52.67
346.286	59.17
346.751	58.87
347.215	55.67
347.679	47.77
348.144	75.97
348.608	65.87
349.073	57.27
349.537	65.17
350.001	64.57
350.465	67.57
350.93	69.87
351.394	77.97
351.858	60.97
352.322	76.67
352.786	66.97
353.25	80.07
353.715	85.87
354.179	81.37
354.643	103.07
355.107	98.77
355.571	83.37
356.035	79.77
356.498	84.87
356.962	85.87
357.426	98.17
357.89	96.37
358.354	78.47
358.818	71.97
359.281	69.77
359.745	66.27
360.209	63.07
360.673	57.87
361.136	64.17
361.6	71.47
362.064	72.07
362.527	70.07
362.991	81.87
363.454	73.67
363.918	66.07
364.381	72.17
364.845	74.37
365.308	74.87
365.772	76.67
366.235	79.07
366.698	73.47
367.162	78.67
367.625	77.47
368.088	75.87
368.552	72.47
369.015	79.07
369.478	84.57
369.941	95.97
370.404	78.77
370.867	85.77
371.331	91.27
371.794	94.27
372.257	89.97
372.72	93.77
373.183	88.17
373.646	88.77
374.109	89.57
374.572	92.87
375.035	91.07
375.497	92.57
375.96	95.57
376.423	95.07
376.886	103.67
377.349	99.97
377.811	89.77
378.274	95.07
378.737	86.37
379.199	99.37
379.662	99.47
380.125	101.77
380.587	100.07
381.05	95.57
381.512	106.67
381.975	112.97
382.437	105.97
382.9	106.97
383.362	113.27
383.825	116.97
384.287	116.67
384.75	108.87
385.212	112.57
385.674	123.07
386.136	117.17
386.599	107.27
387.061	105.87
387.523	112.67
387.985	116.17
388.447	125.77
388.91	109.07
389.372	119.97
389.834	119.37
390.296	117.67
390.758	128.67
391.22	124.67
391.682	131.17
392.144	133.67
392.606	129.37
393.068	124.17
393.529	138.07
393.991	131.07
394.453	120.57
394.915	123.67
395.377	129.27
395.838	133.67
396.3	132.17
396.762	135.07
397.224	128.37
397.685	124.67
398.147	125.97
398.608	127.97
399.07	128.07
399.531	139.97
399.993	143.77
400.454	146.67
400.916	144.97
401.377	139.57
401.839	146.37
402.3	138.67
402.762	162.47
403.223	178.07
403.684	169.27
404.145	152.07
404.607	155.77
405.068	163.57
405.529	157.67
405.99	173.87
406.451	171.97
406.913	166.37
407.374	162.27
407.835	156.47
408.296	160.07
408.757	165.77
409.218	182.47
409.679	169.97
410.14	164.47
410.601	171.97
411.062	172.07
411.522	180.57
411.983	178.87
412.444	167.97
412.905	176.17
413.366	188.27
413.826	189.97
414.287	219.27
414.748	267.17
415.208	251.17
415.669	214.47
416.13	208.77
416.59	204.97
417.051	222.37
417.511	222.67
417.972	235.57
418.432	252.47
418.893	289.57
419.353	251.07
419.814	199.77
420.274	186.27
420.734	174.87
421.195	193.07
421.655	185.97
422.115	193.27
422.576	196.47
423.036	201.97
423.496	205.87
423.956	217.57
424.416	233.27
424.876	266.67
425.336	256.47
425.797	255.57
426.257	258.37
426.717	242.97
427.177	233.37
427.637	222.97
428.097	230.47
428.556	237.77
429.016	258.07
429.476	261.87
429.936	276.77
430.396	275.97
430.856	277.57
431.315	303.07
431.775	331.77
432.235	367.77
432.694	346.67
433.154	344.97
433.614	365.77
434.073	325.67
434.533	273.87
434.993	267.07
435.452	276.87
435.912	282.97
436.371	280.37
436.83	275.77
437.29	254.47
437.749	241.67
438.209	257.27
438.668	267.77
439.127	277.77
439.587	258.87
440.046	238.77
440.505	258.37
440.964	278.17
441.424	320.57
441.883	302.97
442.342	256.67
442.801	231.27
443.26	235.07
443.719	231.57
444.178	224.07
444.637	216.27
445.096	228.37
445.555	232.77
446.014	228.97
446.473	231.67
446.932	235.07
447.391	234.27
447.849	237.67
448.308	226.97
448.767	226.27
449.226	248.77
449.685	248.77
450.143	255.47
450.602	244.67
451.061	232.67
451.519	242.67
451.978	233.27
452.436	241.57
452.895	240.27
453.353	259.47
453.812	248.07
454.27	250.67
454.729	246.47
455.187	249.77
455.646	249.17
456.104	258.77
456.562	266.67
457.021	268.27
457.479	265.07
457.937	282.77
458.395	274.07
458.854	255.07
459.312	257.67
459.77	280.47
460.228	266.47
460.686	254.37
461.144	259.97
461.602	249.07
462.06	252.97
462.518	262.77
462.976	269.97
463.434	266.67
463.892	271.67
464.35	283.77
464.808	292.27
465.266	281.47
465.724	283.57
466.181	282.87
466.639	278.67
467.097	303.87
467.555	306.37
468.012	308.67
468.47	318.17
468.928	337.67
469.385	349.17
469.843	353.47
470.3	358.87
470.758	372.57
471.215	392.87
471.673	417.97
472.13	417.17
472.588	422.27
473.045	386.17
473.503	387.67
473.96	403.87
474.417	407.57
474.875	447.87
475.332	477.27
475.789	462.67
476.246	479.87
476.704	499.17
477.161	521.97
477.618	527.37
478.075	573.57
478.532	613.97
478.989	690.37
479.446	803.57
479.903	771.37
480.36	799.47
480.817	846.77
481.274	932.67
481.731	1034.17
482.188	1095.27
482.645	1209.07
483.102	1317.17
483.558	1429.37
484.015	1464.77
484.472	1444.37
484.929	1405.07
485.385	1358.37
485.842	1319.67
486.299	1286.67
486.755	1249.77
487.212	1058.27
487.668	913.77
488.125	842.17
488.582	778.87
489.038	749.07
489.494	724.77
489.951	696.87
490.407	681.77
490.864	654.37
491.32	654.67
491.776	650.47
492.233	665.67
492.689	634.47
493.145	620.47
493.602	607.77
494.058	626.07
494.514	627.37
494.97	658.27
495.426	668.97
495.882	639.07
496.338	625.27
496.794	637.77
497.251	637.97
497.707	643.27
498.163	648.87
498.618	656.17
499.074	661.77
499.53	686.37
499.986	684.27
500.442	668.67
500.898	638.27
501.354	635.17
501.809	648.07
502.265	632.57
502.721	651.67
503.177	660.27
503.632	662.57
504.088	664.17
504.543	695.27
504.999	712.97
505.455	676.47
505.91	651.17
506.366	652.77
506.821	657.47
507.277	660.47
507.732	667.47
508.187	652.67
508.643	664.57
509.098	661.87
509.553	687.37
510.009	691.17
510.464	693.97
510.919	727.67
511.375	718.77
511.83	734.87
512.285	743.47
512.74	774.87
513.195	803.27
513.65	790.27
514.105	787.77
514.56	790.67
515.015	821.77
515.47	825.97
515.925	802.57
516.38	821.47
516.835	822.97
517.29	811.97
517.745	806.97
518.2	792.77
518.655	785.17
519.109	773.97
519.564	769.07
520.019	756.07
520.474	752.87
520.928	752.67
521.383	744.77
521.838	748.97
522.292	742.87
522.747	743.57
523.201	730.47
523.656	719.37
524.11	720.57
524.565	718.17
525.019	723.47
525.474	726.97
525.928	721.47
526.382	722.77
526.837	728.67
527.291	733.07
527.745	722.97
528.2	723.97
528.654	720.47
529.108	712.37
529.562	725.27
530.016	714.27
530.47	719.67
530.925	713.07
531.379	722.87
531.833	722.97
532.287	730.77
532.741	724.47
533.195	730.57
533.649	738.47
534.103	746.47
534.556	724.77
535.01	735.87
535.464	731.87
535.918	742.37
536.372	747.87
536.826	736.37
537.279	731.27
537.733	740.97
538.187	750.47
538.64	740.07
539.094	747.17
539.548	758.27
540.001	745.77
540.455	750.77
540.908	755.07
541.362	766.57
541.815	779.37
542.269	784.27
542.722	790.67
543.175	803.07
543.629	798.17
544.082	811.17
544.536	817.07
544.989	807.57
545.442	831.97
545.895	822.87
546.349	830.47
546.802	822.37
547.255	825.17
547.708	843.77
548.161	852.87
548.614	859.07
549.067	864.57
549.52	849.77
549.973	854.17
550.426	841.67
550.879	834.77
551.332	832.27
551.785	855.97
552.238	845.77
552.691	862.07
553.144	868.07
553.596	877.87
554.049	905.47
554.502	929.57
554.955	948.27
555.407	943.67
555.86	941.57
556.313	932.27
556.765	922.77
557.218	922.37
557.67	919.97
558.123	907.87
558.576	906.67
559.028	907.47
559.48	926.37
559.933	911.07
560.385	885.17
560.838	854.97
561.29	829.47
561.742	828.17
562.195	797.57
562.647	792.07
563.099	808.67
563.551	808.27
564.004	807.87
564.456	803.37
564.908	792.47
565.36	769.47
565.812	761.77
566.264	752.47
566.716	740.37
567.168	732.77
567.62	743.87
568.072	734.97
568.524	721.37
568.976	721.97
569.428	694.67
569.88	710.07
570.332	711.47
570.784	720.37
571.235	715.37
571.687	723.17
572.139	733.37
572.59	741.87
573.042	745.47
573.494	747.97
573.945	731.67
574.397	715.87
574.849	716.77
575.3	720.77
575.752	710.07
576.203	706.17
576.655	709.57
577.106	708.47
577.557	693.97
578.009	703.57
578.46	691.87
578.912	694.07
579.363	692.47
579.814	698.07
580.265	691.07
580.717	697.67
581.168	700.17
581.619	698.07
582.07	704.57
582.521	702.07
582.972	697.47
583.423	701.27
583.875	692.37
584.326	709.17
584.777	718.47
585.227	733.47
585.678	741.97
586.129	759.97
586.58	779.07
587.031	797.57
587.482	830.27
587.933	864.77
588.384	830.47
588.834	806.77
589.285	799.97
589.736	792.47
590.186	793.67
590.637	787.77
591.088	778.77
591.538	764.37
591.989	754.47
592.439	746.47
592.89	747.27
593.34	733.77
593.791	717.77
594.241	723.17
594.692	724.57
595.142	711.67
595.593	710.57
596.043	719.17
596.493	736.77
596.943	723.27
597.394	743.47
597.844	738.07
598.294	764.97
598.744	778.27
599.195	800.57
599.645	854.27
600.095	893.47
600.545	941.67
600.995	996.47
601.445	1059.27
601.895	1127.57
602.345	1170.67
602.795	1145.57
603.245	1110.17
603.695	1059.87
604.145	1000.87
604.594	942.67
605.044	898.17
605.494	835.07
605.944	789.37
606.393	772.17
606.843	743.47
607.293	754.37
607.743	753.87
608.192	763.87
608.642	766.77
609.091	778.67
609.541	778.47
609.99	784.37
610.44	773.47
610.889	730.37
611.339	718.47
611.788	696.57
612.238	710.37
612.687	720.17
613.136	715.67
613.586	726.77
614.035	727.87
614.484	736.87
614.933	730.47
615.383	723.87
615.832	718.27
616.281	728.87
616.73	686.27
617.179	676.27
617.628	658.97
618.077	641.47
618.526	638.77
618.975	628.27
619.424	637.37
619.873	625.37
620.322	633.87
620.771	610.77
621.22	625.17
621.669	607.17
622.118	607.37
622.567	595.67
623.015	584.97
623.464	589.97
623.913	575.97
624.361	563.57
624.81	567.17
625.259	569.77
625.707	569.67
626.156	568.77
626.604	590.67
627.053	581.47
627.501	582.97
627.95	586.17
628.398	604.97
628.847	589.67
629.295	582.77
629.744	590.77
630.192	585.27
630.64	576.87
631.089	564.37
631.537	557.77
631.985	543.97
632.433	547.47
632.881	547.77
633.33	545.67
633.778	548.57
634.226	536.07
634.674	547.97
635.122	555.47
635.57	561.27
636.018	572.27
636.466	571.77
636.914	572.07
637.362	583.97
637.81	592.07
638.258	600.57
638.705	593.07
639.153	617.77
639.601	636.07
640.049	666.87
640.497	697.17
640.944	716.97
641.392	668.47
641.84	625.57
642.287	597.77
642.735	579.67
643.182	575.37
643.63	583.97
644.078	574.67
644.525	586.27
644.973	602.57
645.42	604.37
645.867	619.27
646.315	644.27
646.762	668.27
647.21	691.87
647.657	711.77
648.104	745.17
648.551	761.27
648.999	832.77
649.446	894.57
649.893	985.97
650.34	1117.77
650.787	1339.87
651.234	1644.37
651.682	2102.97
652.129	2861.77
652.576	4060.57
653.023	5917.27
653.47	8032.57
653.917	9961.87
654.363	11442.77
654.81	12656.27
655.257	11985.37
655.704	7910.77
656.151	4772.27
656.598	3133.27
657.044	2252.37
657.491	1759.67
657.938	1425.97
658.385	1186.97
658.831	1049.87
659.278	946.67
659.724	843.27
660.171	782.07
660.618	712.67
661.064	681.47
661.511	657.87
661.957	657.97
662.404	634.87
662.85	649.57
663.296	627.97
663.743	569.47
664.189	546.57
664.635	546.17
665.082	537.97
665.528	538.27
665.974	525.07
666.42	518.67
666.867	518.77
667.313	497.77
667.759	478.97
668.205	468.97
668.651	471.67
669.097	452.77
669.543	447.77
669.989	453.17
670.435	462.97
670.881	455.47
671.327	460.07
671.773	486.67
672.219	510.07
672.665	561.37
673.11	607.37
673.556	647.07
674.002	698.37
674.448	680.07
674.893	568.57
675.339	489.27
675.785	452.47
676.23	427.97
676.676	404.27
677.122	390.97
677.567	390.67
678.013	381.27
678.458	367.67
678.904	369.87
679.349	360.27
679.794	361.67
680.24	363.27
680.685	362.27
681.131	365.47
681.576	363.67
682.021	362.27
682.466	354.67
682.912	361.77
683.357	369.27
683.802	392.67
684.247	416.67
684.692	468.77
685.137	521.17
685.583	562.37
686.028	577.67
686.473	533.17
686.918	464.07
687.363	435.07
687.807	404.57
688.252	372.77
688.697	370.37
689.142	351.17
689.587	344.67
690.032	338.57
690.477	347.87
690.921	357.27
691.366	401.47
691.811	408.77
692.255	442.87
692.7	475.27
693.145	517.27
693.589	727.47
694.034	1186.57
694.478	1623.57
694.923	1805.67
695.367	2359.47
695.812	1261.37
696.256	517.67
696.701	382.37
697.145	354.47
697.59	331.77
698.034	323.07
698.478	327.47
698.922	332.07
699.367	333.47
699.811	338.17
700.255	366.47
700.699	400.47
701.143	427.97
701.588	488.17
702.032	531.27
702.476	532.37
702.92	509.97
703.364	512.47
703.808	671.17
704.252	1091.77
704.696	1522.47
705.14	1747.27
705.584	2211.57
706.027	1106.97
706.471	542.47
706.915	415.67
707.359	359.17
707.803	340.47
708.246	321.17
708.69	323.57
709.134	332.07
709.577	324.97
710.021	323.47
710.465	318.57
710.908	303.97
711.352	310.37
711.795	321.07
712.239	366.37
712.682	401.37
713.126	423.67
713.569	474.47
714.012	366.97
714.456	311.07
714.899	302.77
715.342	283.97
715.786	263.77
716.229	268.67
716.672	263.77
717.115	259.87
717.558	261.67
718.002	262.67
718.445	274.67
718.888	297.27
719.331	299.07
719.774	315.27
720.217	308.77
720.66	287.57
721.103	273.07
721.546	264.17
721.989	256.57
722.432	233.37
722.874	242.97
723.317	238.57
723.76	236.77
724.203	263.57
724.645	330.47
725.088	459.97
725.531	592.37
725.974	667.17
726.416	560.87
726.859	316.47
727.301	255.27
727.744	249.77
728.187	241.67
728.629	246.57
729.071	246.77
729.514	268.47
729.956	280.37
730.399	295.07
730.841	302.07
731.283	280.37
731.726	273.87
732.168	266.67
732.61	280.37
733.053	296.27
733.495	323.17
733.937	365.57
734.379	410.07
734.821	447.97
735.263	568.67
735.705	876.67
736.148	1662.97
736.59	2728.07
737.032	3184.57
737.474	2593.37
737.916	852.27
738.357	449.17
738.799	341.47
739.241	318.97
739.683	301.47
740.125	306.07
740.567	306.77
741.008	329.27
741.45	326.57
741.892	334.87
742.334	363.07
742.775	373.97
743.217	354.77
743.658	279.67
744.1	271.17
744.542	275.67
744.983	335.87
745.425	355.37
745.866	359.57
746.307	289.87
746.749	284.27
747.19	346.37
747.632	474.17
748.073	931.47
748.514	1966.77
748.956	2990.57
749.397	3766.87
749.838	3118.37
750.279	3085.37
750.72	1563.37
751.162	578.07
751.603	335.67
752.044	263.87
752.485	231.87
752.926	221.97
753.367	209.97
753.808	195.77
754.249	196.77
754.69	188.57
755.131	192.57
755.572	185.77
756.013	194.37
756.453	194.97
756.894	196.87
757.335	191.57
757.776	195.47
758.216	204.87
758.657	202.97
759.098	213.47
759.538	235.77
759.979	273.47
760.42	393.37
760.86	748.17
761.301	1943.37
761.741	4676.17
762.182	6705.57
762.622	4751.77
763.063	1377.57
763.503	554.97
763.943	345.67
764.384	277.47
764.824	240.57
765.264	226.57
765.705	205.67
766.145	188.57
766.585	182.47
767.025	176.37
767.465	173.17
767.906	179.67
768.346	191.07
768.786	205.37
769.226	223.87
769.666	311.07
770.106	654.87
770.546	1643.97
770.986	2755.57
771.426	2456.57
771.866	819.07
772.306	348.97
772.745	211.77
773.185	175.37
773.625	171.37
774.065	155.87
774.505	159.47
774.944	213.77
775.384	369.67
775.824	596.77
776.263	574.97
776.703	282.87
777.142	164.47
777.582	134.47
778.021	124.77
778.461	127.37
778.9	135.67
779.34	124.37
779.779	113.47
780.219	113.27
780.658	107.07
781.097	109.27
781.537	123.47
781.976	116.27
782.415	112.17
782.855	108.57
783.294	111.17
783.733	107.87
784.172	108.37
784.611	102.57
785.05	114.07
785.489	113.67
785.928	122.57
786.367	123.87
786.806	128.07
787.245	131.97
787.684	144.27
788.123	152.17
788.562	138.97
789.001	129.67
789.44	128.37
789.879	123.97
790.317	122.27
790.756	135.37
791.195	127.67
791.634	154.37
792.072	202.17
792.511	386.87
792.95	1051.07
793.388	2208.17
793.827	1979.27
794.265	689.97
794.704	293.77
795.142	186.67
795.581	153.47
796.019	141.47
796.458	132.67
796.896	120.17
797.334	140.27
797.773	162.37
798.211	226.57
798.649	457.57
799.087	1077.77
799.526	1681.97
799.964	2098.87
800.402	2090.17
800.84	788.17
801.278	317.97
801.716	196.57
802.154	153.97
802.592	152.07
803.03	140.77
803.468	134.87
803.906	149.47
804.344	160.97
804.782	143.97
805.22	147.67
805.658	140.47
806.096	150.67
806.533	162.37
806.971	179.47
807.409	231.37
807.847	331.17
808.284	709.67
808.722	1979.07
809.16	3451.57
809.597	3298.97
810.035	5716.77
810.472	6020.17
810.91	2188.27
811.347	854.57
811.785	427.27
812.222	269.97
812.66	206.07
813.097	173.07
813.535	149.87
813.972	134.47
814.409	125.57
814.846	115.27
815.284	113.47
815.721	109.27
816.158	109.07
816.595	110.97
817.032	161.67
817.47	189.67
817.907	126.07
818.344	102.67
818.781	106.07
819.218	103.47
819.655	123.17
820.092	201.17
820.529	225.17
820.966	172.57
821.403	128.47
821.839	106.87
822.276	102.07
822.713	130.77
823.15	141.57
823.587	120.07
824.023	155.57
824.46	324.37
824.897	950.57
825.333	1407.07
825.77	615.57
826.206	240.37
826.643	141.47
827.08	105.77
827.516	86.87
827.953	83.57
828.389	86.47
828.825	77.27
829.262	69.27
829.698	71.17
830.135	59.77
830.571	65.67
831.007	63.57
831.443	64.37
831.88	67.77
832.316	68.87
832.752	68.17
833.188	70.77
833.624	65.27
834.06	72.77
834.497	69.27
834.933	74.87
835.369	79.47
835.805	69.47
836.241	77.27
836.677	87.97
837.112	96.67
837.548	109.37
837.984	145.07
838.42	210.57
838.856	525.87
839.292	1603.17
839.727	2406.37
840.163	1133.47
840.599	991.27
841.034	2126.07
841.47	2205.57
841.906	810.87
842.341	339.37
842.777	211.07
843.212	206.47
843.648	193.47
844.083	115.87
844.519	88.87
844.954	72.67
845.39	65.97
845.825	56.67
846.261	66.77
846.696	54.57
847.131	51.47
847.566	60.27
848.002	50.07
848.437	54.67
848.872	58.27
849.307	67.07
849.742	87.57
850.177	191.27
850.613	590.07
851.048	909.57
851.483	404.47
851.918	162.97
852.353	84.87
852.788	58.57
853.223	53.67
853.657	55.47
854.092	49.87
854.527	40.97
854.962	42.47
855.397	49.37
855.832	49.47
856.266	41.87
856.701	40.87
857.136	34.17
857.57	42.07
858.005	55.17
858.44	64.17
858.874	45.57
859.309	57.67
859.743	39.07
860.178	50.37
860.612	43.27
861.047	53.57
861.481	73.97
861.915	80.47
862.35	53.97
862.784	38.87
863.218	43.07
863.653	34.17
864.087	43.47
864.521	59.87
864.955	73.17
865.39	157.97
865.824	177.97
866.258	115.87
866.692	174.37
867.126	191.97
867.56	110.57
867.994	53.77
868.428	39.47
868.862	50.67
869.296	58.47
869.73	67.07
870.164	56.57
870.598	49.07
871.031	40.27
871.465	33.47
871.899	31.37
872.333	25.67
872.766	28.17
873.2	19.77
873.634	28.47
874.067	35.17
874.501	27.47
874.935	38.37
875.368	32.67
875.802	31.47
876.235	26.27
876.669	24.97
877.102	26.27
877.535	27.57
877.969	27.07
878.402	26.87
878.836	25.17
879.269	23.77
879.702	27.77
880.135	16.17
880.569	22.37
881.002	30.27
881.435	26.47
881.868	19.67
882.301	25.27
882.734	20.07
883.167	21.67
883.601	19.37
884.034	20.57
884.467	18.87
884.899	25.07
885.332	22.17
885.765	15.77
886.198	21.27
886.631	16.17
887.064	22.37
887.497	21.47
887.929	23.67
888.362	19.57
888.795	15.37
889.228	15.17
889.66	20.77
890.093	21.37
890.526	17.37
890.958	14.87
891.391	18.27
891.823	16.77
892.256	15.97
892.688	12.57
893.121	10.97
893.553	17.57
893.985	26.17
894.418	29.17
894.85	10.17
895.282	20.17
895.715	12.17
896.147	20.97
896.579	19.67
897.011	11.07
897.444	17.27
897.876	19.17
898.308	20.67
898.74	17.07
899.172	15.67
899.604	22.47
900.036	21.07
900.468	10.17
900.9	17.17
901.332	17.87
901.764	15.07
902.196	18.67
902.628	22.87
903.06	17.67
903.491	27.67
903.923	22.77
904.355	18.57
904.787	27.27
905.218	25.17
905.65	22.07
906.082	13.07
906.513	14.07
906.945	10.77
907.376	13.07
907.808	20.87
908.239	20.57
908.671	15.67
909.102	24.27
909.534	22.87
909.965	48.97
910.397	94.57
910.828	338.57
911.259	503.07
911.691	225.77
912.122	113.37
912.553	53.07
912.984	35.47
913.415	21.97
913.847	22.87
914.278	15.57
914.709	19.67
915.14	18.57
915.571	25.97
916.002	16.17
916.433	18.67
916.864	14.77
917.295	13.47
917.726	21.67
918.157	19.27
918.587	30.17
919.018	23.57
919.449	27.37
919.88	27.47
920.311	38.57
920.741	43.37
921.172	174.17
921.603	157.77
922.033	76.67
922.464	47.77
922.895	26.37
923.325	19.47
923.756	14.07
924.186	10.87
924.617	21.17
925.047	23.17
925.478	27.87
925.908	21.47
926.338	9.57
926.769	15.07
927.199	21.77
927.629	12.87
928.06	11.17
928.49	10.67
928.92	14.37
929.35	10.87
929.78	16.57
930.21	6.47
930.641	14.47
931.071	14.77
931.501	5.67
931.931	11.07
932.361	6.07
932.791	15.37
933.221	11.47
933.651	8.67
934.08	18.77
934.51	27.37
934.94	13.97
935.37	13.17
935.8	10.67
936.229	7.47
936.659	11.67
937.089	5.57
937.519	13.07
937.948	20.37
938.378	16.47
938.807	4.47
939.237	5.27
939.666	10.87
940.096	-9.63
940.525	4.07
940.955	2.17
941.384	3.17
941.814	-1.93
942.243	2.57
942.672	5.77
943.102	1.47
943.531	-1.93
943.96	8.27
944.39	5.57
944.819	4.47
945.248	3.37
945.677	4.87
946.106	4.87
946.535	-1.63
946.964	4.57
947.393	1.37
947.822	4.77
948.251	0.27
948.68	5.87
949.109	8.07
949.538	7.57
949.967	-1.13
950.396	4.37
950.825	-4.13
951.254	-0.93
951.682	-6.33
952.111	3.47
952.54	8.57
952.969	1.67
953.397	-3.13
953.826	5.47
954.254	-6.63
954.683	0.67
955.112	-3.33
955.54	-5.83
955.969	-0.93
956.397	-0.93
956.826	-2.43
957.254	3.47
957.682	-1.63
958.111	0.37
958.539	4.97
958.967	3.97
959.396	3.27
959.824	2.57
960.252	5.17
960.68	-3.13
961.109	1.17
961.537	-1.83
961.965	-0.03
962.393	2.67
962.821	1.27
963.249	3.37
963.677	3.97
964.105	16.07
964.533	46.37
964.961	45.47
965.389	20.57
965.817	2.07
966.245	4.37
966.672	1.27
967.1	-7.43
967.528	-1.73
967.956	-4.13
968.383	-3.23
968.811	-3.13
969.239	-4.53
969.666	-0.63
970.094	-0.93
970.522	-2.33
970.949	-0.13
971.377	-1.33
971.804	-4.03
972.232	-3.83
972.659	-2.13
973.087	1.27
973.514	-3.53
973.941	-5.63
974.369	1.37
974.796	0.47
975.223	2.37
975.651	1.27
976.078	7.07
976.505	-2.03
976.932	8.07
977.359	17.57
977.786	16.67
978.214	1.37
978.641	-8.83
979.068	-1.83
979.495	-1.03
979.922	6.27
980.349	-1.53
980.776	5.47
981.202	-3.73
981.629	1.97
982.056	5.37
982.483	0.27
982.91	3.77
983.337	-4.43
983.763	0.97
984.19	-7.93
984.617	-2.13
985.043	-4.03
985.47	0.77
985.897	-0.63
986.323	-6.43
986.75	7.67
987.176	0.17
987.603	-0.03
988.029	-2.33
988.456	0.87
988.882	0.77
989.308	-3.83
989.735	3.27
990.161	0.47
990.587	-7.33
991.014	-0.93
991.44	8.67
991.866	-4.03
992.292	1.87
992.719	-8.13
993.145	-1.13
993.571	-9.43
993.997	-4.53
994.423	-6.73
994.849	-9.33
995.275	5.87
995.701	1.67
996.127	2.57
996.553	6.77
996.979	-3.83
997.405	-3.03
997.83	-2.73
998.256	-1.93
998.682	-4.63
999.108	-7.83
999.534	-4.13
999.959	-0.13
1000.385	-7.43
1000.811	-2.23
1001.236	-11.53
1001.662	-11.43
1002.087	-4.33
1002.513	-3.13
1002.938	2.97
1003.364	0.97
1003.789	3.07
1004.215	3.67
1004.64	2.87
1005.066	1.37
1005.491	0.97
1005.916	-0.73
1006.342	-4.83
1006.767	-5.23
1007.192	2.67
1007.617	1.87
1008.042	-6.63
1008.468	-8.13
1008.893	-6.13
1009.318	-2.03
1009.743	-2.83
1010.168	4.77
1010.593	4.17
1011.018	-8.73
1011.443	1.67
1011.868	-2.23
1012.293	-4.23
1012.718	-3.83
1013.143	2.17
1013.567	-0.03
1013.992	0.57
1014.417	-11.93
1014.842	3.37
1015.267	0.97
1015.691	-1.83
1016.116	2.67
1016.541	-4.43
1016.965	0.77
1017.39	2.07
1017.814	-0.73
1018.239	0.97
1018.663	-6.53
1019.088	-9.63
1019.512	0.37
1019.937	1.97
1020.361	-12.13
1020.785	-7.43
1021.21	3.87
1021.634	-5.83
1022.058	1.77
1022.483	5.67
1022.907	-1.03
1023.331	-6.43
1023.755	-3.83
1024.179	-4.43
1024.604	-8.13
1025.028	-8.83
1025.452	-4.23
1025.876	-3.13
1026.3	-1.33
1026.724	-8.73
1027.148	-7.33
1027.572	-2.93
1027.996	-7.93
1028.42	-0.33
1028.843	-4.13
1029.267	-5.93
1029.691	-1.83
1030.115	-9.43
1030.539	-3.83
1030.962	-10.83
1031.386	-12.33
1031.81	0.97
1032.233	0.17
1032.657	-1.13
1033.08	-1.73
1033.504	-7.03
1033.927	-6.53
1034.351	5.67
1034.774	-6.83
1035.198	-2.93
1035.621	-5.93
1036.045	-7.33
1036.468	-0.93
1036.891	-10.73
1037.315	-8.63
1037.738	-4.93
1038.161	3.57
1038.584	-2.43
1039.008	-6.13
1039.431	-4.83
1039.854	-1.53
1040.277	-7.83
1040.7	-10.93
1041.123	-1.73
1041.546	-7.13
1041.969	-7.53
1042.392	-8.93
1042.815	-3.63
1043.238	1.87
1043.661	4.57
1044.084	-2.23
1044.507	-3.73
1044.93	-3.33
1045.352	-4.43
1045.775	-0.73
1046.198	-2.43
1046.621	-3.93
1047.043	-3.83
1047.466	5.67
1047.889	-5.63
1048.311	-9.23
1048.734	-4.33
1049.156	-2.53
1049.579	0.27
1050.001	-3.23
1050.424	4.57
1050.846	-1.73
1051.269	-9.33
1051.691	-5.33
1052.113	-8.73
1052.536	-9.83
1052.958	1.27
1053.38	0.27
1053.802	-9.43
1054.225	2.27
1054.647	-8.93
1055.069	-4.53
1055.491	-2.53
1055.913	-9.83
1056.335	-2.33
1056.757	-8.73
1057.179	-8.53
1057.601	-9.33
1058.023	-3.13
1058.445	-0.53
1058.867	-10.23
1059.289	-3.73
1059.711	-7.13
1060.133	-0.93
1060.555	-7.73
1060.976	-6.53
1061.398	-1.83
1061.82	-5.13
1062.241	-5.23
1062.663	-2.13
1063.085	-5.13
1063.506	1.47
1063.928	-5.53
1064.35	-0.73
1064.771	-8.03
1065.193	-7.03
1065.614	-6.53
1066.035	-3.13
1066.457	-5.23
1066.878	0.87
1067.3	-5.33
1067.721	-2.83
1068.142	-6.43
1068.564	-1.93
1068.985	-4.33
1069.406	0.47
1069.827	-10.83
1070.248	-2.73
1070.67	-10.33
1071.091	-10.53
1071.512	-4.63
1071.933	-7.93
1072.354	-7.83
1072.775	-0.23
1073.196	-4.53
1073.617	-5.53
1074.038	-10.93
1074.459	-1.23
1074.88	-6.73
1075.3	-2.83
1075.721	-7.33
1076.142	1.07
1076.563	-4.73
1076.983	-8.83
1077.404	-13.83
1077.825	-10.73
1078.246	-2.13
1078.666	-12.53
1079.087	-6.73
1079.507	-4.83
1079.928	1.07
1080.348	-2.73
1080.769	-1.23
1081.189	-1.53
1081.61	0.07
1082.03	-7.03
1082.451	-2.13
1082.871	-2.83
1083.291	-5.33
1083.711	-10.63
1084.132	-9.73
1084.552	-7.83
1084.972	-0.83
1085.392	-11.43
1085.813	-11.13
1086.233	-8.83
1086.653	-6.33
1087.073	-6.13
1087.493	-3.13
1087.913	-5.23
1088.333	-6.93
1088.753	-3.03
1089.173	5.27
1089.593	-3.83
1090.013	6.57
1090.433	0.87
1090.852	-0.83
1091.272	-4.93
1091.692	1.27
1092.112	0.27
1092.531	-10.93
1092.951	-12.03
1093.371	-5.33
1093.79	3.67
1094.21	-8.33
1094.63	-6.63
1095.049	-5.93
1095.469	-2.83
1095.888	1.37
1096.308	1.77
1096.727	2.47
1097.146	-3.93
1097.566	4.77
1097.985	-7.23
1098.405	-2.63
1098.824	-3.83
1099.243	-2.53
1099.662	-4.23
1100.082	-7.83
1100.501	-0.23
1100.92	-7.13
1101.339	-6.33
1101.758	-4.73
