Data from 20171114-ORNL-Ar_H_NY_Subt18_08-05-23-682.txt Node
Date: Tue Nov 14 08:05:23 EST 2017
User: Ender
Spectrometer: HR+D1039
Trigger mode: 0
Integration Time (sec): 2.730000E-2
Scans to average: 10
Electric dark correction enabled: true
Nonlinearity correction enabled: false
Boxcar width: 0
XAxis mode: Wavelengths
Number of Pixels in Spectrum: 2048
>>>>>Begin Spectral Data<<<<<
187.836	-6.13
188.309	-6.13
188.782	-6.13
189.255	2.27
189.728	3.77
190.201	4.67
190.674	-0.33
191.147	-1.23
191.619	-5.03
192.092	1.57
192.565	-0.23
193.038	-0.43
193.511	-0.83
193.984	-1.73
194.456	-1.33
194.929	2.27
195.402	-0.43
195.874	3.07
196.347	-1.83
196.82	-4.23
197.292	4.57
197.765	-3.12
198.237	-8.23
198.71	-1.53
199.182	-2.03
199.655	2.47
200.127	-2.93
200.6	-3.33
201.072	0.47
201.544	-8.73
202.017	1.57
202.489	1.47
202.961	3.98
203.433	-2.63
203.906	-4.62
204.378	-6.02
204.85	-2.53
205.322	-4.33
205.794	-0.53
206.266	2.47
206.739	-5.33
207.211	-2.43
207.683	-6.02
208.155	-0.53
208.627	-6.03
209.099	-4.03
209.57	-5.52
210.042	-3.73
210.514	-1.43
210.986	1.17
211.458	-7.63
211.93	6.87
212.402	5.17
212.873	-4.43
213.345	-7.53
213.817	-8.53
214.288	-3.23
214.76	-6.13
215.232	3.88
215.703	-2.33
216.175	-6.13
216.646	-6.12
217.118	-7.03
217.589	-9.83
218.061	0.47
218.532	-2.52
219.004	3.97
219.475	-1.33
219.946	-0.53
220.418	-4.33
220.889	4.77
221.36	3.57
221.832	-3.43
222.303	-7.23
222.774	-0.43
223.245	-7.83
223.717	-4.13
224.188	-2.73
224.659	-7.23
225.13	-1.83
225.601	-0.13
226.072	1.88
226.543	1.07
227.014	2.47
227.485	1.17
227.956	-2.33
228.427	0.88
228.898	1.67
229.369	-0.83
229.839	-2.23
230.31	-0.73
230.781	6.07
231.252	2.27
231.722	-2.83
232.193	-3.12
232.664	-1.03
233.135	-3.63
233.605	-0.52
234.076	-1.13
234.546	4.97
235.017	5.77
235.487	2.57
235.958	1.67
236.428	-3.53
236.899	6.88
237.369	5.27
237.84	-0.43
238.31	6.37
238.78	3.67
239.251	-0.52
239.721	2.97
240.191	5.27
240.662	-3.52
241.132	3.97
241.602	5.47
242.072	3.17
242.542	9.38
243.013	0.47
243.483	6.27
243.953	7.07
244.423	7.17
244.893	-3.93
245.363	3.87
245.833	0.87
246.303	5.97
246.773	6.37
247.243	1.87
247.712	3.97
248.182	8.07
248.652	13.17
249.122	-1.93
249.592	16.87
250.061	20.07
250.531	39.48
251.001	24.77
251.471	29.37
251.94	25.57
252.41	8.27
252.879	5.67
253.349	15.27
253.818	10.97
254.288	5.57
254.757	4.57
255.227	8.48
255.696	2.07
256.166	8.17
256.635	4.67
257.105	20.17
257.574	1.47
258.043	6.57
258.513	17.97
258.982	14.07
259.451	1.37
259.92	10.97
260.389	14.17
260.859	18.67
261.328	16.07
261.797	16.77
262.266	13.77
262.735	13.07
263.204	-1.13
263.673	1.97
264.142	9.48
264.611	-0.83
265.08	-0.83
265.549	10.38
266.018	5.98
266.487	3.47
266.955	1.07
267.424	0.67
267.893	5.98
268.362	3.38
268.83	4.37
269.299	12.57
269.768	4.97
270.236	9.47
270.705	5.57
271.174	8.07
271.642	8.97
272.111	4.67
272.579	18.17
273.048	24.57
273.516	29.57
273.985	30.38
274.453	29.27
274.922	23.67
275.39	21.67
275.858	6.77
276.327	18.77
276.795	16.27
277.263	13.37
277.731	30.77
278.2	61.77
278.668	59.97
279.136	52.77
279.604	23.07
280.072	23.88
280.54	16.38
281.008	12.97
281.477	17.07
281.945	15.37
282.413	16.67
282.881	15.97
283.348	12.48
283.816	8.07
284.284	18.27
284.752	21.07
285.22	14.77
285.688	16.87
286.156	18.07
286.623	48.77
287.091	54.17
287.559	31.67
288.026	16.38
288.494	23.67
288.962	8.27
289.429	12.87
289.897	17.98
290.364	19.37
290.832	17.98
291.3	17.88
291.767	22.77
292.234	27.57
292.702	9.97
293.169	21.67
293.637	21.47
294.104	25.07
294.571	14.07
295.039	15.27
295.506	10.37
295.973	18.27
296.44	22.47
296.908	19.38
297.375	23.77
297.842	23.07
298.309	16.07
298.776	17.88
299.243	25.77
299.71	15.77
300.177	19.97
300.644	24.57
301.111	28.38
301.578	28.07
302.045	24.67
302.512	27.88
302.979	26.67
303.446	27.47
303.913	28.48
304.379	17.37
304.846	29.07
305.313	25.77
305.78	24.97
306.246	28.87
306.713	28.37
307.18	35.48
307.646	33.37
308.113	22.37
308.579	26.57
309.046	25.67
309.512	25.57
309.979	18.47
310.445	28.67
310.912	33.27
311.378	36.97
311.845	30.67
312.311	35.77
312.777	33.97
313.244	40.38
313.71	40.07
314.176	33.38
314.642	28.17
315.109	33.07
315.575	43.38
316.041	39.17
316.507	40.17
316.973	45.17
317.439	37.27
317.905	41.17
318.371	36.77
318.837	35.98
319.303	34.27
319.769	36.17
320.235	37.77
320.701	38.57
321.167	42.67
321.633	40.48
322.099	40.27
322.564	48.37
323.03	45.57
323.496	38.17
323.962	41.67
324.427	37.17
324.893	42.37
325.359	47.37
325.824	44.87
326.29	44.67
326.755	37.47
327.221	46.07
327.686	44.77
328.152	52.67
328.617	47.38
329.083	48.57
329.548	55.57
330.014	50.17
330.479	41.07
330.944	48.07
331.41	46.07
331.875	53.07
332.34	45.07
332.805	51.37
333.271	53.07
333.736	44.07
334.201	57.67
334.666	56.67
335.131	59.47
335.596	56.17
336.061	53.77
336.526	49.57
336.991	54.48
337.456	58.67
337.921	49.57
338.386	51.17
338.851	48.47
339.316	49.07
339.781	43.97
340.246	55.07
340.711	46.57
341.175	57.47
341.64	47.67
342.105	55.88
342.569	60.77
343.034	56.47
343.499	56.37
343.963	54.17
344.428	68.38
344.893	59.17
345.357	71.27
345.822	63.97
346.286	68.67
346.751	71.98
347.215	75.07
347.679	76.57
348.144	106.47
348.608	88.17
349.073	78.97
349.537	77.88
350.001	84.07
350.465	90.17
350.93	80.37
351.394	84.77
351.858	77.27
352.322	90.67
352.786	86.07
353.25	106.77
353.715	115.57
354.179	103.27
354.643	125.07
355.107	124.17
355.571	113.67
356.035	102.57
356.498	118.97
356.962	125.07
357.426	137.87
357.89	121.27
358.354	92.57
358.818	96.07
359.281	82.27
359.745	82.77
360.209	76.38
360.673	78.48
361.136	77.48
361.6	87.07
362.064	90.17
362.527	91.87
362.991	100.57
363.454	86.87
363.918	88.47
364.381	88.57
364.845	86.47
365.308	88.27
365.772	89.97
366.235	89.27
366.698	89.67
367.162	87.07
367.625	88.07
368.088	96.27
368.552	88.37
369.015	89.38
369.478	104.07
369.941	108.77
370.404	98.27
370.867	109.07
371.331	107.07
371.794	118.87
372.257	112.47
372.72	117.47
373.183	107.17
373.646	99.57
374.109	105.88
374.572	104.47
375.035	110.57
375.497	115.37
375.96	111.27
376.423	104.37
376.886	117.17
377.349	111.17
377.811	108.17
378.274	104.07
378.737	113.47
379.199	111.38
379.662	118.37
380.125	115.17
380.587	123.57
381.05	127.07
381.512	132.07
381.975	133.97
382.437	134.67
382.9	122.57
383.362	130.17
383.825	142.07
384.287	155.07
384.75	143.47
385.212	143.37
385.674	144.47
386.136	143.57
386.599	122.97
387.061	131.48
387.523	132.17
387.985	137.17
388.447	150.07
388.91	146.97
389.372	158.67
389.834	152.37
390.296	147.47
390.758	152.67
391.22	176.17
391.682	206.38
392.144	285.47
392.606	223.57
393.068	166.67
393.529	168.57
393.991	153.17
394.453	150.67
394.915	152.17
395.377	190.27
395.838	213.27
396.3	159.37
396.762	148.48
397.224	131.27
397.685	126.87
398.147	128.07
398.608	128.88
399.07	130.57
399.531	133.47
399.993	146.67
400.454	159.97
400.916	152.87
401.377	141.48
401.839	150.87
402.3	158.27
402.762	170.77
403.223	182.77
403.684	172.17
404.145	167.47
404.607	165.17
405.068	166.47
405.529	169.88
405.99	195.58
406.451	172.97
406.913	169.87
407.374	163.37
407.835	161.67
408.296	170.88
408.757	175.47
409.218	183.87
409.679	186.07
410.14	176.77
410.601	174.97
411.062	184.38
411.522	193.57
411.983	193.57
412.444	178.38
412.905	180.27
413.366	179.17
413.826	184.97
414.287	215.88
414.748	266.08
415.208	246.07
415.669	210.07
416.13	207.97
416.59	204.37
417.051	212.98
417.511	217.07
417.972	239.87
418.432	244.88
418.893	280.27
419.353	251.27
419.814	195.97
420.274	177.37
420.734	182.57
421.195	199.57
421.655	199.68
422.115	196.97
422.576	187.07
423.036	202.77
423.496	202.37
423.956	217.57
424.416	236.47
424.876	257.77
425.336	259.87
425.797	265.98
426.257	255.67
426.717	245.98
427.177	232.17
427.637	218.67
428.097	229.67
428.556	241.67
429.016	270.57
429.476	262.48
429.936	277.37
430.396	280.77
430.856	284.77
431.315	309.77
431.775	346.57
432.235	373.47
432.694	353.07
433.154	366.38
433.614	390.77
434.073	340.98
434.533	287.57
434.993	273.67
435.452	283.38
435.912	297.27
436.371	288.18
436.83	287.57
437.29	273.27
437.749	245.77
438.209	240.38
438.668	276.47
439.127	285.88
439.587	265.48
440.046	252.38
440.505	255.87
440.964	277.37
441.424	323.48
441.883	314.27
442.342	252.48
442.801	225.88
443.26	227.88
443.719	225.27
444.178	211.47
444.637	205.57
445.096	214.87
445.555	216.97
446.014	219.37
446.473	221.58
446.932	231.87
447.391	226.27
447.849	230.27
448.308	220.88
448.767	210.48
449.226	233.17
449.685	238.07
450.143	239.97
450.602	242.57
451.061	228.97
451.519	237.77
451.978	229.38
452.436	239.58
452.895	243.27
453.353	254.57
453.812	234.37
454.27	244.47
454.729	242.48
455.187	239.38
455.646	242.07
456.104	244.27
456.562	259.37
457.021	264.47
457.479	265.47
457.937	268.98
458.395	260.37
458.854	247.08
459.312	252.97
459.77	273.08
460.228	255.17
460.686	243.47
461.144	249.07
461.602	246.37
462.06	240.67
462.518	253.37
462.976	256.47
463.434	260.58
463.892	267.47
464.35	273.67
464.808	289.08
465.266	269.77
465.724	268.07
466.181	279.88
466.639	272.97
467.097	286.97
467.555	300.88
468.012	301.38
468.47	312.47
468.928	320.07
469.385	342.98
469.843	345.07
470.3	349.57
470.758	371.08
471.215	386.57
471.673	401.77
472.13	399.07
472.588	417.67
473.045	370.48
473.503	375.77
473.96	394.27
474.417	401.57
474.875	432.57
475.332	465.97
475.789	468.87
476.246	471.27
476.704	486.77
477.161	514.58
477.618	522.97
478.075	558.98
478.532	612.97
478.989	699.67
479.446	804.37
479.903	781.98
480.36	808.07
480.817	869.77
481.274	966.77
481.731	1078.07
482.188	1163.07
482.645	1293.38
483.102	1412.78
483.558	1539.77
484.015	1581.28
484.472	1569.17
484.929	1516.57
485.385	1475.47
485.842	1426.37
486.299	1363.07
486.755	1305.07
487.212	1095.57
487.668	930.97
488.125	853.47
488.582	787.27
489.038	749.57
489.494	719.67
489.951	687.58
490.407	679.48
490.864	651.77
491.32	644.38
491.776	638.58
492.233	655.77
492.689	612.47
493.145	607.17
493.602	598.77
494.058	617.67
494.514	609.98
494.97	642.77
495.426	647.47
495.882	627.38
496.338	614.08
496.794	632.58
497.251	629.47
497.707	636.27
498.163	634.47
498.618	656.87
499.074	651.58
499.53	668.27
499.986	680.77
500.442	655.98
500.898	630.87
501.354	625.97
501.809	632.37
502.265	641.77
502.721	668.27
503.177	676.87
503.632	656.47
504.088	677.07
504.543	716.77
504.999	709.67
505.455	657.57
505.91	632.58
506.366	632.57
506.821	632.87
507.277	624.37
507.732	626.67
508.187	626.67
508.643	641.17
509.098	634.08
509.553	657.57
510.009	659.67
510.464	670.38
510.919	684.17
511.375	701.77
511.83	712.27
512.285	712.87
512.74	766.58
513.195	791.97
513.65	777.57
514.105	764.07
514.56	771.57
515.015	796.77
515.47	809.08
515.925	799.98
516.38	800.57
516.835	796.38
517.29	786.27
517.745	776.48
518.2	763.07
518.655	746.87
519.109	746.87
519.564	752.07
520.019	737.57
520.474	717.98
520.928	724.57
521.383	718.07
521.838	718.57
522.292	728.27
522.747	703.47
523.201	705.17
523.656	691.77
524.11	691.98
524.565	688.97
525.019	688.67
525.474	709.77
525.928	704.48
526.382	699.67
526.837	700.77
527.291	699.27
527.745	696.87
528.2	697.17
528.654	682.27
529.108	682.67
529.562	690.38
530.016	687.98
530.47	689.07
530.925	702.88
531.379	703.17
531.833	706.67
532.287	700.37
532.741	699.48
533.195	704.57
533.649	705.27
534.103	727.97
534.556	710.27
535.01	717.07
535.464	707.88
535.918	724.57
536.372	723.67
536.826	718.67
537.279	708.37
537.733	708.38
538.187	718.88
538.64	709.87
539.094	720.58
539.548	727.87
540.001	721.07
540.455	723.77
540.908	727.97
541.362	741.17
541.815	745.08
542.269	750.57
542.722	762.38
543.175	767.77
543.629	765.57
544.082	782.67
544.536	786.58
544.989	776.37
545.442	788.88
545.895	784.87
546.349	789.98
546.802	774.67
547.255	785.38
547.708	803.97
548.161	811.27
548.614	817.17
549.067	815.88
549.52	811.97
549.973	803.38
550.426	793.27
550.879	791.88
551.332	791.77
551.785	805.88
552.238	803.27
552.691	812.68
553.144	820.87
553.596	843.37
554.049	856.57
554.502	882.57
554.955	899.57
555.407	900.47
555.86	901.17
556.313	885.77
556.765	879.57
557.218	872.07
557.67	877.07
558.123	871.77
558.576	868.57
559.028	870.57
559.48	881.07
559.933	863.97
560.385	836.77
560.838	797.67
561.29	775.07
561.742	785.48
562.195	761.97
562.647	759.27
563.099	770.17
563.551	764.47
564.004	768.67
564.456	766.48
564.908	756.77
565.36	740.07
565.812	720.57
566.264	718.37
566.716	713.77
567.168	703.57
567.62	707.27
568.072	693.38
568.524	679.48
568.976	687.67
569.428	670.27
569.88	665.17
570.332	662.57
570.784	671.47
571.235	685.57
571.687	690.88
572.139	701.47
572.59	691.67
573.042	706.57
573.494	694.57
573.945	699.17
574.397	671.67
574.849	690.17
575.3	686.27
575.752	677.17
576.203	669.27
576.655	675.47
577.106	651.67
577.557	653.07
578.009	669.37
578.46	656.57
578.912	648.37
579.363	664.38
579.814	663.47
580.265	662.77
580.717	662.67
581.168	666.88
581.619	662.68
582.07	661.98
582.521	666.17
582.972	659.77
583.423	665.27
583.875	668.88
584.326	689.37
584.777	730.48
585.227	799.88
585.678	877.97
586.129	961.47
586.58	1028.37
587.031	1109.67
587.482	1243.57
587.933	1431.37
588.384	1242.77
588.834	941.77
589.285	782.27
589.736	769.97
590.186	755.57
590.637	739.17
591.088	732.48
591.538	727.58
591.989	713.77
592.439	717.87
592.89	710.27
593.34	690.88
593.791	686.77
594.241	682.77
594.692	689.67
595.142	682.77
595.593	682.97
596.043	689.17
596.493	701.47
596.943	709.37
597.394	702.58
597.844	692.47
598.294	712.77
598.744	732.97
599.195	759.27
599.645	795.38
600.095	823.37
600.545	894.67
600.995	943.47
601.445	1003.87
601.895	1063.77
602.345	1102.57
602.795	1081.47
603.245	1048.78
603.695	991.47
604.145	932.07
604.594	888.98
605.044	840.57
605.494	777.17
605.944	741.88
606.393	723.77
606.843	709.67
607.293	713.27
607.743	709.08
608.192	722.17
608.642	730.58
609.091	740.87
609.541	738.27
609.99	748.48
610.44	743.87
610.889	703.77
611.339	683.87
611.788	660.98
612.238	678.27
612.687	685.77
613.136	696.77
613.586	718.67
614.035	712.68
614.484	731.27
614.933	730.07
615.383	727.67
615.832	713.98
616.281	698.77
616.73	664.17
617.179	639.98
617.628	630.37
618.077	614.17
618.526	604.27
618.975	608.17
619.424	599.87
619.873	590.87
620.322	595.67
620.771	588.97
621.22	579.47
621.669	572.57
622.118	563.17
622.567	552.57
623.015	552.27
623.464	549.88
623.913	539.37
624.361	529.47
624.81	531.77
625.259	544.68
625.707	538.37
626.156	545.88
626.604	549.67
627.053	537.17
627.501	550.97
627.95	555.68
628.398	563.87
628.847	545.37
629.295	555.17
629.744	550.17
630.192	546.67
630.64	545.37
631.089	545.77
631.537	549.88
631.985	560.67
632.433	571.77
632.881	591.27
633.33	625.87
633.778	610.47
634.226	549.87
634.674	542.48
635.122	556.37
635.57	573.57
636.018	606.38
636.466	566.88
636.914	535.97
637.362	550.68
637.81	551.98
638.258	556.37
638.705	551.07
639.153	575.97
639.601	603.67
640.049	616.17
640.497	636.57
640.944	675.17
641.392	618.38
641.84	591.07
642.287	566.58
642.735	542.77
643.182	555.27
643.63	549.38
644.078	556.68
644.525	574.07
644.973	570.57
645.42	587.27
645.867	594.17
646.315	607.18
646.762	639.18
647.21	661.57
647.657	690.47
648.104	716.88
648.551	742.88
648.999	801.88
649.446	878.97
649.893	973.78
650.34	1112.78
650.787	1315.67
651.234	1636.17
651.682	2127.37
652.129	2893.27
652.576	4187.38
653.023	6188.57
653.47	8504.98
653.917	10670.48
654.363	12411.78
654.81	13857.38
655.257	13151.58
655.704	8591.17
656.151	5063.57
656.598	3280.28
657.044	2336.07
657.491	1784.17
657.938	1431.27
658.385	1188.87
658.831	1031.58
659.278	923.77
659.724	820.98
660.171	763.17
660.618	687.77
661.064	659.18
661.511	636.08
661.957	630.87
662.404	626.47
662.85	624.37
663.296	592.17
663.743	536.57
664.189	516.77
664.635	509.67
665.082	499.38
665.528	507.57
665.974	494.97
666.42	485.17
666.867	483.17
667.313	477.77
667.759	452.17
668.205	454.48
668.651	464.68
669.097	460.57
669.543	472.67
669.989	447.88
670.435	426.27
670.881	419.48
671.327	428.27
671.773	448.37
672.219	470.17
672.665	520.87
673.11	552.27
673.556	593.88
674.002	631.38
674.448	629.77
674.893	532.47
675.339	450.67
675.785	409.88
676.23	401.37
676.676	376.77
677.122	363.98
677.567	349.88
678.013	354.27
678.458	345.17
678.904	343.18
679.349	327.97
679.794	346.27
680.24	335.87
680.685	329.88
681.131	326.57
681.576	337.77
682.021	333.97
682.466	328.27
682.912	328.17
683.357	322.88
683.802	351.07
684.247	384.57
684.692	431.67
685.137	468.97
685.583	517.17
686.028	533.97
686.473	492.27
686.918	414.37
687.363	388.77
687.807	367.17
688.252	345.77
688.697	332.37
689.142	318.97
689.587	316.77
690.032	303.67
690.477	327.17
690.921	327.07
691.366	360.07
691.811	384.98
692.255	413.47
692.7	430.58
693.145	475.07
693.589	641.87
694.034	1041.68
694.478	1445.17
694.923	1655.17
695.367	2166.67
695.812	1132.88
696.256	476.77
696.701	352.98
697.145	333.17
697.59	316.17
698.034	305.67
698.478	306.87
698.922	303.77
699.367	306.97
699.811	308.47
700.255	325.77
700.699	359.38
701.143	393.77
701.588	445.48
702.032	484.47
702.476	489.57
702.92	460.48
703.364	463.07
703.808	585.97
704.252	948.27
704.696	1351.87
705.14	1577.37
705.584	2015.07
706.027	997.97
706.471	488.17
706.915	376.57
707.359	323.38
707.803	308.17
708.246	285.77
708.69	289.27
709.134	290.27
709.577	280.58
710.021	299.48
710.465	287.77
710.908	281.47
711.352	280.17
711.795	295.37
712.239	325.97
712.682	363.17
713.126	395.17
713.569	442.17
714.012	354.58
714.456	308.77
714.899	280.97
715.342	258.77
715.786	241.17
716.229	246.98
716.672	239.27
717.115	235.08
717.558	233.98
718.002	239.67
718.445	249.88
718.888	271.98
719.331	274.37
719.774	290.57
720.217	289.07
720.66	266.07
721.103	254.07
721.546	236.48
721.989	236.97
722.432	215.08
722.874	221.37
723.317	211.97
723.76	222.38
724.203	243.27
724.645	295.38
725.088	410.17
725.531	533.98
725.974	598.07
726.416	518.67
726.859	290.27
727.301	230.67
727.744	216.48
728.187	217.77
728.629	228.47
729.071	229.58
729.514	242.57
729.956	257.27
730.399	265.57
730.841	270.77
731.283	256.68
731.726	249.27
732.168	246.47
732.61	252.77
733.053	270.37
733.495	292.48
733.937	330.68
734.379	371.77
734.821	412.08
735.263	497.77
735.705	760.67
736.148	1440.57
736.59	2398.47
737.032	2895.18
737.474	2350.07
737.916	763.77
738.357	404.88
738.799	308.57
739.241	283.97
739.683	268.87
740.125	275.17
740.567	277.88
741.008	301.17
741.45	296.08
741.892	293.47
742.334	325.57
742.775	340.27
743.217	321.37
743.658	251.17
744.1	243.68
744.542	246.17
744.983	284.88
745.425	316.37
745.866	326.47
746.307	265.67
746.749	258.38
747.19	303.57
747.632	419.48
748.073	801.87
748.514	1700.27
748.956	2682.88
749.397	3314.68
749.838	2781.88
750.279	2785.47
750.72	1408.37
751.162	507.88
751.603	301.87
752.044	224.98
752.485	200.27
752.926	198.17
753.367	183.97
753.808	186.37
754.249	174.57
754.69	176.47
755.131	177.97
755.572	175.57
756.013	170.47
756.453	172.88
756.894	169.48
757.335	173.98
757.776	182.57
758.216	191.97
758.657	183.98
759.098	197.17
759.538	204.17
759.979	246.47
760.42	340.47
760.86	647.88
761.301	1645.87
761.741	4066.18
762.182	6084.18
762.622	4296.48
763.063	1232.57
763.503	495.57
763.943	322.77
764.384	305.37
764.824	366.87
765.264	394.07
765.705	277.48
766.145	197.27
766.585	175.77
767.025	168.97
767.465	173.07
767.906	218.27
768.346	292.07
768.786	307.87
769.226	232.17
769.666	292.07
770.106	552.27
770.546	1419.57
770.986	2482.97
771.426	2248.27
771.866	741.07
772.306	306.27
772.745	196.17
773.185	164.17
773.625	168.57
774.065	152.07
774.505	185.47
774.944	272.57
775.384	603.37
775.824	1111.77
776.263	1109.07
776.703	472.17
777.142	209.47
777.582	147.57
778.021	137.17
778.461	133.77
778.9	127.77
779.34	123.48
779.779	111.67
780.219	97.77
780.658	103.57
781.097	105.67
781.537	105.67
781.976	106.57
782.415	106.37
782.855	92.87
783.294	102.88
783.733	101.07
784.172	103.87
784.611	99.97
785.05	104.87
785.489	106.57
785.928	111.37
786.367	114.47
786.806	108.17
787.245	122.97
787.684	128.27
788.123	140.97
788.562	132.77
789.001	116.88
789.44	115.67
789.879	116.87
790.317	117.97
790.756	119.57
791.195	124.57
791.634	136.57
792.072	193.07
792.511	323.87
792.95	917.87
793.388	2007.17
793.827	1869.27
794.265	635.27
794.704	260.17
795.142	172.38
795.581	138.07
796.019	127.37
796.458	123.17
796.896	116.97
797.334	128.87
797.773	140.77
798.211	205.88
798.649	400.87
799.087	939.08
799.526	1476.38
799.964	1870.17
800.402	1914.57
800.84	711.77
801.278	272.38
801.716	174.87
802.154	143.17
802.592	129.07
803.03	129.88
803.468	119.77
803.906	136.27
804.344	138.38
804.782	131.77
805.22	123.07
805.658	120.27
806.096	140.98
806.533	147.87
806.971	157.77
807.409	195.37
807.847	282.67
808.284	594.27
808.722	1710.87
809.16	3086.17
809.597	2864.97
810.035	5042.38
810.472	5515.28
810.91	1973.07
811.347	747.27
811.785	385.18
812.222	232.07
812.66	179.98
813.097	151.87
813.535	134.17
813.972	132.38
814.409	111.97
814.846	101.57
815.284	99.17
815.721	95.17
816.158	95.88
816.595	116.48
817.032	167.27
817.47	189.87
817.907	159.38
818.344	139.17
818.781	113.57
819.218	96.27
819.655	124.57
820.092	176.87
820.529	202.87
820.966	162.07
821.403	124.97
821.839	101.67
822.276	90.57
822.713	114.87
823.15	126.98
823.587	111.87
824.023	133.77
824.46	270.68
824.897	820.17
825.333	1272.38
825.77	552.77
826.206	215.67
826.643	128.27
827.08	91.38
827.516	79.38
827.953	64.07
828.389	80.17
828.825	60.37
829.262	64.27
829.698	57.87
830.135	63.77
830.571	59.77
831.007	64.47
831.443	61.57
831.88	56.17
832.316	61.97
832.752	59.27
833.188	65.48
833.624	63.17
834.06	62.07
834.497	64.17
834.933	71.67
835.369	69.67
835.805	68.27
836.241	72.07
836.677	71.48
837.112	81.27
837.548	96.97
837.984	121.87
838.42	184.88
838.856	446.27
839.292	1391.17
839.727	2169.68
840.163	1003.38
840.599	838.08
841.034	1868.88
841.47	2013.97
841.906	735.18
842.341	312.77
842.777	208.07
843.212	291.37
843.648	287.17
844.083	148.07
844.519	86.38
844.954	68.17
845.39	57.17
845.825	54.27
846.261	52.48
846.696	52.87
847.131	50.57
847.566	50.57
848.002	49.97
848.437	50.57
848.872	61.17
849.307	60.27
849.742	80.48
850.177	167.77
850.613	510.48
851.048	827.27
851.483	357.57
851.918	147.87
852.353	84.67
852.788	48.17
853.223	52.57
853.657	51.67
854.092	45.27
854.527	41.47
854.962	36.37
855.397	38.97
855.832	45.27
856.266	42.38
856.701	39.98
857.136	33.67
857.57	42.38
858.005	51.77
858.44	56.37
858.874	41.57
859.309	51.17
859.743	39.27
860.178	46.57
860.612	39.17
861.047	49.37
861.481	66.77
861.915	66.27
862.35	47.17
862.784	35.67
863.218	38.87
863.653	34.57
864.087	38.77
864.521	50.77
864.955	61.27
865.39	148.07
865.824	171.57
866.258	113.57
866.692	157.07
867.126	166.27
867.56	103.27
867.994	52.67
868.428	36.57
868.862	41.57
869.296	47.98
869.73	52.27
870.164	53.57
870.598	47.38
871.031	36.97
871.465	28.27
871.899	29.48
872.333	23.38
872.766	26.27
873.2	25.67
873.634	33.38
874.067	23.97
874.501	24.57
874.935	30.77
875.368	33.17
875.802	27.87
876.235	21.67
876.669	22.38
877.102	21.57
877.535	25.27
877.969	20.97
878.402	22.17
878.836	14.27
879.269	23.98
879.702	20.77
880.135	19.17
880.569	22.77
881.002	26.48
881.435	18.77
881.868	17.67
882.301	21.17
882.734	19.17
883.167	17.77
883.601	17.97
884.034	24.67
884.467	13.77
884.899	16.57
885.332	12.17
885.765	17.07
886.198	17.07
886.631	12.77
887.064	16.77
887.497	19.77
887.929	26.57
888.362	14.67
888.795	12.57
889.228	22.37
889.66	24.47
890.093	17.57
890.526	17.07
890.958	15.27
891.391	18.48
891.823	17.17
892.256	13.57
892.688	12.67
893.121	18.88
893.553	10.97
893.985	15.57
894.418	20.47
894.85	12.27
895.282	10.97
895.715	12.77
896.147	19.77
896.579	16.67
897.011	13.57
897.444	20.27
897.876	15.17
898.308	21.67
898.74	17.07
899.172	15.38
899.604	23.67
900.036	14.47
900.468	15.07
900.9	13.97
901.332	15.07
901.764	15.87
902.196	15.48
902.628	20.87
903.06	20.07
903.491	23.07
903.923	20.17
904.355	22.27
904.787	21.57
905.218	28.17
905.65	15.67
906.082	7.97
906.513	12.57
906.945	16.37
907.376	19.17
907.808	14.97
908.239	15.77
908.671	22.17
909.102	19.57
909.534	16.77
909.965	41.67
910.397	92.37
910.828	292.57
911.259	447.68
911.691	203.97
912.122	98.48
912.553	49.77
912.984	34.48
913.415	23.88
913.847	18.97
914.278	16.57
914.709	14.17
915.14	16.98
915.571	18.47
916.002	12.77
916.433	16.98
916.864	13.87
917.295	16.27
917.726	22.47
918.157	12.77
918.587	20.17
919.018	19.77
919.449	18.38
919.88	27.07
920.311	31.77
920.741	47.57
921.172	164.77
921.603	147.07
922.033	68.67
922.464	44.88
922.895	24.37
923.325	20.67
923.756	19.87
924.186	13.27
924.617	22.57
925.047	38.38
925.478	48.67
925.908	36.57
926.338	27.88
926.769	22.88
927.199	15.67
927.629	12.57
928.06	18.17
928.49	19.38
928.92	9.27
929.35	14.27
929.78	8.57
930.21	12.17
930.641	12.17
931.071	7.97
931.501	0.47
931.931	10.27
932.361	6.67
932.791	-0.53
933.221	8.97
933.651	4.38
934.08	21.37
934.51	32.07
934.94	11.47
935.37	6.07
935.8	13.27
936.229	10.67
936.659	10.47
937.089	7.38
937.519	15.57
937.948	23.57
938.378	17.27
938.807	1.87
939.237	6.38
939.666	9.57
940.096	-0.33
940.525	3.07
940.955	1.67
941.384	-0.93
941.814	-8.63
942.243	-1.73
942.672	0.07
943.102	-1.12
943.531	0.77
943.96	5.27
944.39	7.87
944.819	2.57
945.248	2.67
945.677	2.27
946.106	2.67
946.535	7.67
946.964	-0.23
947.393	1.17
947.822	4.88
948.251	-2.83
948.68	6.98
949.109	7.77
949.538	-1.12
949.967	3.17
950.396	-4.53
950.825	5.57
951.254	-1.23
951.682	-8.43
952.111	5.17
952.54	1.77
952.969	-2.53
953.397	-5.53
953.826	3.57
954.254	-5.63
954.683	-4.73
955.112	-7.62
955.54	-0.23
955.969	0.97
956.397	-0.73
956.826	-1.93
957.254	5.38
957.682	-0.23
958.111	0.17
958.539	-0.73
958.967	6.27
959.396	-4.53
959.824	-1.52
960.252	1.17
960.68	-4.53
961.109	0.37
961.537	-0.33
961.965	-0.03
962.393	2.67
962.821	-3.33
963.249	-0.93
963.677	2.57
964.105	5.97
964.533	43.88
964.961	32.07
965.389	19.77
965.817	11.27
966.245	4.57
966.672	-0.12
967.1	-4.02
967.528	-2.83
967.956	-5.83
968.383	0.17
968.811	-3.33
969.239	0.47
969.666	-1.73
970.094	-4.62
970.522	3.17
970.949	-3.73
971.377	-3.62
971.804	-5.12
972.232	-3.23
972.659	0.38
973.087	-2.13
973.514	2.47
973.941	-7.83
974.369	4.57
974.796	0.48
975.223	-0.03
975.651	1.48
976.078	-1.12
976.505	-1.83
976.932	2.77
977.359	20.27
977.786	14.07
978.214	4.57
978.641	1.77
979.068	-3.03
979.495	-0.33
979.922	-3.83
980.349	0.27
980.776	-1.13
981.202	-1.23
981.629	-2.93
982.056	7.37
982.483	0.47
982.91	3.17
983.337	-8.73
983.763	7.67
984.19	1.37
984.617	-7.62
985.043	-1.23
985.47	-2.23
985.897	-3.73
986.323	-0.23
986.75	3.57
987.176	-1.33
987.603	2.37
988.029	3.77
988.456	1.47
988.882	3.27
989.308	-5.33
989.735	-1.43
990.161	4.87
990.587	-0.23
991.014	2.87
991.44	9.97
991.866	2.38
992.292	0.67
992.719	4.97
993.145	3.77
993.571	-5.43
993.997	-3.83
994.423	-3.23
994.849	-5.23
995.275	1.88
995.701	2.07
996.127	-3.03
996.553	2.97
996.979	-3.83
997.405	0.48
997.83	0.27
998.256	-7.43
998.682	-2.33
999.108	-7.73
999.534	-1.63
999.959	-0.13
1000.385	-2.23
1000.811	-0.63
1001.236	-6.33
1001.662	-6.83
1002.087	-8.33
1002.513	-3.63
1002.938	4.07
1003.364	1.57
1003.789	-0.43
1004.215	6.88
1004.64	-0.63
1005.066	1.67
1005.491	-0.83
1005.916	-3.13
1006.342	-3.33
1006.767	-4.73
1007.192	7.67
1007.617	-5.73
1008.042	-6.12
1008.468	-5.73
1008.893	-1.33
1009.318	-1.33
1009.743	-4.13
1010.168	5.97
1010.593	-1.53
1011.018	-7.53
1011.443	-2.03
1011.868	5.77
1012.293	-2.23
1012.718	-10.12
1013.143	0.87
1013.567	4.67
1013.992	1.17
1014.417	-7.83
1014.842	9.27
1015.267	0.27
1015.691	-3.12
1016.116	6.97
1016.541	1.67
1016.965	3.87
1017.39	6.77
1017.814	1.07
1018.239	0.67
1018.663	-6.53
1019.088	-7.13
1019.512	-1.63
1019.937	-2.53
1020.361	-4.53
1020.785	-9.43
1021.21	-2.63
1021.634	-1.12
1022.058	6.57
1022.483	5.37
1022.907	-7.83
1023.331	-9.02
1023.755	-8.23
1024.179	-2.73
1024.604	-6.03
1025.028	-3.53
1025.452	-0.53
1025.876	1.57
1026.3	1.57
1026.724	-8.53
1027.148	-6.43
1027.572	-11.73
1027.996	-2.23
1028.42	-3.63
1028.843	-1.53
1029.267	-5.23
1029.691	-4.83
1030.115	-9.23
1030.539	-12.23
1030.962	-7.33
1031.386	-16.93
1031.81	-0.12
1032.233	1.38
1032.657	2.57
1033.08	-5.43
1033.504	-5.03
1033.927	-5.73
1034.351	-0.52
1034.774	-2.13
1035.198	-0.83
1035.621	-3.23
1036.045	-2.23
1036.468	-0.73
1036.891	-9.73
1037.315	-10.23
1037.738	-7.12
1038.161	-2.73
1038.584	-6.43
1039.008	-5.63
1039.431	-0.63
1039.854	-7.03
1040.277	-4.83
1040.7	-11.93
1041.123	-0.73
1041.546	-2.23
1041.969	-5.62
1042.392	-3.23
1042.815	-4.93
1043.238	5.17
1043.661	0.07
1044.084	-0.23
1044.507	-7.13
1044.93	-6.43
1045.352	-7.33
1045.775	-0.63
1046.198	5.27
1046.621	1.98
1047.043	4.67
1047.466	8.77
1047.889	-3.93
1048.311	-2.73
1048.734	-1.93
1049.156	-0.03
1049.579	-2.33
1050.001	-1.33
1050.424	-4.33
1050.846	1.37
1051.269	2.27
1051.691	-6.02
1052.113	-3.53
1052.536	-0.23
1052.958	-2.23
1053.38	-9.63
1053.802	-7.33
1054.225	-0.93
1054.647	-10.93
1055.069	-2.53
1055.491	-2.12
1055.913	-5.33
1056.335	-0.73
1056.757	-7.83
1057.179	-3.63
1057.601	-5.62
1058.023	-6.02
1058.445	-4.23
1058.867	-0.83
1059.289	-7.13
1059.711	-7.62
1060.133	-4.23
1060.555	-6.93
1060.976	-3.63
1061.398	-1.93
1061.82	-6.33
1062.241	-3.73
1062.663	-8.43
1063.085	1.67
1063.506	-0.93
1063.928	-2.83
1064.35	4.57
1064.771	-14.53
1065.193	4.57
1065.614	-6.63
1066.035	-4.93
1066.457	-6.03
1066.878	-0.33
1067.3	-1.83
1067.721	2.17
1068.142	-6.93
1068.564	-6.43
1068.985	-2.13
1069.406	-4.83
1069.827	-4.63
1070.248	0.37
1070.67	-1.53
1071.091	-3.62
1071.512	1.07
1071.933	-5.73
1072.354	-6.93
1072.775	-2.93
1073.196	-2.83
1073.617	-3.43
1074.038	-8.33
1074.459	-4.12
1074.88	-8.43
1075.3	1.57
1075.721	-8.63
1076.142	-0.93
1076.563	-1.43
1076.983	-9.93
1077.404	-7.62
1077.825	-10.43
1078.246	-2.53
1078.666	-11.33
1079.087	-1.02
1079.507	-7.13
1079.928	0.47
1080.348	-0.02
1080.769	-9.53
1081.189	3.57
1081.61	-2.03
1082.03	-0.33
1082.451	-9.83
1082.871	-1.23
1083.291	-12.53
1083.711	-13.33
1084.132	-5.53
1084.552	-1.53
1084.972	-4.12
1085.392	-6.63
1085.813	-13.33
1086.233	-10.43
1086.653	-4.03
1087.073	-2.43
1087.493	-10.73
1087.913	-4.83
1088.333	-7.73
1088.753	-1.33
1089.173	2.47
1089.593	-2.12
1090.013	0.37
1090.433	5.87
1090.852	-1.33
1091.272	2.77
1091.692	-2.23
1092.112	-1.23
1092.531	-6.43
1092.951	-7.73
1093.371	-1.03
1093.79	1.98
1094.21	-2.62
1094.63	-4.12
1095.049	-4.33
1095.469	-0.93
1095.888	1.27
1096.308	-0.13
1096.727	1.88
1097.146	-3.62
1097.566	-4.53
1097.985	-5.13
1098.405	-2.43
1098.824	-2.23
1099.243	-7.33
1099.662	-9.23
1100.082	-0.33
1100.501	-2.63
1100.92	-8.03
1101.339	-7.63
1101.758	-6.73
