Data from 20171114-ORNL-Ar_H_NY_Subt18_08-06-36-840.txt Node
Date: Tue Nov 14 08:06:36 EST 2017
User: Ender
Spectrometer: HR+D1039
Trigger mode: 0
Integration Time (sec): 2.730000E-2
Scans to average: 10
Electric dark correction enabled: true
Nonlinearity correction enabled: false
Boxcar width: 0
XAxis mode: Wavelengths
Number of Pixels in Spectrum: 2048
>>>>>Begin Spectral Data<<<<<
187.836	-5.28
188.309	-5.28
188.782	-5.28
189.255	-2.58
189.728	0.72
190.201	3.12
190.674	-1.38
191.147	0.32
191.619	-5.28
192.092	3.62
192.565	7.52
193.038	-0.08
193.511	2.42
193.984	0.82
194.456	-3.98
194.929	6.32
195.402	-6.28
195.874	0.02
196.347	-1.48
196.82	-7.48
197.292	7.62
197.765	-4.88
198.237	-2.28
198.71	0.52
199.182	0.62
199.655	-1.28
200.127	1.22
200.6	-1.48
201.072	0.72
201.544	-3.68
202.017	3.02
202.489	1.02
202.961	3.82
203.433	2.32
203.906	-5.38
204.378	-1.28
204.85	1.52
205.322	-3.48
205.794	-0.58
206.266	1.22
206.739	-4.18
207.211	-1.18
207.683	-6.88
208.155	-2.18
208.627	-4.88
209.099	-1.58
209.57	-5.48
210.042	-2.38
210.514	0.82
210.986	-1.58
211.458	-5.28
211.93	5.92
212.402	4.72
212.873	-2.28
213.345	-3.28
213.817	-4.38
214.288	-5.78
214.76	-9.28
215.232	-0.18
215.703	-3.48
216.175	1.02
216.646	-3.48
217.118	-3.48
217.589	-3.38
218.061	1.22
218.532	-3.38
219.004	-0.78
219.475	0.72
219.946	-2.68
220.418	-8.58
220.889	5.22
221.36	1.22
221.832	-1.58
222.303	-0.48
222.774	1.62
223.245	-4.48
223.717	-2.88
224.188	-3.08
224.659	-8.88
225.13	-7.38
225.601	-1.18
226.072	0.52
226.543	-0.38
227.014	5.52
227.485	1.22
227.956	-6.78
228.427	-2.08
228.898	-0.88
229.369	-1.08
229.839	-4.68
230.31	-5.68
230.781	0.22
231.252	-3.88
231.722	-4.68
232.193	-5.08
232.664	-1.78
233.135	-0.78
233.605	-0.68
234.076	-4.08
234.546	-1.78
235.017	3.42
235.487	2.52
235.958	2.32
236.428	-6.28
236.899	3.42
237.369	0.72
237.84	-11.18
238.31	0.82
238.78	2.72
239.251	0.62
239.721	-3.58
240.191	0.52
240.662	1.62
241.132	1.72
241.602	0.02
242.072	3.82
242.542	8.22
243.013	-3.18
243.483	2.92
243.953	6.92
244.423	4.32
244.893	-2.78
245.363	1.12
245.833	0.42
246.303	-2.18
246.773	8.62
247.243	3.82
247.712	6.62
248.182	3.22
248.652	1.42
249.122	-7.08
249.592	8.12
250.061	8.52
250.531	12.72
251.001	0.72
251.471	5.42
251.94	5.02
252.41	-1.18
252.879	1.02
253.349	6.52
253.818	9.72
254.288	9.02
254.757	4.12
255.227	2.12
255.696	1.72
256.166	14.22
256.635	5.92
257.105	11.82
257.574	-0.18
258.043	2.42
258.513	-2.88
258.982	7.12
259.451	0.42
259.92	5.12
260.389	9.12
260.859	6.62
261.328	7.62
261.797	2.02
262.266	1.32
262.735	13.02
263.204	6.22
263.673	2.62
264.142	3.52
264.611	3.32
265.08	-0.38
265.549	3.12
266.018	6.42
266.487	-1.08
266.955	-3.08
267.424	-1.38
267.893	4.12
268.362	-1.08
268.83	3.02
269.299	9.12
269.768	2.12
270.236	7.12
270.705	4.52
271.174	7.22
271.642	5.42
272.111	3.82
272.579	5.02
273.048	9.92
273.516	8.72
273.985	12.12
274.453	7.92
274.922	14.22
275.39	5.62
275.858	7.92
276.327	8.52
276.795	16.02
277.263	5.22
277.731	17.72
278.2	17.62
278.668	15.12
279.136	18.22
279.604	5.02
280.072	15.42
280.54	10.82
281.008	14.42
281.477	16.72
281.945	12.52
282.413	10.72
282.881	15.32
283.348	9.92
283.816	12.72
284.284	12.72
284.752	25.22
285.22	14.62
285.688	14.12
286.156	14.02
286.623	16.82
287.091	17.52
287.559	17.52
288.026	11.12
288.494	22.42
288.962	2.52
289.429	11.82
289.897	21.32
290.364	20.52
290.832	21.12
291.3	16.12
291.767	26.72
292.234	19.62
292.702	16.92
293.169	22.72
293.637	24.42
294.104	22.62
294.571	6.72
295.039	16.32
295.506	22.12
295.973	23.52
296.44	16.72
296.908	19.42
297.375	22.22
297.842	17.42
298.309	15.72
298.776	15.02
299.243	24.32
299.71	17.62
300.177	28.32
300.644	22.92
301.111	21.72
301.578	28.52
302.045	19.82
302.512	24.02
302.979	28.72
303.446	29.82
303.913	25.82
304.379	16.72
304.846	31.12
305.313	23.82
305.78	23.12
306.246	25.22
306.713	19.52
307.18	32.82
307.646	29.22
308.113	34.52
308.579	26.42
309.046	24.02
309.512	30.82
309.979	16.42
310.445	31.02
310.912	34.62
311.378	37.12
311.845	34.32
312.311	37.62
312.777	36.82
313.244	28.02
313.71	44.22
314.176	31.02
314.642	33.52
315.109	24.72
315.575	39.72
316.041	42.72
316.507	32.72
316.973	41.12
317.439	32.32
317.905	38.72
318.371	34.22
318.837	33.52
319.303	30.82
319.769	40.12
320.235	40.12
320.701	36.62
321.167	42.12
321.633	37.92
322.099	38.82
322.564	41.32
323.03	44.12
323.496	39.22
323.962	44.62
324.427	45.92
324.893	47.82
325.359	43.12
325.824	39.62
326.29	40.02
326.755	43.42
327.221	43.72
327.686	48.82
328.152	47.22
328.617	49.92
329.083	51.22
329.548	56.52
330.014	49.12
330.479	43.22
330.944	42.22
331.41	54.02
331.875	49.62
332.34	45.42
332.805	44.52
333.271	38.92
333.736	43.82
334.201	46.92
334.666	55.72
335.131	50.52
335.596	56.42
336.061	46.62
336.526	45.62
336.991	50.92
337.456	60.02
337.921	53.62
338.386	46.82
338.851	51.42
339.316	47.52
339.781	50.62
340.246	52.12
340.711	45.82
341.175	57.32
341.64	52.22
342.105	53.52
342.569	55.02
343.034	62.22
343.499	61.82
343.963	60.22
344.428	71.02
344.893	67.52
345.357	63.72
345.822	68.52
346.286	72.82
346.751	74.62
347.215	73.52
347.679	76.82
348.144	102.52
348.608	90.92
349.073	79.22
349.537	78.22
350.001	85.02
350.465	93.82
350.93	81.62
351.394	86.72
351.858	75.82
352.322	93.22
352.786	90.02
353.25	105.12
353.715	111.02
354.179	104.62
354.643	125.32
355.107	131.62
355.571	116.02
356.035	103.62
356.498	118.72
356.962	121.52
357.426	139.82
357.89	115.72
358.354	96.42
358.818	92.62
359.281	81.32
359.745	85.82
360.209	83.22
360.673	82.72
361.136	82.62
361.6	90.52
362.064	87.52
362.527	92.22
362.991	100.22
363.454	83.82
363.918	82.52
364.381	82.52
364.845	91.72
365.308	92.62
365.772	97.72
366.235	88.82
366.698	91.82
367.162	88.42
367.625	93.12
368.088	91.82
368.552	90.42
369.015	94.32
369.478	95.82
369.941	98.12
370.404	92.72
370.867	110.02
371.331	114.52
371.794	109.42
372.257	104.92
372.72	109.42
373.183	101.32
373.646	98.02
374.109	106.42
374.572	105.22
375.035	105.02
375.497	109.12
375.96	120.22
376.423	113.22
376.886	117.42
377.349	119.52
377.811	108.92
378.274	111.52
378.737	112.02
379.199	111.02
379.662	115.32
380.125	117.82
380.587	113.72
381.05	120.32
381.512	123.82
381.975	128.62
382.437	123.32
382.9	118.72
383.362	127.02
383.825	140.52
384.287	133.52
384.75	129.52
385.212	129.52
385.674	142.82
386.136	138.12
386.599	126.12
387.061	127.92
387.523	125.52
387.985	131.62
388.447	136.62
388.91	135.72
389.372	131.62
389.834	134.32
390.296	134.12
390.758	142.32
391.22	148.72
391.682	163.02
392.144	176.82
392.606	164.12
393.068	147.82
393.529	162.12
393.991	153.22
394.453	142.92
394.915	146.72
395.377	147.42
395.838	150.12
396.3	151.92
396.762	148.42
397.224	140.02
397.685	138.62
398.147	137.02
398.608	138.52
399.07	142.42
399.531	150.12
399.993	154.82
400.454	161.72
400.916	163.52
401.377	157.42
401.839	163.42
402.3	158.12
402.762	179.92
403.223	188.92
403.684	179.32
404.145	178.02
404.607	169.12
405.068	172.02
405.529	174.02
405.99	190.82
406.451	187.92
406.913	188.72
407.374	174.12
407.835	174.52
408.296	181.92
408.757	175.62
409.218	194.62
409.679	188.72
410.14	186.22
410.601	185.52
411.062	185.82
411.522	190.42
411.983	189.92
412.444	192.02
412.905	198.62
413.366	203.22
413.826	208.72
414.287	236.92
414.748	284.22
415.208	267.52
415.669	235.52
416.13	221.42
416.59	227.92
417.051	227.52
417.511	244.12
417.972	258.12
418.432	267.42
418.893	313.22
419.353	272.02
419.814	221.02
420.274	200.82
420.734	195.82
421.195	211.92
421.655	202.52
422.115	210.72
422.576	217.82
423.036	210.32
423.496	224.12
423.956	236.92
424.416	244.42
424.876	291.52
425.336	282.82
425.797	281.02
426.257	273.72
426.717	257.32
427.177	247.32
427.637	236.12
428.097	258.02
428.556	267.22
429.016	289.42
429.476	276.82
429.936	283.02
430.396	289.32
430.856	309.82
431.315	331.02
431.775	364.62
432.235	400.62
432.694	371.02
433.154	376.32
433.614	400.12
434.073	353.82
434.533	301.82
434.993	289.92
435.452	298.42
435.912	317.42
436.371	309.02
436.83	293.42
437.29	281.82
437.749	265.12
438.209	265.92
438.668	288.82
439.127	316.42
439.587	283.42
440.046	274.72
440.505	279.62
440.964	294.82
441.424	347.02
441.883	336.92
442.342	281.82
442.801	251.32
443.26	246.62
443.719	241.12
444.178	235.72
444.637	226.12
445.096	250.22
445.555	243.12
446.014	244.82
446.473	249.22
446.932	253.02
447.391	246.02
447.849	245.32
448.308	242.52
448.767	251.22
449.226	257.02
449.685	261.12
450.143	270.72
450.602	259.62
451.061	250.32
451.519	260.92
451.978	256.22
452.436	256.62
452.895	263.72
453.353	274.62
453.812	264.12
454.27	262.92
454.729	261.82
455.187	267.32
455.646	266.52
456.104	262.12
456.562	288.32
457.021	295.72
457.479	277.32
457.937	289.42
458.395	286.82
458.854	272.82
459.312	281.82
459.77	302.02
460.228	274.92
460.686	270.52
461.144	268.72
461.602	268.92
462.06	266.62
462.518	281.52
462.976	278.92
463.434	276.72
463.892	288.22
464.35	297.52
464.808	315.62
465.266	295.02
465.724	296.82
466.181	302.52
466.639	298.82
467.097	317.12
467.555	325.12
468.012	333.92
468.47	332.32
468.928	363.82
469.385	372.82
469.843	380.72
470.3	382.52
470.758	388.12
471.215	434.22
471.673	442.32
472.13	442.12
472.588	447.82
473.045	409.22
473.503	412.72
473.96	430.32
474.417	438.72
474.875	468.72
475.332	519.62
475.789	501.42
476.246	509.42
476.704	529.42
477.161	543.72
477.618	561.12
478.075	612.12
478.532	657.52
478.989	740.62
479.446	851.12
479.903	801.92
480.36	829.52
480.817	878.42
481.274	978.62
481.731	1088.42
482.188	1178.22
482.645	1292.52
483.102	1389.82
483.558	1509.42
484.015	1549.62
484.472	1519.72
484.929	1481.62
485.385	1432.92
485.842	1408.92
486.299	1361.12
486.755	1313.82
487.212	1127.52
487.668	963.72
488.125	880.72
488.582	824.12
489.038	797.92
489.494	764.12
489.951	735.52
490.407	717.42
490.864	694.62
491.32	686.52
491.776	693.22
492.233	695.72
492.689	659.32
493.145	656.92
493.602	656.32
494.058	654.42
494.514	670.42
494.97	689.62
495.426	691.42
495.882	681.52
496.338	663.22
496.794	667.72
497.251	668.92
497.707	693.62
498.163	692.72
498.618	693.32
499.074	700.72
499.53	719.42
499.986	721.42
500.442	709.62
500.898	675.42
501.354	672.22
501.809	675.32
502.265	675.32
502.721	682.52
503.177	699.52
503.632	698.92
504.088	710.02
504.543	719.82
504.999	754.42
505.455	714.42
505.91	688.52
506.366	691.12
506.821	687.52
507.277	687.22
507.732	691.32
508.187	691.32
508.643	692.62
509.098	700.42
509.553	715.52
510.009	736.32
510.464	739.62
510.919	749.52
511.375	751.52
511.83	773.42
512.285	791.02
512.74	818.02
513.195	859.92
513.65	839.12
514.105	831.32
514.56	836.52
515.015	862.62
515.47	872.22
515.925	856.02
516.38	846.82
516.835	872.62
517.29	853.02
517.745	848.32
518.2	836.82
518.655	817.52
519.109	802.72
519.564	811.82
520.019	802.22
520.474	799.12
520.928	795.52
521.383	781.42
521.838	770.22
522.292	770.72
522.747	767.42
523.201	768.42
523.656	760.12
524.11	755.52
524.565	756.92
525.019	756.22
525.474	762.22
525.928	761.32
526.382	757.62
526.837	757.52
527.291	762.32
527.745	758.62
528.2	772.72
528.654	759.42
529.108	754.82
529.562	750.32
530.016	741.82
530.47	762.22
530.925	752.72
531.379	760.92
531.833	769.52
532.287	775.72
532.741	759.82
533.195	761.52
533.649	772.02
534.103	788.72
534.556	767.82
535.01	770.62
535.464	773.22
535.918	788.22
536.372	788.82
536.826	781.32
537.279	774.12
537.733	781.92
538.187	788.62
538.64	791.22
539.094	794.92
539.548	794.12
540.001	789.92
540.455	786.82
540.908	799.52
541.362	801.12
541.815	815.12
542.269	829.72
542.722	828.22
543.175	844.02
543.629	841.22
544.082	855.72
544.536	859.32
544.989	855.02
545.442	866.62
545.895	869.22
546.349	866.52
546.802	864.52
547.255	858.82
547.708	881.02
548.161	897.12
548.614	904.62
549.067	900.12
549.52	900.82
549.973	899.12
550.426	893.92
550.879	880.42
551.332	879.42
551.785	896.92
552.238	879.82
552.691	904.92
553.144	902.72
553.596	928.92
554.049	947.72
554.502	983.12
554.955	1003.32
555.407	994.32
555.86	982.52
556.313	975.72
556.765	974.42
557.218	965.02
557.67	969.52
558.123	971.42
558.576	960.22
559.028	963.82
559.48	981.22
559.933	946.02
560.385	919.42
560.838	895.52
561.29	855.92
561.742	860.72
562.195	851.02
562.647	842.32
563.099	845.42
563.551	849.02
564.004	856.32
564.456	845.52
564.908	827.82
565.36	817.52
565.812	801.12
566.264	787.72
566.716	782.72
567.168	767.92
567.62	776.82
568.072	759.82
568.524	756.02
568.976	746.42
569.428	737.22
569.88	734.72
570.332	738.02
570.784	747.22
571.235	742.12
571.687	757.92
572.139	772.62
572.59	785.52
573.042	781.02
573.494	781.62
573.945	776.02
574.397	755.32
574.849	744.92
575.3	763.72
575.752	753.22
576.203	741.02
576.655	749.52
577.106	732.72
577.557	721.32
578.009	734.52
578.46	732.42
578.912	720.82
579.363	724.72
579.814	733.32
580.265	733.62
580.717	726.02
581.168	733.12
581.619	738.02
582.07	748.12
582.521	735.92
582.972	739.72
583.423	737.52
583.875	735.92
584.326	745.22
584.777	758.82
585.227	795.32
585.678	812.92
586.129	829.22
586.58	862.22
587.031	901.52
587.482	932.12
587.933	967.42
588.384	938.92
588.834	863.22
589.285	848.02
589.736	849.52
590.186	835.42
590.637	829.62
591.088	806.62
591.538	801.42
591.989	793.42
592.439	780.02
592.89	772.52
593.34	769.82
593.791	768.52
594.241	758.52
594.692	755.22
595.142	755.02
595.593	758.22
596.043	771.52
596.493	758.22
596.943	775.22
597.394	778.22
597.844	779.92
598.294	794.32
598.744	822.62
599.195	849.42
599.645	890.72
600.095	936.82
600.545	990.92
600.995	1062.42
601.445	1123.32
601.895	1181.52
602.345	1225.92
602.795	1206.42
603.245	1158.32
603.695	1103.02
604.145	1047.62
604.594	995.82
605.044	939.82
605.494	875.42
605.944	826.12
606.393	810.92
606.843	788.02
607.293	798.22
607.743	792.72
608.192	810.92
608.642	817.52
609.091	817.52
609.541	814.82
609.99	816.02
610.44	815.32
610.889	772.22
611.339	757.22
611.788	737.72
612.238	747.92
612.687	753.02
613.136	751.12
613.586	762.12
614.035	750.32
614.484	771.02
614.933	764.72
615.383	772.32
615.832	766.02
616.281	747.62
616.73	717.92
617.179	706.52
617.628	690.92
618.077	682.12
618.526	675.62
618.975	662.12
619.424	659.22
619.873	657.22
620.322	673.52
620.771	657.62
621.22	662.32
621.669	643.32
622.118	629.42
622.567	625.62
623.015	616.82
623.464	610.82
623.913	599.32
624.361	598.32
624.81	596.22
625.259	598.02
625.707	604.12
626.156	611.62
626.604	615.12
627.053	610.22
627.501	614.72
627.95	621.02
628.398	625.62
628.847	611.82
629.295	619.52
629.744	630.92
630.192	616.52
630.64	609.82
631.089	586.42
631.537	588.12
631.985	568.82
632.433	575.02
632.881	569.52
633.33	587.62
633.778	576.52
634.226	572.32
634.674	572.22
635.122	588.02
635.57	601.62
636.018	603.02
636.466	616.92
636.914	601.92
637.362	615.32
637.81	615.02
638.258	633.92
638.705	628.82
639.153	659.12
639.601	671.82
640.049	694.92
640.497	720.22
640.944	734.02
641.392	699.92
641.84	660.42
642.287	629.82
642.735	601.82
643.182	611.12
643.63	605.62
644.078	594.22
644.525	617.22
644.973	621.12
645.42	634.12
645.867	657.92
646.315	679.42
646.762	703.52
647.21	735.62
647.657	760.72
648.104	784.52
648.551	812.72
648.999	868.42
649.446	942.52
649.893	1020.12
650.34	1171.02
650.787	1386.72
651.234	1717.52
651.682	2206.42
652.129	2975.22
652.576	4221.22
653.023	6130.82
653.47	8356.82
653.917	10369.32
654.363	11964.82
654.81	13183.42
655.257	12474.42
655.704	8304.42
656.151	4986.12
656.598	3289.32
657.044	2374.92
657.491	1844.52
657.938	1495.92
658.385	1257.02
658.831	1100.02
659.278	986.92
659.724	880.42
660.171	815.82
660.618	746.52
661.064	724.02
661.511	706.92
661.957	690.62
662.404	676.82
662.85	683.12
663.296	667.32
663.743	599.22
664.189	565.92
664.635	573.42
665.082	564.12
665.528	560.42
665.974	551.22
666.42	547.22
666.867	541.32
667.313	525.42
667.759	504.62
668.205	480.72
668.651	494.02
669.097	480.32
669.543	481.82
669.989	473.02
670.435	482.42
670.881	474.32
671.327	484.22
671.773	506.42
672.219	528.42
672.665	584.42
673.11	634.42
673.556	687.42
674.002	723.52
674.448	714.02
674.893	589.42
675.339	521.72
675.785	478.82
676.23	453.02
676.676	425.72
677.122	420.22
677.567	412.02
678.013	401.42
678.458	392.72
678.904	398.02
679.349	381.62
679.794	385.12
680.24	386.22
680.685	379.72
681.131	377.72
681.576	391.62
682.021	394.52
682.466	384.82
682.912	386.62
683.357	379.82
683.802	409.42
684.247	435.62
684.692	494.52
685.137	539.32
685.583	581.62
686.028	606.72
686.473	559.32
686.918	481.42
687.363	454.62
687.807	425.42
688.252	398.92
688.697	392.62
689.142	367.02
689.587	361.62
690.032	352.02
690.477	377.82
690.921	376.72
691.366	409.52
691.811	442.32
692.255	475.22
692.7	498.92
693.145	539.22
693.589	759.12
694.034	1209.62
694.478	1668.12
694.923	1878.72
695.367	2452.32
695.812	1296.72
696.256	541.62
696.701	402.52
697.145	373.12
697.59	360.42
698.034	351.32
698.478	355.12
698.922	345.52
699.367	354.72
699.811	364.72
700.255	385.22
700.699	413.82
701.143	453.22
701.588	512.82
702.032	554.02
702.476	552.52
702.92	519.12
703.364	529.72
703.808	693.02
704.252	1118.72
704.696	1564.02
705.14	1803.72
705.584	2300.52
706.027	1156.12
706.471	573.02
706.915	433.32
707.359	389.92
707.803	349.62
708.246	344.62
708.69	342.42
709.134	340.52
709.577	339.62
710.021	334.22
710.465	339.72
710.908	322.62
711.352	322.62
711.795	335.32
712.239	377.72
712.682	409.12
713.126	449.62
713.569	493.72
714.012	387.62
714.456	328.42
714.899	315.42
715.342	298.92
715.786	290.62
716.229	284.12
716.672	276.62
717.115	267.62
717.558	276.92
718.002	272.12
718.445	287.92
718.888	302.82
719.331	320.12
719.774	328.42
720.217	331.32
720.66	307.82
721.103	289.72
721.546	277.42
721.989	276.32
722.432	261.32
722.874	256.82
723.317	250.22
723.76	260.82
724.203	278.12
724.645	337.92
725.088	471.42
725.531	614.42
725.974	692.32
726.416	597.42
726.859	327.62
727.301	267.52
727.744	255.62
728.187	254.72
728.629	253.92
729.071	263.62
729.514	280.42
729.956	290.32
730.399	303.12
730.841	313.52
731.283	304.82
731.726	290.32
732.168	295.32
732.61	291.22
733.053	310.72
733.495	345.72
733.937	383.22
734.379	431.72
734.821	470.92
735.263	592.12
735.705	908.42
736.148	1709.02
736.59	2790.72
737.032	3313.52
737.474	2695.82
737.916	879.42
738.357	468.62
738.799	354.92
739.241	324.42
739.683	308.72
740.125	324.02
740.567	328.02
741.008	339.62
741.45	339.02
741.892	344.62
742.334	376.72
742.775	390.62
743.217	378.82
743.658	295.42
744.1	284.22
744.542	287.72
744.983	345.12
745.425	382.42
745.866	373.22
746.307	305.82
746.749	303.52
747.19	351.92
747.632	497.02
748.073	958.82
748.514	2014.42
748.956	3058.02
749.397	3850.92
749.838	3197.52
750.279	3184.82
750.72	1612.42
751.162	599.32
751.603	354.82
752.044	280.52
752.485	238.42
752.926	234.32
753.367	216.52
753.808	209.52
754.249	208.32
754.69	207.82
755.131	204.92
755.572	197.42
756.013	198.92
756.453	192.52
756.894	205.82
757.335	212.02
757.776	221.02
758.216	211.62
758.657	213.62
759.098	220.92
759.538	246.92
759.979	286.22
760.42	410.52
760.86	769.42
761.301	1972.62
761.741	4770.12
762.182	6918.62
762.622	4910.42
763.063	1427.52
763.503	571.42
763.943	360.42
764.384	302.82
764.824	295.02
765.264	294.92
765.705	248.52
766.145	206.02
766.585	190.32
767.025	192.32
767.465	181.22
767.906	209.12
768.346	234.02
768.786	244.52
769.226	242.32
769.666	337.82
770.106	664.82
770.546	1680.12
770.986	2850.62
771.426	2538.22
771.866	862.72
772.306	347.12
772.745	223.32
773.185	189.72
773.625	175.12
774.065	168.92
774.505	174.62
774.944	223.72
775.384	395.62
775.824	636.82
776.263	619.92
776.703	305.72
777.142	174.52
777.582	140.92
778.021	138.12
778.461	139.82
778.9	136.62
779.34	136.92
779.779	124.62
780.219	117.12
780.658	121.02
781.097	122.32
781.537	126.72
781.976	121.32
782.415	117.52
782.855	116.12
783.294	114.02
783.733	115.92
784.172	113.32
784.611	115.22
785.05	120.12
785.489	124.22
785.928	125.52
786.367	124.82
786.806	128.32
787.245	135.82
787.684	146.02
788.123	160.02
788.562	147.42
789.001	134.32
789.44	134.32
789.879	123.42
790.317	136.02
790.756	140.82
791.195	142.22
791.634	158.82
792.072	215.92
792.511	399.82
792.95	1073.42
793.388	2272.12
793.827	2044.62
794.265	721.52
794.704	304.92
795.142	200.22
795.581	169.82
796.019	149.32
796.458	147.02
796.896	133.42
797.334	149.92
797.773	174.32
798.211	231.92
798.649	474.22
799.087	1091.92
799.526	1709.52
799.964	2156.32
800.402	2167.42
800.84	824.82
801.278	328.22
801.716	210.12
802.154	167.82
802.592	161.32
803.03	151.72
803.468	147.32
803.906	151.52
804.344	171.22
804.782	154.52
805.22	152.12
805.658	145.22
806.096	162.22
806.533	174.02
806.971	189.52
807.409	227.32
807.847	345.32
808.284	708.92
808.722	1998.22
809.16	3525.42
809.597	3373.02
810.035	5804.32
810.472	6215.32
810.91	2249.22
811.347	862.02
811.785	437.12
812.222	278.62
812.66	214.62
813.097	181.52
813.535	149.32
813.972	150.02
814.409	133.12
814.846	111.72
815.284	117.22
815.721	106.32
816.158	120.12
816.595	114.22
817.032	166.92
817.47	203.42
817.907	153.32
818.344	111.22
818.781	110.42
819.218	108.42
819.655	133.92
820.092	214.32
820.529	229.22
820.966	186.12
821.403	134.62
821.839	111.12
822.276	105.02
822.713	133.12
823.15	147.22
823.587	134.52
824.023	161.82
824.46	317.82
824.897	957.62
825.333	1465.12
825.77	626.12
826.206	256.72
826.643	154.42
827.08	104.92
827.516	87.52
827.953	86.32
828.389	91.32
828.825	85.22
829.262	75.72
829.698	68.42
830.135	72.52
830.571	72.02
831.007	68.42
831.443	68.92
831.88	70.72
832.316	71.62
832.752	73.32
833.188	72.22
833.624	72.42
834.06	74.52
834.497	70.52
834.933	74.42
835.369	76.32
835.805	80.42
836.241	81.82
836.677	93.62
837.112	96.52
837.548	120.52
837.984	146.02
838.42	214.82
838.856	529.82
839.292	1625.52
839.727	2460.02
840.163	1150.42
840.599	995.82
841.034	2176.12
841.47	2281.12
841.906	843.22
842.341	350.82
842.777	213.22
843.212	211.22
843.648	202.32
844.083	121.02
844.519	92.72
844.954	77.52
845.39	63.82
845.825	61.82
846.261	64.52
846.696	59.12
847.131	59.12
847.566	62.12
848.002	62.72
848.437	53.62
848.872	64.22
849.307	76.92
849.742	96.42
850.177	196.92
850.613	593.62
851.048	946.52
851.483	413.42
851.918	171.62
852.353	92.92
852.788	58.92
853.223	58.32
853.657	59.62
854.092	55.82
854.527	44.02
854.962	48.62
855.397	50.92
855.832	59.12
856.266	53.92
856.701	51.72
857.136	49.22
857.57	47.12
858.005	55.92
858.44	70.62
858.874	50.92
859.309	57.82
859.743	43.22
860.178	49.02
860.612	50.12
861.047	56.42
861.481	78.62
861.915	81.52
862.35	55.52
862.784	44.92
863.218	42.72
863.653	40.52
864.087	54.22
864.521	58.52
864.955	82.82
865.39	159.02
865.824	193.62
866.258	130.22
866.692	191.82
867.126	205.92
867.56	114.32
867.994	57.02
868.428	41.42
868.862	56.52
869.296	58.02
869.73	70.22
870.164	58.62
870.598	56.62
871.031	49.02
871.465	38.92
871.899	33.52
872.333	27.22
872.766	31.52
873.2	26.62
873.634	34.02
874.067	26.02
874.501	32.72
874.935	43.12
875.368	36.52
875.802	32.92
876.235	23.72
876.669	27.92
877.102	26.62
877.535	30.62
877.969	23.82
878.402	27.12
878.836	26.62
879.269	27.92
879.702	34.52
880.135	25.42
880.569	28.02
881.002	31.62
881.435	31.62
881.868	19.52
882.301	32.42
882.734	20.42
883.167	29.02
883.601	24.52
884.034	27.12
884.467	19.52
884.899	26.92
885.332	21.22
885.765	17.82
886.198	25.02
886.631	21.02
887.064	20.62
887.497	26.02
887.929	33.92
888.362	21.32
888.795	17.32
889.228	22.12
889.66	23.42
890.093	25.92
890.526	18.92
890.958	22.42
891.391	19.52
891.823	25.32
892.256	16.62
892.688	14.52
893.121	19.72
893.553	14.92
893.985	24.32
894.418	23.22
894.85	17.02
895.282	18.62
895.715	22.02
896.147	18.72
896.579	18.72
897.011	22.32
897.444	16.62
897.876	17.42
898.308	22.82
898.74	19.02
899.172	18.62
899.604	32.42
900.036	27.72
900.468	17.42
900.9	13.82
901.332	19.52
901.764	21.32
902.196	22.92
902.628	20.52
903.06	19.92
903.491	37.12
903.923	31.12
904.355	21.72
904.787	27.02
905.218	33.22
905.65	28.22
906.082	13.02
906.513	16.22
906.945	17.02
907.376	22.12
907.808	23.42
908.239	24.12
908.671	24.42
909.102	26.92
909.534	27.12
909.965	47.82
910.397	103.62
910.828	348.12
911.259	507.92
911.691	231.02
912.122	116.72
912.553	58.22
912.984	36.42
913.415	27.82
913.847	31.72
914.278	19.12
914.709	14.42
915.14	23.82
915.571	19.82
916.002	15.82
916.433	28.82
916.864	17.42
917.295	19.62
917.726	22.22
918.157	21.12
918.587	34.72
919.018	27.82
919.449	26.32
919.88	24.42
920.311	36.62
920.741	51.62
921.172	186.02
921.603	158.42
922.033	79.22
922.464	54.12
922.895	23.82
923.325	24.12
923.756	13.92
924.186	13.42
924.617	21.72
925.047	30.12
925.478	30.42
925.908	29.02
926.338	11.12
926.769	14.42
927.199	21.82
927.629	11.32
928.06	18.32
928.49	12.32
928.92	17.62
929.35	12.12
929.78	19.62
930.21	5.12
930.641	7.32
931.071	17.32
931.501	8.82
931.931	10.42
932.361	4.82
932.791	5.62
933.221	2.32
933.651	5.42
934.08	21.12
934.51	29.22
934.94	10.02
935.37	16.72
935.8	12.52
936.229	14.52
936.659	13.32
937.089	1.42
937.519	21.12
937.948	22.52
938.378	22.72
938.807	9.42
939.237	3.92
939.666	10.62
940.096	3.02
940.525	10.42
940.955	-0.78
941.384	2.02
941.814	-8.48
942.243	-0.08
942.672	4.22
943.102	2.12
943.531	2.02
943.96	4.62
944.39	1.92
944.819	3.12
945.248	4.02
945.677	-3.88
946.106	10.22
946.535	8.92
946.964	3.62
947.393	6.52
947.822	3.32
948.251	1.32
948.68	8.22
949.109	9.72
949.538	8.52
949.967	8.22
950.396	-2.88
950.825	2.42
951.254	3.02
951.682	-6.58
952.111	4.52
952.54	1.72
952.969	3.22
953.397	-2.88
953.826	4.42
954.254	-3.68
954.683	2.32
955.112	0.62
955.54	5.82
955.969	3.92
956.397	4.42
956.826	-1.48
957.254	3.62
957.682	-0.88
958.111	7.72
958.539	2.52
958.967	0.72
959.396	5.22
959.824	3.72
960.252	1.32
960.68	-1.88
961.109	1.52
961.537	-2.38
961.965	-1.28
962.393	3.72
962.821	-3.08
963.249	5.02
963.677	7.52
964.105	8.12
964.533	50.42
964.961	42.82
965.389	21.42
965.817	8.92
966.245	5.42
966.672	-3.28
967.1	-4.88
967.528	3.52
967.956	-3.58
968.383	1.12
968.811	-1.38
969.239	3.42
969.666	-3.68
970.094	0.72
970.522	4.52
970.949	0.12
971.377	-2.58
971.804	-2.48
972.232	-3.58
972.659	-4.08
973.087	1.72
973.514	2.12
973.941	1.12
974.369	5.32
974.796	8.62
975.223	2.42
975.651	-1.78
976.078	6.22
976.505	1.42
976.932	14.22
977.359	17.32
977.786	25.92
978.214	4.62
978.641	1.42
979.068	-6.48
979.495	-3.38
979.922	2.32
980.349	2.62
980.776	0.52
981.202	-0.28
981.629	6.82
982.056	6.62
982.483	-5.98
982.91	-2.68
983.337	-4.78
983.763	-0.58
984.19	-6.08
984.617	-3.78
985.043	-5.28
985.47	-0.38
985.897	-8.18
986.323	-2.18
986.75	4.82
987.176	-0.68
987.603	-0.48
988.029	-2.38
988.456	-1.38
988.882	4.62
989.308	-5.48
989.735	-2.68
990.161	9.12
990.587	-4.48
991.014	-0.88
991.44	6.62
991.866	2.82
992.292	-3.68
992.719	-0.28
993.145	5.72
993.571	-5.58
993.997	2.02
994.423	-2.88
994.849	-2.18
995.275	1.92
995.701	3.52
996.127	-5.38
996.553	3.72
996.979	5.62
997.405	3.52
997.83	-4.18
998.256	-2.88
998.682	-3.38
999.108	-4.08
999.534	-0.38
999.959	-3.78
1000.385	-4.18
1000.811	2.52
1001.236	-9.78
1001.662	-3.58
1002.087	-7.68
1002.513	3.92
1002.938	-0.58
1003.364	-1.38
1003.789	1.82
1004.215	-0.08
1004.64	-1.68
1005.066	-0.28
1005.491	0.72
1005.916	-3.78
1006.342	-3.38
1006.767	-5.08
1007.192	7.62
1007.617	-4.78
1008.042	-6.68
1008.468	-4.18
1008.893	-11.88
1009.318	-1.38
1009.743	-2.68
1010.168	6.82
1010.593	5.22
1011.018	-3.08
1011.443	-3.18
1011.868	1.42
1012.293	2.52
1012.718	-9.78
1013.143	1.62
1013.567	3.02
1013.992	-0.28
1014.417	-8.68
1014.842	5.22
1015.267	-7.28
1015.691	-5.78
1016.116	6.12
1016.541	0.82
1016.965	5.62
1017.39	4.92
1017.814	2.12
1018.239	0.22
1018.663	-3.08
1019.088	-7.68
1019.512	-4.78
1019.937	3.02
1020.361	-5.68
1020.785	-7.18
1021.21	-1.48
1021.634	-3.08
1022.058	0.62
1022.483	5.02
1022.907	-0.08
1023.331	-2.38
1023.755	3.22
1024.179	0.32
1024.604	-2.78
1025.028	-2.08
1025.452	1.02
1025.876	1.72
1026.3	-0.38
1026.724	-12.28
1027.148	-2.28
1027.572	-2.58
1027.996	-5.48
1028.42	-0.18
1028.843	2.02
1029.267	-2.28
1029.691	-1.58
1030.115	-4.48
1030.539	0.72
1030.962	-3.28
1031.386	-10.98
1031.81	-2.58
1032.233	2.92
1032.657	-1.08
1033.08	1.02
1033.504	-5.48
1033.927	-2.48
1034.351	-1.08
1034.774	-1.38
1035.198	0.22
1035.621	0.62
1036.045	-6.18
1036.468	4.32
1036.891	-4.48
1037.315	-6.78
1037.738	-3.28
1038.161	5.12
1038.584	-5.68
1039.008	-1.88
1039.431	0.02
1039.854	-2.78
1040.277	-6.18
1040.7	-10.18
1041.123	-1.68
1041.546	-5.28
1041.969	2.12
1042.392	-5.58
1042.815	-1.28
1043.238	-0.58
1043.661	5.22
1044.084	-7.78
1044.507	-1.98
1044.93	-2.58
1045.352	-2.28
1045.775	3.62
1046.198	-3.58
1046.621	-1.28
1047.043	-4.58
1047.466	6.62
1047.889	-5.38
1048.311	-3.18
1048.734	-1.28
1049.156	2.22
1049.579	-1.18
1050.001	-1.58
1050.424	-4.58
1050.846	-2.88
1051.269	0.22
1051.691	-1.38
1052.113	-3.68
1052.536	-4.58
1052.958	0.42
1053.38	-3.68
1053.802	-2.88
1054.225	0.62
1054.647	-4.28
1055.069	-0.88
1055.491	3.72
1055.913	-5.08
1056.335	3.12
1056.757	-4.68
1057.179	-7.48
1057.601	-3.78
1058.023	-1.28
1058.445	-0.28
1058.867	-0.78
1059.289	-2.28
1059.711	-10.68
1060.133	-4.68
1060.555	-2.18
1060.976	-5.88
1061.398	-3.28
1061.82	-4.08
1062.241	-2.18
1062.663	-6.38
1063.085	-7.68
1063.506	1.92
1063.928	-2.18
1064.35	-2.08
1064.771	-13.98
1065.193	-2.08
1065.614	-14.28
1066.035	-4.08
1066.457	-1.08
1066.878	2.22
1067.3	-1.78
1067.721	-4.68
1068.142	-2.78
1068.564	-3.08
1068.985	-0.28
1069.406	-7.28
1069.827	-4.88
1070.248	-1.48
1070.67	-7.28
1071.091	-4.58
1071.512	-4.98
1071.933	-6.68
1072.354	-8.58
1072.775	-3.38
1073.196	-6.28
1073.617	-3.38
1074.038	-2.88
1074.459	-6.78
1074.88	-3.68
1075.3	5.02
1075.721	-1.98
1076.142	-0.38
1076.563	1.12
1076.983	-11.28
1077.404	-3.58
1077.825	-9.48
1078.246	-1.68
1078.666	-7.48
1079.087	-3.08
1079.507	-2.88
1079.928	3.22
1080.348	-2.78
1080.769	-0.28
1081.189	5.12
1081.61	-0.88
1082.03	-6.68
1082.451	-0.98
1082.871	-4.08
1083.291	-5.38
1083.711	-8.98
1084.132	0.92
1084.552	-9.58
1084.972	-1.88
1085.392	-10.98
1085.813	-11.68
1086.233	-8.28
1086.653	-4.38
1087.073	0.32
1087.493	-6.18
1087.913	-2.98
1088.333	-6.98
1088.753	0.82
1089.173	7.02
1089.593	-0.38
1090.013	1.62
1090.433	-2.08
1090.852	-3.98
1091.272	-2.68
1091.692	1.02
1092.112	-6.08
1092.531	-10.38
1092.951	-9.08
1093.371	-0.68
1093.79	7.22
1094.21	-4.68
1094.63	-5.38
1095.049	-2.18
1095.469	1.92
1095.888	-8.08
1096.308	2.82
1096.727	0.72
1097.146	-1.38
1097.566	1.52
1097.985	-4.78
1098.405	-0.18
1098.824	-8.88
1099.243	-3.68
1099.662	-7.38
1100.082	-0.68
1100.501	0.92
1100.92	-0.38
1101.339	-4.68
1101.758	-4.78
