Data from 20171114-ORNL-Ar_H_NY_Subt18_08-03-35-311.txt Node
Date: Tue Nov 14 08:03:35 EST 2017
User: Ender
Spectrometer: HR+D1039
Trigger mode: 0
Integration Time (sec): 2.730000E-2
Scans to average: 10
Electric dark correction enabled: true
Nonlinearity correction enabled: false
Boxcar width: 0
XAxis mode: Wavelengths
Number of Pixels in Spectrum: 2048
>>>>>Begin Spectral Data<<<<<
187.836	3.22
188.309	3.22
188.782	3.22
189.255	2.62
189.728	-0.98
190.201	8.22
190.674	-3.68
191.147	3.12
191.619	-7.78
192.092	-0.68
192.565	8.52
193.038	0.62
193.511	-3.08
193.984	-1.18
194.456	0.92
194.929	0.42
195.402	-8.78
195.874	-1.58
196.347	-7.98
196.82	-4.68
197.292	2.82
197.765	0.52
198.237	-1.88
198.71	5.82
199.182	-7.38
199.655	2.02
200.127	-2.08
200.6	-0.08
201.072	-1.78
201.544	-3.28
202.017	0.02
202.489	5.92
202.961	0.92
203.433	-2.08
203.906	-5.27
204.378	-9.88
204.85	-5.38
205.322	-4.48
205.794	-2.58
206.266	-5.38
206.739	-7.38
207.211	3.12
207.683	-5.68
208.155	-6.58
208.627	-7.58
209.099	-4.28
209.57	-8.98
210.042	-6.28
210.514	-5.98
210.986	-4.48
211.458	-8.48
211.93	-7.18
212.402	2.62
212.873	-10.68
213.345	-12.58
213.817	-11.78
214.288	-7.88
214.76	-9.38
215.232	-9.58
215.703	-0.28
216.175	-6.58
216.646	-5.28
217.118	-10.48
217.589	-3.27
218.061	-1.38
218.532	-6.88
219.004	-3.08
219.475	-4.48
219.946	-4.78
220.418	-6.58
220.889	1.42
221.36	-1.68
221.832	-4.28
222.303	-7.78
222.774	7.32
223.245	-3.08
223.717	-10.78
224.188	-3.38
224.659	-13.98
225.13	-2.88
225.601	-4.08
226.072	0.12
226.543	-4.78
227.014	-3.28
227.485	-3.88
227.956	-4.78
228.427	-3.58
228.898	-5.88
229.369	-5.18
229.839	-8.78
230.31	-7.38
230.781	-0.48
231.252	-9.28
231.722	-3.98
232.193	-2.77
232.664	-5.18
233.135	3.32
233.605	-1.98
234.076	-7.08
234.546	-2.98
235.017	1.42
235.487	1.62
235.958	-6.58
236.428	-8.48
236.899	6.02
237.369	-4.77
237.84	-10.88
238.31	-1.08
238.78	-9.88
239.251	-3.58
239.721	-0.98
240.191	0.23
240.662	-6.88
241.132	-2.28
241.602	-6.58
242.072	0.52
242.542	4.12
243.013	-10.58
243.483	-0.58
243.953	-2.18
244.423	-2.88
244.893	-6.08
245.363	-2.28
245.833	-8.38
246.303	-7.68
246.773	-3.48
247.243	2.52
247.712	2.62
248.182	0.02
248.652	0.62
249.122	-15.48
249.592	-5.68
250.061	6.22
250.531	6.82
251.001	-0.88
251.471	4.82
251.94	6.22
252.41	-8.18
252.879	-6.78
253.349	5.62
253.818	1.22
254.288	-3.48
254.757	-6.68
255.227	-4.08
255.696	2.52
256.166	0.62
256.635	1.42
257.105	-1.38
257.574	-1.28
258.043	-3.18
258.513	-7.78
258.982	-2.27
259.451	-8.78
259.92	-0.58
260.389	-0.58
260.859	7.72
261.328	-2.77
261.797	-3.27
262.266	-0.38
262.735	0.92
263.204	-0.38
263.673	-1.78
264.142	1.32
264.611	-10.18
265.08	-4.88
265.549	-8.18
266.018	1.12
266.487	-9.48
266.955	-2.28
267.424	-5.28
267.893	-2.98
268.362	-8.98
268.83	-8.38
269.299	2.82
269.768	1.02
270.236	-4.98
270.705	-5.98
271.174	-4.48
271.642	-7.08
272.111	-5.08
272.579	-2.88
273.048	-4.48
273.516	-5.28
273.985	-1.18
274.453	-1.78
274.922	4.72
275.39	-4.78
275.858	-12.38
276.327	-1.08
276.795	1.72
277.263	-2.88
277.731	3.52
278.2	1.92
278.668	-1.38
279.136	2.12
279.604	-7.98
280.072	-0.38
280.54	-2.98
281.008	0.42
281.477	1.82
281.945	-0.88
282.413	3.62
282.881	4.02
283.348	-0.77
283.816	1.52
284.284	-2.68
284.752	5.92
285.22	-2.18
285.688	-2.88
286.156	1.12
286.623	3.32
287.091	-4.48
287.559	2.02
288.026	0.62
288.494	6.92
288.962	-8.38
289.429	-1.98
289.897	3.82
290.364	3.92
290.832	4.32
291.3	2.02
291.767	-1.48
292.234	5.62
292.702	-5.38
293.169	1.52
293.637	7.32
294.104	0.42
294.571	-5.98
295.039	-6.18
295.506	-0.48
295.973	2.62
296.44	-1.48
296.908	1.42
297.375	6.62
297.842	3.72
298.309	-1.48
298.776	-3.88
299.243	2.42
299.71	-3.68
300.177	4.42
300.644	2.72
301.111	2.52
301.578	4.12
302.045	-0.08
302.512	4.62
302.979	9.42
303.446	1.42
303.913	2.12
304.379	4.02
304.846	7.52
305.313	8.72
305.78	3.22
306.246	7.92
306.713	2.62
307.18	8.12
307.646	5.42
308.113	8.22
308.579	4.22
309.046	3.92
309.512	10.23
309.979	-7.28
310.445	8.72
310.912	5.72
311.378	7.72
311.845	9.32
312.311	6.82
312.777	10.52
313.244	7.02
313.71	11.42
314.176	10.32
314.642	2.32
315.109	1.52
315.575	3.82
316.041	10.82
316.507	6.12
316.973	12.22
317.439	7.22
317.905	12.42
318.371	5.92
318.837	6.62
319.303	12.12
319.769	8.82
320.235	12.82
320.701	4.72
321.167	10.42
321.633	10.12
322.099	12.12
322.564	11.02
323.03	14.32
323.496	7.32
323.962	10.23
324.427	1.72
324.893	16.62
325.359	12.12
325.824	4.52
326.29	9.02
326.755	14.92
327.221	11.12
327.686	7.52
328.152	9.02
328.617	9.52
329.083	13.12
329.548	17.42
330.014	13.22
330.479	11.62
330.944	7.82
331.41	11.22
331.875	13.32
332.34	13.12
332.805	14.32
333.271	10.32
333.736	2.52
334.201	19.73
334.666	13.82
335.131	22.82
335.596	18.82
336.061	14.12
336.526	7.22
336.991	19.32
337.456	22.42
337.921	17.02
338.386	16.12
338.851	13.92
339.316	16.32
339.781	12.12
340.246	17.62
340.711	13.92
341.175	22.52
341.64	9.72
342.105	16.42
342.569	16.62
343.034	18.92
343.499	16.52
343.963	11.52
344.428	24.82
344.893	23.52
345.357	15.12
345.822	21.42
346.286	18.72
346.751	25.32
347.215	25.12
347.679	23.62
348.144	31.62
348.608	33.12
349.073	22.42
349.537	23.82
350.001	26.92
350.465	34.32
350.93	22.92
351.394	29.32
351.858	23.23
352.322	35.42
352.786	30.73
353.25	27.32
353.715	37.82
354.179	35.22
354.643	32.42
355.107	38.52
355.571	37.12
356.035	37.02
356.498	34.62
356.962	36.52
357.426	42.62
357.89	36.02
358.354	33.12
358.818	34.02
359.281	30.02
359.745	33.12
360.209	29.12
360.673	20.23
361.136	21.82
361.6	38.02
362.064	31.02
362.527	28.52
362.991	34.62
363.454	31.92
363.918	23.82
364.381	25.22
364.845	33.02
365.308	35.72
365.772	33.92
366.235	36.52
366.698	29.22
367.162	26.52
367.625	23.52
368.088	25.82
368.552	32.22
369.015	33.22
369.478	39.12
369.941	42.72
370.404	32.72
370.867	35.72
371.331	33.72
371.794	39.72
372.257	35.32
372.72	38.52
373.183	35.02
373.646	31.22
374.109	33.42
374.572	37.82
375.035	34.72
375.497	35.42
375.96	38.32
376.423	40.12
376.886	45.42
377.349	36.02
377.811	45.32
378.274	37.02
378.737	48.62
379.199	40.92
379.662	42.12
380.125	46.23
380.587	34.92
381.05	38.52
381.512	42.22
381.975	49.82
382.437	44.42
382.9	44.12
383.362	51.32
383.825	53.92
384.287	47.32
384.75	47.32
385.212	52.82
385.674	55.12
386.136	57.62
386.599	54.92
387.061	53.82
387.523	46.02
387.985	49.52
388.447	53.52
388.91	52.42
389.372	53.02
389.834	54.02
390.296	48.52
390.758	56.42
391.22	53.72
391.682	57.82
392.144	60.42
392.606	59.42
393.068	54.62
393.529	64.92
393.991	64.42
394.453	54.32
394.915	62.32
395.377	62.12
395.838	57.42
396.3	65.62
396.762	57.62
397.224	57.42
397.685	54.22
398.147	58.42
398.608	61.02
399.07	49.12
399.531	59.42
399.993	57.02
400.454	64.22
400.916	64.42
401.377	61.92
401.839	69.72
402.3	63.92
402.762	69.62
403.223	81.42
403.684	73.82
404.145	66.42
404.607	59.52
405.068	63.12
405.529	63.62
405.99	73.52
406.451	66.12
406.913	75.52
407.374	66.52
407.835	73.52
408.296	65.62
408.757	78.52
409.218	77.72
409.679	71.12
410.14	73.02
410.601	78.62
411.062	85.92
411.522	78.42
411.983	80.72
412.444	70.62
412.905	75.62
413.366	82.72
413.826	91.22
414.287	113.02
414.748	139.22
415.208	127.02
415.669	107.62
416.13	109.82
416.59	108.12
417.051	114.52
417.511	110.92
417.972	119.73
418.432	133.92
418.893	159.82
419.353	139.82
419.814	96.42
420.274	89.42
420.734	91.22
421.195	102.92
421.655	83.23
422.115	87.32
422.576	92.52
423.036	97.72
423.496	93.42
423.956	106.23
424.416	110.12
424.876	125.52
425.336	121.42
425.797	120.92
426.257	118.72
426.717	103.42
427.177	101.22
427.637	93.32
428.097	98.92
428.556	93.42
429.016	110.42
429.476	92.42
429.936	101.12
430.396	103.82
430.856	108.22
431.315	116.02
431.775	122.52
432.235	145.32
432.694	128.82
433.154	124.42
433.614	132.92
434.073	118.82
434.533	103.72
434.993	100.52
435.452	107.92
435.912	107.42
436.371	113.02
436.83	108.23
437.29	110.82
437.749	97.42
438.209	103.22
438.668	119.72
439.127	119.42
439.587	107.62
440.046	104.12
440.505	113.23
440.964	118.02
441.424	133.62
441.883	130.72
442.342	119.52
442.801	108.42
443.26	101.92
443.719	109.92
444.178	105.12
444.637	93.62
445.096	105.92
445.555	109.82
446.014	107.62
446.473	112.02
446.932	110.62
447.391	105.62
447.849	113.22
448.308	108.62
448.767	106.32
449.226	119.12
449.685	119.72
450.143	123.82
450.602	115.62
451.061	102.12
451.519	110.32
451.978	101.22
452.436	107.42
452.895	106.12
453.353	115.72
453.812	117.23
454.27	118.12
454.729	113.52
455.187	114.22
455.646	113.92
456.104	114.92
456.562	111.62
457.021	118.52
457.479	122.32
457.937	123.52
458.395	122.82
458.854	113.22
459.312	119.62
459.77	116.92
460.228	115.52
460.686	108.82
461.144	117.62
461.602	112.22
462.06	119.32
462.518	120.62
462.976	118.52
463.434	122.62
463.892	122.72
464.35	124.52
464.808	125.82
465.266	123.12
465.724	125.82
466.181	131.22
466.639	126.32
467.097	134.02
467.555	134.92
468.012	143.52
468.47	134.12
468.928	151.72
469.385	151.02
469.843	150.52
470.3	151.82
470.758	157.72
471.215	165.62
471.673	164.22
472.13	171.02
472.588	182.22
473.045	163.02
473.503	162.12
473.96	162.92
474.417	168.92
474.875	186.82
475.332	191.82
475.789	186.52
476.246	190.62
476.704	188.62
477.161	191.72
477.618	189.12
478.075	196.43
478.532	211.72
478.989	222.12
479.446	235.52
479.903	225.12
480.36	213.02
480.817	207.62
481.274	209.52
481.731	222.92
482.188	213.92
482.645	234.72
483.102	224.12
483.558	242.02
484.015	247.02
484.472	246.02
484.929	243.42
485.385	241.22
485.842	249.83
486.299	250.52
486.755	283.62
487.212	258.92
487.668	239.82
488.125	241.02
488.582	233.02
489.038	237.62
489.494	228.12
489.951	234.33
490.407	235.93
490.864	229.92
491.32	241.33
491.776	241.72
492.233	243.22
492.689	232.92
493.145	243.73
493.602	231.62
494.058	250.22
494.514	249.23
494.97	249.43
495.426	244.42
495.882	243.42
496.338	242.62
496.794	249.33
497.251	232.92
497.707	255.32
498.163	254.72
498.618	250.72
499.074	258.22
499.53	266.23
499.986	270.62
500.442	257.82
500.898	249.92
501.354	250.02
501.809	256.32
502.265	263.33
502.721	258.62
503.177	265.52
503.632	266.12
504.088	264.32
504.543	273.02
504.999	275.83
505.455	264.22
505.91	260.52
506.366	252.62
506.821	258.52
507.277	264.32
507.732	263.72
508.187	264.62
508.643	269.52
509.098	259.12
509.553	272.52
510.009	280.52
510.464	272.82
510.919	288.12
511.375	291.02
511.83	285.42
512.285	293.72
512.74	314.02
513.195	316.33
513.65	311.43
514.105	318.62
514.56	318.62
515.015	327.12
515.47	331.22
515.925	321.02
516.38	326.12
516.835	328.52
517.29	320.62
517.745	326.62
518.2	316.82
518.655	296.52
519.109	298.73
519.564	296.32
520.019	290.72
520.474	296.12
520.928	287.23
521.383	288.82
521.838	284.92
522.292	285.62
522.747	287.52
523.201	281.72
523.656	289.92
524.11	283.23
524.565	271.33
525.019	270.62
525.474	277.92
525.928	279.32
526.382	275.42
526.837	272.42
527.291	274.32
527.745	273.72
528.2	270.82
528.654	275.02
529.108	269.72
529.562	263.22
530.016	263.73
530.47	262.92
530.925	266.82
531.379	259.92
531.833	265.73
532.287	266.42
532.741	265.62
533.195	259.42
533.649	266.52
534.103	274.42
534.556	265.42
535.01	257.23
535.464	256.72
535.918	268.23
536.372	275.92
536.826	271.02
537.279	270.12
537.733	262.52
538.187	264.22
538.64	263.52
539.094	266.22
539.548	271.02
540.001	265.72
540.455	273.62
540.908	271.62
541.362	271.52
541.815	277.52
542.269	287.92
542.722	293.92
543.175	291.42
543.629	289.72
544.082	308.42
544.536	302.22
544.989	292.12
545.442	304.32
545.895	298.32
546.349	299.73
546.802	297.92
547.255	305.62
547.708	313.83
548.161	316.52
548.614	315.62
549.067	323.92
549.52	305.62
549.973	308.22
550.426	296.02
550.879	289.62
551.332	295.52
551.785	302.22
552.238	292.72
552.691	298.73
553.144	305.22
553.596	307.82
554.049	319.52
554.502	337.72
554.955	343.02
555.407	334.82
555.86	334.42
556.313	327.12
556.765	327.23
557.218	331.42
557.67	317.72
558.123	321.42
558.576	320.92
559.028	329.62
559.48	336.02
559.933	325.02
560.385	310.82
560.838	301.22
561.29	284.72
561.742	290.02
562.195	276.62
562.647	271.43
563.099	288.52
563.551	281.62
564.004	284.82
564.456	281.92
564.908	269.12
565.36	258.62
565.812	257.12
566.264	247.73
566.716	253.32
567.168	245.32
567.62	248.12
568.072	234.92
568.524	241.62
568.976	246.42
569.428	234.83
569.88	230.32
570.332	235.82
570.784	239.92
571.235	239.62
571.687	238.72
572.139	246.12
572.59	249.92
573.042	248.12
573.494	245.12
573.945	238.92
574.397	228.62
574.849	234.72
575.3	231.22
575.752	230.22
576.203	237.42
576.655	233.62
577.106	222.33
577.557	226.73
578.009	224.12
578.46	226.82
578.912	226.23
579.363	229.42
579.814	221.02
580.265	224.42
580.717	222.92
581.168	224.42
581.619	228.32
582.07	225.32
582.521	224.62
582.972	219.62
583.423	233.32
583.875	222.92
584.326	220.42
584.777	226.32
585.227	243.92
585.678	232.72
586.129	235.62
586.58	247.93
587.031	247.72
587.482	268.02
587.933	265.12
588.384	264.32
588.834	264.62
589.285	265.23
589.736	262.62
590.186	261.12
590.637	259.12
591.088	248.32
591.538	252.33
591.989	245.72
592.439	242.73
592.89	237.02
593.34	238.02
593.791	234.82
594.241	222.02
594.692	224.33
595.142	218.12
595.593	228.92
596.043	236.42
596.493	226.83
596.943	230.12
597.394	232.02
597.844	226.22
598.294	239.93
598.744	249.92
599.195	257.62
599.645	274.33
600.095	291.42
600.545	316.02
600.995	336.42
601.445	364.32
601.895	384.52
602.345	402.02
602.795	390.42
603.245	360.23
603.695	348.82
604.145	316.52
604.594	301.12
605.044	279.92
605.494	248.12
605.944	238.52
606.393	231.52
606.843	233.52
607.293	230.32
607.743	229.02
608.192	232.02
608.642	241.33
609.091	240.62
609.541	243.12
609.99	244.23
610.44	237.73
610.889	221.62
611.339	222.92
611.788	209.23
612.238	217.62
612.687	230.82
613.136	223.22
613.586	228.73
614.035	216.43
614.484	225.82
614.933	220.62
615.383	223.33
615.832	224.73
616.281	219.32
616.73	216.02
617.179	207.02
617.628	208.82
618.077	195.12
618.526	195.22
618.975	193.23
619.424	190.42
619.873	187.82
620.322	196.12
620.771	181.12
621.22	189.92
621.669	181.32
622.118	175.92
622.567	172.52
623.015	169.02
623.464	178.52
623.913	172.32
624.361	159.22
624.81	159.62
625.259	162.73
625.707	170.62
626.156	164.42
626.604	174.12
627.053	176.12
627.501	176.12
627.95	168.02
628.398	179.82
628.847	172.42
629.295	171.02
629.744	176.42
630.192	171.92
630.64	172.02
631.089	163.62
631.537	159.62
631.985	155.72
632.433	156.92
632.881	151.82
633.33	148.62
633.778	150.62
634.226	152.32
634.674	155.32
635.122	155.12
635.57	158.62
636.018	161.22
636.466	164.32
636.914	155.42
637.362	168.92
637.81	168.32
638.258	172.12
638.705	161.82
639.153	183.42
639.601	183.12
640.049	188.52
640.497	202.82
640.944	212.52
641.392	179.22
641.84	168.12
642.287	157.12
642.735	153.72
643.182	151.23
643.63	141.62
644.078	141.02
644.525	147.22
644.973	143.12
645.42	139.82
645.867	144.42
646.315	152.62
646.762	146.62
647.21	145.82
647.657	142.62
648.104	153.12
648.551	146.32
648.999	137.32
649.446	142.42
649.893	136.92
650.34	132.42
650.787	134.12
651.234	144.12
651.682	139.62
652.129	143.42
652.576	145.72
653.023	166.62
653.47	174.52
653.917	178.52
654.363	192.33
654.81	199.23
655.257	199.23
655.704	171.62
656.151	141.52
656.598	134.92
657.044	136.52
657.491	126.12
657.938	131.32
658.385	136.82
658.831	131.12
659.278	142.52
659.724	135.12
660.171	135.22
660.618	128.72
661.064	125.12
661.511	125.72
661.957	129.82
662.404	130.82
662.85	142.82
663.296	137.12
663.743	128.72
664.189	131.52
664.635	123.22
665.082	132.02
665.528	133.52
665.974	139.42
666.42	129.72
666.867	132.22
667.313	124.02
667.759	125.52
668.205	119.62
668.651	124.32
669.097	115.92
669.543	116.42
669.989	115.02
670.435	125.12
670.881	119.02
671.327	128.72
671.773	133.82
672.219	138.52
672.665	161.92
673.11	167.82
673.556	185.12
674.002	204.22
674.448	202.52
674.893	153.42
675.339	141.12
675.785	129.72
676.23	125.82
676.676	105.42
677.122	106.12
677.567	98.52
678.013	102.92
678.458	99.12
678.904	100.52
679.349	91.02
679.794	104.72
680.24	100.72
680.685	91.52
681.131	96.12
681.576	101.62
682.021	105.72
682.466	100.82
682.912	92.42
683.357	89.02
683.802	112.52
684.247	116.72
684.692	141.62
685.137	147.02
685.583	172.92
686.028	173.22
686.473	157.92
686.918	128.12
687.363	124.72
687.807	120.52
688.252	103.72
688.697	102.02
689.142	96.02
689.587	89.52
690.032	84.52
690.477	97.52
690.921	99.22
691.366	113.52
691.811	113.82
692.255	134.62
692.7	138.22
693.145	152.92
693.589	205.73
694.034	363.12
694.478	510.82
694.923	614.32
695.367	823.32
695.812	417.52
696.256	154.32
696.701	102.42
697.145	97.32
697.59	90.22
698.034	85.02
698.478	98.73
698.922	92.62
699.367	92.82
699.811	90.62
700.255	102.82
700.699	117.32
701.143	124.02
701.588	148.52
702.032	171.32
702.476	157.52
702.92	150.02
703.364	150.12
703.808	196.12
704.252	324.82
704.696	484.12
705.14	577.92
705.584	766.12
706.027	373.92
706.471	155.62
706.915	121.82
707.359	103.82
707.803	92.72
708.246	91.52
708.69	97.02
709.134	91.52
709.577	87.52
710.021	94.32
710.465	90.02
710.908	83.22
711.352	83.12
711.795	89.82
712.239	105.52
712.682	103.52
713.126	129.62
713.569	141.22
714.012	108.32
714.456	87.42
714.899	82.32
715.342	73.92
715.786	73.02
716.229	78.22
716.672	73.22
717.115	60.72
717.558	70.92
718.002	69.92
718.445	76.02
718.888	88.22
719.331	89.12
719.774	92.72
720.217	89.02
720.66	83.42
721.103	78.82
721.546	70.02
721.989	68.72
722.432	51.12
722.874	63.02
723.317	58.92
723.76	63.22
724.203	74.12
724.645	95.82
725.088	136.92
725.531	177.32
725.974	212.42
726.416	176.92
726.859	92.92
727.301	62.42
727.744	65.32
728.187	66.42
728.629	70.22
729.071	62.92
729.514	79.52
729.956	81.52
730.399	84.52
730.841	88.22
731.283	80.73
731.726	72.82
732.168	78.32
732.61	76.32
733.053	82.32
733.495	93.82
733.937	99.62
734.379	123.42
734.821	127.12
735.263	167.32
735.705	261.82
736.148	504.92
736.59	866.12
737.032	1087.52
737.474	883.52
737.916	267.33
738.357	133.32
738.799	91.42
739.241	85.22
739.683	82.02
740.125	91.72
740.567	82.42
741.008	95.72
741.45	95.32
741.892	101.02
742.334	107.32
742.775	114.02
743.217	102.42
743.658	76.82
744.1	77.52
744.542	75.42
744.983	98.92
745.425	107.72
745.866	101.62
746.307	84.02
746.749	85.42
747.19	96.02
747.632	139.62
748.073	264.82
748.514	615.23
748.956	996.72
749.397	1234.02
749.838	1028.52
750.279	1086.32
750.72	519.72
751.162	187.52
751.603	105.42
752.044	71.72
752.485	49.82
752.926	55.32
753.367	55.82
753.808	57.62
754.249	53.92
754.69	47.22
755.131	44.52
755.572	54.12
756.013	45.22
756.453	49.32
756.894	53.12
757.335	47.92
757.776	53.92
758.216	59.12
758.657	60.52
759.098	46.82
759.538	54.72
759.979	68.82
760.42	103.72
760.86	214.22
761.301	574.02
761.741	1469.42
762.182	2319.42
762.622	1641.53
763.063	456.42
763.503	173.42
763.943	98.52
764.384	86.82
764.824	64.23
765.264	57.32
765.705	58.12
766.145	46.02
766.585	41.12
767.025	46.42
767.465	40.32
767.906	47.22
768.346	54.82
768.786	52.22
769.226	57.22
769.666	87.42
770.106	179.42
770.546	507.12
770.986	941.12
771.426	874.23
771.866	270.12
772.306	107.92
772.745	58.82
773.185	42.72
773.625	51.82
774.065	35.82
774.505	42.22
774.944	53.92
775.384	102.02
775.824	182.92
776.263	182.92
776.703	81.52
777.142	38.52
777.582	35.52
778.021	31.52
778.461	34.12
778.9	34.92
779.34	34.73
779.779	25.92
780.219	24.02
780.658	18.32
781.097	19.92
781.537	34.62
781.976	25.02
782.415	23.62
782.855	18.72
783.294	24.32
783.733	28.32
784.172	23.02
784.611	23.72
785.05	32.12
785.489	33.32
785.928	38.42
786.367	33.72
786.806	27.52
787.245	38.52
787.684	36.42
788.123	44.82
788.562	37.22
789.001	31.12
789.44	33.92
789.879	27.52
790.317	27.22
790.756	35.62
791.195	33.73
791.634	38.73
792.072	57.02
792.511	106.32
792.95	322.02
793.388	741.92
793.827	710.82
794.265	229.32
794.704	88.82
795.142	58.52
795.581	44.82
796.019	43.92
796.458	35.72
796.896	33.82
797.334	39.82
797.773	41.72
798.211	70.42
798.649	137.22
799.087	342.02
799.526	545.72
799.964	714.02
800.402	745.32
800.84	265.42
801.278	90.92
801.716	49.82
802.154	47.92
802.592	42.73
803.03	32.52
803.468	33.23
803.906	38.02
804.344	47.12
804.782	44.82
805.22	36.42
805.658	28.72
806.096	44.02
806.533	46.62
806.971	50.12
807.409	58.72
807.847	88.62
808.284	202.62
808.722	624.52
809.16	1176.93
809.597	1066.73
810.035	1883.12
810.472	2152.03
810.91	765.12
811.347	277.82
811.785	133.12
812.222	83.92
812.66	60.82
813.097	48.02
813.535	36.32
813.972	35.32
814.409	31.72
814.846	25.73
815.284	33.92
815.721	27.02
816.158	26.02
816.595	28.82
817.032	48.42
817.47	54.62
817.907	41.92
818.344	26.42
818.781	24.92
819.218	26.12
819.655	37.92
820.092	66.02
820.529	66.82
820.966	49.92
821.403	35.32
821.839	21.42
822.276	20.72
822.713	33.42
823.15	38.73
823.587	35.72
824.023	40.32
824.46	81.12
824.897	295.02
825.333	494.12
825.77	203.12
826.206	76.12
826.643	46.12
827.08	26.72
827.516	24.73
827.953	19.32
828.389	21.62
828.825	19.02
829.262	20.92
829.698	15.22
830.135	13.72
830.571	17.62
831.007	12.12
831.443	13.12
831.88	19.62
832.316	16.32
832.752	13.32
833.188	21.42
833.624	22.62
834.06	16.52
834.497	19.42
834.933	21.62
835.369	23.62
835.805	16.22
836.241	14.82
836.677	23.42
837.112	21.02
837.548	27.22
837.984	33.12
838.42	57.23
838.856	157.82
839.292	518.42
839.727	847.32
840.163	380.92
840.599	306.33
841.034	719.32
841.47	790.62
841.906	273.93
842.341	107.82
842.777	60.32
843.212	59.62
843.648	60.92
844.083	30.52
844.519	24.32
844.954	21.62
845.39	6.62
845.825	12.52
846.261	12.32
846.696	14.02
847.131	14.32
847.566	18.82
848.002	12.52
848.437	15.72
848.872	15.72
849.307	15.73
849.742	25.02
850.177	46.42
850.613	192.43
851.048	315.32
851.483	130.72
851.918	42.62
852.353	22.12
852.788	12.92
853.223	11.02
853.657	17.92
854.092	16.32
854.527	3.72
854.962	7.42
855.397	6.82
855.832	15.12
856.266	10.82
856.701	13.92
857.136	14.32
857.57	8.62
858.005	8.12
858.44	19.52
858.874	8.73
859.309	17.92
859.743	6.82
860.178	8.62
860.612	9.72
861.047	12.52
861.481	20.02
861.915	24.52
862.35	14.52
862.784	8.32
863.218	7.02
863.653	5.82
864.087	14.02
864.521	20.72
864.955	16.52
865.39	47.52
865.824	57.82
866.258	32.02
866.692	48.32
867.126	55.42
867.56	35.12
867.994	11.12
868.428	9.92
868.862	11.23
869.296	15.82
869.73	15.52
870.164	12.62
870.598	8.32
871.031	9.02
871.465	1.02
871.899	8.52
872.333	-1.27
872.766	7.92
873.2	1.52
873.634	11.92
874.067	0.22
874.501	7.02
874.935	4.62
875.368	1.92
875.802	9.02
876.235	-0.88
876.669	5.82
877.102	1.52
877.535	7.23
877.969	4.12
878.402	5.32
878.836	-5.98
879.269	6.52
879.702	5.62
880.135	3.42
880.569	-1.38
881.002	7.32
881.435	3.12
881.868	3.72
882.301	2.72
882.734	-3.98
883.167	6.82
883.601	2.82
884.034	6.72
884.467	-4.77
884.899	2.92
885.332	-1.58
885.765	-1.58
886.198	-3.28
886.631	-1.78
887.064	-5.38
887.497	-1.68
887.929	13.82
888.362	-0.38
888.795	-3.88
889.228	-1.98
889.66	9.32
890.093	2.12
890.526	-3.08
890.958	5.32
891.391	2.52
891.823	10.92
892.256	-2.48
892.688	-0.68
893.121	2.02
893.553	2.22
893.985	6.02
894.418	7.22
894.85	-0.38
895.282	2.62
895.715	3.42
896.147	2.73
896.579	0.92
897.011	-4.58
897.444	2.62
897.876	4.62
898.308	5.12
898.74	-0.38
899.172	-8.88
899.604	9.23
900.036	4.52
900.468	4.82
900.9	1.62
901.332	7.92
901.764	2.22
902.196	1.42
902.628	1.32
903.06	-6.28
903.491	7.72
903.923	-0.88
904.355	2.62
904.787	3.72
905.218	0.23
905.65	4.72
906.082	0.82
906.513	-4.38
906.945	-2.98
907.376	6.22
907.808	1.22
908.239	2.52
908.671	1.72
909.102	5.62
909.534	3.23
909.965	17.32
910.397	26.82
910.828	114.72
911.259	171.82
911.691	80.92
912.122	31.42
912.553	9.02
912.984	16.52
913.415	7.82
913.847	5.62
914.278	-5.38
914.709	-2.18
915.14	3.73
915.571	10.12
916.002	-2.98
916.433	11.82
916.864	6.62
917.295	-2.28
917.726	7.42
918.157	0.32
918.587	7.92
919.018	1.62
919.449	5.02
919.88	8.32
920.311	5.32
920.741	5.72
921.172	48.92
921.603	51.82
922.033	17.72
922.464	8.12
922.895	2.62
923.325	8.52
923.756	1.32
924.186	-4.77
924.617	4.12
925.047	1.42
925.478	-2.08
925.908	2.42
926.338	-1.88
926.769	-6.58
927.199	5.62
927.629	-1.88
928.06	5.32
928.49	3.23
928.92	1.72
929.35	2.32
929.78	-1.08
930.21	-0.38
930.641	3.52
931.071	1.32
931.501	-5.98
931.931	1.02
932.361	10.42
932.791	-2.88
933.221	0.22
933.651	-9.68
934.08	-1.58
934.51	14.62
934.94	-1.78
935.37	1.62
935.8	0.42
936.229	6.92
936.659	9.32
937.089	-6.68
937.519	4.52
937.948	5.92
938.378	-0.48
938.807	-4.48
939.237	-1.48
939.666	-3.38
940.096	-6.48
940.525	-4.48
940.955	0.02
941.384	0.02
941.814	-7.88
942.243	-2.38
942.672	-0.18
943.102	-6.77
943.531	-2.88
943.96	-2.58
944.39	-2.28
944.819	-0.98
945.248	-4.08
945.677	1.92
946.106	-1.28
946.535	1.42
946.964	-5.48
947.393	0.72
947.822	-2.18
948.251	-8.68
948.68	-2.98
949.109	0.02
949.538	5.32
949.967	-4.58
950.396	-0.78
950.825	-0.98
951.254	-4.98
951.682	-10.98
952.111	-3.98
952.54	-0.68
952.969	-8.18
953.397	-7.98
953.826	-2.28
954.254	-12.18
954.683	-0.48
955.112	-7.48
955.54	-2.88
955.969	-2.38
956.397	-5.78
956.826	-9.08
957.254	1.12
957.682	-4.28
958.111	0.62
958.539	-3.78
958.967	0.32
959.396	-5.08
959.824	0.82
960.252	1.52
960.68	-6.98
961.109	-4.78
961.537	-5.78
961.965	-4.48
962.393	-5.88
962.821	-3.58
963.249	-2.68
963.677	4.22
964.105	-1.98
964.533	12.92
964.961	14.02
965.389	3.23
965.817	-1.38
966.245	-5.98
966.672	0.32
967.1	-9.98
967.528	-4.58
967.956	-8.77
968.383	-0.08
968.811	-7.48
969.239	-1.68
969.666	-3.68
970.094	-0.58
970.522	1.12
970.949	-0.28
971.377	-3.27
971.804	-4.38
972.232	2.92
972.659	-0.88
973.087	-4.68
973.514	-3.58
973.941	-11.18
974.369	6.12
974.796	-0.38
975.223	-3.98
975.651	-5.58
976.078	-1.48
976.505	-3.08
976.932	-3.58
977.359	0.32
977.786	3.92
978.214	-11.08
978.641	-9.58
979.068	-4.68
979.495	-5.58
979.922	-8.88
980.349	-7.68
980.776	-2.98
981.202	-1.58
981.629	1.92
982.056	3.22
982.483	-7.18
982.91	1.82
983.337	-12.68
983.763	-2.58
984.19	-4.18
984.617	-5.08
985.043	-6.38
985.47	-3.68
985.897	-11.28
986.323	-8.28
986.75	2.02
987.176	-0.38
987.603	3.52
988.029	-3.38
988.456	-2.78
988.882	-2.68
989.308	-14.88
989.735	-8.78
990.161	-2.38
990.587	1.62
991.014	-3.68
991.44	5.02
991.866	4.02
992.292	-8.68
992.719	-3.18
993.145	-2.48
993.571	-9.98
993.997	-1.68
994.423	1.82
994.849	-9.28
995.275	0.82
995.701	-4.58
996.127	-6.28
996.553	-0.28
996.979	-9.08
997.405	-6.98
997.83	-9.38
998.256	-8.08
998.682	-6.38
999.108	-15.48
999.534	-3.48
999.959	0.82
1000.385	-8.68
1000.811	-0.28
1001.236	-2.98
1001.662	-12.78
1002.087	-10.88
1002.513	0.62
1002.938	3.02
1003.364	-2.68
1003.789	-0.98
1004.215	2.92
1004.64	-0.78
1005.066	4.22
1005.491	-3.58
1005.916	0.82
1006.342	-5.77
1006.767	-4.68
1007.192	3.32
1007.617	-2.28
1008.042	-3.78
1008.468	-5.08
1008.893	-5.58
1009.318	-5.08
1009.743	-4.08
1010.168	-3.48
1010.593	-2.48
1011.018	-13.68
1011.443	-3.88
1011.868	0.32
1012.293	-0.58
1012.718	-6.98
1013.143	-4.08
1013.567	-3.68
1013.992	-5.18
1014.417	-9.58
1014.842	3.42
1015.267	-7.48
1015.691	1.62
1016.116	3.92
1016.541	-2.48
1016.965	7.42
1017.39	0.72
1017.814	-0.27
1018.239	-4.28
1018.663	-9.38
1019.088	-13.08
1019.512	-11.68
1019.937	-1.68
1020.361	-2.68
1020.785	-7.98
1021.21	-3.68
1021.634	1.52
1022.058	-1.48
1022.483	7.72
1022.907	-4.58
1023.331	-5.27
1023.755	-3.98
1024.179	-5.98
1024.604	-7.98
1025.028	-4.88
1025.452	-5.28
1025.876	-5.38
1026.3	1.22
1026.724	-14.88
1027.148	0.32
1027.572	-5.58
1027.996	1.92
1028.42	-6.48
1028.843	-6.08
1029.267	-9.28
1029.691	-1.08
1030.115	-4.58
1030.539	-11.38
1030.962	-8.48
1031.386	-9.08
1031.81	2.82
1032.233	-2.18
1032.657	-2.27
1033.08	-8.88
1033.504	-2.68
1033.927	-3.38
1034.351	-0.48
1034.774	-7.48
1035.198	-3.18
1035.621	-4.98
1036.045	-5.98
1036.468	1.62
1036.891	-7.28
1037.315	-9.88
1037.738	-6.28
1038.161	0.12
1038.584	-4.78
1039.008	-4.48
1039.431	0.32
1039.854	3.12
1040.277	-2.58
1040.7	-10.28
1041.123	1.22
1041.546	-6.58
1041.969	-3.78
1042.392	-7.78
1042.815	0.62
1043.238	4.62
1043.661	1.52
1044.084	-2.18
1044.507	-5.48
1044.93	0.02
1045.352	-11.08
1045.775	1.42
1046.198	2.72
1046.621	-1.88
1047.043	0.32
1047.466	4.52
1047.889	-3.78
1048.311	-3.28
1048.734	-8.18
1049.156	-9.08
1049.579	-2.68
1050.001	-7.58
1050.424	-2.38
1050.846	-6.78
1051.269	-10.27
1051.691	-4.18
1052.113	-3.98
1052.536	-3.08
1052.958	-7.98
1053.38	-8.28
1053.802	-16.18
1054.225	2.32
1054.647	-6.58
1055.069	-4.48
1055.491	3.82
1055.913	-11.48
1056.335	-1.98
1056.757	-2.78
1057.179	-5.18
1057.601	-3.08
1058.023	1.73
1058.445	-5.88
1058.867	-10.38
1059.289	-1.28
1059.711	-6.38
1060.133	-2.28
1060.555	-7.68
1060.976	-2.78
1061.398	-2.48
1061.82	-10.08
1062.241	-7.28
1062.663	-8.18
1063.085	-6.18
1063.506	-3.58
1063.928	-2.98
1064.35	-3.28
1064.771	-9.98
1065.193	-8.18
1065.614	-4.88
1066.035	-0.27
1066.457	-0.38
1066.878	0.52
1067.3	-5.58
1067.721	-4.08
1068.142	-8.28
1068.564	-4.18
1068.985	-5.68
1069.406	2.52
1069.827	-2.88
1070.248	-3.78
1070.67	-8.58
1071.091	-10.27
1071.512	-4.28
1071.933	-2.38
1072.354	-8.77
1072.775	-6.38
1073.196	-6.38
1073.617	-1.28
1074.038	-2.58
1074.459	-0.88
1074.88	-5.08
1075.3	3.12
1075.721	-4.58
1076.142	-1.18
1076.563	-3.68
1076.983	-7.48
1077.404	-11.68
1077.825	-11.18
1078.246	-4.18
1078.666	-13.68
1079.087	-7.08
1079.507	-7.08
1079.928	-1.78
1080.348	-0.88
1080.769	0.32
1081.189	1.12
1081.61	-3.38
1082.03	-2.18
1082.451	-8.28
1082.871	-4.38
1083.291	-11.78
1083.711	-9.58
1084.132	-9.68
1084.552	-6.18
1084.972	-1.98
1085.392	-13.58
1085.813	-12.08
1086.233	-8.18
1086.653	-9.08
1087.073	-1.98
1087.493	-7.98
1087.913	-1.08
1088.333	-7.78
1088.753	-2.98
1089.173	1.62
1089.593	-1.58
1090.013	2.52
1090.433	3.42
1090.852	1.02
1091.272	-2.18
1091.692	-1.38
1092.112	-4.28
1092.531	-6.68
1092.951	-6.78
1093.371	1.02
1093.79	-4.48
1094.21	-4.98
1094.63	-6.68
1095.049	-7.18
1095.469	-3.68
1095.888	-9.48
1096.308	3.92
1096.727	4.72
1097.146	-3.08
1097.566	0.42
1097.985	-5.18
1098.405	-2.58
1098.824	-1.08
1099.243	-3.78
1099.662	-11.58
1100.082	-2.58
1100.501	-1.98
1100.92	-7.68
1101.339	-3.48
1101.758	-7.58
