Data from 20171114-ORNL-Ar_H_NY_Subt18_08-06-25-102.txt Node
Date: Tue Nov 14 08:06:25 EST 2017
User: Ender
Spectrometer: HR+D1039
Trigger mode: 0
Integration Time (sec): 2.730000E-2
Scans to average: 10
Electric dark correction enabled: true
Nonlinearity correction enabled: false
Boxcar width: 0
XAxis mode: Wavelengths
Number of Pixels in Spectrum: 2048
>>>>>Begin Spectral Data<<<<<
187.836	-2.92
188.309	-2.92
188.782	-2.92
189.255	5.78
189.728	-3.22
190.201	-0.52
190.674	2.78
191.147	4.68
191.619	-6.02
192.092	5.18
192.565	2.78
193.038	-2.82
193.511	-0.12
193.984	0.38
194.456	-7.22
194.929	0.98
195.402	2.08
195.874	-1.82
196.347	0.58
196.82	-8.02
197.292	6.48
197.765	-3.82
198.237	-4.82
198.71	1.68
199.182	4.48
199.655	3.18
200.127	2.38
200.6	-1.02
201.072	-0.62
201.544	-5.22
202.017	-1.42
202.489	4.28
202.961	4.28
203.433	-2.22
203.906	-5.72
204.378	-6.12
204.85	-3.42
205.322	-11.52
205.794	-3.42
206.266	-3.92
206.739	-3.12
207.211	5.38
207.683	-6.72
208.155	-1.72
208.627	-5.62
209.099	-2.32
209.57	-5.62
210.042	-3.72
210.514	-4.72
210.986	2.58
211.458	-5.52
211.93	-4.12
212.402	4.08
212.873	-5.22
213.345	-4.92
213.817	-14.02
214.288	-3.92
214.76	-10.62
215.232	-1.22
215.703	-3.52
216.175	0.18
216.646	-6.52
217.118	-12.62
217.589	-2.42
218.061	-0.82
218.532	-4.72
219.004	0.08
219.475	-3.62
219.946	-3.02
220.418	-5.82
220.889	-3.72
221.36	-0.92
221.832	-2.12
222.303	-9.22
222.774	-0.82
223.245	-12.62
223.717	-8.42
224.188	-7.52
224.659	-8.22
225.13	-5.82
225.601	-6.42
226.072	-1.62
226.543	-3.52
227.014	-1.52
227.485	-0.22
227.956	-3.82
228.427	-3.12
228.898	-3.72
229.369	4.98
229.839	-4.82
230.31	-2.22
230.781	1.88
231.252	-3.02
231.722	-7.12
232.193	-8.32
232.664	0.48
233.135	0.48
233.605	6.08
234.076	-11.62
234.546	3.08
235.017	2.28
235.487	-0.02
235.958	-1.62
236.428	-1.32
236.899	6.18
237.369	2.48
237.84	-0.82
238.31	8.38
238.78	2.48
239.251	1.78
239.721	6.78
240.191	5.88
240.662	-3.02
241.132	-0.72
241.602	-1.42
242.072	4.08
242.542	4.78
243.013	1.58
243.483	0.78
243.953	-0.62
244.423	0.28
244.893	2.88
245.363	7.98
245.833	3.48
246.303	-1.82
246.773	7.18
247.243	-2.32
247.712	3.38
248.182	10.98
248.652	11.68
249.122	-1.02
249.592	13.28
250.061	22.78
250.531	28.48
251.001	4.48
251.471	25.18
251.94	16.58
252.41	4.88
252.879	-2.12
253.349	10.88
253.818	9.58
254.288	4.68
254.757	8.98
255.227	1.48
255.696	8.38
256.166	1.18
256.635	7.88
257.105	6.48
257.574	12.58
258.043	3.68
258.513	16.98
258.982	15.48
259.451	7.28
259.92	12.38
260.389	13.98
260.859	19.78
261.328	7.48
261.797	23.78
262.266	6.68
262.735	10.78
263.204	6.38
263.673	0.98
264.142	7.38
264.611	-1.62
265.08	-2.52
265.549	0.18
266.018	3.78
266.487	-1.72
266.955	-4.12
267.424	-0.12
267.893	8.88
268.362	-1.42
268.83	3.68
269.299	9.48
269.768	6.48
270.236	9.58
270.705	2.98
271.174	9.48
271.642	10.98
272.111	11.88
272.579	13.28
273.048	23.48
273.516	30.68
273.985	25.08
274.453	25.58
274.922	16.58
275.39	18.88
275.858	3.58
276.327	9.38
276.795	23.28
277.263	10.68
277.731	30.08
278.2	52.18
278.668	64.58
279.136	44.68
279.604	15.98
280.072	14.88
280.54	16.58
281.008	4.78
281.477	4.68
281.945	16.18
282.413	14.68
282.881	13.18
283.348	3.08
283.816	16.28
284.284	15.88
284.752	26.78
285.22	14.98
285.688	17.08
286.156	19.88
286.623	45.08
287.091	48.38
287.559	29.18
288.026	21.88
288.494	11.98
288.962	-0.02
289.429	8.28
289.897	21.48
290.364	21.48
290.832	15.38
291.3	20.58
291.767	18.88
292.234	20.08
292.702	15.48
293.169	19.78
293.637	18.38
294.104	20.08
294.571	5.78
295.039	9.18
295.506	19.98
295.973	18.18
296.44	14.08
296.908	21.08
297.375	22.98
297.842	18.28
298.309	14.58
298.776	19.88
299.243	17.88
299.71	8.58
300.177	15.88
300.644	21.48
301.111	17.08
301.578	26.68
302.045	18.88
302.512	18.68
302.979	17.18
303.446	18.68
303.913	21.68
304.379	19.18
304.846	25.48
305.313	27.28
305.78	19.88
306.246	19.98
306.713	26.18
307.18	22.88
307.646	27.58
308.113	28.98
308.579	20.38
309.046	28.48
309.512	29.78
309.979	17.98
310.445	25.88
310.912	33.08
311.378	31.18
311.845	27.38
312.311	36.78
312.777	36.08
313.244	33.78
313.71	38.78
314.176	37.18
314.642	32.38
315.109	31.68
315.575	37.48
316.041	45.28
316.507	39.48
316.973	35.08
317.439	31.08
317.905	38.28
318.371	39.88
318.837	32.28
319.303	29.88
319.769	35.38
320.235	36.48
320.701	38.68
321.167	36.68
321.633	39.28
322.099	40.78
322.564	41.48
323.03	36.68
323.496	38.78
323.962	38.28
324.427	37.28
324.893	46.58
325.359	39.48
325.824	37.08
326.29	39.78
326.755	43.08
327.221	41.28
327.686	37.48
328.152	50.88
328.617	45.78
329.083	52.38
329.548	52.88
330.014	51.78
330.479	38.48
330.944	46.88
331.41	46.68
331.875	46.58
332.34	47.98
332.805	45.88
333.271	44.98
333.736	42.98
334.201	49.88
334.666	53.48
335.131	55.08
335.596	54.38
336.061	55.48
336.526	41.58
336.991	49.78
337.456	53.08
337.921	48.58
338.386	48.88
338.851	44.28
339.316	50.98
339.781	54.38
340.246	55.38
340.711	42.98
341.175	54.58
341.64	43.68
342.105	46.88
342.569	60.18
343.034	59.78
343.499	57.88
343.963	55.18
344.428	66.38
344.893	65.08
345.357	58.08
345.822	68.58
346.286	68.28
346.751	71.38
347.215	71.18
347.679	80.58
348.144	103.58
348.608	88.78
349.073	69.18
349.537	79.38
350.001	84.78
350.465	96.18
350.93	89.78
351.394	81.18
351.858	80.88
352.322	87.78
352.786	89.58
353.25	103.88
353.715	116.08
354.179	100.88
354.643	124.28
355.107	134.68
355.571	111.68
356.035	109.08
356.498	119.68
356.962	128.48
357.426	129.38
357.89	113.18
358.354	92.38
358.818	85.18
359.281	85.28
359.745	79.08
360.209	72.88
360.673	75.68
361.136	85.28
361.6	86.58
362.064	94.38
362.527	86.98
362.991	89.98
363.454	85.98
363.918	79.98
364.381	76.48
364.845	81.18
365.308	86.28
365.772	84.48
366.235	88.58
366.698	86.78
367.162	91.88
367.625	90.48
368.088	92.58
368.552	92.88
369.015	94.08
369.478	97.78
369.941	106.78
370.404	101.08
370.867	108.28
371.331	111.48
371.794	118.18
372.257	112.68
372.72	118.28
373.183	118.78
373.646	106.38
374.109	98.28
374.572	111.68
375.035	115.48
375.497	108.88
375.96	108.48
376.423	105.28
376.886	115.48
377.349	114.08
377.811	110.28
378.274	107.98
378.737	115.28
379.199	115.28
379.662	109.38
380.125	119.38
380.587	124.78
381.05	123.68
381.512	124.68
381.975	143.18
382.437	127.58
382.9	131.58
383.362	131.18
383.825	146.68
384.287	147.58
384.75	142.28
385.212	144.18
385.674	146.88
386.136	142.38
386.599	125.38
387.061	134.88
387.523	132.78
387.985	141.68
388.447	154.28
388.91	149.68
389.372	164.88
389.834	158.98
390.296	151.38
390.758	157.88
391.22	172.38
391.682	217.18
392.144	303.18
392.606	240.38
393.068	170.58
393.529	175.68
393.991	161.08
394.453	151.18
394.915	160.58
395.377	202.58
395.838	214.58
396.3	164.48
396.762	149.78
397.224	136.18
397.685	136.18
398.147	135.98
398.608	133.88
399.07	134.98
399.531	139.68
399.993	148.58
400.454	158.98
400.916	144.38
401.377	146.38
401.839	166.58
402.3	156.98
402.762	172.58
403.223	188.08
403.684	178.28
404.145	156.98
404.607	161.28
405.068	164.58
405.529	173.88
405.99	192.08
406.451	174.58
406.913	179.38
407.374	172.78
407.835	167.58
408.296	176.08
408.757	178.58
409.218	191.48
409.679	192.38
410.14	182.48
410.601	189.38
411.062	191.28
411.522	194.68
411.983	203.28
412.444	180.68
412.905	185.68
413.366	184.38
413.826	198.68
414.287	218.98
414.748	267.68
415.208	254.78
415.669	212.98
416.13	212.48
416.59	208.98
417.051	223.08
417.511	222.88
417.972	244.58
418.432	257.38
418.893	295.98
419.353	258.78
419.814	202.48
420.274	194.48
420.734	191.78
421.195	201.68
421.655	200.78
422.115	200.38
422.576	194.98
423.036	200.68
423.496	210.78
423.956	226.38
424.416	241.18
424.876	278.08
425.336	270.68
425.797	268.28
426.257	262.58
426.717	245.88
427.177	241.48
427.637	227.08
428.097	244.88
428.556	250.08
429.016	274.28
429.476	276.88
429.936	283.68
430.396	293.18
430.856	305.08
431.315	325.68
431.775	360.78
432.235	394.98
432.694	366.68
433.154	380.38
433.614	405.58
434.073	351.38
434.533	303.18
434.993	282.08
435.452	289.98
435.912	308.18
436.371	301.18
436.83	291.48
437.29	282.28
437.749	262.78
438.209	252.48
438.668	282.98
439.127	299.48
439.587	277.88
440.046	247.88
440.505	272.38
440.964	292.18
441.424	339.18
441.883	324.68
442.342	263.98
442.801	235.38
443.26	233.98
443.719	229.78
444.178	228.08
444.637	220.28
445.096	235.08
445.555	239.18
446.014	228.18
446.473	232.48
446.932	234.88
447.391	227.38
447.849	231.98
448.308	219.48
448.767	232.88
449.226	238.28
449.685	246.28
450.143	254.78
450.602	242.28
451.061	237.78
451.519	240.38
451.978	243.18
452.436	246.58
452.895	247.58
453.353	262.68
453.812	247.98
454.27	244.08
454.729	246.08
455.187	248.28
455.646	258.68
456.104	255.78
456.562	268.08
457.021	273.68
457.479	266.68
457.937	287.98
458.395	276.68
458.854	263.48
459.312	266.28
459.77	282.68
460.228	261.58
460.686	243.38
461.144	257.28
461.602	253.68
462.06	249.18
462.518	262.78
462.976	263.68
463.434	264.68
463.892	280.48
464.35	290.38
464.808	292.08
465.266	278.68
465.724	272.48
466.181	284.98
466.639	283.28
467.097	302.38
467.555	305.78
468.012	312.18
468.47	326.48
468.928	343.68
469.385	350.28
469.843	356.08
470.3	363.88
470.758	381.98
471.215	401.88
471.673	420.08
472.13	421.18
472.588	438.18
473.045	386.48
473.503	385.38
473.96	413.28
474.417	418.98
474.875	451.68
475.332	484.48
475.789	479.58
476.246	481.58
476.704	503.38
477.161	523.48
477.618	541.18
478.075	578.28
478.532	639.98
478.989	717.68
479.446	838.08
479.903	808.08
480.36	844.08
480.817	894.08
481.274	993.78
481.731	1096.88
482.188	1202.98
482.645	1327.68
483.102	1449.18
483.558	1575.78
484.015	1623.68
484.472	1613.48
484.929	1560.88
485.385	1517.88
485.842	1471.78
486.299	1397.58
486.755	1340.78
487.212	1115.28
487.668	960.58
488.125	875.48
488.582	798.68
489.038	776.78
489.494	735.78
489.951	717.18
490.407	690.88
490.864	672.08
491.32	668.58
491.776	660.68
492.233	674.98
492.689	633.08
493.145	620.98
493.602	618.58
494.058	633.08
494.514	638.18
494.97	662.48
495.426	662.08
495.882	635.48
496.338	631.08
496.794	642.98
497.251	639.18
497.707	647.78
498.163	656.78
498.618	665.78
499.074	663.78
499.53	698.48
499.986	695.38
500.442	681.68
500.898	653.78
501.354	649.08
501.809	648.18
502.265	663.58
502.721	681.98
503.177	693.88
503.632	685.28
504.088	704.98
504.543	731.58
504.999	735.48
505.455	681.98
505.91	652.18
506.366	647.48
506.821	654.58
507.277	643.48
507.732	642.38
508.187	645.98
508.643	663.58
509.098	655.58
509.553	678.08
510.009	685.68
510.464	701.18
510.919	706.78
511.375	722.98
511.83	729.68
512.285	743.78
512.74	788.78
513.195	811.68
513.65	804.28
514.105	790.08
514.56	795.58
515.015	820.38
515.47	839.78
515.925	817.18
516.38	822.68
516.835	823.58
517.29	807.58
517.745	804.88
518.2	787.98
518.655	772.98
519.109	775.48
519.564	777.08
520.019	761.18
520.474	747.98
520.928	759.28
521.383	738.48
521.838	730.08
522.292	731.98
522.747	728.18
523.201	728.18
523.656	718.48
524.11	717.38
524.565	723.08
525.019	710.58
525.474	719.38
525.928	724.28
526.382	721.98
526.837	723.08
527.291	720.58
527.745	719.38
528.2	715.58
528.654	714.98
529.108	709.68
529.562	708.48
530.016	716.08
530.47	709.28
530.925	717.28
531.379	721.98
531.833	730.68
532.287	735.08
532.741	719.18
533.195	729.68
533.649	732.08
534.103	736.18
534.556	729.98
535.01	738.88
535.464	733.38
535.918	743.28
536.372	733.78
536.826	741.88
537.279	732.28
537.733	723.58
538.187	741.98
538.64	729.68
539.094	748.58
539.548	751.78
540.001	749.38
540.455	743.48
540.908	752.28
541.362	754.48
541.815	772.58
542.269	787.48
542.722	777.18
543.175	784.98
543.629	798.18
544.082	812.68
544.536	807.48
544.989	810.88
545.442	809.18
545.895	803.68
546.349	817.18
546.802	814.38
547.255	822.28
547.708	836.48
548.161	838.68
548.614	837.48
549.067	861.08
549.52	852.08
549.973	836.08
550.426	828.98
550.879	818.48
551.332	823.48
551.785	833.78
552.238	831.68
552.691	854.88
553.144	866.18
553.596	877.68
554.049	885.68
554.502	916.98
554.955	935.48
555.407	943.48
555.86	937.88
556.313	919.08
556.765	905.48
557.218	906.58
557.67	914.58
558.123	902.68
558.576	901.48
559.028	894.28
559.48	910.98
559.933	900.38
560.385	864.48
560.838	827.18
561.29	811.08
561.742	804.18
562.195	785.08
562.647	792.18
563.099	796.08
563.551	802.88
564.004	799.18
564.456	791.78
564.908	778.78
565.36	765.48
565.812	755.78
566.264	755.58
566.716	743.18
567.168	728.78
567.62	736.78
568.072	723.78
568.524	710.38
568.976	707.68
569.428	696.28
569.88	698.68
570.332	701.98
570.784	700.48
571.235	706.18
571.687	716.98
572.139	713.18
572.59	737.18
573.042	734.58
573.494	733.58
573.945	725.58
574.397	701.88
574.849	711.48
575.3	706.78
575.752	701.18
576.203	697.78
576.655	705.38
577.106	687.08
577.557	679.08
578.009	688.98
578.46	686.98
578.912	674.58
579.363	681.38
579.814	682.68
580.265	679.18
580.717	695.08
581.168	688.48
581.619	700.08
582.07	693.58
582.521	697.48
582.972	692.88
583.423	693.28
583.875	704.28
584.326	714.08
584.777	769.78
585.227	845.08
585.678	917.78
586.129	1011.68
586.58	1085.08
587.031	1161.78
587.482	1317.38
587.933	1478.98
588.384	1295.58
588.834	992.08
589.285	830.58
589.736	806.98
590.186	793.68
590.637	785.68
591.088	762.28
591.538	765.38
591.989	752.18
592.439	745.68
592.89	742.78
593.34	734.18
593.791	736.68
594.241	719.38
594.692	728.78
595.142	717.88
595.593	714.68
596.043	728.88
596.493	733.98
596.943	731.78
597.394	741.28
597.844	739.18
598.294	747.68
598.744	774.58
599.195	790.08
599.645	833.68
600.095	870.68
600.545	934.58
600.995	1003.18
601.445	1046.38
601.895	1121.08
602.345	1162.08
602.795	1146.78
603.245	1095.48
603.695	1033.68
604.145	985.28
604.594	934.38
605.044	886.68
605.494	814.98
605.944	771.08
606.393	755.88
606.843	752.48
607.293	750.98
607.743	749.98
608.192	762.38
608.642	787.58
609.091	790.68
609.541	792.48
609.99	793.48
610.44	787.88
610.889	740.68
611.339	710.38
611.788	704.28
612.238	711.58
612.687	737.68
613.136	730.28
613.586	752.28
614.035	746.98
614.484	777.58
614.933	776.08
615.383	764.38
615.832	763.38
616.281	737.38
616.73	708.28
617.179	679.98
617.628	660.88
618.077	647.08
618.526	643.08
618.975	626.08
619.424	635.88
619.873	627.58
620.322	628.18
620.771	614.98
621.22	618.08
621.669	618.18
622.118	602.08
622.567	589.78
623.015	576.38
623.464	590.68
623.913	577.28
624.361	566.08
624.81	557.78
625.259	576.48
625.707	570.88
626.156	578.38
626.604	579.08
627.053	566.48
627.501	573.78
627.95	573.68
628.398	588.98
628.847	578.18
629.295	587.08
629.744	583.28
630.192	575.98
630.64	576.68
631.089	578.78
631.537	594.18
631.985	593.98
632.433	607.88
632.881	609.38
633.33	665.98
633.778	643.98
634.226	585.88
634.674	587.28
635.122	597.28
635.57	603.28
636.018	643.58
636.466	598.68
636.914	568.38
637.362	579.18
637.81	587.48
638.258	585.88
638.705	600.28
639.153	621.78
639.601	636.18
640.049	656.88
640.497	686.88
640.944	711.28
641.392	654.18
641.84	624.38
642.287	598.98
642.735	587.38
643.182	583.88
643.63	574.28
644.078	584.68
644.525	613.68
644.973	613.28
645.42	623.28
645.867	637.58
646.315	660.08
646.762	673.88
647.21	695.98
647.657	725.68
648.104	760.48
648.551	777.88
648.999	856.38
649.446	935.68
649.893	1018.18
650.34	1189.08
650.787	1419.98
651.234	1762.78
651.682	2294.98
652.129	3152.38
652.576	4523.98
653.023	6662.58
653.47	9078.18
653.917	11370.88
654.363	13157.78
654.81	14490.28
655.257	13812.48
655.704	9052.28
656.151	5360.98
656.598	3472.08
657.044	2457.18
657.491	1892.38
657.938	1517.18
658.385	1265.68
658.831	1112.88
659.278	977.88
659.724	862.78
660.171	811.88
660.618	734.18
661.064	701.08
661.511	680.08
661.957	668.08
662.404	657.18
662.85	672.98
663.296	640.28
663.743	567.08
664.189	542.78
664.635	551.48
665.082	542.48
665.528	539.88
665.974	527.68
666.42	519.88
666.867	513.48
667.313	500.98
667.759	486.78
668.205	480.98
668.651	489.28
669.097	494.28
669.543	507.68
669.989	482.18
670.435	456.08
670.881	451.08
671.327	460.78
671.773	474.48
672.219	498.28
672.665	551.88
673.11	591.78
673.556	634.68
674.002	676.08
674.448	665.88
674.893	565.28
675.339	481.88
675.785	445.08
676.23	432.18
676.676	400.78
677.122	392.88
677.567	379.38
678.013	383.88
678.458	361.28
678.904	361.58
679.349	347.38
679.794	357.68
680.24	360.58
680.685	355.88
681.131	355.48
681.576	361.98
682.021	363.88
682.466	362.68
682.912	357.28
683.357	355.28
683.802	390.18
684.247	416.58
684.692	464.48
685.137	503.28
685.583	539.68
686.028	573.18
686.473	518.88
686.918	458.48
687.363	423.58
687.807	400.48
688.252	375.58
688.697	358.38
689.142	345.88
689.587	335.58
690.032	327.68
690.477	349.38
690.921	363.08
691.366	390.38
691.811	405.08
692.255	439.88
692.7	467.18
693.145	505.78
693.589	700.48
694.034	1141.98
694.478	1566.48
694.923	1760.58
695.367	2310.58
695.812	1214.18
696.256	504.68
696.701	379.78
697.145	343.38
697.59	333.58
698.034	323.78
698.478	333.78
698.922	339.48
699.367	329.78
699.811	339.98
700.255	370.78
700.699	398.58
701.143	429.88
701.588	477.38
702.032	531.78
702.476	515.98
702.92	494.48
703.364	492.28
703.808	638.68
704.252	1050.38
704.696	1465.58
705.14	1694.08
705.584	2162.08
706.027	1076.08
706.471	520.08
706.915	402.88
707.359	356.38
707.803	323.88
708.246	311.58
708.69	315.38
709.134	321.78
709.577	313.28
710.021	312.78
710.465	308.28
710.908	304.58
711.352	304.38
711.795	321.18
712.239	356.88
712.682	390.08
713.126	415.08
713.569	467.28
714.012	374.98
714.456	323.28
714.899	305.28
715.342	280.28
715.786	273.38
716.229	259.18
716.672	266.38
717.115	257.38
717.558	256.78
718.002	259.48
718.445	266.98
718.888	294.68
719.331	300.88
719.774	311.78
720.217	310.68
720.66	284.28
721.103	273.08
721.546	264.38
721.989	262.48
722.432	235.88
722.874	237.98
723.317	234.78
723.76	240.58
724.203	257.48
724.645	324.78
725.088	451.08
725.531	579.98
725.974	654.78
726.416	548.38
726.859	312.28
727.301	248.68
727.744	237.18
728.187	234.48
728.629	237.48
729.071	255.48
729.514	262.58
729.956	276.68
730.399	290.48
730.841	300.38
731.283	277.88
731.726	272.58
732.168	265.88
732.61	276.18
733.053	296.28
733.495	323.38
733.937	356.28
734.379	400.78
734.821	445.78
735.263	555.08
735.705	846.48
736.148	1584.78
736.59	2598.68
737.032	3092.58
737.474	2499.58
737.916	813.58
738.357	433.48
738.799	336.48
739.241	297.38
739.683	294.68
740.125	293.68
740.567	311.48
741.008	325.68
741.45	315.58
741.892	310.28
742.334	350.18
742.775	358.78
743.217	338.68
743.658	272.08
744.1	256.28
744.542	264.58
744.983	308.48
745.425	345.68
745.866	341.28
746.307	282.58
746.749	288.98
747.19	331.28
747.632	463.78
748.073	879.58
748.514	1868.68
748.956	2873.78
749.397	3589.88
749.838	3000.48
750.279	2984.68
750.72	1501.58
751.162	544.78
751.603	327.18
752.044	257.78
752.485	215.18
752.926	210.88
753.367	210.08
753.808	190.98
754.249	194.98
754.69	182.58
755.131	184.68
755.572	186.78
756.013	184.28
756.453	186.08
756.894	193.28
757.335	201.28
757.776	193.58
758.216	206.48
758.657	201.98
759.098	201.08
759.538	223.98
759.979	273.58
760.42	367.78
760.86	707.88
761.301	1834.18
761.741	4456.18
762.182	6469.48
762.622	4575.68
763.063	1322.88
763.503	538.68
763.943	345.58
764.384	340.18
764.824	400.88
765.264	429.28
765.705	308.38
766.145	212.88
766.585	186.08
767.025	183.08
767.465	185.78
767.906	244.78
768.346	315.78
768.786	337.08
769.226	265.88
769.666	322.48
770.106	617.78
770.546	1558.88
770.986	2677.98
771.426	2384.88
771.866	797.08
772.306	335.48
772.745	210.58
773.185	174.78
773.625	169.08
774.065	164.68
774.505	196.58
774.944	301.28
775.384	662.58
775.824	1204.18
776.263	1159.38
776.703	491.58
777.142	221.48
777.582	157.38
778.021	144.18
778.461	137.28
778.9	144.68
779.34	134.78
779.779	122.58
780.219	115.88
780.658	107.18
781.097	119.18
781.537	117.28
781.976	111.08
782.415	107.68
782.855	107.48
783.294	110.18
783.733	111.28
784.172	112.48
784.611	106.78
785.05	113.58
785.489	117.28
785.928	119.18
786.367	122.88
786.806	118.28
787.245	135.38
787.684	144.78
788.123	151.98
788.562	139.78
789.001	128.58
789.44	127.18
789.879	114.18
790.317	121.38
790.756	130.78
791.195	125.68
791.634	147.18
792.072	200.88
792.511	357.18
792.95	1009.18
793.388	2157.78
793.827	1951.68
794.265	680.38
794.704	286.78
795.142	185.98
795.581	156.88
796.019	145.28
796.458	129.08
796.896	123.48
797.334	130.78
797.773	156.28
798.211	219.28
798.649	438.98
799.087	1032.38
799.526	1604.78
799.964	2036.48
800.402	2040.38
800.84	765.28
801.278	301.18
801.716	181.78
802.154	162.18
802.592	145.68
803.03	146.18
803.468	139.68
803.906	149.68
804.344	157.38
804.782	147.28
805.22	131.28
805.658	135.28
806.096	149.08
806.533	161.18
806.971	178.28
807.409	218.68
807.847	316.88
808.284	658.68
808.722	1883.28
809.16	3313.88
809.597	3119.28
810.035	5444.88
810.472	5807.88
810.91	2090.38
811.347	796.78
811.785	408.48
812.222	255.18
812.66	197.48
813.097	161.48
813.535	151.08
813.972	134.58
814.409	119.98
814.846	111.98
815.284	105.98
815.721	101.68
816.158	107.18
816.595	122.68
817.032	173.08
817.47	194.98
817.907	172.98
818.344	154.18
818.781	118.78
819.218	108.48
819.655	124.78
820.092	188.98
820.529	218.28
820.966	180.88
821.403	136.48
821.839	110.78
822.276	107.88
822.713	119.58
823.15	132.28
823.587	118.38
824.023	152.98
824.46	303.88
824.897	915.28
825.333	1362.28
825.77	588.68
826.206	234.38
826.643	139.78
827.08	108.58
827.516	83.48
827.953	77.28
828.389	79.08
828.825	72.68
829.262	65.88
829.698	66.88
830.135	62.18
830.571	62.48
831.007	63.18
831.443	62.78
831.88	61.68
832.316	65.48
832.752	67.18
833.188	67.58
833.624	68.78
834.06	69.18
834.497	68.68
834.933	77.68
835.369	70.28
835.805	74.58
836.241	76.28
836.677	80.68
837.112	93.28
837.548	112.88
837.984	134.58
838.42	199.18
838.856	495.88
839.292	1516.18
839.727	2326.28
840.163	1075.58
840.599	925.38
841.034	2031.58
841.47	2146.58
841.906	780.78
842.341	341.18
842.777	229.38
843.212	308.48
843.648	302.58
844.083	150.08
844.519	98.18
844.954	82.48
845.39	57.08
845.825	59.68
846.261	60.28
846.696	47.28
847.131	58.38
847.566	60.88
848.002	54.08
848.437	55.18
848.872	60.28
849.307	60.78
849.742	88.98
850.177	182.08
850.613	551.98
851.048	883.98
851.483	382.08
851.918	156.38
852.353	87.58
852.788	60.98
853.223	57.78
853.657	59.58
854.092	47.68
854.527	46.08
854.962	39.38
855.397	46.88
855.832	48.38
856.266	47.48
856.701	43.68
857.136	35.78
857.57	43.58
858.005	47.88
858.44	60.78
858.874	43.08
859.309	52.78
859.743	46.38
860.178	46.78
860.612	42.08
861.047	51.08
861.481	69.38
861.915	71.48
862.35	48.28
862.784	33.08
863.218	35.98
863.653	35.78
864.087	47.68
864.521	58.58
864.955	79.88
865.39	162.78
865.824	174.08
866.258	113.58
866.692	160.08
867.126	175.48
867.56	106.58
867.994	51.28
868.428	46.38
868.862	45.88
869.296	50.18
869.73	53.08
870.164	59.68
870.598	51.08
871.031	36.38
871.465	31.78
871.899	30.28
872.333	27.98
872.766	30.58
873.2	25.88
873.634	33.38
874.067	23.78
874.501	21.78
874.935	35.48
875.368	24.78
875.802	30.68
876.235	19.98
876.669	24.58
877.102	20.28
877.535	26.38
877.969	21.48
878.402	22.68
878.836	22.98
879.269	21.88
879.702	24.48
880.135	25.58
880.569	21.78
881.002	31.58
881.435	14.88
881.868	26.48
882.301	20.48
882.734	15.38
883.167	26.18
883.601	20.58
884.034	21.18
884.467	17.38
884.899	21.98
885.332	19.28
885.765	20.68
886.198	15.98
886.631	20.38
887.064	17.58
887.497	23.68
887.929	27.58
888.362	16.48
888.795	16.68
889.228	15.48
889.66	22.48
890.093	21.58
890.526	18.18
890.958	10.78
891.391	15.28
891.823	23.38
892.256	18.18
892.688	18.28
893.121	12.28
893.553	11.68
893.985	19.78
894.418	19.18
894.85	12.38
895.282	18.78
895.715	19.98
896.147	22.38
896.579	13.68
897.011	16.98
897.444	20.58
897.876	11.58
898.308	15.38
898.74	16.98
899.172	12.98
899.604	25.68
900.036	22.08
900.468	13.18
900.9	14.58
901.332	18.08
901.764	11.18
902.196	18.48
902.628	14.18
903.06	21.38
903.491	29.38
903.923	23.88
904.355	22.08
904.787	21.38
905.218	25.28
905.65	22.88
906.082	15.08
906.513	18.08
906.945	16.58
907.376	13.18
907.808	28.98
908.239	20.38
908.671	16.68
909.102	23.38
909.534	27.88
909.965	47.48
910.397	96.98
910.828	310.18
911.259	479.28
911.691	220.98
912.122	108.28
912.553	50.78
912.984	38.58
913.415	26.88
913.847	25.88
914.278	13.78
914.709	15.88
915.14	21.18
915.571	15.08
916.002	12.68
916.433	20.28
916.864	17.08
917.295	8.98
917.726	22.18
918.157	15.98
918.587	29.08
919.018	19.08
919.449	18.58
919.88	26.88
920.311	31.48
920.741	47.88
921.172	168.68
921.603	150.18
922.033	72.98
922.464	43.28
922.895	20.88
923.325	21.28
923.756	15.68
924.186	14.78
924.617	24.68
925.047	41.88
925.478	53.18
925.908	46.48
926.338	23.48
926.769	23.38
927.199	22.58
927.629	4.08
928.06	18.68
928.49	15.18
928.92	13.68
929.35	14.98
929.78	10.38
930.21	8.58
930.641	6.48
931.071	12.98
931.501	8.98
931.931	11.38
932.361	1.98
932.791	9.18
933.221	5.58
933.651	5.68
934.08	17.98
934.51	27.88
934.94	12.98
935.37	13.78
935.8	14.18
936.229	2.28
936.659	11.48
937.089	12.48
937.519	17.68
937.948	25.78
938.378	17.88
938.807	5.88
939.237	6.88
939.666	9.48
940.096	-6.52
940.525	0.28
940.955	2.28
941.384	-0.92
941.814	-3.02
942.243	-0.32
942.672	4.98
943.102	-2.72
943.531	-1.32
943.96	1.68
944.39	6.18
944.819	4.98
945.248	1.68
945.677	1.08
946.106	6.08
946.535	-1.82
946.964	-1.12
947.393	4.48
947.822	-2.92
948.251	-6.82
948.68	-0.12
949.109	6.78
949.538	3.98
949.967	-3.42
950.396	-3.62
950.825	1.48
951.254	1.88
951.682	-2.32
952.111	6.08
952.54	9.18
952.969	-4.32
953.397	-4.92
953.826	6.58
954.254	-4.62
954.683	5.68
955.112	-0.82
955.54	-1.12
955.969	1.98
956.397	-3.02
956.826	2.48
957.254	4.08
957.682	1.58
958.111	9.68
958.539	-4.42
958.967	1.28
959.396	-3.32
959.824	-1.22
960.252	-0.52
960.68	-3.52
961.109	-0.02
961.537	2.68
961.965	-4.82
962.393	-1.62
962.821	-3.02
963.249	1.58
963.677	8.98
964.105	5.68
964.533	43.28
964.961	41.78
965.389	22.68
965.817	9.18
966.245	4.08
966.672	5.78
967.1	-3.82
967.528	1.98
967.956	-7.52
968.383	6.28
968.811	3.58
969.239	-5.32
969.666	-6.12
970.094	1.98
970.522	-4.62
970.949	-4.12
971.377	-6.92
971.804	-4.52
972.232	-5.22
972.659	-6.52
973.087	-3.72
973.514	-8.12
973.941	-2.52
974.369	4.88
974.796	6.38
975.223	2.78
975.651	0.88
976.078	9.58
976.505	4.28
976.932	2.28
977.359	18.38
977.786	16.48
978.214	-1.82
978.641	-5.62
979.068	0.98
979.495	-7.92
979.922	0.58
980.349	-3.62
980.776	1.88
981.202	-2.62
981.629	-3.62
982.056	2.88
982.483	0.48
982.91	4.68
983.337	-3.12
983.763	5.88
984.19	-4.82
984.617	-11.92
985.043	-3.72
985.47	-2.52
985.897	-8.32
986.323	-6.32
986.75	3.48
987.176	0.18
987.603	1.68
988.029	-3.82
988.456	-1.52
988.882	-0.12
989.308	-5.12
989.735	-2.92
990.161	3.58
990.587	-3.62
991.014	-0.52
991.44	9.68
991.866	-4.12
992.292	-0.12
992.719	-3.02
993.145	0.98
993.571	-8.22
993.997	-0.12
994.423	2.28
994.849	-3.62
995.275	3.38
995.701	2.68
996.127	2.38
996.553	-1.02
996.979	-4.62
997.405	-0.32
997.83	-6.22
998.256	-3.32
998.682	-7.92
999.108	-8.62
999.534	-4.32
999.959	-0.82
1000.385	-3.52
1000.811	1.58
1001.236	-10.62
1001.662	-9.02
1002.087	-8.62
1002.513	0.48
1002.938	1.08
1003.364	-3.12
1003.789	2.28
1004.215	6.18
1004.64	-1.82
1005.066	0.88
1005.491	-1.62
1005.916	-0.82
1006.342	-3.12
1006.767	-4.82
1007.192	0.38
1007.617	-2.52
1008.042	-0.22
1008.468	-6.32
1008.893	-2.72
1009.318	2.58
1009.743	1.78
1010.168	0.18
1010.593	-1.22
1011.018	-10.22
1011.443	-5.82
1011.868	5.48
1012.293	-3.12
1012.718	-3.52
1013.143	-6.72
1013.567	-0.12
1013.992	-5.62
1014.417	-15.12
1014.842	-0.02
1015.267	-3.42
1015.691	-2.52
1016.116	2.98
1016.541	-2.52
1016.965	3.98
1017.39	1.08
1017.814	-3.72
1018.239	-1.02
1018.663	-12.72
1019.088	-5.82
1019.512	-3.22
1019.937	-0.32
1020.361	-3.62
1020.785	-8.42
1021.21	0.88
1021.634	-3.42
1022.058	2.78
1022.483	1.88
1022.907	2.28
1023.331	-3.82
1023.755	-4.32
1024.179	-2.62
1024.604	-12.32
1025.028	-6.62
1025.452	1.68
1025.876	-0.72
1026.3	1.88
1026.724	-6.12
1027.148	-5.32
1027.572	-5.92
1027.996	-6.22
1028.42	-4.82
1028.843	-2.32
1029.267	-5.02
1029.691	-5.32
1030.115	-4.32
1030.539	-9.92
1030.962	-9.62
1031.386	-11.82
1031.81	-0.82
1032.233	-1.52
1032.657	0.28
1033.08	1.48
1033.504	4.08
1033.927	-5.22
1034.351	3.38
1034.774	-2.22
1035.198	2.58
1035.621	-11.12
1036.045	-5.52
1036.468	2.68
1036.891	-12.92
1037.315	-12.02
1037.738	-6.12
1038.161	-3.52
1038.584	-4.82
1039.008	-3.42
1039.431	-1.02
1039.854	-6.32
1040.277	-9.22
1040.7	-12.32
1041.123	-1.62
1041.546	-4.72
1041.969	-5.52
1042.392	-1.92
1042.815	0.78
1043.238	0.38
1043.661	-3.42
1044.084	-3.12
1044.507	-8.32
1044.93	-2.72
1045.352	-0.22
1045.775	-0.42
1046.198	-2.72
1046.621	2.28
1047.043	-2.42
1047.466	4.98
1047.889	-2.52
1048.311	-4.42
1048.734	-2.32
1049.156	-4.72
1049.579	-4.32
1050.001	-1.72
1050.424	1.18
1050.846	-6.82
1051.269	-9.22
1051.691	-7.32
1052.113	-9.12
1052.536	1.18
1052.958	2.98
1053.38	1.78
1053.802	-12.22
1054.225	4.38
1054.647	-8.72
1055.069	-10.42
1055.491	2.68
1055.913	-7.92
1056.335	1.28
1056.757	-6.52
1057.179	-6.62
1057.601	-7.02
1058.023	-4.32
1058.445	-5.12
1058.867	-5.62
1059.289	-2.22
1059.711	-13.32
1060.133	-3.92
1060.555	-1.72
1060.976	-7.62
1061.398	-7.82
1061.82	-4.62
1062.241	-4.72
1062.663	-7.32
1063.085	-9.62
1063.506	-1.72
1063.928	-3.72
1064.35	-3.62
1064.771	-6.22
1065.193	-7.02
1065.614	-10.72
1066.035	-2.82
1066.457	-4.42
1066.878	-3.52
1067.3	-11.52
1067.721	-8.92
1068.142	-1.92
1068.564	-5.62
1068.985	-7.12
1069.406	-4.92
1069.827	-3.62
1070.248	1.48
1070.67	-3.72
1071.091	-2.52
1071.512	-4.52
1071.933	-8.62
1072.354	-5.82
1072.775	-9.82
1073.196	-7.42
1073.617	-11.72
1074.038	-10.52
1074.459	-6.62
1074.88	-8.42
1075.3	1.48
1075.721	-0.42
1076.142	0.08
1076.563	-1.62
1076.983	-8.82
1077.404	-10.42
1077.825	-8.12
1078.246	-3.22
1078.666	-13.62
1079.087	-3.62
1079.507	-3.32
1079.928	0.08
1080.348	-1.62
1080.769	-8.62
1081.189	-1.62
1081.61	-3.72
1082.03	-1.42
1082.451	-10.62
1082.871	-0.82
1083.291	-9.82
1083.711	-8.42
1084.132	-5.02
1084.552	-5.32
1084.972	-1.72
1085.392	-3.62
1085.813	-13.92
1086.233	-6.02
1086.653	-10.32
1087.073	-5.62
1087.493	-7.12
1087.913	-3.02
1088.333	-9.12
1088.753	-10.22
1089.173	1.58
1089.593	-11.62
1090.013	1.28
1090.433	1.28
1090.852	-4.22
1091.272	0.18
1091.692	-1.72
1092.112	-8.32
1092.531	-11.32
1092.951	-12.62
1093.371	-5.32
1093.79	3.28
1094.21	-6.22
1094.63	-7.92
1095.049	-10.42
1095.469	-0.92
1095.888	0.38
1096.308	-3.32
1096.727	4.28
1097.146	-4.22
1097.566	3.68
1097.985	-3.02
1098.405	-7.72
1098.824	-7.02
1099.243	-12.92
1099.662	-6.02
1100.082	3.58
1100.501	-3.22
1100.92	-4.52
1101.339	-7.02
1101.758	-3.52
