Data from 20171114-ORNL-Ar_H_NY_Subt18_08-06-25-920.txt Node
Date: Tue Nov 14 08:06:25 EST 2017
User: Ender
Spectrometer: HR+D1039
Trigger mode: 0
Integration Time (sec): 2.730000E-2
Scans to average: 10
Electric dark correction enabled: true
Nonlinearity correction enabled: false
Boxcar width: 0
XAxis mode: Wavelengths
Number of Pixels in Spectrum: 2048
>>>>>Begin Spectral Data<<<<<
187.836	-7.27
188.309	-7.27
188.782	-7.27
189.255	4.13
189.728	0.23
190.201	6.23
190.674	-0.97
191.147	3.43
191.619	-4.77
192.092	1.43
192.565	4.73
193.038	-4.17
193.511	-2.77
193.984	-0.27
194.456	-0.67
194.929	4.63
195.402	-0.67
195.874	-3.27
196.347	-3.07
196.82	-5.77
197.292	12.23
197.765	-1.87
198.237	-1.17
198.71	2.93
199.182	-1.37
199.655	3.93
200.127	2.13
200.6	-1.47
201.072	10.73
201.544	1.43
202.017	-2.77
202.489	8.93
202.961	-3.87
203.433	-0.47
203.906	-2.27
204.378	-7.57
204.85	-3.17
205.322	-10.47
205.794	-6.77
206.266	0.83
206.739	-10.47
207.211	0.93
207.683	-7.17
208.155	-3.77
208.627	-3.77
209.099	-4.17
209.57	-4.47
210.042	-1.07
210.514	-6.37
210.986	-2.77
211.458	-11.67
211.93	1.73
212.402	3.03
212.873	-9.07
213.345	-5.37
213.817	-11.57
214.288	-6.77
214.76	-9.07
215.232	0.23
215.703	-6.87
216.175	1.23
216.646	-8.97
217.118	-9.57
217.589	-6.17
218.061	-1.07
218.532	-2.87
219.004	-4.17
219.475	-4.67
219.946	0.43
220.418	-2.67
220.889	2.43
221.36	0.93
221.832	4.33
222.303	-4.37
222.774	-1.27
223.245	-9.87
223.717	-8.27
224.188	-2.07
224.659	-7.47
225.13	-5.87
225.601	-7.57
226.072	-0.17
226.543	-1.17
227.014	1.33
227.485	-2.77
227.956	-3.77
228.427	4.53
228.898	-0.07
229.369	3.33
229.839	-2.37
230.31	-0.47
230.781	2.83
231.252	0.63
231.722	-0.17
232.193	-2.47
232.664	-2.87
233.135	1.63
233.605	-0.57
234.076	-6.17
234.546	-1.17
235.017	2.23
235.487	-0.47
235.958	-1.57
236.428	-2.17
236.899	-0.07
237.369	0.73
237.84	2.33
238.31	7.53
238.78	-1.07
239.251	-3.17
239.721	0.63
240.191	0.73
240.662	-0.07
241.132	2.43
241.602	-2.37
242.072	1.63
242.542	4.33
243.013	-2.17
243.483	2.03
243.953	3.53
244.423	2.93
244.893	-4.47
245.363	4.23
245.833	1.13
246.303	-2.27
246.773	8.13
247.243	4.53
247.712	2.33
248.182	5.63
248.652	7.73
249.122	4.63
249.592	11.43
250.061	22.03
250.531	26.73
251.001	15.63
251.471	17.23
251.94	19.23
252.41	5.93
252.879	0.83
253.349	15.83
253.818	14.13
254.288	-2.17
254.757	0.23
255.227	0.33
255.696	1.43
256.166	4.93
256.635	8.83
257.105	9.33
257.574	8.33
258.043	11.93
258.513	11.63
258.982	14.53
259.451	10.63
259.92	12.63
260.389	9.53
260.859	18.13
261.328	8.43
261.797	13.43
262.266	8.13
262.735	7.63
263.204	3.63
263.673	-1.97
264.142	6.13
264.611	-0.97
265.08	0.93
265.549	-0.77
266.018	10.93
266.487	2.33
266.955	-1.37
267.424	2.83
267.893	4.13
268.362	5.23
268.83	5.23
269.299	9.03
269.768	2.73
270.236	12.83
270.705	6.13
271.174	4.43
271.642	7.13
272.111	11.13
272.579	12.83
273.048	28.73
273.516	31.03
273.985	27.63
274.453	22.23
274.922	18.73
275.39	12.23
275.858	6.53
276.327	15.13
276.795	21.93
277.263	6.83
277.731	32.43
278.2	49.63
278.668	59.63
279.136	49.23
279.604	20.03
280.072	16.53
280.54	13.53
281.008	8.43
281.477	12.13
281.945	16.33
282.413	19.53
282.881	18.63
283.348	5.03
283.816	18.43
284.284	20.83
284.752	14.13
285.22	11.03
285.688	19.43
286.156	23.23
286.623	42.53
287.091	50.73
287.559	30.23
288.026	20.13
288.494	22.13
288.962	5.73
289.429	10.63
289.897	19.33
290.364	16.13
290.832	19.83
291.3	15.53
291.767	20.73
292.234	23.43
292.702	21.33
293.169	23.33
293.637	26.03
294.104	27.23
294.571	14.03
295.039	18.53
295.506	15.03
295.973	22.93
296.44	18.23
296.908	21.13
297.375	19.43
297.842	23.33
298.309	15.93
298.776	12.73
299.243	24.33
299.71	17.93
300.177	20.53
300.644	24.73
301.111	30.43
301.578	28.13
302.045	19.53
302.512	22.43
302.979	22.73
303.446	22.33
303.913	24.13
304.379	15.23
304.846	34.13
305.313	27.33
305.78	23.43
306.246	22.83
306.713	28.13
307.18	19.23
307.646	21.33
308.113	29.13
308.579	28.23
309.046	32.33
309.512	28.63
309.979	18.23
310.445	25.73
310.912	28.03
311.378	34.73
311.845	28.73
312.311	39.13
312.777	30.23
313.244	30.33
313.71	33.93
314.176	28.43
314.642	32.13
315.109	34.73
315.575	40.33
316.041	43.93
316.507	37.03
316.973	43.43
317.439	38.53
317.905	37.93
318.371	35.23
318.837	33.03
319.303	40.13
319.769	35.03
320.235	35.93
320.701	38.53
321.167	41.03
321.633	32.63
322.099	37.53
322.564	41.43
323.03	43.23
323.496	40.43
323.962	39.53
324.427	38.23
324.893	45.93
325.359	37.23
325.824	39.23
326.29	34.33
326.755	39.53
327.221	44.23
327.686	44.23
328.152	49.13
328.617	47.43
329.083	50.03
329.548	51.23
330.014	52.63
330.479	38.63
330.944	42.73
331.41	46.23
331.875	49.23
332.34	49.53
332.805	45.53
333.271	44.93
333.736	48.13
334.201	52.93
334.666	55.43
335.131	50.83
335.596	46.43
336.061	47.13
336.526	40.03
336.991	50.53
337.456	52.13
337.921	48.03
338.386	43.93
338.851	55.43
339.316	47.43
339.781	46.73
340.246	54.23
340.711	51.83
341.175	52.73
341.64	42.93
342.105	57.73
342.569	57.03
343.034	59.13
343.499	56.93
343.963	56.13
344.428	66.83
344.893	63.53
345.357	60.23
345.822	64.33
346.286	67.83
346.751	76.93
347.215	68.63
347.679	84.03
348.144	101.03
348.608	84.13
349.073	73.03
349.537	80.33
350.001	79.53
350.465	97.93
350.93	84.93
351.394	91.83
351.858	74.63
352.322	92.43
352.786	92.63
353.25	103.93
353.715	111.53
354.179	103.43
354.643	121.53
355.107	131.23
355.571	113.83
356.035	109.43
356.498	124.83
356.962	125.13
357.426	135.73
357.89	119.93
358.354	94.73
358.818	85.63
359.281	82.63
359.745	73.83
360.209	73.63
360.673	81.03
361.136	84.13
361.6	83.13
362.064	87.03
362.527	85.73
362.991	98.53
363.454	85.53
363.918	74.03
364.381	80.13
364.845	87.13
365.308	90.33
365.772	91.73
366.235	86.73
366.698	79.23
367.162	89.43
367.625	90.43
368.088	93.53
368.552	92.73
369.015	92.03
369.478	97.33
369.941	101.33
370.404	100.73
370.867	113.73
371.331	114.53
371.794	119.83
372.257	117.43
372.72	117.93
373.183	110.33
373.646	110.53
374.109	106.63
374.572	118.63
375.035	113.63
375.497	113.93
375.96	110.23
376.423	105.43
376.886	117.13
377.349	109.03
377.811	104.33
378.274	109.33
378.737	111.83
379.199	119.53
379.662	115.23
380.125	124.73
380.587	118.93
381.05	124.23
381.512	140.53
381.975	137.83
382.437	131.53
382.9	129.63
383.362	139.03
383.825	153.73
384.287	159.43
384.75	140.63
385.212	145.03
385.674	147.93
386.136	144.73
386.599	132.43
387.061	138.03
387.523	135.53
387.985	139.13
388.447	149.03
388.91	144.23
389.372	154.83
389.834	152.43
390.296	154.93
390.758	158.93
391.22	169.03
391.682	216.63
392.144	294.73
392.606	237.03
393.068	168.63
393.529	174.03
393.991	157.33
394.453	153.93
394.915	161.73
395.377	198.83
395.838	213.03
396.3	161.53
396.762	145.53
397.224	144.73
397.685	140.43
398.147	138.93
398.608	138.53
399.07	133.23
399.531	136.03
399.993	149.23
400.454	157.33
400.916	149.73
401.377	149.83
401.839	160.33
402.3	160.63
402.762	170.93
403.223	188.53
403.684	184.13
404.145	164.43
404.607	167.13
405.068	170.83
405.529	176.63
405.99	191.23
406.451	180.53
406.913	176.73
407.374	166.93
407.835	171.43
408.296	173.23
408.757	179.73
409.218	193.43
409.679	186.53
410.14	189.13
410.601	179.33
411.062	191.33
411.522	196.63
411.983	197.63
412.444	183.83
412.905	190.03
413.366	185.03
413.826	197.63
414.287	227.33
414.748	273.33
415.208	258.83
415.669	219.93
416.13	210.63
416.59	212.53
417.051	215.03
417.511	229.63
417.972	243.93
418.432	258.83
418.893	302.03
419.353	252.83
419.814	203.13
420.274	188.53
420.734	192.03
421.195	207.83
421.655	207.73
422.115	204.13
422.576	206.53
423.036	205.83
423.496	213.03
423.956	218.83
424.416	239.53
424.876	273.93
425.336	266.93
425.797	265.93
426.257	263.53
426.717	248.43
427.177	238.33
427.637	234.93
428.097	241.23
428.556	254.73
429.016	284.93
429.476	276.93
429.936	277.43
430.396	294.53
430.856	298.53
431.315	326.93
431.775	367.93
432.235	398.83
432.694	366.73
433.154	366.03
433.614	411.43
434.073	351.63
434.533	301.23
434.993	287.63
435.452	298.43
435.912	303.83
436.371	298.13
436.83	297.83
437.29	282.23
437.749	256.13
438.209	262.13
438.668	287.53
439.127	301.43
439.587	277.33
440.046	256.13
440.505	273.43
440.964	290.53
441.424	339.13
441.883	321.83
442.342	271.43
442.801	234.83
443.26	224.53
443.719	229.53
444.178	233.33
444.637	217.73
445.096	231.03
445.555	227.33
446.014	231.43
446.473	231.23
446.932	241.53
447.391	237.33
447.849	240.33
448.308	226.73
448.767	230.03
449.226	237.93
449.685	245.33
450.143	263.23
450.602	249.23
451.061	236.73
451.519	241.33
451.978	243.43
452.436	240.93
452.895	248.73
453.353	262.43
453.812	250.03
454.27	246.93
454.729	251.53
455.187	253.33
455.646	251.43
456.104	255.53
456.562	272.33
457.021	284.73
457.479	271.93
457.937	281.33
458.395	268.63
458.854	257.23
459.312	264.53
459.77	278.43
460.228	256.53
460.686	243.73
461.144	259.13
461.602	257.73
462.06	256.43
462.518	261.43
462.976	263.93
463.434	261.83
463.892	268.23
464.35	281.33
464.808	300.83
465.266	285.53
465.724	278.23
466.181	283.83
466.639	283.33
467.097	304.83
467.555	316.93
468.012	317.23
468.47	322.23
468.928	346.63
469.385	358.13
469.843	359.03
470.3	364.63
470.758	374.03
471.215	401.73
471.673	426.23
472.13	418.73
472.588	429.63
473.045	384.03
473.503	399.93
473.96	415.43
474.417	418.43
474.875	454.23
475.332	492.53
475.789	476.03
476.246	483.53
476.704	499.43
477.161	525.23
477.618	541.83
478.075	588.53
478.532	650.83
478.989	713.73
479.446	834.53
479.903	798.93
480.36	828.13
480.817	890.93
481.274	995.63
481.731	1109.63
482.188	1195.23
482.645	1334.73
483.102	1432.23
483.558	1571.83
484.015	1637.93
484.472	1630.33
484.929	1555.73
485.385	1518.43
485.842	1474.33
486.299	1402.13
486.755	1335.03
487.212	1129.73
487.668	951.13
488.125	877.53
488.582	804.53
489.038	780.33
489.494	734.13
489.951	716.43
490.407	687.03
490.864	671.13
491.32	663.93
491.776	663.33
492.233	669.43
492.689	629.93
493.145	638.73
493.602	622.83
494.058	633.53
494.514	646.23
494.97	665.83
495.426	672.53
495.882	647.13
496.338	636.03
496.794	653.93
497.251	638.43
497.707	665.53
498.163	660.63
498.618	667.93
499.074	667.63
499.53	697.13
499.986	699.03
500.442	680.33
500.898	651.43
501.354	646.03
501.809	651.03
502.265	657.63
502.721	682.23
503.177	690.33
503.632	688.93
504.088	700.13
504.543	733.93
504.999	724.03
505.455	675.93
505.91	657.13
506.366	651.23
506.821	647.43
507.277	646.53
507.732	648.73
508.187	647.53
508.643	658.73
509.098	653.63
509.553	681.83
510.009	680.13
510.464	683.93
510.919	702.63
511.375	707.53
511.83	726.13
512.285	750.53
512.74	779.03
513.195	803.33
513.65	802.23
514.105	787.13
514.56	794.13
515.015	815.43
515.47	836.63
515.925	811.93
516.38	815.13
516.835	819.53
517.29	800.33
517.745	792.73
518.2	790.33
518.655	777.63
519.109	755.13
519.564	756.63
520.019	752.93
520.474	745.13
520.928	751.23
521.383	732.73
521.838	734.53
522.292	733.13
522.747	726.43
523.201	728.83
523.656	717.53
524.11	704.63
524.565	708.43
525.019	711.53
525.474	728.43
525.928	721.33
526.382	717.43
526.837	717.03
527.291	724.83
527.745	721.63
528.2	717.63
528.654	714.93
529.108	713.33
529.562	717.23
530.016	714.63
530.47	718.73
530.925	713.53
531.379	725.93
531.833	729.93
532.287	721.73
532.741	724.03
533.195	731.23
533.649	728.63
534.103	740.63
534.556	732.83
535.01	738.03
535.464	728.03
535.918	742.23
536.372	742.53
536.826	734.03
537.279	728.53
537.733	737.63
538.187	731.53
538.64	733.03
539.094	747.83
539.548	743.03
540.001	733.83
540.455	750.03
540.908	755.13
541.362	761.03
541.815	767.63
542.269	781.93
542.722	782.93
543.175	788.13
543.629	793.43
544.082	806.63
544.536	800.43
544.989	807.33
545.442	819.63
545.895	817.03
546.349	807.03
546.802	819.63
547.255	817.93
547.708	823.93
548.161	836.63
548.614	846.33
549.067	837.23
549.52	842.33
549.973	836.33
550.426	826.83
550.879	817.93
551.332	826.83
551.785	827.33
552.238	830.23
552.691	841.23
553.144	868.23
553.596	869.13
554.049	885.13
554.502	918.63
554.955	930.23
555.407	926.33
555.86	926.23
556.313	915.33
556.765	912.73
557.218	903.93
557.67	906.53
558.123	903.43
558.576	907.33
559.028	899.83
559.48	901.13
559.933	907.93
560.385	860.53
560.838	823.73
561.29	800.33
561.742	801.33
562.195	791.93
562.647	789.93
563.099	790.63
563.551	791.43
564.004	801.83
564.456	799.33
564.908	780.43
565.36	777.13
565.812	753.73
566.264	755.23
566.716	742.43
567.168	730.13
567.62	739.93
568.072	725.73
568.524	716.73
568.976	704.03
569.428	698.03
569.88	687.73
570.332	710.53
570.784	701.03
571.235	709.93
571.687	712.03
572.139	711.43
572.59	729.53
573.042	725.93
573.494	733.33
573.945	721.53
574.397	703.83
574.849	713.83
575.3	716.23
575.752	697.73
576.203	710.83
576.655	701.73
577.106	690.13
577.557	687.13
578.009	689.83
578.46	685.83
578.912	677.83
579.363	670.43
579.814	690.13
580.265	676.63
580.717	680.13
581.168	690.93
581.619	693.13
582.07	694.53
582.521	689.33
582.972	696.23
583.423	694.23
583.875	706.63
584.326	728.33
584.777	765.63
585.227	834.13
585.678	917.23
586.129	1006.13
586.58	1084.53
587.031	1154.13
587.482	1300.83
587.933	1469.83
588.384	1290.13
588.834	970.03
589.285	825.43
589.736	800.83
590.186	794.63
590.637	779.13
591.088	763.23
591.538	766.03
591.989	746.73
592.439	742.83
592.89	729.03
593.34	737.63
593.791	728.03
594.241	721.83
594.692	731.23
595.142	716.93
595.593	712.93
596.043	723.03
596.493	737.43
596.943	729.73
597.394	743.73
597.844	739.33
598.294	749.03
598.744	770.13
599.195	794.73
599.645	831.33
600.095	890.73
600.545	928.53
600.995	979.93
601.445	1032.73
601.895	1104.13
602.345	1168.83
602.795	1130.13
603.245	1095.93
603.695	1032.93
604.145	981.93
604.594	929.33
605.044	875.23
605.494	810.83
605.944	773.73
606.393	758.93
606.843	740.13
607.293	752.53
607.743	743.53
608.192	766.03
608.642	783.13
609.091	786.33
609.541	786.63
609.99	789.33
610.44	778.83
610.889	732.33
611.339	725.13
611.788	706.13
612.238	724.93
612.687	725.73
613.136	729.03
613.586	756.43
614.035	741.23
614.484	767.33
614.933	765.33
615.383	770.43
615.832	746.93
616.281	746.53
616.73	704.83
617.179	679.43
617.628	661.73
618.077	651.53
618.526	638.73
618.975	630.43
619.424	623.13
619.873	626.93
620.322	634.33
620.771	623.63
621.22	617.23
621.669	608.63
622.118	594.53
622.567	595.83
623.015	580.13
623.464	579.63
623.913	569.53
624.361	571.33
624.81	562.73
625.259	563.93
625.707	567.03
626.156	566.63
626.604	584.23
627.053	575.03
627.501	567.13
627.95	580.33
628.398	597.73
628.847	578.03
629.295	575.03
629.744	582.73
630.192	582.03
630.64	575.53
631.089	564.63
631.537	584.43
631.985	593.43
632.433	597.33
632.881	606.03
633.33	655.13
633.778	651.73
634.226	573.23
634.674	582.33
635.122	583.63
635.57	612.33
636.018	618.33
636.466	587.73
636.914	566.73
637.362	573.23
637.81	589.73
638.258	587.73
638.705	590.73
639.153	616.13
639.601	619.33
640.049	651.53
640.497	677.43
640.944	708.13
641.392	655.93
641.84	631.53
642.287	593.73
642.735	576.23
643.182	583.73
643.63	578.63
644.078	577.43
644.525	608.13
644.973	601.63
645.42	621.23
645.867	631.33
646.315	654.13
646.762	676.43
647.21	715.03
647.657	721.53
648.104	766.23
648.551	783.53
648.999	857.73
649.446	936.53
649.893	1029.73
650.34	1180.23
650.787	1410.13
651.234	1758.43
651.682	2279.63
652.129	3129.93
652.576	4514.23
653.023	6619.13
653.47	9085.83
653.917	11361.23
654.363	13070.13
654.81	14446.53
655.257	13756.33
655.704	8992.53
656.151	5347.03
656.598	3469.93
657.044	2458.03
657.491	1889.93
657.938	1518.03
658.385	1265.53
658.831	1095.63
659.278	983.03
659.724	864.53
660.171	798.43
660.618	729.03
661.064	701.33
661.511	673.13
661.957	657.93
662.404	656.93
662.85	662.63
663.296	638.63
663.743	569.83
664.189	549.83
664.635	543.13
665.082	535.33
665.528	535.23
665.974	529.93
666.42	526.93
666.867	517.73
667.313	498.83
667.759	491.93
668.205	487.33
668.651	494.13
669.097	491.13
669.543	511.93
669.989	471.83
670.435	459.63
670.881	450.83
671.327	463.43
671.773	481.33
672.219	490.63
672.665	549.93
673.11	587.43
673.556	633.53
674.002	672.73
674.448	662.23
674.893	551.43
675.339	481.03
675.785	447.13
676.23	424.23
676.676	398.63
677.122	386.53
677.567	382.43
678.013	377.93
678.458	366.53
678.904	361.93
679.349	355.23
679.794	351.13
680.24	355.33
680.685	362.43
681.131	355.93
681.576	352.83
682.021	362.43
682.466	362.53
682.912	356.33
683.357	353.33
683.802	383.43
684.247	412.33
684.692	461.93
685.137	500.73
685.583	543.73
686.028	564.73
686.473	520.33
686.918	456.33
687.363	419.93
687.807	400.43
688.252	372.13
688.697	364.53
689.142	342.93
689.587	344.33
690.032	327.73
690.477	347.93
690.921	357.63
691.366	389.93
691.811	410.63
692.255	440.33
692.7	467.83
693.145	501.73
693.589	698.93
694.034	1122.93
694.478	1552.13
694.923	1746.23
695.367	2301.93
695.812	1214.13
696.256	509.23
696.701	376.83
697.145	343.13
697.59	341.33
698.034	322.33
698.478	334.03
698.922	327.93
699.367	332.83
699.811	340.73
700.255	359.73
700.699	387.13
701.143	430.13
701.588	484.63
702.032	521.13
702.476	514.93
702.92	499.13
703.364	495.83
703.808	634.63
704.252	1055.83
704.696	1471.13
705.14	1689.53
705.584	2143.73
706.027	1073.63
706.471	521.33
706.915	399.23
707.359	366.53
707.803	323.93
708.246	309.03
708.69	315.23
709.134	316.33
709.577	312.53
710.021	322.33
710.465	309.63
710.908	303.53
711.352	298.83
711.795	322.13
712.239	355.83
712.682	386.03
713.126	421.03
713.569	466.83
714.012	372.83
714.456	322.13
714.899	303.73
715.342	280.43
715.786	265.13
716.229	263.03
716.672	260.93
717.115	253.73
717.558	251.43
718.002	264.03
718.445	262.53
718.888	286.73
719.331	295.13
719.774	313.63
720.217	308.03
720.66	291.63
721.103	280.73
721.546	259.03
721.989	251.63
722.432	236.93
722.874	236.73
723.317	233.23
723.76	239.93
724.203	262.93
724.645	320.13
725.088	458.03
725.531	579.83
725.974	654.23
726.416	557.23
726.859	311.03
727.301	248.33
727.744	240.63
728.187	235.53
728.629	242.03
729.071	244.93
729.514	256.63
729.956	267.13
730.399	283.13
730.841	293.23
731.283	272.73
731.726	265.33
732.168	258.43
732.61	258.23
733.053	290.53
733.495	319.13
733.937	358.23
734.379	396.13
734.821	435.53
735.263	543.93
735.705	838.83
736.148	1571.03
736.59	2594.93
737.032	3076.93
737.474	2494.83
737.916	809.23
738.357	435.63
738.799	329.93
739.241	298.93
739.683	285.03
740.125	299.83
740.567	299.93
741.008	318.83
741.45	320.53
741.892	322.53
742.334	346.23
742.775	360.23
743.217	342.03
743.658	276.23
744.1	253.13
744.542	266.83
744.983	316.93
745.425	345.53
745.866	342.73
746.307	288.23
746.749	288.43
747.19	330.93
747.632	462.03
748.073	889.43
748.514	1860.43
748.956	2875.93
749.397	3576.23
749.838	2974.13
750.279	2976.03
750.72	1493.23
751.162	543.63
751.603	325.43
752.044	259.43
752.485	224.83
752.926	205.53
753.367	202.63
753.808	191.53
754.249	192.83
754.69	190.03
755.131	187.03
755.572	190.03
756.013	189.23
756.453	186.53
756.894	189.73
757.335	190.63
757.776	204.03
758.216	195.03
758.657	208.73
759.098	211.13
759.538	228.93
759.979	263.33
760.42	371.23
760.86	704.63
761.301	1817.63
761.741	4428.33
762.182	6455.23
762.622	4520.83
763.063	1310.93
763.503	538.93
763.943	346.03
764.384	340.53
764.824	395.93
765.264	427.43
765.705	301.63
766.145	208.23
766.585	191.63
767.025	182.23
767.465	185.83
767.906	239.13
768.346	314.53
768.786	334.33
769.226	261.93
769.666	316.83
770.106	627.13
770.546	1551.53
770.986	2647.13
771.426	2391.33
771.866	794.43
772.306	327.53
772.745	211.13
773.185	177.73
773.625	177.23
774.065	166.23
774.505	196.03
774.944	297.53
775.384	652.83
775.824	1180.83
776.263	1142.73
776.703	486.43
777.142	214.03
777.582	160.13
778.021	137.93
778.461	140.23
778.9	143.83
779.34	137.43
779.779	123.03
780.219	107.83
780.658	111.03
781.097	115.53
781.537	116.83
781.976	112.23
782.415	110.33
782.855	105.93
783.294	104.53
783.733	107.73
784.172	113.63
784.611	103.33
785.05	113.93
785.489	111.43
785.928	119.63
786.367	124.33
786.806	116.63
787.245	122.43
787.684	142.93
788.123	152.33
788.562	138.93
789.001	128.13
789.44	119.03
789.879	127.83
790.317	122.03
790.756	131.03
791.195	128.83
791.634	152.13
792.072	206.13
792.511	375.93
792.95	1014.93
793.388	2148.33
793.827	1951.93
794.265	688.93
794.704	291.03
795.142	181.83
795.581	160.53
796.019	139.03
796.458	131.63
796.896	120.43
797.334	128.13
797.773	160.53
798.211	223.63
798.649	440.93
799.087	1029.53
799.526	1609.03
799.964	2016.93
800.402	2028.43
800.84	754.73
801.278	300.33
801.716	185.23
802.154	150.93
802.592	145.93
803.03	144.93
803.468	128.93
803.906	146.63
804.344	147.23
804.782	146.53
805.22	135.43
805.658	131.43
806.096	149.03
806.533	157.83
806.971	178.33
807.409	221.13
807.847	308.43
808.284	662.53
808.722	1857.23
809.16	3294.73
809.597	3115.13
810.035	5387.33
810.472	5796.23
810.91	2103.53
811.347	801.73
811.785	404.83
812.222	260.53
812.66	184.83
813.097	167.23
813.535	144.63
813.972	128.03
814.409	118.33
814.846	108.53
815.284	109.73
815.721	97.83
816.158	105.33
816.595	123.83
817.032	176.53
817.47	196.43
817.907	170.03
818.344	149.03
818.781	116.63
819.218	104.53
819.655	125.73
820.092	188.63
820.529	216.63
820.966	175.73
821.403	134.63
821.839	114.53
822.276	101.03
822.713	123.83
823.15	139.63
823.587	119.23
824.023	153.93
824.46	301.73
824.897	893.53
825.333	1365.63
825.77	588.53
826.206	234.73
826.643	133.33
827.08	104.63
827.516	88.73
827.953	77.33
828.389	85.23
828.825	73.13
829.262	70.53
829.698	61.33
830.135	59.13
830.571	65.53
831.007	68.53
831.443	64.63
831.88	64.53
832.316	63.93
832.752	65.83
833.188	67.83
833.624	64.73
834.06	67.93
834.497	70.33
834.933	68.43
835.369	74.73
835.805	71.33
836.241	76.53
836.677	76.43
837.112	90.73
837.548	106.03
837.984	133.33
838.42	198.53
838.856	496.83
839.292	1519.83
839.727	2304.03
840.163	1084.63
840.599	936.23
841.034	2037.33
841.47	2141.83
841.906	779.03
842.341	338.93
842.777	234.73
843.212	308.33
843.648	306.43
844.083	143.73
844.519	92.13
844.954	74.93
845.39	61.03
845.825	58.53
846.261	51.63
846.696	53.63
847.131	56.23
847.566	58.23
848.002	55.63
848.437	60.43
848.872	60.43
849.307	69.13
849.742	85.63
850.177	182.33
850.613	551.53
851.048	884.63
851.483	380.23
851.918	156.03
852.353	87.33
852.788	67.93
853.223	58.13
853.657	52.33
854.092	47.33
854.527	42.63
854.962	36.63
855.397	45.63
855.832	47.83
856.266	41.63
856.701	40.83
857.136	41.63
857.57	42.03
858.005	48.13
858.44	56.93
858.874	43.13
859.309	52.53
859.743	43.13
860.178	47.83
860.612	45.63
861.047	56.03
861.481	67.33
861.915	72.03
862.35	58.33
862.784	36.13
863.218	39.43
863.653	42.23
864.087	47.23
864.521	49.33
864.955	81.53
865.39	160.93
865.824	177.23
866.258	119.73
866.692	160.43
867.126	177.13
867.56	109.83
867.994	55.43
868.428	41.13
868.862	44.23
869.296	55.93
869.73	58.43
870.164	52.83
870.598	50.13
871.031	38.03
871.465	36.23
871.899	31.63
872.333	22.63
872.766	21.83
873.2	25.63
873.634	30.73
874.067	28.13
874.501	27.33
874.935	31.93
875.368	29.73
875.802	29.33
876.235	24.83
876.669	25.13
877.102	23.73
877.535	26.23
877.969	22.73
878.402	27.33
878.836	18.93
879.269	23.33
879.702	22.63
880.135	16.63
880.569	24.43
881.002	32.83
881.435	22.53
881.868	20.13
882.301	24.03
882.734	17.43
883.167	25.93
883.601	25.63
884.034	25.13
884.467	19.43
884.899	18.73
885.332	17.43
885.765	9.73
886.198	17.33
886.631	14.63
887.064	19.03
887.497	22.93
887.929	22.93
888.362	15.53
888.795	13.63
889.228	21.83
889.66	18.33
890.093	18.23
890.526	16.43
890.958	20.73
891.391	14.43
891.823	26.53
892.256	18.73
892.688	13.53
893.121	17.83
893.553	15.03
893.985	20.53
894.418	23.63
894.85	14.53
895.282	17.33
895.715	16.93
896.147	17.93
896.579	17.23
897.011	18.63
897.444	20.23
897.876	17.43
898.308	17.53
898.74	15.53
899.172	17.23
899.604	24.83
900.036	18.13
900.468	14.73
900.9	14.23
901.332	14.63
901.764	15.03
902.196	17.93
902.628	24.03
903.06	12.83
903.491	25.73
903.923	22.83
904.355	21.23
904.787	21.33
905.218	19.23
905.65	21.73
906.082	12.53
906.513	11.93
906.945	18.53
907.376	18.53
907.808	16.23
908.239	18.53
908.671	21.03
909.102	21.63
909.534	24.23
909.965	50.53
910.397	94.93
910.828	309.33
911.259	468.43
911.691	219.53
912.122	109.23
912.553	55.63
912.984	27.83
913.415	24.83
913.847	23.73
914.278	13.23
914.709	11.73
915.14	23.73
915.571	16.03
916.002	15.93
916.433	16.93
916.864	20.83
917.295	18.13
917.726	23.33
918.157	19.63
918.587	32.53
919.018	25.63
919.449	22.93
919.88	17.33
920.311	27.23
920.741	48.93
921.172	172.43
921.603	152.63
922.033	72.73
922.464	51.13
922.895	20.23
923.325	22.53
923.756	24.93
924.186	17.33
924.617	30.03
925.047	38.03
925.478	55.63
925.908	51.33
926.338	26.53
926.769	17.43
927.199	17.63
927.629	13.73
928.06	13.23
928.49	12.73
928.92	12.03
929.35	10.43
929.78	9.53
930.21	8.53
930.641	13.93
931.071	7.63
931.501	4.33
931.931	9.53
932.361	10.63
932.791	10.23
933.221	7.23
933.651	5.83
934.08	15.33
934.51	30.43
934.94	8.53
935.37	8.03
935.8	10.23
936.229	6.53
936.659	11.73
937.089	4.93
937.519	13.13
937.948	27.63
938.378	17.93
938.807	4.03
939.237	11.63
939.666	5.63
940.096	-1.67
940.525	0.93
940.955	0.93
941.384	4.63
941.814	-10.27
942.243	-1.47
942.672	2.53
943.102	-2.47
943.531	4.93
943.96	3.43
944.39	2.93
944.819	-3.47
945.248	4.23
945.677	-2.57
946.106	3.33
946.535	7.93
946.964	5.43
947.393	6.73
947.822	2.83
948.251	-3.17
948.68	2.93
949.109	7.73
949.538	10.13
949.967	0.93
950.396	0.93
950.825	1.53
951.254	1.23
951.682	-3.37
952.111	4.13
952.54	1.23
952.969	-8.07
953.397	-4.77
953.826	5.53
954.254	-5.27
954.683	-0.47
955.112	-2.97
955.54	2.03
955.969	2.03
956.397	-1.27
956.826	-2.47
957.254	3.63
957.682	2.53
958.111	2.93
958.539	-2.77
958.967	2.63
959.396	-5.37
959.824	2.93
960.252	5.03
960.68	-4.57
961.109	-3.17
961.537	-4.47
961.965	-0.07
962.393	5.03
962.821	0.03
963.249	-3.97
963.677	5.03
964.105	7.03
964.533	44.43
964.961	45.03
965.389	14.03
965.817	17.23
966.245	1.63
966.672	-1.07
967.1	-3.77
967.528	0.63
967.956	-1.17
968.383	1.83
968.811	1.43
969.239	-2.67
969.666	-5.87
970.094	0.53
970.522	1.83
970.949	0.53
971.377	-2.67
971.804	-2.97
972.232	-1.17
972.659	-1.87
973.087	4.43
973.514	-0.57
973.941	-8.07
974.369	6.73
974.796	3.53
975.223	-1.27
975.651	3.93
976.078	5.33
976.505	-3.77
976.932	7.43
977.359	13.23
977.786	13.13
978.214	7.33
978.641	-6.37
979.068	-0.07
979.495	-3.57
979.922	4.23
980.349	-1.97
980.776	1.13
981.202	-1.47
981.629	0.63
982.056	2.23
982.483	1.13
982.91	3.13
983.337	-3.87
983.763	4.23
984.19	-6.67
984.617	-0.07
985.043	-7.07
985.47	-0.67
985.897	-1.87
986.323	-3.17
986.75	4.13
987.176	2.43
987.603	-9.27
988.029	2.33
988.456	-3.17
988.882	2.13
989.308	-9.17
989.735	1.33
990.161	5.63
990.587	-6.17
991.014	-5.27
991.44	7.13
991.866	-0.27
992.292	-4.27
992.719	-4.07
993.145	4.23
993.571	-4.07
993.997	-5.87
994.423	-0.87
994.849	-1.97
995.275	0.13
995.701	1.63
996.127	-0.57
996.553	0.23
996.979	-4.57
997.405	-2.57
997.83	-3.57
998.256	-6.47
998.682	-4.87
999.108	-8.37
999.534	-1.87
999.959	-1.17
1000.385	-0.27
1000.811	1.03
1001.236	-6.17
1001.662	-5.27
1002.087	-5.97
1002.513	-4.47
1002.938	3.63
1003.364	0.43
1003.789	-1.57
1004.215	-0.27
1004.64	-1.77
1005.066	1.43
1005.491	0.13
1005.916	-4.07
1006.342	-2.67
1006.767	-10.67
1007.192	9.93
1007.617	-2.37
1008.042	3.13
1008.468	-9.87
1008.893	-7.77
1009.318	-3.07
1009.743	-2.77
1010.168	6.53
1010.593	-1.87
1011.018	-2.37
1011.443	1.13
1011.868	0.13
1012.293	-3.67
1012.718	-6.67
1013.143	-2.77
1013.567	-1.17
1013.992	-4.37
1014.417	-12.67
1014.842	-0.77
1015.267	-6.97
1015.691	-8.97
1016.116	4.03
1016.541	0.33
1016.965	1.63
1017.39	1.93
1017.814	-0.47
1018.239	-0.57
1018.663	-9.87
1019.088	-13.97
1019.512	-0.37
1019.937	0.53
1020.361	-8.87
1020.785	-12.17
1021.21	-8.07
1021.634	-5.67
1022.058	2.43
1022.483	6.93
1022.907	-8.17
1023.331	-6.07
1023.755	-6.97
1024.179	-4.77
1024.604	-5.17
1025.028	-1.87
1025.452	-4.37
1025.876	-5.47
1026.3	-2.07
1026.724	-10.97
1027.148	-4.57
1027.572	-15.37
1027.996	1.63
1028.42	-6.77
1028.843	-2.37
1029.267	-4.77
1029.691	-1.67
1030.115	-3.97
1030.539	-0.27
1030.962	-4.27
1031.386	-10.57
1031.81	-1.27
1032.233	0.33
1032.657	-5.07
1033.08	-2.67
1033.504	-1.67
1033.927	-1.77
1034.351	-4.97
1034.774	-9.17
1035.198	-1.67
1035.621	-4.67
1036.045	-6.07
1036.468	1.13
1036.891	-2.07
1037.315	-6.47
1037.738	-8.77
1038.161	-2.47
1038.584	-1.97
1039.008	-2.87
1039.431	1.53
1039.854	-6.37
1040.277	-6.37
1040.7	-14.17
1041.123	-1.27
1041.546	-2.97
1041.969	-7.07
1042.392	-4.47
1042.815	-1.87
1043.238	1.43
1043.661	2.23
1044.084	-5.37
1044.507	-3.97
1044.93	-5.87
1045.352	-8.07
1045.775	-0.87
1046.198	-0.87
1046.621	-0.67
1047.043	-0.27
1047.466	8.73
1047.889	-0.07
1048.311	-5.27
1048.734	-1.17
1049.156	-5.67
1049.579	-5.87
1050.001	-9.57
1050.424	-2.37
1050.846	-0.77
1051.269	-4.57
1051.691	-4.47
1052.113	-2.57
1052.536	-1.77
1052.958	-6.17
1053.38	-2.37
1053.802	-2.67
1054.225	-3.07
1054.647	-7.27
1055.069	-5.17
1055.491	3.03
1055.913	-12.47
1056.335	-1.47
1056.757	-2.67
1057.179	-6.17
1057.601	-7.07
1058.023	0.83
1058.445	-3.97
1058.867	-4.07
1059.289	-6.07
1059.711	-8.37
1060.133	3.63
1060.555	-7.07
1060.976	-10.77
1061.398	-11.17
1061.82	-2.67
1062.241	-8.87
1062.663	-5.37
1063.085	-4.27
1063.506	-1.87
1063.928	-10.87
1064.35	-1.27
1064.771	-12.37
1065.193	-4.57
1065.614	-11.07
1066.035	5.73
1066.457	-0.37
1066.878	6.23
1067.3	-2.77
1067.721	-4.67
1068.142	-5.37
1068.564	-3.67
1068.985	-7.17
1069.406	-1.27
1069.827	-2.07
1070.248	-2.27
1070.67	-1.57
1071.091	-11.17
1071.512	0.43
1071.933	-3.37
1072.354	-12.97
1072.775	-5.67
1073.196	-7.87
1073.617	-8.07
1074.038	1.43
1074.459	-3.57
1074.88	-11.97
1075.3	2.23
1075.721	-3.27
1076.142	3.13
1076.563	-1.07
1076.983	-7.87
1077.404	-8.07
1077.825	-10.47
1078.246	-8.27
1078.666	-9.37
1079.087	-7.77
1079.507	-6.37
1079.928	5.63
1080.348	2.13
1080.769	-6.17
1081.189	-1.17
1081.61	-6.07
1082.03	-5.97
1082.451	-10.67
1082.871	-0.57
1083.291	-4.77
1083.711	-8.67
1084.132	-5.77
1084.552	-3.37
1084.972	-4.37
1085.392	-8.27
1085.813	-7.57
1086.233	-9.97
1086.653	-4.27
1087.073	-5.57
1087.493	-0.27
1087.913	-7.27
1088.333	-6.97
1088.753	-3.17
1089.173	-0.97
1089.593	-1.87
1090.013	-0.57
1090.433	5.93
1090.852	-4.67
1091.272	-3.67
1091.692	-1.57
1092.112	-3.67
1092.531	-3.87
1092.951	-14.87
1093.371	-3.17
1093.79	-1.17
1094.21	-2.67
1094.63	-1.47
1095.049	-9.77
1095.469	-2.37
1095.888	-3.87
1096.308	1.13
1096.727	2.63
1097.146	-5.67
1097.566	0.13
1097.985	-5.97
1098.405	-1.47
1098.824	-8.27
1099.243	-7.87
1099.662	-8.57
1100.082	-7.57
1100.501	-1.27
1100.92	-7.07
1101.339	-3.67
1101.758	-1.57
