Data from 20171114-ORNL-Ar_H_NY_Subt18_08-07-16-697.txt Node
Date: Tue Nov 14 08:07:16 EST 2017
User: Ender
Spectrometer: HR+D1039
Trigger mode: 0
Integration Time (sec): 2.730000E-2
Scans to average: 10
Electric dark correction enabled: true
Nonlinearity correction enabled: false
Boxcar width: 0
XAxis mode: Wavelengths
Number of Pixels in Spectrum: 2048
>>>>>Begin Spectral Data<<<<<
187.836	-1.12
188.309	-1.12
188.782	-1.12
189.255	0.18
189.728	1.68
190.201	7.28
190.674	-2.02
191.147	4.08
191.619	-3.92
192.092	1.48
192.565	7.48
193.038	-4.92
193.511	-3.02
193.984	-2.72
194.456	-1.62
194.929	-4.82
195.402	-1.42
195.874	3.38
196.347	1.98
196.82	-1.72
197.292	11.08
197.765	-0.62
198.237	-5.92
198.71	3.58
199.182	1.28
199.655	0.58
200.127	5.08
200.6	1.08
201.072	-5.52
201.544	-4.42
202.017	-1.72
202.489	8.28
202.961	0.68
203.433	0.28
203.906	-3.72
204.378	-5.92
204.85	-4.42
205.322	-8.12
205.794	-2.22
206.266	-2.52
206.739	-7.12
207.211	-1.22
207.683	-10.52
208.155	-8.62
208.627	-5.02
209.099	-3.32
209.57	-10.62
210.042	-4.42
210.514	-11.72
210.986	-6.02
211.458	-5.52
211.93	-4.12
212.402	0.78
212.873	-9.02
213.345	-9.32
213.817	-14.52
214.288	-2.02
214.76	-14.12
215.232	-0.12
215.703	-0.22
216.175	-1.62
216.646	1.18
217.118	-11.82
217.589	0.48
218.061	0.38
218.532	-2.32
219.004	-0.52
219.475	-3.32
219.946	-3.52
220.418	-5.22
220.889	-1.82
221.36	-7.02
221.832	-3.62
222.303	-10.02
222.774	5.88
223.245	-8.32
223.717	-8.52
224.188	-6.92
224.659	-5.52
225.13	-10.72
225.601	-6.82
226.072	-2.22
226.543	-1.02
227.014	-3.62
227.485	-2.72
227.956	-3.82
228.427	-0.52
228.898	4.98
229.369	3.78
229.839	-1.72
230.31	-4.92
230.781	-4.32
231.252	-5.22
231.722	-1.52
232.193	-3.62
232.664	-2.62
233.135	-3.42
233.605	-4.72
234.076	-9.42
234.546	2.08
235.017	2.78
235.487	-1.42
235.958	-7.72
236.428	-5.22
236.899	-7.92
237.369	-3.52
237.84	-8.22
238.31	0.88
238.78	-5.82
239.251	-11.42
239.721	-5.52
240.191	-2.92
240.662	-2.02
241.132	-5.62
241.602	-6.62
242.072	-3.12
242.542	0.08
243.013	-3.02
243.483	1.38
243.953	0.28
244.423	-7.02
244.893	-8.52
245.363	3.18
245.833	-0.92
246.303	-10.72
246.773	8.28
247.243	-0.72
247.712	-3.42
248.182	-2.42
248.652	-1.12
249.122	-11.12
249.592	-7.22
250.061	2.98
250.531	6.58
251.001	-9.82
251.471	1.48
251.94	5.68
252.41	-1.72
252.879	-4.12
253.349	9.58
253.818	4.88
254.288	1.58
254.757	-7.92
255.227	-6.62
255.696	2.18
256.166	0.38
256.635	-2.92
257.105	-0.22
257.574	-4.12
258.043	-2.22
258.513	-6.82
258.982	-2.62
259.451	-4.62
259.92	1.78
260.389	-3.62
260.859	4.78
261.328	1.18
261.797	1.08
262.266	-1.32
262.735	8.78
263.204	2.78
263.673	-6.92
264.142	2.08
264.611	-6.72
265.08	-3.52
265.549	-6.62
266.018	3.08
266.487	-1.72
266.955	-6.72
267.424	-0.52
267.893	3.98
268.362	-0.72
268.83	-2.02
269.299	1.88
269.768	1.78
270.236	-3.12
270.705	-5.52
271.174	0.28
271.642	0.08
272.111	-4.42
272.579	4.18
273.048	-4.32
273.516	1.38
273.985	1.48
274.453	4.08
274.922	3.08
275.39	3.48
275.858	-6.52
276.327	3.18
276.795	9.98
277.263	6.58
277.731	15.18
278.2	-2.72
278.668	7.08
279.136	7.28
279.604	-2.12
280.072	3.18
280.54	3.28
281.008	6.88
281.477	6.18
281.945	9.88
282.413	6.88
282.881	6.58
283.348	0.68
283.816	9.78
284.284	8.88
284.752	8.08
285.22	6.38
285.688	11.98
286.156	1.98
286.623	13.28
287.091	4.58
287.559	12.18
288.026	8.08
288.494	12.08
288.962	1.18
289.429	9.18
289.897	9.18
290.364	3.78
290.832	18.18
291.3	10.98
291.767	7.08
292.234	10.58
292.702	7.28
293.169	6.68
293.637	14.08
294.104	11.08
294.571	-1.62
295.039	3.68
295.506	5.18
295.973	7.18
296.44	8.18
296.908	6.88
297.375	6.28
297.842	12.28
298.309	16.78
298.776	7.58
299.243	13.98
299.71	5.78
300.177	9.28
300.644	15.98
301.111	12.68
301.578	15.88
302.045	12.28
302.512	17.88
302.979	17.58
303.446	15.98
303.913	9.38
304.379	13.18
304.846	17.78
305.313	14.98
305.78	17.58
306.246	8.68
306.713	21.88
307.18	14.28
307.646	16.18
308.113	14.88
308.579	12.48
309.046	17.48
309.512	19.58
309.979	15.48
310.445	19.98
310.912	20.78
311.378	18.88
311.845	19.38
312.311	22.58
312.777	27.38
313.244	20.68
313.71	29.68
314.176	23.58
314.642	20.78
315.109	20.68
315.575	26.08
316.041	32.78
316.507	23.88
316.973	26.48
317.439	26.78
317.905	29.38
318.371	30.08
318.837	21.58
319.303	21.88
319.769	26.28
320.235	22.48
320.701	27.18
321.167	24.38
321.633	20.48
322.099	25.28
322.564	26.98
323.03	29.08
323.496	27.58
323.962	28.68
324.427	26.08
324.893	34.18
325.359	24.58
325.824	27.08
326.29	26.88
326.755	27.08
327.221	30.48
327.686	29.48
328.152	37.78
328.617	30.48
329.083	35.58
329.548	41.08
330.014	39.48
330.479	32.28
330.944	36.58
331.41	33.58
331.875	34.68
332.34	32.68
332.805	34.28
333.271	33.68
333.736	31.98
334.201	42.48
334.666	43.98
335.131	42.18
335.596	41.38
336.061	40.98
336.526	32.78
336.991	38.38
337.456	45.08
337.921	38.38
338.386	40.68
338.851	35.48
339.316	31.78
339.781	41.38
340.246	42.98
340.711	34.58
341.175	44.68
341.64	31.38
342.105	45.48
342.569	43.48
343.034	48.88
343.499	45.28
343.963	39.98
344.428	51.58
344.893	42.88
345.357	46.38
345.822	49.08
346.286	61.08
346.751	61.18
347.215	52.08
347.679	51.08
348.144	68.98
348.608	65.98
349.073	54.98
349.537	58.18
350.001	61.28
350.465	70.48
350.93	59.48
351.394	68.08
351.858	59.28
352.322	76.08
352.786	69.28
353.25	77.18
353.715	91.38
354.179	75.58
354.643	96.48
355.107	95.68
355.571	83.88
356.035	83.28
356.498	83.88
356.962	89.58
357.426	100.78
357.89	93.68
358.354	77.28
358.818	67.48
359.281	65.38
359.745	61.88
360.209	57.88
360.673	66.38
361.136	72.68
361.6	70.08
362.064	71.58
362.527	74.28
362.991	74.98
363.454	70.18
363.918	63.08
364.381	64.48
364.845	72.68
365.308	77.38
365.772	75.68
366.235	72.68
366.698	63.08
367.162	68.18
367.625	69.98
368.088	70.78
368.552	84.18
369.015	74.28
369.478	77.88
369.941	85.38
370.404	81.58
370.867	86.68
371.331	87.58
371.794	93.68
372.257	90.58
372.72	89.78
373.183	88.38
373.646	82.78
374.109	90.98
374.572	93.38
375.035	87.78
375.497	90.18
375.96	91.48
376.423	92.98
376.886	105.08
377.349	97.38
377.811	93.28
378.274	90.38
378.737	93.08
379.199	92.78
379.662	92.88
380.125	100.38
380.587	96.88
381.05	95.08
381.512	101.98
381.975	113.28
382.437	104.08
382.9	106.08
383.362	108.48
383.825	112.18
384.287	108.78
384.75	103.58
385.212	111.38
385.674	122.18
386.136	118.58
386.599	108.08
387.061	112.88
387.523	108.98
387.985	110.18
388.447	125.98
388.91	118.88
389.372	116.48
389.834	117.58
390.296	116.08
390.758	119.68
391.22	117.48
391.682	130.48
392.144	134.68
392.606	125.98
393.068	127.18
393.529	139.08
393.991	131.38
394.453	119.78
394.915	117.68
395.377	123.28
395.838	127.18
396.3	124.78
396.762	129.38
397.224	127.28
397.685	119.88
398.147	120.58
398.608	120.58
399.07	120.88
399.531	122.58
399.993	139.98
400.454	146.28
400.916	142.98
401.377	139.38
401.839	138.08
402.3	145.38
402.762	156.18
403.223	166.58
403.684	160.88
404.145	147.28
404.607	155.08
405.068	152.68
405.529	158.88
405.99	174.38
406.451	164.98
406.913	160.38
407.374	156.38
407.835	148.18
408.296	150.38
408.757	166.68
409.218	175.18
409.679	169.38
410.14	168.98
410.601	165.58
411.062	172.88
411.522	171.98
411.983	167.98
412.444	159.48
412.905	168.68
413.366	178.18
413.826	187.28
414.287	218.08
414.748	259.58
415.208	245.08
415.669	211.68
416.13	195.88
416.59	195.38
417.051	213.08
417.511	213.78
417.972	230.78
418.432	240.08
418.893	278.08
419.353	242.48
419.814	190.98
420.274	173.48
420.734	172.88
421.195	188.18
421.655	187.58
422.115	188.58
422.576	180.58
423.036	197.68
423.496	201.88
423.956	215.58
424.416	228.98
424.876	258.58
425.336	250.48
425.797	250.68
426.257	254.98
426.717	229.68
427.177	222.08
427.637	209.68
428.097	220.08
428.556	232.38
429.016	255.58
429.476	253.48
429.936	260.58
430.396	270.48
430.856	284.68
431.315	295.18
431.775	325.78
432.235	363.08
432.694	331.78
433.154	336.88
433.614	369.08
434.073	316.08
434.533	278.08
434.993	255.88
435.452	268.48
435.912	280.58
436.371	273.08
436.83	267.78
437.29	247.68
437.749	235.18
438.209	246.88
438.668	269.18
439.127	275.48
439.587	260.78
440.046	246.58
440.505	251.88
440.964	265.38
441.424	315.88
441.883	309.58
442.342	257.38
442.801	227.28
443.26	226.68
443.719	220.78
444.178	217.18
444.637	216.28
445.096	223.08
445.555	225.08
446.014	228.18
446.473	230.28
446.932	235.68
447.391	230.78
447.849	225.28
448.308	220.18
448.767	228.88
449.226	235.78
449.685	241.78
450.143	252.58
450.602	243.58
451.061	230.88
451.519	228.38
451.978	241.58
452.436	227.48
452.895	234.98
453.353	254.38
453.812	246.38
454.27	235.88
454.729	248.68
455.187	244.38
455.646	240.88
456.104	244.68
456.562	266.88
457.021	271.58
457.479	264.98
457.937	280.98
458.395	266.08
458.854	251.28
459.312	257.98
459.77	276.28
460.228	258.48
460.686	250.68
461.144	255.78
461.602	251.28
462.06	247.18
462.518	261.08
462.976	260.18
463.434	262.18
463.892	259.98
464.35	275.28
464.808	290.08
465.266	269.68
465.724	276.18
466.181	272.08
466.639	278.68
467.097	291.58
467.555	303.88
468.012	303.18
468.47	311.68
468.928	329.78
469.385	344.08
469.843	350.18
470.3	347.88
470.758	372.18
471.215	386.88
471.673	410.78
472.13	409.98
472.588	417.88
473.045	382.98
473.503	384.78
473.96	394.38
474.417	406.38
474.875	435.08
475.332	478.78
475.789	470.98
476.246	476.18
476.704	484.28
477.161	505.68
477.618	516.98
478.075	561.48
478.532	616.48
478.989	666.98
479.446	775.78
479.903	744.58
480.36	783.48
480.817	817.58
481.274	914.48
481.731	1001.98
482.188	1077.18
482.645	1201.88
483.102	1294.98
483.558	1402.28
484.015	1431.88
484.472	1424.18
484.929	1378.18
485.385	1328.88
485.842	1305.18
486.299	1258.98
486.755	1218.68
487.212	1035.68
487.668	881.88
488.125	825.48
488.582	753.18
489.038	738.48
489.494	699.48
489.951	673.78
490.407	668.68
490.864	634.28
491.32	639.98
491.776	633.78
492.233	650.88
492.689	612.78
493.145	611.48
493.602	613.48
494.058	610.78
494.514	614.98
494.97	643.28
495.426	645.68
495.882	629.08
496.338	614.48
496.794	630.38
497.251	623.48
497.707	628.88
498.163	637.48
498.618	647.68
499.074	647.08
499.53	669.08
499.986	665.08
500.442	644.48
500.898	628.08
501.354	626.08
501.809	635.98
502.265	625.28
502.721	639.78
503.177	643.38
503.632	640.58
504.088	654.48
504.543	674.68
504.999	694.68
505.455	663.28
505.91	637.88
506.366	648.88
506.821	646.88
507.277	638.58
507.732	641.88
508.187	635.48
508.643	650.08
509.098	654.18
509.553	674.88
510.009	678.38
510.464	692.38
510.919	713.28
511.375	710.68
511.83	725.68
512.285	743.28
512.74	772.38
513.195	793.98
513.65	771.28
514.105	771.38
514.56	780.18
515.015	797.48
515.47	812.68
515.925	791.18
516.38	792.08
516.835	801.78
517.29	796.78
517.745	788.58
518.2	778.78
518.655	763.98
519.109	761.48
519.564	756.18
520.019	738.78
520.474	740.88
520.928	739.98
521.383	733.88
521.838	729.08
522.292	719.58
522.747	724.98
523.201	730.88
523.656	710.88
524.11	702.78
524.565	707.88
525.019	702.18
525.474	716.58
525.928	707.88
526.382	712.88
526.837	707.98
527.291	708.88
527.745	716.28
528.2	715.98
528.654	710.38
529.108	700.88
529.562	695.68
530.016	711.48
530.47	703.28
530.925	696.88
531.379	701.98
531.833	714.58
532.287	708.98
532.741	710.98
533.195	721.28
533.649	719.78
534.103	728.08
534.556	714.58
535.01	717.88
535.464	722.38
535.918	728.48
536.372	726.78
536.826	728.18
537.279	715.68
537.733	722.38
538.187	723.68
538.64	719.78
539.094	731.48
539.548	746.08
540.001	740.78
540.455	740.58
540.908	747.78
541.362	741.58
541.815	762.18
542.269	772.28
542.722	782.28
543.175	790.58
543.629	792.98
544.082	804.88
544.536	796.48
544.989	804.48
545.442	808.18
545.895	805.38
546.349	800.68
546.802	810.48
547.255	819.48
547.708	826.78
548.161	837.68
548.614	845.48
549.067	844.48
549.52	842.08
549.973	829.48
550.426	831.88
550.879	815.98
551.332	820.88
551.785	835.98
552.238	822.88
552.691	830.98
553.144	845.78
553.596	865.28
554.049	879.88
554.502	911.28
554.955	926.88
555.407	931.58
555.86	917.08
556.313	912.48
556.765	906.98
557.218	900.78
557.67	896.88
558.123	902.58
558.576	886.98
559.028	899.98
559.48	915.38
559.933	893.88
560.385	866.58
560.838	824.78
561.29	806.58
561.742	806.78
562.195	779.28
562.647	780.58
563.099	789.88
563.551	791.88
564.004	802.18
564.456	785.38
564.908	766.08
565.36	758.78
565.812	741.68
566.264	730.98
566.716	722.78
567.168	718.38
567.62	730.08
568.072	708.08
568.524	700.58
568.976	701.78
569.428	692.68
569.88	685.18
570.332	696.88
570.784	696.78
571.235	706.38
571.687	718.58
572.139	716.28
572.59	735.98
573.042	732.08
573.494	734.98
573.945	731.98
574.397	707.08
574.849	711.28
575.3	713.78
575.752	704.28
576.203	694.78
576.655	710.28
577.106	697.78
577.557	685.08
578.009	672.68
578.46	685.28
578.912	676.18
579.363	683.48
579.814	691.48
580.265	674.68
580.717	679.38
581.168	679.88
581.619	692.68
582.07	687.08
582.521	691.18
582.972	682.78
583.423	694.48
583.875	689.98
584.326	696.78
584.777	704.08
585.227	719.88
585.678	740.58
586.129	729.48
586.58	755.48
587.031	777.98
587.482	799.08
587.933	815.58
588.384	805.28
588.834	790.48
589.285	777.78
589.736	780.58
590.186	774.78
590.637	773.58
591.088	754.48
591.538	748.38
591.989	739.68
592.439	743.68
592.89	727.98
593.34	721.48
593.791	714.68
594.241	715.18
594.692	712.48
595.142	708.48
595.593	706.18
596.043	709.28
596.493	712.88
596.943	710.08
597.394	729.18
597.844	734.68
598.294	746.18
598.744	763.78
599.195	806.48
599.645	840.98
600.095	874.98
600.545	939.68
600.995	993.48
601.445	1042.28
601.895	1116.08
602.345	1155.48
602.795	1117.88
603.245	1079.78
603.695	1020.88
604.145	979.68
604.594	932.88
605.044	871.18
605.494	802.88
605.944	760.38
606.393	755.58
606.843	730.18
607.293	738.88
607.743	731.68
608.192	749.58
608.642	760.38
609.091	771.48
609.541	772.78
609.99	764.78
610.44	769.68
610.889	724.08
611.339	697.88
611.788	690.68
612.238	697.28
612.687	708.18
613.136	706.88
613.586	717.28
614.035	705.48
614.484	709.48
614.933	723.58
615.383	704.78
615.832	712.18
616.281	702.28
616.73	668.28
617.179	650.58
617.628	644.98
618.077	632.18
618.526	625.78
618.975	614.28
619.424	627.88
619.873	616.48
620.322	619.28
620.771	615.38
621.22	614.28
621.669	600.18
622.118	597.48
622.567	585.38
623.015	579.58
623.464	569.18
623.913	567.78
624.361	555.48
624.81	560.28
625.259	562.78
625.707	572.08
626.156	555.58
626.604	568.88
627.053	560.68
627.501	564.58
627.95	566.58
628.398	591.38
628.847	579.48
629.295	580.28
629.744	583.48
630.192	576.38
630.64	565.48
631.089	544.08
631.537	544.58
631.985	531.68
632.433	534.38
632.881	524.38
633.33	528.48
633.778	519.78
634.226	525.48
634.674	547.38
635.122	543.48
635.57	552.38
636.018	559.88
636.466	567.08
636.914	563.98
637.362	573.18
637.81	584.18
638.258	579.08
638.705	582.48
639.153	615.48
639.601	628.78
640.049	646.18
640.497	679.08
640.944	694.88
641.392	651.28
641.84	618.68
642.287	588.58
642.735	564.98
643.182	565.08
643.63	563.88
644.078	566.58
644.525	584.08
644.973	584.38
645.42	591.78
645.867	620.58
646.315	635.28
646.762	652.98
647.21	682.28
647.657	696.68
648.104	728.78
648.551	752.08
648.999	817.78
649.446	884.58
649.893	961.48
650.34	1097.38
650.787	1306.08
651.234	1607.18
651.682	2076.08
652.129	2804.68
652.576	3987.38
653.023	5802.98
653.47	7871.18
653.917	9754.68
654.363	11212.58
654.81	12415.48
655.257	11719.58
655.704	7787.48
656.151	4687.38
656.598	3090.18
657.044	2207.38
657.491	1719.98
657.938	1386.58
658.385	1164.48
658.831	1018.28
659.278	929.78
659.724	826.58
660.171	762.38
660.618	706.48
661.064	672.18
661.511	655.58
661.957	637.78
662.404	631.28
662.85	641.78
663.296	624.48
663.743	561.38
664.189	545.88
664.635	526.48
665.082	517.58
665.528	529.38
665.974	521.58
666.42	509.28
666.867	505.48
667.313	489.98
667.759	465.48
668.205	453.08
668.651	454.68
669.097	445.18
669.543	441.88
669.989	444.18
670.435	448.58
670.881	453.18
671.327	455.38
671.773	470.48
672.219	502.58
672.665	547.38
673.11	605.88
673.556	638.98
674.002	678.28
674.448	667.28
674.893	565.78
675.339	481.18
675.785	448.28
676.23	428.38
676.676	399.78
677.122	390.18
677.567	382.88
678.013	375.58
678.458	361.28
678.904	361.18
679.349	354.28
679.794	359.38
680.24	365.48
680.685	354.38
681.131	353.08
681.576	348.58
682.021	364.48
682.466	360.58
682.912	355.68
683.357	351.78
683.802	380.58
684.247	423.28
684.692	468.98
685.137	502.08
685.583	546.78
686.028	570.08
686.473	538.58
686.918	453.28
687.363	425.38
687.807	397.88
688.252	373.88
688.697	358.88
689.142	345.98
689.587	337.88
690.032	336.78
690.477	350.38
690.921	365.88
691.366	381.88
691.811	409.08
692.255	439.38
692.7	465.88
693.145	525.08
693.589	710.58
694.034	1159.08
694.478	1579.58
694.923	1775.38
695.367	2311.38
695.812	1229.68
696.256	511.38
696.701	377.08
697.145	355.68
697.59	341.48
698.034	321.08
698.478	327.38
698.922	328.88
699.367	328.38
699.811	334.48
700.255	362.88
700.699	389.28
701.143	427.18
701.588	483.28
702.032	524.48
702.476	519.98
702.92	504.98
703.364	509.88
703.808	660.38
704.252	1068.98
704.696	1498.38
705.14	1712.88
705.584	2162.18
706.027	1089.08
706.471	534.18
706.915	408.78
707.359	353.88
707.803	325.78
708.246	314.28
708.69	322.78
709.134	316.38
709.577	313.88
710.021	317.28
710.465	308.78
710.908	301.98
711.352	296.68
711.795	318.48
712.239	359.58
712.682	394.68
713.126	419.58
713.569	460.68
714.012	362.08
714.456	307.68
714.899	291.98
715.342	272.18
715.786	270.18
716.229	264.88
716.672	255.08
717.115	255.48
717.558	251.78
718.002	247.68
718.445	267.38
718.888	286.38
719.331	291.58
719.774	311.48
720.217	302.08
720.66	282.68
721.103	271.38
721.546	262.78
721.989	251.48
722.432	233.18
722.874	240.18
723.317	231.28
723.76	242.68
724.203	267.78
724.645	315.98
725.088	440.18
725.531	578.68
725.974	665.98
726.416	556.58
726.859	311.78
727.301	254.58
727.744	236.58
728.187	231.68
728.629	238.08
729.071	247.58
729.514	262.38
729.956	276.98
730.399	288.08
730.841	284.98
731.283	277.58
731.726	269.78
732.168	264.58
732.61	265.98
733.053	294.88
733.495	323.18
733.937	362.68
734.379	413.18
734.821	457.28
735.263	569.48
735.705	859.48
736.148	1635.48
736.59	2663.38
737.032	3142.88
737.474	2539.78
737.916	834.28
738.357	435.68
738.799	336.78
739.241	302.08
739.683	286.78
740.125	299.38
740.567	310.38
741.008	330.48
741.45	319.28
741.892	324.28
742.334	349.68
742.775	367.28
743.217	353.48
743.658	278.58
744.1	260.38
744.542	265.18
744.983	328.38
745.425	360.08
745.866	345.28
746.307	279.78
746.749	281.88
747.19	329.98
747.632	467.88
748.073	921.68
748.514	1937.38
748.956	2925.88
749.397	3676.68
749.838	3061.58
750.279	3036.98
750.72	1547.78
751.162	564.38
751.603	327.88
752.044	260.58
752.485	222.48
752.926	215.08
753.367	207.28
753.808	201.58
754.249	194.48
754.69	188.58
755.131	185.18
755.572	184.28
756.013	179.38
756.453	191.18
756.894	197.88
757.335	190.08
757.776	208.98
758.216	199.68
758.657	203.98
759.098	207.38
759.538	229.68
759.979	269.78
760.42	386.88
760.86	741.08
761.301	1897.98
761.741	4607.48
762.182	6592.28
762.622	4657.58
763.063	1353.98
763.503	553.28
763.943	329.48
764.384	270.68
764.824	231.78
765.264	216.58
765.705	203.78
766.145	181.88
766.585	183.88
767.025	162.28
767.465	164.58
767.906	177.38
768.346	182.28
768.786	198.28
769.226	215.88
769.666	313.88
770.106	638.98
770.546	1619.28
770.986	2717.48
771.426	2409.88
771.866	804.68
772.306	331.88
772.745	216.48
773.185	172.98
773.625	159.88
774.065	152.58
774.505	158.48
774.944	214.78
775.384	357.18
775.824	578.78
776.263	551.78
776.703	273.68
777.142	165.98
777.582	138.88
778.021	120.48
778.461	126.48
778.9	130.08
779.34	126.68
779.779	108.98
780.219	104.88
780.658	107.68
781.097	112.08
781.537	111.38
781.976	106.48
782.415	105.78
782.855	110.48
783.294	102.08
783.733	101.88
784.172	111.38
784.611	102.48
785.05	113.98
785.489	113.58
785.928	111.58
786.367	117.78
786.806	112.08
787.245	134.98
787.684	136.48
788.123	154.78
788.562	143.08
789.001	127.78
789.44	124.78
789.879	119.18
790.317	123.48
790.756	124.28
791.195	129.28
791.634	146.58
792.072	206.58
792.511	377.38
792.95	1045.98
793.388	2172.28
793.827	1939.08
794.265	681.28
794.704	288.48
795.142	183.58
795.581	156.68
796.019	130.18
796.458	130.48
796.896	123.48
797.334	137.78
797.773	158.28
798.211	228.38
798.649	461.18
799.087	1051.08
799.526	1644.68
799.964	2078.68
800.402	2061.48
800.84	787.28
801.278	304.38
801.716	194.78
802.154	156.38
802.592	150.78
803.03	146.48
803.468	136.58
803.906	150.48
804.344	156.98
804.782	146.38
805.22	132.38
805.658	137.38
806.096	153.08
806.533	157.28
806.971	169.98
807.409	221.68
807.847	320.98
808.284	696.18
808.722	1936.28
809.16	3409.18
809.597	3261.98
810.035	5629.28
810.472	5936.48
810.91	2161.28
811.347	822.48
811.785	424.78
812.222	261.18
812.66	201.88
813.097	164.28
813.535	139.28
813.972	126.78
814.409	122.58
814.846	113.98
815.284	116.68
815.721	101.58
816.158	103.38
816.595	121.18
817.032	163.08
817.47	186.18
817.907	141.88
818.344	103.98
818.781	95.58
819.218	100.28
819.655	120.78
820.092	198.08
820.529	217.28
820.966	174.08
821.403	133.38
821.839	97.68
822.276	96.48
822.713	123.88
823.15	136.88
823.587	124.48
824.023	144.18
824.46	320.28
824.897	919.18
825.333	1380.88
825.77	595.58
826.206	233.28
826.643	137.28
827.08	105.68
827.516	83.88
827.953	83.98
828.389	79.68
828.825	76.08
829.262	70.18
829.698	64.18
830.135	66.18
830.571	60.98
831.007	64.48
831.443	68.78
831.88	62.28
832.316	62.38
832.752	67.78
833.188	68.18
833.624	63.28
834.06	68.38
834.497	64.98
834.933	67.58
835.369	69.88
835.805	70.18
836.241	79.68
836.677	81.48
837.112	99.48
837.548	103.88
837.984	138.48
838.42	209.18
838.856	514.98
839.292	1576.08
839.727	2369.68
840.163	1113.68
840.599	967.98
841.034	2086.78
841.47	2171.28
841.906	792.58
842.341	336.38
842.777	202.98
843.212	195.88
843.648	185.58
844.083	113.68
844.519	78.28
844.954	70.18
845.39	61.38
845.825	60.38
846.261	56.18
846.696	54.18
847.131	54.88
847.566	62.98
848.002	55.18
848.437	55.78
848.872	58.28
849.307	63.28
849.742	90.28
850.177	188.38
850.613	573.48
851.048	900.38
851.483	392.58
851.918	155.68
852.353	86.58
852.788	57.88
853.223	49.88
853.657	54.38
854.092	52.48
854.527	41.98
854.962	36.68
855.397	46.18
855.832	50.38
856.266	43.18
856.701	40.48
857.136	37.58
857.57	34.08
858.005	53.58
858.44	56.58
858.874	37.88
859.309	50.78
859.743	39.08
860.178	53.68
860.612	44.58
861.047	47.68
861.481	70.18
861.915	68.38
862.35	52.78
862.784	35.38
863.218	37.78
863.653	38.48
864.087	48.98
864.521	56.18
864.955	70.68
865.39	157.58
865.824	182.18
866.258	121.98
866.692	178.58
867.126	181.98
867.56	109.38
867.994	53.68
868.428	40.88
868.862	38.18
869.296	54.58
869.73	64.98
870.164	57.88
870.598	45.28
871.031	40.28
871.465	32.68
871.899	31.38
872.333	26.48
872.766	27.88
873.2	19.28
873.634	28.28
874.067	29.58
874.501	19.98
874.935	32.68
875.368	32.58
875.802	27.58
876.235	25.18
876.669	25.28
877.102	26.08
877.535	29.48
877.969	25.28
878.402	24.88
878.836	23.08
879.269	24.68
879.702	26.78
880.135	24.48
880.569	18.78
881.002	27.88
881.435	18.38
881.868	17.08
882.301	23.38
882.734	11.88
883.167	17.18
883.601	20.18
884.034	24.08
884.467	16.38
884.899	18.98
885.332	16.68
885.765	12.48
886.198	23.58
886.631	21.58
887.064	21.88
887.497	21.98
887.929	27.68
888.362	17.38
888.795	13.78
889.228	19.58
889.66	24.88
890.093	15.68
890.526	20.08
890.958	15.18
891.391	20.38
891.823	25.98
892.256	13.58
892.688	12.58
893.121	17.78
893.553	19.98
893.985	18.88
894.418	16.88
894.85	13.88
895.282	16.98
895.715	11.68
896.147	20.48
896.579	16.38
897.011	13.48
897.444	17.98
897.876	12.98
898.308	16.28
898.74	14.58
899.172	14.68
899.604	23.78
900.036	19.68
900.468	16.08
900.9	13.58
901.332	16.78
901.764	18.18
902.196	16.38
902.628	22.28
903.06	22.08
903.491	29.98
903.923	20.78
904.355	20.58
904.787	22.98
905.218	31.28
905.65	23.08
906.082	12.58
906.513	9.88
906.945	13.28
907.376	15.98
907.808	21.08
908.239	14.28
908.671	13.38
909.102	18.58
909.534	22.28
909.965	51.98
910.397	95.98
910.828	326.18
911.259	476.88
911.691	220.28
912.122	110.88
912.553	53.38
912.984	34.48
913.415	28.48
913.847	29.08
914.278	15.48
914.709	14.58
915.14	14.08
915.571	13.88
916.002	13.88
916.433	17.38
916.864	17.18
917.295	13.38
917.726	19.18
918.157	6.68
918.587	26.58
919.018	20.88
919.449	17.98
919.88	20.38
920.311	34.58
920.741	51.88
921.172	176.38
921.603	157.18
922.033	72.98
922.464	45.38
922.895	21.88
923.325	18.38
923.756	11.98
924.186	11.68
924.617	17.98
925.047	21.18
925.478	20.98
925.908	20.78
926.338	12.98
926.769	17.88
927.199	16.48
927.629	6.68
928.06	16.68
928.49	14.98
928.92	13.28
929.35	12.88
929.78	8.68
930.21	9.58
930.641	11.98
931.071	5.28
931.501	3.88
931.931	14.88
932.361	12.38
932.791	1.68
933.221	3.98
933.651	11.28
934.08	20.88
934.51	31.38
934.94	9.68
935.37	10.58
935.8	7.28
936.229	13.18
936.659	13.88
937.089	3.08
937.519	17.88
937.948	22.48
938.378	12.58
938.807	6.88
939.237	-2.42
939.666	14.08
940.096	-5.02
940.525	4.38
940.955	5.58
941.384	4.38
941.814	-4.12
942.243	-1.62
942.672	5.58
943.102	2.58
943.531	2.38
943.96	4.38
944.39	3.28
944.819	4.08
945.248	3.38
945.677	-0.12
946.106	10.58
946.535	5.98
946.964	-1.62
947.393	5.18
947.822	1.48
948.251	-2.42
948.68	2.68
949.109	2.18
949.538	5.88
949.967	-1.32
950.396	2.68
950.825	0.78
951.254	0.38
951.682	-6.22
952.111	2.98
952.54	8.28
952.969	2.68
953.397	-4.92
953.826	-4.32
954.254	-9.72
954.683	-4.92
955.112	1.08
955.54	1.98
955.969	-1.42
956.397	-2.82
956.826	-3.72
957.254	3.38
957.682	-3.62
958.111	3.38
958.539	2.08
958.967	-3.62
959.396	-0.52
959.824	-1.72
960.252	3.88
960.68	-6.02
961.109	-3.32
961.537	-3.42
961.965	8.88
962.393	3.88
962.821	-2.42
963.249	4.48
963.677	9.98
964.105	3.38
964.533	44.08
964.961	36.98
965.389	23.28
965.817	12.38
966.245	-0.02
966.672	-2.32
967.1	-3.12
967.528	2.18
967.956	-4.12
968.383	3.78
968.811	-1.02
969.239	1.78
969.666	-3.12
970.094	-3.92
970.522	-2.02
970.949	-4.22
971.377	-9.72
971.804	-8.62
972.232	-4.22
972.659	2.58
973.087	-3.72
973.514	-0.62
973.941	1.08
974.369	11.78
974.796	2.58
975.223	1.28
975.651	-2.42
976.078	4.88
976.505	1.78
976.932	2.28
977.359	17.58
977.786	12.58
978.214	2.08
978.641	-0.02
979.068	-0.92
979.495	-8.42
979.922	-2.02
980.349	-6.72
980.776	8.68
981.202	-2.22
981.629	2.48
982.056	11.28
982.483	1.38
982.91	-1.02
983.337	-6.32
983.763	0.28
984.19	-6.32
984.617	-1.22
985.043	-12.92
985.47	1.38
985.897	-6.52
986.323	-8.22
986.75	-0.02
987.176	4.18
987.603	0.68
988.029	0.38
988.456	-5.02
988.882	0.48
989.308	-8.62
989.735	-8.02
990.161	1.08
990.587	1.98
991.014	-3.62
991.44	5.08
991.866	-2.42
992.292	-3.02
992.719	1.58
993.145	4.78
993.571	-10.22
993.997	-7.22
994.423	1.28
994.849	-2.12
995.275	1.48
995.701	0.18
996.127	1.38
996.553	1.58
996.979	-2.02
997.405	-1.72
997.83	-4.12
998.256	-8.82
998.682	-3.32
999.108	-6.32
999.534	-3.42
999.959	1.58
1000.385	-6.52
1000.811	0.18
1001.236	-5.82
1001.662	-6.92
1002.087	-8.52
1002.513	1.78
1002.938	2.78
1003.364	-3.32
1003.789	0.88
1004.215	6.78
1004.64	-1.32
1005.066	4.38
1005.491	1.58
1005.916	-2.92
1006.342	-2.32
1006.767	-2.12
1007.192	6.78
1007.617	-2.52
1008.042	-1.12
1008.468	-4.02
1008.893	1.78
1009.318	-2.82
1009.743	-1.02
1010.168	3.28
1010.593	1.78
1011.018	-3.22
1011.443	-1.82
1011.868	1.68
1012.293	-2.72
1012.718	-7.32
1013.143	2.08
1013.567	1.28
1013.992	-1.32
1014.417	-8.42
1014.842	1.78
1015.267	-2.62
1015.691	-1.02
1016.116	8.18
1016.541	-0.42
1016.965	4.28
1017.39	7.88
1017.814	-0.82
1018.239	2.58
1018.663	-5.92
1019.088	-7.52
1019.512	1.38
1019.937	-3.32
1020.361	-4.02
1020.785	-13.52
1021.21	-2.52
1021.634	-2.52
1022.058	2.28
1022.483	10.38
1022.907	-4.52
1023.331	-1.92
1023.755	-1.12
1024.179	-3.72
1024.604	-6.42
1025.028	-6.12
1025.452	-3.42
1025.876	0.18
1026.3	-4.02
1026.724	-10.32
1027.148	-3.12
1027.572	-9.92
1027.996	-3.52
1028.42	0.28
1028.843	-3.12
1029.267	-6.12
1029.691	0.58
1030.115	-8.52
1030.539	-8.22
1030.962	-13.22
1031.386	-11.12
1031.81	2.08
1032.233	-2.12
1032.657	-2.82
1033.08	-3.42
1033.504	-4.52
1033.927	-2.02
1034.351	0.48
1034.774	-9.02
1035.198	-0.62
1035.621	-3.62
1036.045	-3.62
1036.468	3.58
1036.891	-5.52
1037.315	-9.82
1037.738	-7.42
1038.161	3.38
1038.584	-6.12
1039.008	-5.42
1039.431	-4.62
1039.854	-4.72
1040.277	-4.72
1040.7	-6.12
1041.123	1.88
1041.546	-8.22
1041.969	-6.42
1042.392	-4.72
1042.815	-1.02
1043.238	1.38
1043.661	3.38
1044.084	-6.12
1044.507	-0.52
1044.93	-9.82
1045.352	-1.72
1045.775	5.38
1046.198	-2.22
1046.621	1.78
1047.043	0.08
1047.466	4.78
1047.889	-3.62
1048.311	-7.22
1048.734	-1.72
1049.156	-2.82
1049.579	-1.52
1050.001	-0.52
1050.424	0.28
1050.846	-4.32
1051.269	-2.82
1051.691	-8.82
1052.113	-5.02
1052.536	-0.52
1052.958	-0.02
1053.38	-4.02
1053.802	-10.92
1054.225	1.38
1054.647	-0.32
1055.069	-6.12
1055.491	1.48
1055.913	-2.82
1056.335	-1.12
1056.757	-7.32
1057.179	-8.02
1057.601	-3.62
1058.023	-4.12
1058.445	-8.62
1058.867	0.08
1059.289	-5.02
1059.711	-2.52
1060.133	-3.22
1060.555	-4.02
1060.976	-7.52
1061.398	-3.42
1061.82	-7.02
1062.241	-6.52
1062.663	-8.12
1063.085	-2.32
1063.506	-4.22
1063.928	-2.12
1064.35	-3.02
1064.771	-14.32
1065.193	-3.22
1065.614	-8.02
1066.035	-4.62
1066.457	1.28
1066.878	-1.02
1067.3	-4.72
1067.721	-2.82
1068.142	-5.12
1068.564	-2.22
1068.985	-4.22
1069.406	-6.92
1069.827	-4.02
1070.248	0.28
1070.67	-8.12
1071.091	-0.62
1071.512	-6.62
1071.933	-4.42
1072.354	-6.22
1072.775	-8.22
1073.196	-8.72
1073.617	-4.42
1074.038	-2.82
1074.459	-2.92
1074.88	-11.52
1075.3	0.28
1075.721	-6.82
1076.142	0.68
1076.563	-2.02
1076.983	-10.22
1077.404	-6.12
1077.825	-11.42
1078.246	-2.22
1078.666	-9.92
1079.087	-1.72
1079.507	-1.92
1079.928	2.58
1080.348	-0.52
1080.769	-8.02
1081.189	2.78
1081.61	-7.72
1082.03	-4.82
1082.451	-5.12
1082.871	-1.12
1083.291	-8.42
1083.711	-5.02
1084.132	-3.82
1084.552	-9.92
1084.972	-5.02
1085.392	-13.12
1085.813	-8.52
1086.233	-4.02
1086.653	-4.42
1087.073	-2.72
1087.493	-7.52
1087.913	-6.92
1088.333	-7.42
1088.753	-1.42
1089.173	-0.62
1089.593	-0.22
1090.013	2.68
1090.433	2.08
1090.852	-1.92
1091.272	-2.62
1091.692	-3.52
1092.112	-6.02
1092.531	-11.22
1092.951	-14.22
1093.371	-9.12
1093.79	3.28
1094.21	-2.22
1094.63	-2.72
1095.049	0.68
1095.469	1.58
1095.888	-3.52
1096.308	-2.02
1096.727	0.28
1097.146	-2.62
1097.566	1.68
1097.985	-3.92
1098.405	-0.92
1098.824	-8.02
1099.243	-5.82
1099.662	-7.72
1100.082	-0.12
1100.501	-0.12
1100.92	-6.32
1101.339	-4.42
1101.758	-6.62
