Data from 20171114-ORNL-Ar_H_NY_Subt18_08-07-46-994.txt Node
Date: Tue Nov 14 08:07:46 EST 2017
User: Ender
Spectrometer: HR+D1039
Trigger mode: 0
Integration Time (sec): 2.730000E-2
Scans to average: 10
Electric dark correction enabled: true
Nonlinearity correction enabled: false
Boxcar width: 0
XAxis mode: Wavelengths
Number of Pixels in Spectrum: 2048
>>>>>Begin Spectral Data<<<<<
187.836	-6.72
188.309	-6.72
188.782	-6.72
189.255	2.18
189.728	-2.82
190.201	7.88
190.674	1.78
191.147	1.98
191.619	-4.42
192.092	1.78
192.565	4.88
193.038	0.38
193.511	3.18
193.984	-1.22
194.456	0.28
194.929	-0.42
195.402	-2.72
195.874	-6.02
196.347	-1.52
196.82	-8.52
197.292	2.38
197.765	3.68
198.237	-7.02
198.71	3.28
199.182	-2.82
199.655	3.78
200.127	2.58
200.6	-3.72
201.072	-3.22
201.544	2.78
202.017	-2.22
202.489	2.78
202.961	-1.72
203.433	-2.82
203.906	0.78
204.378	-7.82
204.85	-3.22
205.322	-8.32
205.794	-1.72
206.266	-3.32
206.739	-10.42
207.211	2.88
207.683	-7.92
208.155	-4.12
208.627	-4.92
209.099	1.18
209.57	-8.32
210.042	-4.42
210.514	-8.52
210.986	-0.42
211.458	-7.02
211.93	-8.02
212.402	-0.12
212.873	-8.22
213.345	-8.82
213.817	-10.82
214.288	4.38
214.76	-8.12
215.232	-4.42
215.703	-5.42
216.175	-7.52
216.646	-0.62
217.118	-9.02
217.589	-1.72
218.061	-0.72
218.532	-3.52
219.004	2.18
219.475	-3.82
219.946	-6.22
220.418	-2.42
220.889	-2.22
221.36	0.48
221.832	-0.02
222.303	-6.22
222.774	0.58
223.245	-6.62
223.717	-8.22
224.188	-10.02
224.659	-6.52
225.13	1.38
225.601	-3.32
226.072	4.78
226.543	0.88
227.014	-2.52
227.485	-3.92
227.956	-8.62
228.427	-2.92
228.898	1.68
229.369	7.08
229.839	-1.72
230.31	-2.02
230.781	1.88
231.252	-0.92
231.722	-3.12
232.193	-0.42
232.664	-2.82
233.135	3.18
233.605	1.58
234.076	-12.72
234.546	2.68
235.017	-0.72
235.487	0.18
235.958	-2.22
236.428	-1.52
236.899	-0.22
237.369	-2.02
237.84	-0.72
238.31	2.88
238.78	7.28
239.251	-4.62
239.721	3.18
240.191	-4.62
240.662	-4.82
241.132	-4.42
241.602	-2.42
242.072	2.18
242.542	10.58
243.013	-1.42
243.483	8.38
243.953	4.18
244.423	-1.42
244.893	-5.82
245.363	3.98
245.833	2.28
246.303	5.98
246.773	7.18
247.243	6.88
247.712	-0.32
248.182	8.08
248.652	8.48
249.122	-3.22
249.592	6.78
250.061	23.88
250.531	29.48
251.001	13.28
251.471	11.98
251.94	13.58
252.41	4.08
252.879	-0.62
253.349	11.58
253.818	12.58
254.288	4.28
254.757	-1.02
255.227	-3.92
255.696	4.28
256.166	-0.32
256.635	10.78
257.105	6.38
257.574	10.58
258.043	10.08
258.513	11.28
258.982	11.38
259.451	-0.32
259.92	16.68
260.389	10.28
260.859	13.88
261.328	5.18
261.797	15.68
262.266	5.38
262.735	9.38
263.204	6.38
263.673	-0.62
264.142	11.08
264.611	-6.82
265.08	3.98
265.549	0.38
266.018	4.58
266.487	-1.02
266.955	-1.12
267.424	-2.32
267.893	2.18
268.362	-1.32
268.83	0.18
269.299	13.88
269.768	7.18
270.236	8.48
270.705	4.98
271.174	6.48
271.642	7.28
272.111	8.38
272.579	11.78
273.048	15.88
273.516	22.28
273.985	20.58
274.453	19.38
274.922	17.08
275.39	11.68
275.858	2.48
276.327	5.18
276.795	17.48
277.263	12.88
277.731	27.48
278.2	47.68
278.668	53.38
279.136	44.88
279.604	12.48
280.072	15.88
280.54	8.28
281.008	10.38
281.477	5.98
281.945	11.28
282.413	10.28
282.881	13.08
283.348	3.58
283.816	16.68
284.284	9.78
284.752	17.38
285.22	18.48
285.688	15.18
286.156	25.08
286.623	43.08
287.091	46.68
287.559	25.98
288.026	18.38
288.494	16.48
288.962	2.58
289.429	8.78
289.897	10.68
290.364	14.28
290.832	12.98
291.3	14.08
291.767	14.98
292.234	16.98
292.702	18.98
293.169	18.48
293.637	21.08
294.104	19.48
294.571	9.28
295.039	9.58
295.506	11.98
295.973	13.78
296.44	16.18
296.908	19.88
297.375	17.28
297.842	17.58
298.309	12.18
298.776	10.78
299.243	23.58
299.71	14.88
300.177	18.18
300.644	22.88
301.111	23.08
301.578	22.88
302.045	18.18
302.512	19.88
302.979	20.78
303.446	18.38
303.913	17.18
304.379	11.18
304.846	29.28
305.313	22.28
305.78	22.38
306.246	27.48
306.713	25.08
307.18	24.48
307.646	22.18
308.113	26.18
308.579	15.48
309.046	22.98
309.512	28.38
309.979	17.58
310.445	23.88
310.912	28.88
311.378	33.58
311.845	19.88
312.311	29.28
312.777	29.28
313.244	27.58
313.71	36.48
314.176	24.98
314.642	23.98
315.109	24.98
315.575	31.48
316.041	30.98
316.507	29.38
316.973	33.18
317.439	32.08
317.905	32.68
318.371	27.18
318.837	30.98
319.303	26.88
319.769	34.98
320.235	26.18
320.701	36.98
321.167	28.98
321.633	33.88
322.099	32.38
322.564	39.58
323.03	34.58
323.496	27.08
323.962	36.88
324.427	28.88
324.893	43.08
325.359	27.88
325.824	38.58
326.29	29.58
326.755	37.08
327.221	36.98
327.686	30.68
328.152	46.08
328.617	43.28
329.083	44.08
329.548	47.78
330.014	48.78
330.479	35.18
330.944	41.28
331.41	41.48
331.875	37.78
332.34	34.58
332.805	39.98
333.271	44.88
333.736	41.98
334.201	53.18
334.666	50.28
335.131	57.78
335.596	50.28
336.061	43.28
336.526	31.58
336.991	42.88
337.456	53.78
337.921	48.58
338.386	45.18
338.851	40.18
339.316	43.68
339.781	43.58
340.246	53.18
340.711	44.48
341.175	43.28
341.64	42.28
342.105	47.48
342.569	52.48
343.034	53.48
343.499	55.18
343.963	49.68
344.428	59.08
344.893	56.58
345.357	53.48
345.822	56.58
346.286	60.48
346.751	72.18
347.215	63.98
347.679	68.88
348.144	87.78
348.608	79.18
349.073	60.88
349.537	64.58
350.001	76.08
350.465	80.98
350.93	73.08
351.394	74.48
351.858	69.68
352.322	80.38
352.786	83.08
353.25	93.48
353.715	104.38
354.179	97.68
354.643	115.18
355.107	117.18
355.571	100.38
356.035	99.08
356.498	107.68
356.962	116.18
357.426	120.08
357.89	109.38
358.354	82.38
358.818	79.58
359.281	70.78
359.745	72.78
360.209	73.28
360.673	73.58
361.136	75.48
361.6	78.38
362.064	83.08
362.527	77.58
362.991	89.88
363.454	73.68
363.918	71.58
364.381	73.28
364.845	82.98
365.308	79.18
365.772	84.28
366.235	78.68
366.698	79.98
367.162	81.08
367.625	79.58
368.088	80.88
368.552	85.28
369.015	85.18
369.478	96.18
369.941	96.28
370.404	87.48
370.867	102.48
371.331	103.68
371.794	108.58
372.257	105.48
372.72	109.98
373.183	99.38
373.646	93.08
374.109	94.88
374.572	96.78
375.035	107.18
375.497	105.98
375.96	99.98
376.423	98.88
376.886	107.38
377.349	111.08
377.811	98.08
378.274	105.48
378.737	98.28
379.199	107.18
379.662	106.78
380.125	118.88
380.587	106.18
381.05	117.08
381.512	120.68
381.975	130.68
382.437	125.38
382.9	119.98
383.362	129.68
383.825	135.48
384.287	143.38
384.75	134.18
385.212	137.08
385.674	134.88
386.136	123.28
386.599	121.38
387.061	115.08
387.523	127.28
387.985	134.18
388.447	142.98
388.91	136.78
389.372	145.98
389.834	146.28
390.296	139.18
390.758	143.98
391.22	158.68
391.682	206.28
392.144	281.78
392.606	219.68
393.068	158.98
393.529	162.78
393.991	154.78
394.453	137.28
394.915	148.28
395.377	181.48
395.838	206.98
396.3	148.58
396.762	136.58
397.224	127.18
397.685	127.98
398.147	123.28
398.608	129.18
399.07	124.38
399.531	131.88
399.993	137.98
400.454	145.38
400.916	141.38
401.377	136.48
401.839	145.68
402.3	149.58
402.762	162.48
403.223	170.78
403.684	163.88
404.145	151.08
404.607	152.58
405.068	161.48
405.529	167.98
405.99	178.28
406.451	173.28
406.913	168.68
407.374	161.18
407.835	158.08
408.296	159.68
408.757	169.68
409.218	188.08
409.679	172.08
410.14	171.28
410.601	174.28
411.062	181.68
411.522	183.88
411.983	191.58
412.444	163.78
412.905	176.58
413.366	178.28
413.826	186.08
414.287	211.98
414.748	252.88
415.208	237.78
415.669	207.48
416.13	205.18
416.59	197.58
417.051	210.08
417.511	215.98
417.972	232.08
418.432	240.58
418.893	278.88
419.353	243.28
419.814	195.18
420.274	176.58
420.734	179.88
421.195	195.78
421.655	192.98
422.115	191.88
422.576	189.58
423.036	184.88
423.496	207.28
423.956	214.28
424.416	223.98
424.876	258.38
425.336	256.08
425.797	255.58
426.257	254.28
426.717	243.08
427.177	233.78
427.637	223.38
428.097	232.78
428.556	235.18
429.016	263.28
429.476	259.68
429.936	269.18
430.396	269.48
430.856	293.08
431.315	305.48
431.775	347.08
432.235	365.38
432.694	342.18
433.154	358.08
433.614	383.88
434.073	329.48
434.533	280.68
434.993	257.88
435.452	280.28
435.912	294.18
436.371	279.68
436.83	282.08
437.29	267.68
437.749	248.08
438.209	240.28
438.668	272.78
439.127	282.08
439.587	255.78
440.046	255.58
440.505	254.18
440.964	267.18
441.424	315.68
441.883	304.38
442.342	249.48
442.801	224.18
443.26	214.38
443.719	222.28
444.178	220.18
444.637	207.38
445.096	217.08
445.555	215.78
446.014	221.28
446.473	221.98
446.932	228.48
447.391	228.88
447.849	224.08
448.308	215.88
448.767	215.28
449.226	235.18
449.685	230.58
450.143	237.18
450.602	233.18
451.061	225.98
451.519	233.38
451.978	228.28
452.436	237.78
452.895	231.88
453.353	247.58
453.812	229.98
454.27	237.08
454.729	233.18
455.187	233.38
455.646	245.18
456.104	238.78
456.562	259.18
457.021	260.28
457.479	263.38
457.937	273.18
458.395	255.28
458.854	248.38
459.312	254.18
459.77	269.68
460.228	247.58
460.686	240.58
461.144	239.58
461.602	240.78
462.06	239.98
462.518	251.28
462.976	257.58
463.434	255.58
463.892	256.98
464.35	272.98
464.808	292.48
465.266	254.18
465.724	262.48
466.181	265.88
466.639	270.18
467.097	291.88
467.555	304.18
468.012	299.38
468.47	300.18
468.928	320.28
469.385	335.88
469.843	349.88
470.3	342.88
470.758	351.68
471.215	379.98
471.673	402.48
472.13	400.38
472.588	412.48
473.045	371.58
473.503	373.48
473.96	391.38
474.417	398.28
474.875	427.88
475.332	467.98
475.789	465.98
476.246	455.78
476.704	478.88
477.161	495.18
477.618	513.88
478.075	562.58
478.532	606.08
478.989	675.18
479.446	795.78
479.903	767.58
480.36	787.18
480.817	843.68
481.274	945.18
481.731	1041.28
482.188	1139.68
482.645	1258.58
483.102	1358.68
483.558	1499.68
484.015	1551.68
484.472	1521.78
484.929	1491.38
485.385	1423.48
485.842	1388.08
486.299	1329.88
486.755	1266.08
487.212	1070.58
487.668	911.18
488.125	839.68
488.582	766.18
489.038	728.88
489.494	692.08
489.951	664.68
490.407	652.28
490.864	625.08
491.32	634.18
491.776	627.68
492.233	639.08
492.689	596.18
493.145	597.48
493.602	591.58
494.058	608.18
494.514	603.38
494.97	617.68
495.426	641.88
495.882	606.68
496.338	603.88
496.794	619.38
497.251	601.08
497.707	625.58
498.163	622.88
498.618	628.18
499.074	632.28
499.53	661.68
499.986	662.08
500.442	641.78
500.898	616.28
501.354	619.58
501.809	624.08
502.265	621.78
502.721	652.48
503.177	659.68
503.632	650.68
504.088	656.98
504.543	696.38
504.999	690.88
505.455	641.48
505.91	613.58
506.366	621.78
506.821	615.78
507.277	616.18
507.732	620.08
508.187	614.28
508.643	633.48
509.098	624.98
509.553	641.18
510.009	652.98
510.464	654.28
510.919	682.08
511.375	675.18
511.83	694.18
512.285	710.48
512.74	754.78
513.195	780.38
513.65	770.28
514.105	754.08
514.56	755.58
515.015	780.08
515.47	795.58
515.925	780.08
516.38	775.68
516.835	779.68
517.29	773.58
517.745	774.68
518.2	755.18
518.655	738.48
519.109	728.18
519.564	714.78
520.019	714.98
520.474	718.58
520.928	721.58
521.383	711.28
521.838	697.58
522.292	696.58
522.747	699.38
523.201	684.88
523.656	685.98
524.11	686.38
524.565	690.88
525.019	688.78
525.474	699.08
525.928	690.78
526.382	683.38
526.837	688.08
527.291	687.48
527.745	682.48
528.2	684.98
528.654	672.28
529.108	682.18
529.562	680.68
530.016	685.18
530.47	681.58
530.925	681.88
531.379	689.48
531.833	695.98
532.287	689.78
532.741	683.98
533.195	689.98
533.649	699.38
534.103	705.88
534.556	689.68
535.01	695.68
535.464	700.28
535.918	702.58
536.372	708.48
536.826	702.58
537.279	692.68
537.733	696.68
538.187	696.28
538.64	704.88
539.094	717.08
539.548	721.08
540.001	713.48
540.455	708.88
540.908	713.48
541.362	729.58
541.815	738.78
542.269	754.98
542.722	753.28
543.175	776.08
543.629	751.48
544.082	770.78
544.536	781.38
544.989	774.48
545.442	781.58
545.895	774.38
546.349	776.38
546.802	786.78
547.255	784.28
547.708	791.68
548.161	813.98
548.614	813.28
549.067	819.18
549.52	812.98
549.973	799.88
550.426	800.88
550.879	784.48
551.332	791.58
551.785	790.58
552.238	799.78
552.691	817.68
553.144	822.78
553.596	836.08
554.049	849.98
554.502	883.48
554.955	897.58
555.407	902.28
555.86	889.68
556.313	882.38
556.765	876.48
557.218	874.28
557.67	868.68
558.123	862.78
558.576	862.18
559.028	868.68
559.48	872.48
559.933	855.38
560.385	830.38
560.838	801.28
561.29	780.78
561.742	778.88
562.195	757.08
562.647	761.08
563.099	766.38
563.551	768.38
564.004	773.18
564.456	764.98
564.908	755.28
565.36	745.88
565.812	731.58
566.264	720.68
566.716	712.98
567.168	705.18
567.62	708.18
568.072	700.08
568.524	690.18
568.976	676.48
569.428	670.78
569.88	669.88
570.332	672.48
570.784	678.78
571.235	669.78
571.687	693.58
572.139	694.98
572.59	710.88
573.042	704.08
573.494	703.68
573.945	705.58
574.397	673.88
574.849	688.58
575.3	685.28
575.752	681.28
576.203	672.98
576.655	673.88
577.106	665.28
577.557	674.78
578.009	664.78
578.46	668.78
578.912	662.38
579.363	656.48
579.814	667.38
580.265	658.88
580.717	672.68
581.168	664.28
581.619	669.98
582.07	675.08
582.521	674.58
582.972	670.78
583.423	671.58
583.875	688.58
584.326	693.88
584.777	741.28
585.227	808.98
585.678	892.18
586.129	984.48
586.58	1046.78
587.031	1132.58
587.482	1257.88
587.933	1432.48
588.384	1260.18
588.834	955.58
589.285	806.18
589.736	776.08
590.186	775.58
590.637	753.58
591.088	744.78
591.538	732.58
591.989	736.08
592.439	735.78
592.89	721.78
593.34	707.28
593.791	709.48
594.241	705.48
594.692	706.48
595.142	700.58
595.593	702.08
596.043	697.98
596.493	705.88
596.943	707.88
597.394	714.28
597.844	714.88
598.294	728.98
598.744	746.78
599.195	773.08
599.645	814.88
600.095	858.78
600.545	913.08
600.995	964.18
601.445	1027.68
601.895	1077.18
602.345	1135.28
602.795	1105.08
603.245	1055.98
603.695	1016.68
604.145	953.68
604.594	909.58
605.044	848.38
605.494	790.28
605.944	745.18
606.393	749.28
606.843	720.48
607.293	728.48
607.743	722.48
608.192	749.18
608.642	754.78
609.091	761.98
609.541	760.78
609.99	767.78
610.44	759.38
610.889	715.48
611.339	702.08
611.788	681.78
612.238	700.58
612.687	708.78
613.136	706.58
613.586	735.18
614.035	732.28
614.484	751.58
614.933	751.38
615.383	745.38
615.832	733.68
616.281	728.38
616.73	691.78
617.179	662.78
617.628	646.18
618.077	628.58
618.526	618.88
618.975	619.18
619.424	614.18
619.873	605.78
620.322	619.68
620.771	610.88
621.22	598.48
621.669	591.68
622.118	587.48
622.567	565.68
623.015	561.58
623.464	565.28
623.913	553.38
624.361	558.38
624.81	547.48
625.259	549.88
625.707	557.18
626.156	558.78
626.604	563.38
627.053	556.48
627.501	562.28
627.95	561.98
628.398	582.58
628.847	570.28
629.295	570.38
629.744	575.08
630.192	569.08
630.64	566.38
631.089	567.58
631.537	569.28
631.985	582.08
632.433	592.28
632.881	596.08
633.33	650.68
633.778	634.28
634.226	565.78
634.674	563.18
635.122	577.68
635.57	592.08
636.018	621.28
636.466	579.38
636.914	553.68
637.362	570.58
637.81	571.78
638.258	578.28
638.705	578.28
639.153	602.48
639.601	613.88
640.049	629.08
640.497	664.98
640.944	688.48
641.392	647.88
641.84	607.48
642.287	586.48
642.735	569.28
643.182	567.88
643.63	571.98
644.078	571.18
644.525	586.18
644.973	594.68
645.42	599.38
645.867	614.88
646.315	640.28
646.762	659.08
647.21	696.08
647.657	707.58
648.104	738.18
648.551	773.98
648.999	828.58
649.446	919.78
649.893	1007.38
650.34	1169.18
650.787	1386.98
651.234	1723.98
651.682	2270.88
652.129	3124.88
652.576	4445.18
653.023	6538.18
653.47	8950.08
653.917	11118.18
654.363	12757.78
654.81	14058.68
655.257	13361.38
655.704	8776.78
656.151	5200.88
656.598	3359.88
657.044	2387.88
657.491	1828.58
657.938	1478.28
658.385	1233.68
658.831	1069.68
659.278	954.48
659.724	851.78
660.171	777.08
660.618	714.98
661.064	687.28
661.511	667.68
661.957	649.58
662.404	640.88
662.85	650.48
663.296	624.28
663.743	550.28
664.189	534.98
664.635	533.98
665.082	526.18
665.528	535.98
665.974	524.88
666.42	509.68
666.867	504.28
667.313	492.68
667.759	473.78
668.205	473.78
668.651	484.68
669.097	475.38
669.543	493.18
669.989	461.78
670.435	451.28
670.881	445.28
671.327	449.58
671.773	470.18
672.219	494.08
672.665	549.08
673.11	581.48
673.556	635.98
674.002	670.98
674.448	660.38
674.893	538.98
675.339	475.38
675.785	438.18
676.23	421.38
676.676	388.88
677.122	377.08
677.567	385.58
678.013	364.28
678.458	366.58
678.904	355.98
679.349	345.68
679.794	358.58
680.24	348.38
680.685	355.48
681.131	345.98
681.576	346.88
682.021	356.78
682.466	345.58
682.912	336.68
683.357	362.28
683.802	382.88
684.247	414.38
684.692	455.98
685.137	491.78
685.583	526.08
686.028	557.88
686.473	513.18
686.918	440.08
687.363	418.18
687.807	386.28
688.252	366.58
688.697	354.58
689.142	342.88
689.587	331.18
690.032	331.48
690.477	337.28
690.921	349.68
691.366	382.68
691.811	399.18
692.255	423.88
692.7	458.18
693.145	504.18
693.589	705.68
694.034	1155.68
694.478	1544.48
694.923	1720.18
695.367	2242.68
695.812	1166.58
696.256	506.08
696.701	373.48
697.145	342.78
697.59	329.68
698.034	317.38
698.478	333.88
698.922	322.68
699.367	324.58
699.811	339.68
700.255	350.98
700.699	379.88
701.143	427.68
701.588	484.18
702.032	515.08
702.476	511.38
702.92	480.48
703.364	488.98
703.808	642.18
704.252	1044.08
704.696	1453.68
705.14	1650.38
705.584	2110.98
706.027	1054.88
706.471	516.88
706.915	394.68
707.359	354.18
707.803	311.08
708.246	313.28
708.69	320.18
709.134	319.58
709.577	317.98
710.021	317.58
710.465	306.38
710.908	299.48
711.352	305.88
711.795	311.38
712.239	356.08
712.682	382.88
713.126	410.38
713.569	463.48
714.012	363.58
714.456	317.48
714.899	292.08
715.342	270.48
715.786	257.98
716.229	261.68
716.672	255.98
717.115	247.38
717.558	253.68
718.002	246.98
718.445	258.78
718.888	279.68
719.331	300.28
719.774	304.88
720.217	300.18
720.66	283.48
721.103	264.38
721.546	254.28
721.989	247.08
722.432	233.78
722.874	236.68
723.317	228.68
723.76	233.48
724.203	256.68
724.645	320.48
725.088	448.28
725.531	572.68
725.974	646.88
726.416	550.68
726.859	307.58
727.301	253.18
727.744	239.48
728.187	239.98
728.629	235.08
729.071	242.68
729.514	260.18
729.956	273.78
730.399	288.28
730.841	287.28
731.283	276.28
731.726	262.78
732.168	262.38
732.61	256.88
733.053	280.48
733.495	309.18
733.937	353.28
734.379	404.38
734.821	438.48
735.263	550.08
735.705	850.88
736.148	1612.18
736.59	2588.78
737.032	3021.98
737.474	2449.18
737.916	810.98
738.357	433.98
738.799	327.18
739.241	299.18
739.683	283.98
740.125	291.28
740.567	294.38
741.008	316.98
741.45	308.88
741.892	315.88
742.334	344.68
742.775	357.98
743.217	337.28
743.658	267.48
744.1	258.18
744.542	273.98
744.983	313.78
745.425	341.28
745.866	345.28
746.307	284.48
746.749	280.68
747.19	336.18
747.632	468.18
748.073	905.08
748.514	1883.68
748.956	2835.48
749.397	3590.08
749.838	2942.18
750.279	2930.08
750.72	1486.38
751.162	543.38
751.603	315.38
752.044	252.88
752.485	213.48
752.926	210.28
753.367	200.48
753.808	195.38
754.249	190.28
754.69	182.98
755.131	180.58
755.572	181.58
756.013	183.58
756.453	184.48
756.894	187.48
757.335	191.68
757.776	200.48
758.216	195.98
758.657	196.68
759.098	200.88
759.538	222.28
759.979	268.18
760.42	372.78
760.86	734.38
761.301	1868.28
761.741	4451.18
762.182	6311.48
762.622	4448.18
763.063	1308.48
763.503	534.58
763.943	351.48
764.384	329.98
764.824	398.08
765.264	418.18
765.705	296.68
766.145	203.08
766.585	186.58
767.025	178.78
767.465	188.18
767.906	244.38
768.346	308.88
768.786	325.98
769.226	259.28
769.666	321.18
770.106	632.48
770.546	1590.48
770.986	2626.28
771.426	2316.78
771.866	782.88
772.306	328.38
772.745	208.58
773.185	176.88
773.625	166.68
774.065	163.28
774.505	195.98
774.944	306.78
775.384	652.58
775.824	1158.08
776.263	1110.18
776.703	483.18
777.142	213.68
777.582	152.68
778.021	135.18
778.461	137.18
778.9	136.38
779.34	125.28
779.779	111.88
780.219	110.58
780.658	109.58
781.097	113.58
781.537	110.48
781.976	110.58
782.415	109.08
782.855	99.18
783.294	101.78
783.733	109.38
784.172	115.58
784.611	103.78
785.05	108.08
785.489	114.68
785.928	114.98
786.367	120.38
786.806	122.18
787.245	132.38
787.684	134.78
788.123	150.98
788.562	136.68
789.001	126.08
789.44	121.78
789.879	120.08
790.317	123.08
790.756	127.58
791.195	128.68
791.634	149.78
792.072	204.08
792.511	370.68
792.95	1027.98
793.388	2121.08
793.827	1885.98
794.265	672.98
794.704	284.68
795.142	184.88
795.581	152.88
796.019	126.18
796.458	131.38
796.896	123.28
797.334	134.38
797.773	156.18
798.211	226.28
798.649	448.58
799.087	1039.98
799.526	1593.28
799.964	2003.38
800.402	1986.38
800.84	750.18
801.278	302.48
801.716	184.98
802.154	156.08
802.592	147.78
803.03	144.48
803.468	134.68
803.906	145.18
804.344	144.68
804.782	143.68
805.22	133.68
805.658	126.38
806.096	148.68
806.533	160.58
806.971	178.48
807.409	219.48
807.847	319.78
808.284	689.18
808.722	1893.38
809.16	3279.78
809.597	3160.98
810.035	5437.18
810.472	5654.18
810.91	2057.18
811.347	798.58
811.785	398.28
812.222	259.68
812.66	194.68
813.097	171.28
813.535	140.98
813.972	131.28
814.409	117.28
814.846	112.18
815.284	108.38
815.721	109.58
816.158	107.38
816.595	116.38
817.032	175.08
817.47	190.18
817.907	162.78
818.344	145.48
818.781	115.78
819.218	105.88
819.655	124.18
820.092	184.18
820.529	208.88
820.966	173.28
821.403	128.48
821.839	109.38
822.276	107.48
822.713	126.28
823.15	136.48
823.587	114.98
824.023	151.88
824.46	307.28
824.897	907.18
825.333	1345.08
825.77	566.98
826.206	226.38
826.643	136.18
827.08	101.08
827.516	85.18
827.953	83.68
828.389	88.18
828.825	74.18
829.262	67.48
829.698	64.28
830.135	58.68
830.571	68.38
831.007	66.08
831.443	67.68
831.88	62.38
832.316	62.18
832.752	72.18
833.188	69.38
833.624	69.88
834.06	69.48
834.497	73.78
834.933	74.38
835.369	75.48
835.805	67.88
836.241	73.78
836.677	80.08
837.112	85.98
837.548	102.38
837.984	128.98
838.42	205.18
838.856	504.18
839.292	1528.38
839.727	2260.38
840.163	1056.48
840.599	936.78
841.034	2012.28
841.47	2084.38
841.906	768.78
842.341	335.08
842.777	230.48
843.212	306.48
843.648	300.28
844.083	145.38
844.519	97.58
844.954	66.38
845.39	66.28
845.825	61.88
846.261	58.88
846.696	59.58
847.131	50.18
847.566	59.68
848.002	57.58
848.437	61.68
848.872	57.08
849.307	74.58
849.742	83.38
850.177	183.58
850.613	563.58
851.048	868.68
851.483	380.38
851.918	153.28
852.353	90.78
852.788	67.98
853.223	59.98
853.657	53.48
854.092	47.98
854.527	44.48
854.962	38.68
855.397	39.18
855.832	55.98
856.266	45.98
856.701	38.58
857.136	38.78
857.57	37.98
858.005	52.58
858.44	59.68
858.874	45.08
859.309	54.88
859.743	42.78
860.178	47.38
860.612	44.48
861.047	55.28
861.481	66.38
861.915	75.08
862.35	48.98
862.784	34.48
863.218	40.08
863.653	34.28
864.087	48.98
864.521	51.58
864.955	79.88
865.39	159.58
865.824	171.78
866.258	116.38
866.692	162.68
867.126	181.18
867.56	108.48
867.994	57.38
868.428	37.88
868.862	49.58
869.296	56.48
869.73	61.58
870.164	49.78
870.598	51.68
871.031	37.18
871.465	35.08
871.899	26.68
872.333	26.48
872.766	24.68
873.2	18.68
873.634	29.68
874.067	26.68
874.501	32.18
874.935	38.98
875.368	34.88
875.802	31.78
876.235	26.18
876.669	24.58
877.102	19.08
877.535	30.58
877.969	24.08
878.402	25.88
878.836	25.48
879.269	20.38
879.702	18.28
880.135	24.68
880.569	25.18
881.002	27.18
881.435	24.28
881.868	17.78
882.301	23.68
882.734	16.98
883.167	27.18
883.601	17.58
884.034	26.68
884.467	18.28
884.899	14.38
885.332	21.38
885.765	12.48
886.198	20.28
886.631	23.38
887.064	21.98
887.497	26.78
887.929	26.38
888.362	21.08
888.795	14.38
889.228	17.98
889.66	20.98
890.093	15.18
890.526	13.48
890.958	22.78
891.391	16.88
891.823	21.58
892.256	17.48
892.688	13.88
893.121	20.88
893.553	18.38
893.985	22.58
894.418	22.08
894.85	14.88
895.282	19.88
895.715	15.58
896.147	18.08
896.579	14.48
897.011	19.88
897.444	21.88
897.876	14.08
898.308	18.08
898.74	15.58
899.172	15.08
899.604	24.08
900.036	18.68
900.468	14.58
900.9	13.98
901.332	18.18
901.764	15.78
902.196	17.78
902.628	15.38
903.06	12.98
903.491	26.78
903.923	19.58
904.355	20.98
904.787	26.58
905.218	22.08
905.65	24.18
906.082	15.48
906.513	19.58
906.945	21.58
907.376	15.78
907.808	19.78
908.239	26.28
908.671	24.68
909.102	20.28
909.534	21.38
909.965	43.38
910.397	93.58
910.828	316.98
911.259	470.68
911.691	217.98
912.122	106.78
912.553	54.48
912.984	31.18
913.415	25.68
913.847	27.98
914.278	19.38
914.709	21.28
915.14	20.08
915.571	10.58
916.002	14.28
916.433	22.08
916.864	18.48
917.295	16.68
917.726	17.38
918.157	22.28
918.587	28.28
919.018	24.18
919.449	24.68
919.88	27.38
920.311	35.28
920.741	43.88
921.172	166.88
921.603	139.08
922.033	75.38
922.464	44.58
922.895	26.48
923.325	23.38
923.756	16.78
924.186	12.18
924.617	21.18
925.047	37.78
925.478	47.98
925.908	45.58
926.338	22.38
926.769	23.88
927.199	18.78
927.629	15.48
928.06	18.48
928.49	14.68
928.92	18.48
929.35	7.68
929.78	16.28
930.21	10.78
930.641	6.08
931.071	12.38
931.501	10.68
931.931	7.98
932.361	10.68
932.791	9.18
933.221	2.88
933.651	6.18
934.08	12.98
934.51	27.38
934.94	10.38
935.37	11.38
935.8	7.38
936.229	7.08
936.659	5.68
937.089	-0.32
937.519	15.98
937.948	23.98
938.378	13.28
938.807	6.88
939.237	3.38
939.666	9.58
940.096	-3.42
940.525	11.38
940.955	0.78
941.384	4.98
941.814	-6.02
942.243	-0.02
942.672	7.28
943.102	1.28
943.531	5.78
943.96	8.48
944.39	4.48
944.819	0.58
945.248	7.78
945.677	5.78
946.106	4.58
946.535	2.78
946.964	7.28
947.393	4.08
947.822	-1.92
948.251	-2.42
948.68	3.68
949.109	1.88
949.538	6.48
949.967	1.28
950.396	2.68
950.825	0.38
951.254	-1.42
951.682	-4.72
952.111	6.48
952.54	10.68
952.969	-0.12
953.397	-6.02
953.826	10.18
954.254	-3.62
954.683	0.88
955.112	0.38
955.54	1.38
955.969	0.98
956.397	2.48
956.826	0.98
957.254	4.68
957.682	1.98
958.111	6.78
958.539	0.98
958.967	4.08
959.396	-3.12
959.824	-2.82
960.252	0.78
960.68	-2.62
961.109	-2.12
961.537	1.38
961.965	1.48
962.393	5.18
962.821	0.38
963.249	6.48
963.677	7.28
964.105	3.38
964.533	46.98
964.961	44.88
965.389	27.48
965.817	10.88
966.245	4.18
966.672	6.08
967.1	-8.92
967.528	-9.52
967.956	-2.02
968.383	9.58
968.811	-0.72
969.239	0.68
969.666	-1.72
970.094	3.78
970.522	5.48
970.949	-3.32
971.377	-6.32
971.804	-0.72
972.232	4.38
972.659	1.48
973.087	-0.62
973.514	-6.12
973.941	1.68
974.369	3.28
974.796	-0.92
975.223	2.68
975.651	-2.32
976.078	5.48
976.505	-2.12
976.932	5.38
977.359	9.18
977.786	12.48
978.214	-1.82
978.641	-1.12
979.068	-3.52
979.495	-6.42
979.922	-4.92
980.349	-2.72
980.776	4.88
981.202	-2.42
981.629	3.28
982.056	4.88
982.483	0.78
982.91	6.78
983.337	-2.52
983.763	1.98
984.19	-4.62
984.617	-4.92
985.043	-5.82
985.47	0.28
985.897	-2.22
986.323	-8.32
986.75	-0.92
987.176	-1.12
987.603	-6.72
988.029	-5.92
988.456	-5.72
988.882	0.18
989.308	-7.22
989.735	-4.12
990.161	-0.72
990.587	-4.32
991.014	1.98
991.44	8.58
991.866	-1.42
992.292	-2.62
992.719	-4.02
993.145	4.78
993.571	-4.72
993.997	-1.12
994.423	3.48
994.849	-7.32
995.275	1.98
995.701	4.48
996.127	3.18
996.553	5.58
996.979	-2.92
997.405	-2.12
997.83	0.98
998.256	-7.62
998.682	-3.62
999.108	0.08
999.534	-2.62
999.959	-1.92
1000.385	-3.72
1000.811	6.78
1001.236	-10.62
1001.662	-3.92
1002.087	-6.52
1002.513	-3.62
1002.938	4.88
1003.364	-1.92
1003.789	2.98
1004.215	0.78
1004.64	0.48
1005.066	1.98
1005.491	-5.62
1005.916	-5.02
1006.342	-4.32
1006.767	-3.42
1007.192	6.58
1007.617	-5.22
1008.042	-6.52
1008.468	2.68
1008.893	-4.82
1009.318	-2.42
1009.743	0.38
1010.168	0.98
1010.593	-0.32
1011.018	-7.92
1011.443	0.38
1011.868	-2.82
1012.293	-2.82
1012.718	-8.32
1013.143	3.48
1013.567	1.78
1013.992	-1.92
1014.417	-10.32
1014.842	-1.92
1015.267	-5.12
1015.691	-2.12
1016.116	6.78
1016.541	-1.42
1016.965	-2.82
1017.39	3.38
1017.814	-1.02
1018.239	-0.52
1018.663	-5.72
1019.088	-3.92
1019.512	1.18
1019.937	1.48
1020.361	-3.62
1020.785	-9.02
1021.21	-6.82
1021.634	-4.92
1022.058	0.08
1022.483	4.58
1022.907	-1.52
1023.331	-3.02
1023.755	-2.22
1024.179	-2.72
1024.604	-4.92
1025.028	-4.52
1025.452	-5.42
1025.876	-3.92
1026.3	-0.62
1026.724	-12.62
1027.148	-5.82
1027.572	-3.02
1027.996	-3.12
1028.42	-0.32
1028.843	-6.02
1029.267	-9.42
1029.691	-7.02
1030.115	-8.62
1030.539	0.58
1030.962	-5.22
1031.386	-8.62
1031.81	1.48
1032.233	1.98
1032.657	-2.92
1033.08	2.18
1033.504	-5.42
1033.927	-5.12
1034.351	2.98
1034.774	-3.92
1035.198	-3.62
1035.621	-6.52
1036.045	-4.02
1036.468	1.38
1036.891	-14.52
1037.315	-9.72
1037.738	-11.52
1038.161	-0.92
1038.584	-4.92
1039.008	0.18
1039.431	-2.52
1039.854	-5.72
1040.277	-7.02
1040.7	-13.02
1041.123	1.18
1041.546	-12.22
1041.969	0.08
1042.392	-3.92
1042.815	-4.72
1043.238	-0.62
1043.661	3.48
1044.084	-10.22
1044.507	-7.72
1044.93	-5.12
1045.352	-1.62
1045.775	3.68
1046.198	1.88
1046.621	2.48
1047.043	-1.02
1047.466	7.68
1047.889	-2.22
1048.311	-2.72
1048.734	-3.62
1049.156	4.08
1049.579	5.68
1050.001	-4.32
1050.424	-1.72
1050.846	-0.12
1051.269	4.08
1051.691	-8.62
1052.113	-3.32
1052.536	-0.12
1052.958	-3.72
1053.38	-5.42
1053.802	-11.82
1054.225	5.18
1054.647	-13.52
1055.069	-1.72
1055.491	0.78
1055.913	-8.92
1056.335	-1.12
1056.757	-3.72
1057.179	-4.32
1057.601	-8.32
1058.023	-4.02
1058.445	-3.52
1058.867	0.38
1059.289	-2.12
1059.711	-0.12
1060.133	1.88
1060.555	-2.02
1060.976	-6.12
1061.398	-0.82
1061.82	-9.22
1062.241	-9.72
1062.663	-1.12
1063.085	0.78
1063.506	-1.32
1063.928	1.18
1064.35	1.78
1064.771	-12.72
1065.193	-8.02
1065.614	-7.32
1066.035	-0.52
1066.457	-3.42
1066.878	2.98
1067.3	-5.52
1067.721	-3.62
1068.142	-5.22
1068.564	-7.22
1068.985	-6.42
1069.406	-2.82
1069.827	-7.32
1070.248	-2.52
1070.67	-6.92
1071.091	-2.52
1071.512	-5.92
1071.933	-2.42
1072.354	-4.62
1072.775	-6.72
1073.196	-10.62
1073.617	-7.12
1074.038	-6.82
1074.459	-9.22
1074.88	-4.12
1075.3	-0.92
1075.721	-2.92
1076.142	2.78
1076.563	-5.92
1076.983	-12.12
1077.404	-8.02
1077.825	-8.22
1078.246	-5.22
1078.666	-5.52
1079.087	-3.52
1079.507	-8.02
1079.928	0.68
1080.348	-3.32
1080.769	-7.02
1081.189	4.88
1081.61	-3.62
1082.03	-6.52
1082.451	0.98
1082.871	-8.92
1083.291	-6.72
1083.711	-8.82
1084.132	-0.32
1084.552	-0.22
1084.972	-1.72
1085.392	-7.62
1085.813	-13.32
1086.233	-1.62
1086.653	-9.72
1087.073	-3.32
1087.493	-13.02
1087.913	-6.92
1088.333	-1.92
1088.753	-6.62
1089.173	1.88
1089.593	-2.02
1090.013	-1.82
1090.433	3.18
1090.852	-1.02
1091.272	-5.12
1091.692	0.58
1092.112	-1.72
1092.531	-11.02
1092.951	-14.52
1093.371	-7.52
1093.79	3.18
1094.21	-3.32
1094.63	-7.32
1095.049	-8.32
1095.469	-2.62
1095.888	0.98
1096.308	5.08
1096.727	9.78
1097.146	-8.22
1097.566	4.88
1097.985	-9.02
1098.405	-3.82
1098.824	-9.02
1099.243	-8.42
1099.662	-9.32
1100.082	-0.12
1100.501	-3.02
1100.92	-4.62
1101.339	-3.32
1101.758	-8.22
