Data from 20171114-ORNL-Ar_H_NY_Subt18_08-07-25-702.txt Node
Date: Tue Nov 14 08:07:25 EST 2017
User: Ender
Spectrometer: HR+D1039
Trigger mode: 0
Integration Time (sec): 2.730000E-2
Scans to average: 10
Electric dark correction enabled: true
Nonlinearity correction enabled: false
Boxcar width: 0
XAxis mode: Wavelengths
Number of Pixels in Spectrum: 2048
>>>>>Begin Spectral Data<<<<<
187.836	-4.23
188.309	-4.23
188.782	-4.23
189.255	-0.73
189.728	-0.43
190.201	4.97
190.674	2.67
191.147	3.97
191.619	-3.13
192.092	5.47
192.565	3.87
193.038	-7.03
193.511	3.17
193.984	-1.83
194.456	-2.13
194.929	-3.73
195.402	0.97
195.874	-1.83
196.347	-6.83
196.82	-5.03
197.292	9.47
197.765	0.27
198.237	-6.03
198.71	0.97
199.182	0.57
199.655	0.57
200.127	5.37
200.6	-3.93
201.072	0.57
201.544	-3.13
202.017	2.27
202.489	5.17
202.961	-1.33
203.433	-1.73
203.906	-3.73
204.378	-4.53
204.85	-3.53
205.322	-8.93
205.794	-3.13
206.266	-6.03
206.739	-12.43
207.211	1.77
207.683	-8.63
208.155	-6.93
208.627	-7.83
209.099	-3.23
209.57	-9.63
210.042	-1.73
210.514	1.17
210.986	-2.33
211.458	-8.23
211.93	-6.83
212.402	3.47
212.873	-7.63
213.345	-4.63
213.817	-10.03
214.288	-1.23
214.76	-7.43
215.232	-0.83
215.703	-9.33
216.175	-7.23
216.646	-6.83
217.118	-6.03
217.589	-4.53
218.061	-9.33
218.532	-7.13
219.004	-2.93
219.475	-2.23
219.946	-0.03
220.418	-4.73
220.889	3.67
221.36	1.97
221.832	-2.43
222.303	-3.63
222.774	-1.93
223.245	-2.33
223.717	-4.23
224.188	-4.63
224.659	-8.43
225.13	-7.63
225.601	-4.33
226.072	-0.43
226.543	-0.13
227.014	6.77
227.485	-1.13
227.956	-3.73
228.427	-4.23
228.898	-1.13
229.369	5.47
229.839	-3.73
230.31	-7.33
230.781	-1.83
231.252	-4.53
231.722	-6.33
232.193	-3.43
232.664	-5.53
233.135	-0.53
233.605	-1.43
234.076	-6.63
234.546	0.37
235.017	1.17
235.487	-4.63
235.958	3.87
236.428	-6.33
236.899	-1.53
237.369	4.27
237.84	-1.93
238.31	7.47
238.78	1.77
239.251	-5.63
239.721	1.77
240.191	-0.03
240.662	-4.03
241.132	-1.93
241.602	1.67
242.072	2.07
242.542	-0.23
243.013	3.77
243.483	6.57
243.953	-1.53
244.423	-3.53
244.893	-0.03
245.363	8.47
245.833	-0.23
246.303	-8.23
246.773	7.87
247.243	1.87
247.712	0.87
248.182	5.67
248.652	3.47
249.122	-3.63
249.592	6.47
250.061	16.87
250.531	20.87
251.001	9.77
251.471	17.17
251.94	16.37
252.41	6.07
252.879	-3.43
253.349	4.77
253.818	7.87
254.288	2.27
254.757	-6.73
255.227	-0.33
255.696	4.57
256.166	-0.23
256.635	1.27
257.105	3.07
257.574	-3.03
258.043	2.57
258.513	1.57
258.982	5.47
259.451	5.07
259.92	9.07
260.389	4.57
260.859	8.07
261.328	11.57
261.797	9.37
262.266	3.47
262.735	11.87
263.204	5.17
263.673	2.67
264.142	3.77
264.611	-5.03
265.08	-3.83
265.549	-3.43
266.018	4.27
266.487	-6.13
266.955	-5.73
267.424	-2.23
267.893	5.27
268.362	0.57
268.83	0.07
269.299	3.77
269.768	-0.43
270.236	4.37
270.705	-2.53
271.174	7.37
271.642	2.97
272.111	11.17
272.579	3.07
273.048	11.57
273.516	15.37
273.985	16.17
274.453	18.47
274.922	16.97
275.39	6.67
275.858	-0.23
276.327	9.17
276.795	11.37
277.263	6.57
277.731	17.57
278.2	37.37
278.668	40.77
279.136	31.57
279.604	7.07
280.072	12.17
280.54	10.27
281.008	4.57
281.477	15.57
281.945	7.17
282.413	0.27
282.881	11.57
283.348	6.47
283.816	9.07
284.284	12.07
284.752	12.47
285.22	5.57
285.688	6.87
286.156	9.67
286.623	41.17
287.091	39.37
287.559	26.17
288.026	18.57
288.494	9.17
288.962	-0.03
289.429	1.67
289.897	11.37
290.364	11.87
290.832	15.77
291.3	14.47
291.767	8.37
292.234	9.77
292.702	5.67
293.169	10.87
293.637	9.87
294.104	12.47
294.571	7.07
295.039	6.97
295.506	7.17
295.973	10.27
296.44	7.27
296.908	13.77
297.375	10.87
297.842	13.87
298.309	7.47
298.776	6.97
299.243	13.77
299.71	8.87
300.177	14.87
300.644	20.47
301.111	13.67
301.578	18.57
302.045	4.97
302.512	16.07
302.979	25.37
303.446	14.27
303.913	9.67
304.379	16.27
304.846	19.77
305.313	11.47
305.78	12.57
306.246	17.97
306.713	16.27
307.18	18.47
307.646	19.87
308.113	19.07
308.579	16.07
309.046	18.17
309.512	19.97
309.979	17.77
310.445	21.97
310.912	20.07
311.378	28.47
311.845	19.37
312.311	22.07
312.777	25.17
313.244	19.47
313.71	26.77
314.176	21.37
314.642	20.07
315.109	20.67
315.575	23.07
316.041	31.17
316.507	19.67
316.973	27.97
317.439	18.77
317.905	32.17
318.371	24.57
318.837	26.07
319.303	31.27
319.769	20.77
320.235	23.47
320.701	28.97
321.167	26.17
321.633	22.07
322.099	29.77
322.564	34.17
323.03	32.87
323.496	27.17
323.962	33.87
324.427	28.37
324.893	32.57
325.359	26.77
325.824	28.47
326.29	28.57
326.755	30.07
327.221	28.77
327.686	23.97
328.152	34.97
328.617	27.57
329.083	39.47
329.548	40.37
330.014	43.37
330.479	32.67
330.944	35.77
331.41	36.37
331.875	29.27
332.34	27.67
332.805	30.67
333.271	37.17
333.736	28.37
334.201	44.27
334.666	40.17
335.131	43.27
335.596	40.87
336.061	40.07
336.526	31.17
336.991	38.77
337.456	43.67
337.921	37.07
338.386	35.07
338.851	32.17
339.316	33.07
339.781	39.37
340.246	41.47
340.711	35.37
341.175	41.67
341.64	32.17
342.105	35.77
342.569	42.87
343.034	44.97
343.499	41.47
343.963	41.97
344.428	52.17
344.893	51.07
345.357	43.27
345.822	44.37
346.286	55.17
346.751	59.57
347.215	48.87
347.679	57.47
348.144	73.57
348.608	62.97
349.073	51.87
349.537	59.07
350.001	65.17
350.465	67.67
350.93	63.77
351.394	68.47
351.858	62.37
352.322	68.47
352.786	62.07
353.25	74.97
353.715	81.17
354.179	81.17
354.643	89.17
355.107	93.07
355.571	78.17
356.035	75.77
356.498	87.17
356.962	94.87
357.426	104.67
357.89	84.47
358.354	71.47
358.818	64.27
359.281	68.57
359.745	66.77
360.209	62.17
360.673	61.37
361.136	62.57
361.6	76.17
362.064	67.57
362.527	70.27
362.991	75.57
363.454	72.07
363.918	66.17
364.381	57.07
364.845	65.67
365.308	72.47
365.772	76.27
366.235	73.37
366.698	70.17
367.162	72.17
367.625	70.57
368.088	76.27
368.552	79.57
369.015	74.67
369.478	79.37
369.941	82.37
370.404	78.17
370.867	84.57
371.331	93.57
371.794	97.17
372.257	88.07
372.72	97.57
373.183	94.07
373.646	87.67
374.109	96.57
374.572	94.37
375.035	90.87
375.497	94.07
375.96	86.37
376.423	85.57
376.886	95.97
377.349	92.57
377.811	91.77
378.274	94.57
378.737	93.67
379.199	96.27
379.662	97.37
380.125	98.37
380.587	105.57
381.05	106.47
381.512	117.17
381.975	116.67
382.437	107.17
382.9	113.67
383.362	117.27
383.825	121.87
384.287	123.27
384.75	124.27
385.212	125.97
385.674	124.97
386.136	124.17
386.599	107.17
387.061	113.47
387.523	115.47
387.985	126.97
388.447	134.57
388.91	123.97
389.372	138.97
389.834	137.07
390.296	127.47
390.758	142.47
391.22	149.87
391.682	187.07
392.144	258.07
392.606	206.27
393.068	143.07
393.529	148.27
393.991	133.17
394.453	129.97
394.915	141.47
395.377	175.97
395.838	198.27
396.3	136.57
396.762	127.87
397.224	119.57
397.685	120.77
398.147	114.67
398.608	123.57
399.07	120.67
399.531	119.37
399.993	127.87
400.454	138.87
400.916	131.97
401.377	133.07
401.839	139.57
402.3	138.27
402.762	141.57
403.223	163.67
403.684	148.97
404.145	142.27
404.607	148.37
405.068	152.97
405.529	151.57
405.99	168.47
406.451	156.17
406.913	158.37
407.374	145.57
407.835	145.87
408.296	149.07
408.757	154.77
409.218	167.17
409.679	160.47
410.14	161.27
410.601	164.47
411.062	171.47
411.522	170.87
411.983	169.67
412.444	153.47
412.905	168.67
413.366	168.97
413.826	171.97
414.287	197.57
414.748	236.57
415.208	226.57
415.669	197.97
416.13	185.27
416.59	179.87
417.051	197.57
417.511	201.27
417.972	223.27
418.432	231.07
418.893	271.07
419.353	231.17
419.814	186.67
420.274	171.37
420.734	162.67
421.195	181.57
421.655	180.37
422.115	181.17
422.576	181.27
423.036	182.47
423.496	193.67
423.956	196.37
424.416	209.87
424.876	248.07
425.336	237.77
425.797	244.57
426.257	235.57
426.717	223.97
427.177	215.87
427.637	205.37
428.097	220.87
428.556	229.27
429.016	254.97
429.476	246.77
429.936	255.37
430.396	254.97
430.856	269.37
431.315	301.07
431.775	327.57
432.235	349.37
432.694	326.77
433.154	332.67
433.614	361.07
434.073	316.07
434.533	262.07
434.993	248.07
435.452	256.67
435.912	271.27
436.371	267.37
436.83	258.67
437.29	250.47
437.749	224.57
438.209	227.07
438.668	247.57
439.127	265.77
439.587	246.57
440.046	229.07
440.505	243.87
440.964	248.87
441.424	298.47
441.883	288.57
442.342	242.37
442.801	213.67
443.26	205.37
443.719	204.77
444.178	212.07
444.637	198.07
445.096	212.07
445.555	208.77
446.014	207.57
446.473	218.27
446.932	220.27
447.391	217.57
447.849	217.17
448.308	207.17
448.767	205.87
449.226	216.77
449.685	219.57
450.143	238.17
450.602	221.77
451.061	213.27
451.519	218.17
451.978	224.07
452.436	218.17
452.895	224.87
453.353	242.17
453.812	226.57
454.27	230.67
454.729	224.17
455.187	227.47
455.646	230.47
456.104	234.97
456.562	246.67
457.021	251.17
457.479	250.37
457.937	257.57
458.395	247.47
458.854	239.37
459.312	241.07
459.77	253.27
460.228	240.87
460.686	234.67
461.144	242.47
461.602	225.17
462.06	232.37
462.518	240.47
462.976	242.27
463.434	244.97
463.892	248.97
464.35	255.67
464.808	267.47
465.266	250.97
465.724	264.17
466.181	255.97
466.639	259.97
467.097	273.97
467.555	282.87
468.012	277.87
468.47	287.97
468.928	305.67
469.385	318.97
469.843	332.67
470.3	327.47
470.758	339.47
471.215	361.87
471.673	385.87
472.13	386.47
472.588	390.37
473.045	355.57
473.503	358.97
473.96	375.97
474.417	377.07
474.875	402.57
475.332	444.97
475.789	434.07
476.246	444.27
476.704	459.97
477.161	484.57
477.618	495.77
478.075	526.97
478.532	588.47
478.989	657.07
479.446	753.77
479.903	738.17
480.36	767.47
480.817	822.87
481.274	920.07
481.731	1024.27
482.188	1109.87
482.645	1234.27
483.102	1340.27
483.558	1467.47
484.015	1511.07
484.472	1496.37
484.929	1472.47
485.385	1408.77
485.842	1371.77
486.299	1288.47
486.755	1229.57
487.212	1032.47
487.668	892.77
488.125	811.57
488.582	747.27
489.038	704.17
489.494	674.17
489.951	652.67
490.407	638.17
490.864	611.27
491.32	605.47
491.776	604.47
492.233	621.57
492.689	578.57
493.145	581.07
493.602	570.87
494.058	587.47
494.514	588.17
494.97	612.27
495.426	615.47
495.882	596.87
496.338	586.27
496.794	595.57
497.251	587.97
497.707	590.67
498.163	603.67
498.618	610.07
499.074	607.37
499.53	644.17
499.986	636.47
500.442	621.57
500.898	603.17
501.354	606.47
501.809	602.47
502.265	619.67
502.721	628.07
503.177	638.57
503.632	630.67
504.088	649.57
504.543	679.47
504.999	670.97
505.455	627.17
505.91	603.17
506.366	609.47
506.821	606.87
507.277	601.47
507.732	601.97
508.187	599.57
508.643	617.07
509.098	612.87
509.553	631.47
510.009	639.17
510.464	637.87
510.919	653.07
511.375	665.37
511.83	674.47
512.285	690.97
512.74	733.47
513.195	756.67
513.65	738.57
514.105	728.47
514.56	740.57
515.015	757.37
515.47	767.07
515.925	756.37
516.38	760.87
516.835	763.87
517.29	746.37
517.745	737.87
518.2	736.17
518.655	718.07
519.109	718.37
519.564	707.47
520.019	693.77
520.474	698.27
520.928	703.77
521.383	689.77
521.838	687.17
522.292	688.47
522.747	692.17
523.201	681.87
523.656	677.67
524.11	671.27
524.565	667.67
525.019	663.47
525.474	672.67
525.928	679.17
526.382	670.27
526.837	670.27
527.291	672.37
527.745	675.57
528.2	668.17
528.654	653.97
529.108	661.17
529.562	664.97
530.016	661.87
530.47	669.97
530.925	661.47
531.379	671.77
531.833	682.27
532.287	666.87
532.741	682.67
533.195	686.77
533.649	680.37
534.103	691.57
534.556	673.37
535.01	677.97
535.464	673.07
535.918	685.77
536.372	688.47
536.826	690.97
537.279	671.57
537.733	678.47
538.187	688.37
538.64	689.47
539.094	693.87
539.548	699.67
540.001	700.77
540.455	691.37
540.908	712.57
541.362	714.37
541.815	726.87
542.269	727.87
542.722	733.37
543.175	740.27
543.629	742.87
544.082	754.27
544.536	759.47
544.989	758.17
545.442	771.37
545.895	761.77
546.349	755.07
546.802	771.27
547.255	776.77
547.708	777.67
548.161	775.57
548.614	807.77
549.067	805.97
549.52	794.87
549.973	779.07
550.426	779.57
550.879	769.07
551.332	772.97
551.785	779.77
552.238	774.97
552.691	790.17
553.144	810.67
553.596	824.87
554.049	832.87
554.502	863.17
554.955	871.37
555.407	881.57
555.86	871.97
556.313	862.67
556.765	853.67
557.218	844.47
557.67	855.67
558.123	842.47
558.576	856.37
559.028	846.17
559.48	855.17
559.933	843.47
560.385	813.07
560.838	775.77
561.29	763.77
561.742	751.77
562.195	742.97
562.647	732.27
563.099	753.27
563.551	746.87
564.004	757.27
564.456	748.47
564.908	738.57
565.36	714.87
565.812	715.97
566.264	700.97
566.716	705.77
567.168	687.17
567.62	701.17
568.072	688.47
568.524	671.17
568.976	661.47
569.428	651.77
569.88	655.07
570.332	659.57
570.784	669.37
571.235	661.87
571.687	672.47
572.139	680.77
572.59	689.87
573.042	688.97
573.494	685.17
573.945	673.27
574.397	660.67
574.849	670.87
575.3	663.67
575.752	663.17
576.203	651.77
576.655	664.87
577.106	651.87
577.557	646.57
578.009	644.07
578.46	644.27
578.912	646.87
579.363	648.57
579.814	649.67
580.265	648.97
580.717	633.97
581.168	647.57
581.619	656.67
582.07	659.87
582.521	652.87
582.972	644.57
583.423	653.77
583.875	661.17
584.326	673.57
584.777	724.07
585.227	781.87
585.678	869.97
586.129	960.17
586.58	1013.37
587.031	1096.87
587.482	1222.77
587.933	1395.67
588.384	1235.07
588.834	934.47
589.285	772.27
589.736	764.67
590.186	756.27
590.637	749.57
591.088	727.07
591.538	718.47
591.989	710.37
592.439	696.57
592.89	697.57
593.34	684.07
593.791	688.17
594.241	663.87
594.692	683.57
595.142	677.17
595.593	678.17
596.043	680.67
596.493	684.67
596.943	690.87
597.394	707.97
597.844	707.77
598.294	706.27
598.744	732.77
599.195	755.07
599.645	787.67
600.095	828.27
600.545	896.87
600.995	951.87
601.445	1000.47
601.895	1064.27
602.345	1113.97
602.795	1086.27
603.245	1034.47
603.695	980.87
604.145	932.97
604.594	879.67
605.044	835.97
605.494	775.67
605.944	736.67
606.393	725.87
606.843	704.57
607.293	715.37
607.743	716.17
608.192	728.37
608.642	736.97
609.091	740.17
609.541	737.57
609.99	746.57
610.44	750.27
610.889	701.07
611.339	681.37
611.788	663.77
612.238	680.77
612.687	707.17
613.136	704.57
613.586	720.37
614.035	715.27
614.484	741.17
614.933	745.47
615.383	723.17
615.832	708.57
616.281	705.47
616.73	669.97
617.179	651.77
617.628	636.87
618.077	618.67
618.526	612.67
618.975	600.77
619.424	599.37
619.873	595.87
620.322	604.47
620.771	583.47
621.22	581.87
621.669	568.17
622.118	562.37
622.567	566.57
623.015	559.17
623.464	556.07
623.913	548.27
624.361	537.57
624.81	537.07
625.259	539.77
625.707	544.57
626.156	531.97
626.604	552.37
627.053	551.17
627.501	551.57
627.95	555.17
628.398	566.17
628.847	556.97
629.295	551.17
629.744	558.57
630.192	555.37
630.64	551.17
631.089	543.17
631.537	559.27
631.985	560.57
632.433	567.17
632.881	577.07
633.33	616.77
633.778	603.27
634.226	542.77
634.674	550.67
635.122	557.67
635.57	566.37
636.018	600.77
636.466	559.17
636.914	543.97
637.362	557.27
637.81	569.67
638.258	563.07
638.705	564.17
639.153	594.17
639.601	607.97
640.049	627.27
640.497	660.47
640.944	669.67
641.392	616.17
641.84	585.57
642.287	562.77
642.735	549.97
643.182	554.37
643.63	560.57
644.078	549.87
644.525	566.27
644.973	585.47
645.42	587.77
645.867	601.37
646.315	620.57
646.762	646.47
647.21	664.97
647.657	696.57
648.104	729.57
648.551	755.57
648.999	816.57
649.446	886.37
649.893	967.57
650.34	1120.67
650.787	1363.67
651.234	1687.27
651.682	2211.07
652.129	3039.97
652.576	4373.97
653.023	6464.87
653.47	8852.57
653.917	11050.07
654.363	12695.67
654.81	14020.57
655.257	13354.97
655.704	8703.47
656.151	5113.17
656.598	3302.97
657.044	2349.47
657.491	1796.47
657.938	1440.37
658.385	1207.27
658.831	1043.27
659.278	931.17
659.724	828.17
660.171	761.27
660.618	699.57
661.064	673.97
661.511	653.47
661.957	635.07
662.404	623.57
662.85	628.87
663.296	612.07
663.743	543.37
664.189	523.17
664.635	521.27
665.082	522.17
665.528	511.17
665.974	504.27
666.42	498.27
666.867	496.97
667.313	469.27
667.759	466.17
668.205	464.17
668.651	474.87
669.097	470.37
669.543	483.57
669.989	457.57
670.435	436.97
670.881	434.17
671.327	439.77
671.773	460.97
672.219	483.07
672.665	526.97
673.11	571.87
673.556	618.37
674.002	654.27
674.448	637.77
674.893	539.07
675.339	472.77
675.785	425.97
676.23	407.27
676.676	383.47
677.122	368.07
677.567	367.27
678.013	355.47
678.458	347.37
678.904	342.77
679.349	338.67
679.794	345.17
680.24	346.37
680.685	336.57
681.131	340.37
681.576	345.77
682.021	350.17
682.466	343.67
682.912	332.37
683.357	339.47
683.802	371.57
684.247	395.67
684.692	446.37
685.137	493.17
685.583	526.27
686.028	542.67
686.473	508.07
686.918	439.17
687.363	408.07
687.807	381.57
688.252	354.77
688.697	337.07
689.142	319.77
689.587	329.17
690.032	321.17
690.477	335.67
690.921	347.97
691.366	374.27
691.811	392.77
692.255	420.17
692.7	451.07
693.145	499.87
693.589	684.17
694.034	1111.27
694.478	1503.77
694.923	1687.97
695.367	2207.47
695.812	1160.67
696.256	486.27
696.701	367.37
697.145	339.27
697.59	328.07
698.034	314.87
698.478	314.57
698.922	311.17
699.367	322.07
699.811	338.27
700.255	343.87
700.699	381.87
701.143	428.07
701.588	462.77
702.032	509.97
702.476	501.37
702.92	478.77
703.364	477.47
703.808	631.77
704.252	1024.37
704.696	1424.47
705.14	1631.07
705.584	2080.07
706.027	1039.47
706.471	508.27
706.915	381.37
707.359	346.77
707.803	313.57
708.246	302.77
708.69	301.37
709.134	298.87
709.577	305.37
710.021	308.87
710.465	311.47
710.908	293.67
711.352	294.17
711.795	304.97
712.239	344.37
712.682	376.17
713.126	401.67
713.569	446.97
714.012	356.47
714.456	310.27
714.899	290.37
715.342	267.27
715.786	252.47
716.229	259.07
716.672	257.27
717.115	246.07
717.558	242.67
718.002	254.87
718.445	262.37
718.888	284.27
719.331	284.07
719.774	296.47
720.217	296.37
720.66	276.97
721.103	256.47
721.546	239.87
721.989	233.27
722.432	227.47
722.874	232.67
723.317	231.17
723.76	232.17
724.203	254.37
724.645	312.57
725.088	439.87
725.531	548.47
725.974	633.77
726.416	536.27
726.859	299.17
727.301	239.17
727.744	231.77
728.187	224.87
728.629	226.37
729.071	235.47
729.514	255.47
729.956	262.67
730.399	273.07
730.841	286.47
731.283	266.97
731.726	256.37
732.168	249.87
732.61	250.47
733.053	276.07
733.495	304.67
733.937	348.57
734.379	389.67
734.821	429.07
735.263	534.47
735.705	836.07
736.148	1569.77
736.59	2539.27
737.032	2973.97
737.474	2426.97
737.916	790.57
738.357	409.57
738.799	321.17
739.241	288.87
739.683	281.47
740.125	286.57
740.567	291.17
741.008	306.07
741.45	301.07
741.892	307.37
742.334	332.57
742.775	347.17
743.217	332.07
743.658	265.57
744.1	241.47
744.542	257.37
744.983	309.57
745.425	332.37
745.866	335.17
746.307	274.37
746.749	276.87
747.19	313.77
747.632	448.67
748.073	885.77
748.514	1862.97
748.956	2792.37
749.397	3531.87
749.838	2929.37
750.279	2890.77
750.72	1454.17
751.162	528.47
751.603	315.77
752.044	245.47
752.485	207.47
752.926	204.27
753.367	195.97
753.808	190.67
754.249	191.67
754.69	176.97
755.131	180.37
755.572	173.87
756.013	171.97
756.453	171.07
756.894	183.57
757.335	185.77
757.776	187.27
758.216	187.87
758.657	197.47
759.098	195.37
759.538	226.47
759.979	260.87
760.42	364.57
760.86	704.47
761.301	1833.17
761.741	4387.97
762.182	6305.07
762.622	4415.17
763.063	1279.87
763.503	533.57
763.943	340.57
764.384	337.87
764.824	378.87
765.264	400.67
765.705	288.97
766.145	203.77
766.585	182.97
767.025	174.27
767.465	177.67
767.906	236.17
768.346	303.77
768.786	316.57
769.226	255.57
769.666	311.07
770.106	613.77
770.546	1552.07
770.986	2584.97
771.426	2310.17
771.866	772.67
772.306	317.87
772.745	203.57
773.185	175.27
773.625	161.87
774.065	160.87
774.505	196.57
774.944	302.97
775.384	662.77
775.824	1160.67
776.263	1114.47
776.703	474.57
777.142	207.37
777.582	160.87
778.021	134.67
778.461	138.17
778.9	132.77
779.34	129.57
779.779	115.87
780.219	109.07
780.658	113.57
781.097	106.97
781.537	110.87
781.976	106.47
782.415	100.67
782.855	103.47
783.294	101.47
783.733	103.07
784.172	105.77
784.611	104.47
785.05	113.17
785.489	107.77
785.928	112.57
786.367	117.27
786.806	120.47
787.245	131.97
787.684	132.47
788.123	146.77
788.562	130.97
789.001	122.47
789.44	116.17
789.879	116.47
790.317	116.67
790.756	124.17
791.195	129.97
791.634	147.47
792.072	207.37
792.511	359.37
792.95	1012.77
793.388	2093.57
793.827	1880.17
794.265	666.47
794.704	276.47
795.142	173.77
795.581	148.37
796.019	131.87
796.458	123.87
796.896	120.17
797.334	128.57
797.773	156.67
798.211	216.17
798.649	443.17
799.087	1023.67
799.526	1579.77
799.964	2001.37
800.402	1959.37
800.84	737.87
801.278	292.37
801.716	185.67
802.154	161.17
802.592	153.17
803.03	139.87
803.468	130.57
803.906	140.87
804.344	149.07
804.782	131.17
805.22	129.07
805.658	122.07
806.096	148.57
806.533	148.67
806.971	173.07
807.409	217.07
807.847	313.07
808.284	670.47
808.722	1863.07
809.16	3252.07
809.597	3103.17
810.035	5378.37
810.472	5622.67
810.91	2037.27
811.347	783.87
811.785	396.17
812.222	251.17
812.66	193.47
813.097	155.57
813.535	138.77
813.972	124.17
814.409	115.87
814.846	107.77
815.284	106.87
815.721	93.77
816.158	102.47
816.595	115.27
817.032	170.07
817.47	194.27
817.907	150.67
818.344	140.27
818.781	115.97
819.218	97.57
819.655	121.37
820.092	180.47
820.529	206.47
820.966	171.77
821.403	127.57
821.839	105.97
822.276	101.57
822.713	120.47
823.15	128.57
823.587	116.57
824.023	141.77
824.46	305.37
824.897	892.07
825.333	1307.57
825.77	572.07
826.206	223.17
826.643	139.37
827.08	94.67
827.516	86.77
827.953	73.47
828.389	77.97
828.825	67.47
829.262	66.57
829.698	62.07
830.135	66.37
830.571	57.87
831.007	61.67
831.443	57.47
831.88	56.57
832.316	63.37
832.752	60.37
833.188	70.07
833.624	64.17
834.06	66.87
834.497	71.77
834.933	70.37
835.369	77.07
835.805	64.77
836.241	79.37
836.677	83.17
837.112	89.87
837.548	98.87
837.984	133.87
838.42	199.27
838.856	497.67
839.292	1506.97
839.727	2251.57
840.163	1046.77
840.599	927.77
841.034	2015.17
841.47	2064.57
841.906	756.77
842.341	327.07
842.777	223.47
843.212	302.87
843.648	287.67
844.083	155.67
844.519	97.57
844.954	75.97
845.39	60.87
845.825	60.97
846.261	53.67
846.696	54.47
847.131	50.57
847.566	55.37
848.002	47.87
848.437	52.87
848.872	64.87
849.307	62.57
849.742	89.47
850.177	185.27
850.613	555.57
851.048	858.57
851.483	372.37
851.918	144.27
852.353	87.07
852.788	63.17
853.223	58.57
853.657	54.67
854.092	48.37
854.527	40.27
854.962	41.77
855.397	39.47
855.832	48.17
856.266	45.57
856.701	38.47
857.136	36.87
857.57	44.77
858.005	50.57
858.44	58.67
858.874	42.67
859.309	57.27
859.743	40.57
860.178	51.37
860.612	42.57
861.047	52.67
861.481	63.17
861.915	72.17
862.35	43.37
862.784	31.87
863.218	39.77
863.653	34.77
864.087	40.87
864.521	56.97
864.955	71.37
865.39	149.97
865.824	164.87
866.258	108.37
866.692	154.87
867.126	169.07
867.56	96.17
867.994	50.77
868.428	36.97
868.862	42.37
869.296	54.97
869.73	54.67
870.164	50.97
870.598	50.27
871.031	43.87
871.465	32.67
871.899	29.57
872.333	19.97
872.766	23.57
873.2	22.17
873.634	23.57
874.067	28.37
874.501	20.87
874.935	32.77
875.368	32.67
875.802	29.37
876.235	25.07
876.669	25.07
877.102	23.27
877.535	30.77
877.969	24.47
878.402	30.27
878.836	16.67
879.269	22.77
879.702	26.57
880.135	21.87
880.569	24.27
881.002	25.67
881.435	23.17
881.868	17.07
882.301	21.47
882.734	14.97
883.167	29.17
883.601	16.57
884.034	23.67
884.467	16.87
884.899	22.87
885.332	15.27
885.765	13.57
886.198	16.47
886.631	17.87
887.064	21.37
887.497	17.37
887.929	25.17
888.362	17.37
888.795	18.17
889.228	17.57
889.66	25.57
890.093	17.07
890.526	19.37
890.958	22.17
891.391	18.37
891.823	24.27
892.256	17.57
892.688	15.47
893.121	17.77
893.553	16.97
893.985	20.87
894.418	20.67
894.85	8.97
895.282	18.87
895.715	20.07
896.147	18.27
896.579	15.97
897.011	18.17
897.444	16.97
897.876	16.07
898.308	15.27
898.74	20.07
899.172	15.87
899.604	24.57
900.036	17.37
900.468	12.97
900.9	15.47
901.332	14.37
901.764	17.27
902.196	19.37
902.628	21.37
903.06	12.57
903.491	28.07
903.923	24.47
904.355	17.27
904.787	23.07
905.218	24.07
905.65	22.17
906.082	12.27
906.513	16.27
906.945	16.77
907.376	10.87
907.808	21.37
908.239	19.57
908.671	21.07
909.102	19.67
909.534	24.37
909.965	46.67
910.397	97.77
910.828	312.37
911.259	462.17
911.691	212.37
912.122	109.27
912.553	54.37
912.984	28.47
913.415	20.67
913.847	25.27
914.278	17.47
914.709	15.27
915.14	15.57
915.571	11.17
916.002	11.67
916.433	15.57
916.864	18.47
917.295	11.77
917.726	15.77
918.157	16.37
918.587	23.17
919.018	23.47
919.449	18.77
919.88	22.57
920.311	30.67
920.741	51.07
921.172	167.37
921.603	142.67
922.033	71.27
922.464	40.87
922.895	25.37
923.325	21.57
923.756	15.17
924.186	15.87
924.617	23.67
925.047	42.77
925.478	49.97
925.908	40.97
926.338	26.07
926.769	22.47
927.199	17.17
927.629	14.27
928.06	18.77
928.49	16.07
928.92	18.57
929.35	14.47
929.78	11.97
930.21	6.47
930.641	6.97
931.071	7.77
931.501	4.37
931.931	9.87
932.361	5.37
932.791	6.97
933.221	7.27
933.651	6.77
934.08	19.27
934.51	30.17
934.94	11.27
935.37	9.17
935.8	14.47
936.229	10.47
936.659	4.97
937.089	4.67
937.519	16.87
937.948	19.07
938.378	12.67
938.807	6.57
939.237	3.77
939.666	14.47
940.096	0.37
940.525	4.27
940.955	0.47
941.384	1.27
941.814	1.97
942.243	1.27
942.672	3.97
943.102	2.97
943.531	3.87
943.96	5.27
944.39	6.67
944.819	2.87
945.248	1.37
945.677	-1.43
946.106	2.27
946.535	7.47
946.964	0.37
947.393	2.27
947.822	-1.63
948.251	-2.73
948.68	-4.33
949.109	2.27
949.538	2.77
949.967	2.57
950.396	-0.83
950.825	1.87
951.254	3.17
951.682	0.47
952.111	8.57
952.54	5.87
952.969	-6.23
953.397	-4.33
953.826	4.47
954.254	-5.33
954.683	3.47
955.112	-7.93
955.54	6.37
955.969	3.77
956.397	4.37
956.826	-5.23
957.254	1.57
957.682	3.67
958.111	4.27
958.539	-0.33
958.967	0.77
959.396	-0.43
959.824	-0.63
960.252	3.07
960.68	-7.53
961.109	-4.23
961.537	-4.83
961.965	0.87
962.393	0.77
962.821	0.37
963.249	-0.13
963.677	5.27
964.105	5.17
964.533	46.77
964.961	36.57
965.389	21.67
965.817	2.77
966.245	3.37
966.672	-2.03
967.1	-2.43
967.528	6.27
967.956	-1.63
968.383	-1.53
968.811	-7.43
969.239	0.47
969.666	-6.23
970.094	-3.73
970.522	5.67
970.949	2.47
971.377	-7.33
971.804	0.47
972.232	-3.53
972.659	-6.93
973.087	0.97
973.514	-4.03
973.941	-1.53
974.369	0.87
974.796	2.47
975.223	-1.53
975.651	-2.43
976.078	8.87
976.505	-1.63
976.932	5.17
977.359	12.97
977.786	17.27
978.214	4.67
978.641	-0.53
979.068	-0.23
979.495	-9.53
979.922	-2.03
980.349	-1.93
980.776	-3.33
981.202	-4.13
981.629	9.07
982.056	5.27
982.483	-4.93
982.91	-0.43
983.337	-10.53
983.763	1.07
984.19	-5.23
984.617	-7.03
985.043	-8.83
985.47	-0.93
985.897	-9.73
986.323	-3.73
986.75	3.87
987.176	0.97
987.603	-2.13
988.029	6.87
988.456	-2.03
988.882	8.97
989.308	-2.83
989.735	-5.43
990.161	-0.63
990.587	-3.13
991.014	-0.63
991.44	5.47
991.866	-0.33
992.292	-4.23
992.719	-6.23
993.145	3.67
993.571	-10.03
993.997	-2.13
994.423	-2.83
994.849	-5.73
995.275	3.27
995.701	3.37
996.127	-5.23
996.553	-6.23
996.979	-2.83
997.405	-0.23
997.83	-0.03
998.256	2.27
998.682	-6.63
999.108	-5.33
999.534	-3.03
999.959	-5.33
1000.385	-1.93
1000.811	-1.83
1001.236	-10.23
1001.662	-8.83
1002.087	-9.73
1002.513	-6.43
1002.938	3.77
1003.364	-4.03
1003.789	-1.43
1004.215	0.87
1004.64	-1.73
1005.066	0.67
1005.491	-0.53
1005.916	-0.93
1006.342	-1.53
1006.767	-7.43
1007.192	2.67
1007.617	-2.43
1008.042	-7.03
1008.468	-8.63
1008.893	-2.43
1009.318	0.37
1009.743	-1.93
1010.168	10.97
1010.593	1.27
1011.018	-10.43
1011.443	-5.03
1011.868	-0.83
1012.293	-0.33
1012.718	-7.73
1013.143	-2.03
1013.567	-5.03
1013.992	1.17
1014.417	-9.73
1014.842	1.47
1015.267	2.57
1015.691	-2.63
1016.116	4.97
1016.541	0.07
1016.965	8.17
1017.39	2.17
1017.814	-5.63
1018.239	-1.93
1018.663	-6.63
1019.088	-8.03
1019.512	-7.73
1019.937	-2.63
1020.361	-1.13
1020.785	-5.83
1021.21	-2.63
1021.634	0.47
1022.058	5.37
1022.483	-0.93
1022.907	-6.83
1023.331	-3.33
1023.755	-3.53
1024.179	-3.33
1024.604	-5.23
1025.028	-7.93
1025.452	-4.93
1025.876	-5.63
1026.3	2.17
1026.724	-8.63
1027.148	0.17
1027.572	-9.43
1027.996	-1.53
1028.42	1.37
1028.843	-3.63
1029.267	-1.33
1029.691	-6.33
1030.115	-1.83
1030.539	-3.03
1030.962	-5.43
1031.386	-4.43
1031.81	-1.03
1032.233	-0.13
1032.657	-1.13
1033.08	-6.03
1033.504	-10.83
1033.927	-6.13
1034.351	3.77
1034.774	-9.53
1035.198	-2.13
1035.621	-9.23
1036.045	-10.83
1036.468	-5.53
1036.891	-13.13
1037.315	-10.93
1037.738	-4.33
1038.161	-2.23
1038.584	-7.93
1039.008	-5.53
1039.431	-8.83
1039.854	-4.23
1040.277	-3.33
1040.7	-8.93
1041.123	-3.93
1041.546	-10.03
1041.969	-1.53
1042.392	-9.13
1042.815	-1.93
1043.238	2.57
1043.661	3.77
1044.084	-5.23
1044.507	-5.63
1044.93	-11.73
1045.352	-5.63
1045.775	-1.03
1046.198	-4.63
1046.621	0.87
1047.043	0.87
1047.466	4.67
1047.889	-5.03
1048.311	-7.03
1048.734	0.37
1049.156	-0.63
1049.579	-2.93
1050.001	-2.23
1050.424	2.07
1050.846	0.87
1051.269	-1.33
1051.691	-2.23
1052.113	-2.13
1052.536	-3.33
1052.958	-2.73
1053.38	-4.93
1053.802	-10.03
1054.225	-2.63
1054.647	-8.93
1055.069	-5.23
1055.491	2.37
1055.913	-2.43
1056.335	-0.83
1056.757	-6.73
1057.179	-8.33
1057.601	-3.83
1058.023	-7.43
1058.445	-1.93
1058.867	-4.93
1059.289	-10.93
1059.711	-6.83
1060.133	-0.23
1060.555	-0.53
1060.976	-5.53
1061.398	-4.03
1061.82	-7.43
1062.241	-5.73
1062.663	-6.83
1063.085	-3.63
1063.506	0.27
1063.928	-8.63
1064.35	2.07
1064.771	-8.83
1065.193	-1.93
1065.614	-3.63
1066.035	-2.03
1066.457	0.17
1066.878	1.77
1067.3	-8.93
1067.721	-1.93
1068.142	-3.43
1068.564	-6.83
1068.985	-6.33
1069.406	-5.93
1069.827	-7.43
1070.248	-3.83
1070.67	-2.53
1071.091	-7.23
1071.512	-6.43
1071.933	-1.73
1072.354	-9.33
1072.775	-5.63
1073.196	-5.63
1073.617	-0.33
1074.038	-8.23
1074.459	-3.13
1074.88	-10.33
1075.3	-1.83
1075.721	-6.33
1076.142	-2.63
1076.563	-5.43
1076.983	-12.93
1077.404	-9.73
1077.825	-10.93
1078.246	-0.03
1078.666	-4.03
1079.087	-8.83
1079.507	-3.93
1079.928	-3.23
1080.348	-2.03
1080.769	-9.13
1081.189	2.77
1081.61	-6.23
1082.03	-10.93
1082.451	-5.33
1082.871	2.47
1083.291	-1.63
1083.711	-6.83
1084.132	-9.13
1084.552	-9.33
1084.972	2.37
1085.392	-12.33
1085.813	-11.73
1086.233	-5.33
1086.653	-4.93
1087.073	-2.73
1087.493	-1.73
1087.913	-1.73
1088.333	-5.43
1088.753	-2.43
1089.173	2.87
1089.593	-0.83
1090.013	2.37
1090.433	0.77
1090.852	-1.13
1091.272	-5.03
1091.692	0.37
1092.112	-3.13
1092.531	-7.53
1092.951	-10.93
1093.371	0.07
1093.79	-2.73
1094.21	-5.93
1094.63	-1.43
1095.049	-10.13
1095.469	2.27
1095.888	-3.33
1096.308	1.47
1096.727	1.27
1097.146	-8.33
1097.566	-4.63
1097.985	-7.33
1098.405	-2.03
1098.824	-6.53
1099.243	-6.43
1099.662	-4.63
1100.082	-7.83
1100.501	-5.23
1100.92	-7.23
1101.339	-4.83
1101.758	-2.03
