Data from 20171114-ORNL-Ar_H_NY_Subt18_08-07-19-424.txt Node
Date: Tue Nov 14 08:07:19 EST 2017
User: Ender
Spectrometer: HR+D1039
Trigger mode: 0
Integration Time (sec): 2.730000E-2
Scans to average: 10
Electric dark correction enabled: true
Nonlinearity correction enabled: false
Boxcar width: 0
XAxis mode: Wavelengths
Number of Pixels in Spectrum: 2048
>>>>>Begin Spectral Data<<<<<
187.836	-3.01
188.309	-3.01
188.782	-3.01
189.255	2.19
189.728	-2.21
190.201	6.59
190.674	0.09
191.147	0.29
191.619	-6.61
192.092	-1.11
192.565	0.99
193.038	4.29
193.511	3.69
193.984	-0.31
194.456	0.49
194.929	-0.11
195.402	-2.01
195.874	-3.31
196.347	-5.21
196.82	-9.51
197.292	4.99
197.765	-2.21
198.237	-5.21
198.71	-2.81
199.182	-3.81
199.655	3.59
200.127	2.89
200.6	-3.41
201.072	-5.21
201.544	-4.41
202.017	-4.51
202.489	4.69
202.961	0.19
203.433	-7.71
203.906	-2.41
204.378	-11.71
204.85	-3.51
205.322	-12.91
205.794	0.29
206.266	-3.21
206.739	-7.91
207.211	0.99
207.683	-7.21
208.155	-3.81
208.627	-7.61
209.099	-3.81
209.57	-4.21
210.042	-2.51
210.514	-1.61
210.986	7.69
211.458	-7.51
211.93	-5.01
212.402	-0.61
212.873	-8.31
213.345	-8.31
213.817	-12.31
214.288	-2.61
214.76	-8.91
215.232	-5.51
215.703	-4.71
216.175	-5.91
216.646	-2.61
217.118	-10.21
217.589	-3.41
218.061	-2.81
218.532	-8.21
219.004	-0.71
219.475	-8.01
219.946	-9.41
220.418	-7.31
220.889	2.79
221.36	-4.81
221.832	-3.61
222.303	-6.51
222.774	2.39
223.245	-11.01
223.717	-7.21
224.188	-4.51
224.659	-4.01
225.13	-4.41
225.601	-2.11
226.072	0.29
226.543	1.09
227.014	-3.61
227.485	-1.61
227.956	-5.81
228.427	-6.71
228.898	0.19
229.369	1.39
229.839	-13.71
230.31	-2.51
230.781	-1.81
231.252	-4.91
231.722	-6.81
232.193	-8.11
232.664	-8.41
233.135	-7.11
233.605	-0.31
234.076	-5.01
234.546	1.09
235.017	1.89
235.487	-8.51
235.958	-8.11
236.428	-8.91
236.899	0.39
237.369	-1.61
237.84	-8.11
238.31	-1.91
238.78	-2.51
239.251	-7.51
239.721	-0.61
240.191	-1.81
240.662	-6.11
241.132	-2.51
241.602	-0.21
242.072	2.49
242.542	-3.61
243.013	-2.21
243.483	-3.41
243.953	0.69
244.423	-6.11
244.893	-8.01
245.363	2.39
245.833	1.19
246.303	-11.01
246.773	-1.11
247.243	-0.81
247.712	-3.21
248.182	8.69
248.652	-1.61
249.122	-10.71
249.592	-3.81
250.061	-2.21
250.531	7.59
251.001	2.09
251.471	5.19
251.94	3.89
252.41	-6.41
252.879	-8.61
253.349	7.49
253.818	5.19
254.288	6.39
254.757	-3.41
255.227	-10.81
255.696	-4.71
256.166	1.49
256.635	2.49
257.105	2.59
257.574	1.99
258.043	-1.51
258.513	-1.91
258.982	-3.11
259.451	-10.41
259.92	0.29
260.389	0.89
260.859	4.59
261.328	0.59
261.797	0.69
262.266	-3.31
262.735	9.89
263.204	3.89
263.673	0.09
264.142	6.09
264.611	-9.41
265.08	-3.91
265.549	-10.81
266.018	3.69
266.487	-4.81
266.955	-2.81
267.424	-2.61
267.893	3.59
268.362	-5.91
268.83	-2.01
269.299	7.99
269.768	3.59
270.236	4.19
270.705	-6.81
271.174	-2.81
271.642	0.89
272.111	-4.81
272.579	9.19
273.048	0.59
273.516	2.49
273.985	4.69
274.453	6.39
274.922	8.29
275.39	5.19
275.858	1.99
276.327	6.79
276.795	6.59
277.263	6.99
277.731	7.89
278.2	4.49
278.668	7.09
279.136	8.89
279.604	-0.51
280.072	4.09
280.54	10.79
281.008	5.89
281.477	5.59
281.945	9.79
282.413	0.79
282.881	10.49
283.348	2.29
283.816	8.49
284.284	7.89
284.752	13.79
285.22	6.79
285.688	7.39
286.156	11.99
286.623	13.09
287.091	3.59
287.559	12.59
288.026	5.19
288.494	8.29
288.962	3.69
289.429	4.29
289.897	9.29
290.364	9.79
290.832	10.89
291.3	9.49
291.767	4.89
292.234	10.39
292.702	8.89
293.169	7.19
293.637	12.39
294.104	13.09
294.571	2.89
295.039	3.59
295.506	1.59
295.973	17.59
296.44	8.59
296.908	11.69
297.375	12.19
297.842	14.79
298.309	12.09
298.776	8.89
299.243	11.69
299.71	7.29
300.177	10.89
300.644	13.89
301.111	13.99
301.578	14.99
302.045	10.09
302.512	18.29
302.979	22.19
303.446	12.29
303.913	11.39
304.379	15.99
304.846	21.89
305.313	22.69
305.78	15.49
306.246	15.09
306.713	16.19
307.18	18.79
307.646	13.59
308.113	29.39
308.579	14.09
309.046	21.79
309.512	18.69
309.979	17.49
310.445	14.99
310.912	17.19
311.378	26.09
311.845	21.09
312.311	25.89
312.777	29.29
313.244	28.39
313.71	26.39
314.176	24.79
314.642	18.39
315.109	23.19
315.575	26.99
316.041	30.99
316.507	20.49
316.973	23.29
317.439	26.29
317.905	26.69
318.371	24.59
318.837	23.49
319.303	20.49
319.769	23.99
320.235	26.29
320.701	28.19
321.167	25.99
321.633	21.69
322.099	25.39
322.564	36.79
323.03	28.09
323.496	24.59
323.962	27.89
324.427	23.79
324.893	39.59
325.359	30.89
325.824	27.49
326.29	28.39
326.755	32.39
327.221	34.29
327.686	33.09
328.152	42.89
328.617	33.49
329.083	35.79
329.548	42.49
330.014	46.19
330.479	33.29
330.944	34.89
331.41	35.89
331.875	38.99
332.34	30.99
332.805	35.89
333.271	39.39
333.736	35.59
334.201	46.09
334.666	42.89
335.131	40.09
335.596	40.89
336.061	41.59
336.526	36.89
336.991	36.49
337.456	45.29
337.921	41.19
338.386	36.69
338.851	40.09
339.316	45.99
339.781	33.29
340.246	41.99
340.711	38.29
341.175	47.29
341.64	44.99
342.105	40.89
342.569	46.39
343.034	49.39
343.499	43.89
343.963	40.99
344.428	58.99
344.893	53.09
345.357	53.19
345.822	48.69
346.286	52.29
346.751	58.69
347.215	54.99
347.679	65.09
348.144	79.29
348.608	68.99
349.073	56.79
349.537	61.39
350.001	59.99
350.465	72.99
350.93	68.99
351.394	70.19
351.858	60.99
352.322	71.49
352.786	68.59
353.25	76.59
353.715	85.29
354.179	81.49
354.643	105.29
355.107	103.39
355.571	88.09
356.035	79.59
356.498	92.79
356.962	92.19
357.426	95.19
357.89	96.89
358.354	78.09
358.818	70.49
359.281	67.89
359.745	67.39
360.209	68.99
360.673	66.69
361.136	77.49
361.6	78.79
362.064	73.99
362.527	72.69
362.991	84.39
363.454	69.09
363.918	69.99
364.381	71.49
364.845	75.69
365.308	77.19
365.772	78.59
366.235	74.49
366.698	74.09
367.162	75.29
367.625	78.49
368.088	73.89
368.552	81.39
369.015	79.09
369.478	85.89
369.941	80.59
370.404	84.49
370.867	87.59
371.331	92.99
371.794	99.19
372.257	91.09
372.72	96.49
373.183	90.09
373.646	83.89
374.109	88.79
374.572	90.59
375.035	94.39
375.497	96.99
375.96	98.39
376.423	93.89
376.886	101.49
377.349	98.49
377.811	103.29
378.274	96.29
378.737	94.09
379.199	101.59
379.662	100.79
380.125	110.29
380.587	97.99
381.05	104.79
381.512	107.89
381.975	121.79
382.437	106.89
382.9	107.49
383.362	113.39
383.825	125.19
384.287	120.39
384.75	114.09
385.212	115.79
385.674	123.29
386.136	125.69
386.599	111.69
387.061	116.39
387.523	113.29
387.985	125.19
388.447	127.09
388.91	119.19
389.372	121.09
389.834	117.89
390.296	125.69
390.758	123.99
391.22	129.99
391.682	132.19
392.144	143.79
392.606	134.89
393.068	133.29
393.529	146.19
393.991	136.39
394.453	131.49
394.915	124.39
395.377	129.09
395.838	133.49
396.3	132.39
396.762	137.09
397.224	134.49
397.685	128.69
398.147	121.09
398.608	133.09
399.07	128.69
399.531	136.99
399.993	143.79
400.454	155.09
400.916	150.59
401.377	141.19
401.839	146.59
402.3	141.99
402.762	160.39
403.223	170.59
403.684	166.09
404.145	160.29
404.607	154.49
405.068	157.39
405.529	168.19
405.99	180.99
406.451	161.09
406.913	173.19
407.374	163.39
407.835	154.49
408.296	167.59
408.757	165.29
409.218	182.29
409.679	174.79
410.14	169.09
410.601	180.39
411.062	177.29
411.522	174.49
411.983	175.99
412.444	172.79
412.905	184.59
413.366	179.79
413.826	196.39
414.287	224.19
414.748	272.39
415.208	247.09
415.669	208.99
416.13	217.09
416.59	206.79
417.051	221.99
417.511	223.99
417.972	238.99
418.432	251.29
418.893	292.29
419.353	256.59
419.814	206.99
420.274	186.29
420.734	181.59
421.195	197.29
421.655	183.39
422.115	199.09
422.576	195.09
423.036	201.99
423.496	215.99
423.956	216.49
424.416	239.79
424.876	275.89
425.336	275.79
425.797	264.59
426.257	262.79
426.717	242.29
427.177	240.69
427.637	232.59
428.097	240.39
428.556	245.69
429.016	267.39
429.476	262.29
429.936	273.29
430.396	276.39
430.856	289.19
431.315	307.69
431.775	346.59
432.235	379.39
432.694	346.59
433.154	358.69
433.614	382.19
434.073	334.39
434.533	291.69
434.993	270.19
435.452	279.39
435.912	298.49
436.371	285.99
436.83	282.49
437.29	264.39
437.749	248.89
438.209	244.19
438.668	276.49
439.127	283.99
439.587	272.49
440.046	252.69
440.505	260.09
440.964	282.79
441.424	319.99
441.883	309.79
442.342	271.59
442.801	228.59
443.26	230.99
443.719	231.39
444.178	224.89
444.637	222.29
445.096	237.39
445.555	235.09
446.014	230.99
446.473	235.69
446.932	242.49
447.391	230.99
447.849	237.59
448.308	228.09
448.767	235.29
449.226	248.99
449.685	246.19
450.143	262.99
450.602	245.49
451.061	239.99
451.519	246.89
451.978	242.69
452.436	243.69
452.895	246.49
453.353	257.59
453.812	252.89
454.27	251.89
454.729	248.99
455.187	244.59
455.646	258.39
456.104	260.79
456.562	271.39
457.021	277.19
457.479	270.69
457.937	286.69
458.395	272.49
458.854	264.09
459.312	268.49
459.77	284.79
460.228	274.99
460.686	260.29
461.144	256.79
461.602	265.49
462.06	264.09
462.518	268.19
462.976	264.49
463.434	270.09
463.892	282.29
464.35	288.09
464.808	298.09
465.266	280.99
465.724	283.69
466.181	282.59
466.639	289.09
467.097	302.49
467.555	314.99
468.012	321.89
468.47	328.49
468.928	349.49
469.385	357.69
469.843	362.29
470.3	361.29
470.758	372.49
471.215	393.99
471.673	420.39
472.13	416.19
472.588	431.49
473.045	389.79
473.503	400.59
473.96	419.59
474.417	419.19
474.875	450.59
475.332	477.79
475.789	478.79
476.246	483.69
476.704	511.59
477.161	520.39
477.618	540.29
478.075	575.59
478.532	629.59
478.989	709.29
479.446	814.09
479.903	780.89
480.36	811.49
480.817	859.99
481.274	943.19
481.731	1048.79
482.188	1121.29
482.645	1240.09
483.102	1333.99
483.558	1440.49
484.015	1500.99
484.472	1473.39
484.929	1422.79
485.385	1382.49
485.842	1361.49
486.299	1301.09
486.755	1275.69
487.212	1074.89
487.668	924.99
488.125	864.99
488.582	796.29
489.038	765.49
489.494	720.49
489.951	699.29
490.407	693.09
490.864	670.29
491.32	670.99
491.776	663.99
492.233	668.49
492.689	629.49
493.145	631.09
493.602	629.89
494.058	645.89
494.514	640.69
494.97	657.49
495.426	668.69
495.882	642.99
496.338	633.19
496.794	652.69
497.251	642.39
497.707	655.79
498.163	663.79
498.618	665.49
499.074	669.49
499.53	702.69
499.986	693.29
500.442	672.29
500.898	656.29
501.354	638.09
501.809	652.09
502.265	656.89
502.721	662.79
503.177	673.19
503.632	671.89
504.088	672.99
504.543	697.29
504.999	714.19
505.455	684.39
505.91	664.99
506.366	661.49
506.821	672.89
507.277	664.79
507.732	660.39
508.187	672.49
508.643	679.99
509.098	678.49
509.553	693.39
510.009	704.99
510.464	709.39
510.919	737.09
511.375	727.79
511.83	752.69
512.285	750.99
512.74	797.19
513.195	812.79
513.65	815.09
514.105	799.79
514.56	801.69
515.015	822.89
515.47	834.49
515.925	823.89
516.38	819.79
516.835	837.49
517.29	810.39
517.745	824.19
518.2	802.39
518.655	789.19
519.109	790.19
519.564	787.99
520.019	772.49
520.474	772.79
520.928	765.19
521.383	754.69
521.838	756.09
522.292	757.49
522.747	744.59
523.201	745.49
523.656	741.99
524.11	734.39
524.565	731.29
525.019	726.59
525.474	728.29
525.928	735.69
526.382	740.79
526.837	735.09
527.291	740.29
527.745	732.29
528.2	728.89
528.654	731.29
529.108	725.79
529.562	718.09
530.016	726.19
530.47	719.89
530.925	727.29
531.379	723.99
531.833	734.59
532.287	736.39
532.741	733.59
533.195	742.09
533.649	742.19
534.103	760.89
534.556	747.19
535.01	739.09
535.464	741.39
535.918	754.89
536.372	759.49
536.826	749.99
537.279	747.79
537.733	750.79
538.187	753.49
538.64	741.49
539.094	758.89
539.548	759.79
540.001	752.19
540.455	753.79
540.908	782.09
541.362	774.89
541.815	780.09
542.269	795.89
542.722	795.99
543.175	803.69
543.629	802.09
544.082	822.79
544.536	833.09
544.989	824.09
545.442	837.69
545.895	827.39
546.349	837.49
546.802	833.69
547.255	846.29
547.708	842.49
548.161	850.59
548.614	861.09
549.067	875.99
549.52	875.09
549.973	852.59
550.426	848.49
550.879	845.49
551.332	844.59
551.785	843.99
552.238	850.99
552.691	865.99
553.144	877.99
553.596	890.59
554.049	911.79
554.502	934.39
554.955	959.69
555.407	958.99
555.86	946.69
556.313	933.79
556.765	927.79
557.218	931.99
557.67	926.79
558.123	929.09
558.576	921.29
559.028	925.89
559.48	937.49
559.933	913.29
560.385	883.59
560.838	856.49
561.29	826.49
561.742	820.79
562.195	802.29
562.647	808.69
563.099	808.09
563.551	810.29
564.004	818.49
564.456	806.29
564.908	790.79
565.36	786.49
565.812	773.89
566.264	756.09
566.716	757.09
567.168	736.09
567.62	747.29
568.072	731.89
568.524	742.59
568.976	731.39
569.428	701.59
569.88	715.29
570.332	724.29
570.784	719.89
571.235	726.49
571.687	737.39
572.139	742.99
572.59	758.89
573.042	748.99
573.494	746.09
573.945	738.29
574.397	725.39
574.849	723.79
575.3	734.99
575.752	720.99
576.203	707.89
576.655	726.49
577.106	707.29
577.557	693.09
578.009	705.09
578.46	693.89
578.912	698.49
579.363	692.19
579.814	704.89
580.265	704.19
580.717	702.39
581.168	701.89
581.619	706.19
582.07	710.19
582.521	707.19
582.972	700.29
583.423	719.79
583.875	711.79
584.326	707.69
584.777	726.19
585.227	737.29
585.678	751.39
586.129	770.89
586.58	787.19
587.031	810.19
587.482	835.99
587.933	860.29
588.384	847.39
588.834	808.79
589.285	808.99
589.736	810.39
590.186	810.49
590.637	804.09
591.088	784.39
591.538	761.59
591.989	766.49
592.439	754.89
592.89	755.59
593.34	739.99
593.791	736.19
594.241	734.69
594.692	726.99
595.142	727.99
595.593	721.89
596.043	739.09
596.493	738.69
596.943	737.09
597.394	749.39
597.844	754.49
598.294	770.89
598.744	788.89
599.195	806.29
599.645	865.99
600.095	897.89
600.545	957.09
600.995	1019.09
601.445	1080.39
601.895	1130.39
602.345	1189.79
602.795	1163.89
603.245	1107.69
603.695	1061.29
604.145	1003.89
604.594	953.69
605.044	901.79
605.494	828.89
605.944	795.89
606.393	773.69
606.843	767.69
607.293	762.29
607.743	758.79
608.192	772.59
608.642	784.89
609.091	792.99
609.541	791.89
609.99	804.99
610.44	784.29
610.889	741.69
611.339	727.69
611.788	713.29
612.238	713.49
612.687	730.09
613.136	724.39
613.586	734.79
614.035	737.79
614.484	734.09
614.933	739.99
615.383	739.49
615.832	732.39
616.281	737.29
616.73	686.19
617.179	677.49
617.628	672.99
618.077	653.19
618.526	645.19
618.975	644.09
619.424	634.99
619.873	641.19
620.322	642.29
620.771	625.09
621.22	633.59
621.669	616.09
622.118	614.69
622.567	599.69
623.015	597.79
623.464	593.19
623.913	577.79
624.361	582.49
624.81	575.89
625.259	570.79
625.707	575.09
626.156	583.59
626.604	587.09
627.053	587.29
627.501	581.89
627.95	591.99
628.398	605.59
628.847	585.59
629.295	587.59
629.744	592.89
630.192	598.59
630.64	585.39
631.089	565.69
631.537	549.19
631.985	553.49
632.433	543.99
632.881	543.29
633.33	552.69
633.778	542.69
634.226	545.79
634.674	550.29
635.122	568.29
635.57	570.59
636.018	578.79
636.466	568.49
636.914	573.69
637.362	606.29
637.81	592.69
638.258	614.89
638.705	604.29
639.153	628.39
639.601	646.09
640.049	666.29
640.497	700.59
640.944	717.19
641.392	660.89
641.84	633.09
642.287	603.09
642.735	578.69
643.182	578.59
643.63	578.49
644.078	572.59
644.525	589.29
644.973	602.39
645.42	615.89
645.867	644.09
646.315	648.79
646.762	669.49
647.21	704.69
647.657	713.69
648.104	758.49
648.551	764.09
648.999	842.79
649.446	914.29
649.893	993.19
650.34	1124.99
650.787	1344.79
651.234	1665.29
651.682	2137.89
652.129	2900.69
652.576	4110.59
653.023	6004.59
653.47	8110.29
653.917	10062.89
654.363	11580.59
654.81	12773.69
655.257	12091.59
655.704	8008.99
656.151	4823.29
656.598	3144.79
657.044	2268.39
657.491	1759.99
657.938	1422.99
658.385	1212.29
658.831	1056.49
659.278	935.99
659.724	841.09
660.171	777.09
660.618	726.99
661.064	696.69
661.511	670.49
661.957	660.29
662.404	647.39
662.85	654.29
663.296	635.69
663.743	567.79
664.189	552.39
664.635	546.89
665.082	539.09
665.528	542.89
665.974	538.99
666.42	528.39
666.867	517.49
667.313	500.69
667.759	486.89
668.205	461.99
668.651	464.89
669.097	464.49
669.543	458.59
669.989	458.09
670.435	458.99
670.881	463.39
671.327	467.89
671.773	473.39
672.219	510.29
672.665	569.19
673.11	611.79
673.556	650.99
674.002	691.19
674.448	687.09
674.893	565.69
675.339	493.29
675.785	454.79
676.23	436.79
676.676	409.29
677.122	398.19
677.567	385.69
678.013	389.29
678.458	372.59
678.904	382.69
679.349	368.99
679.794	374.99
680.24	369.29
680.685	358.49
681.131	366.69
681.576	361.99
682.021	370.99
682.466	368.59
682.912	358.99
683.357	368.69
683.802	400.59
684.247	429.09
684.692	484.79
685.137	522.89
685.583	562.19
686.028	583.79
686.473	538.49
686.918	464.29
687.363	435.49
687.807	405.19
688.252	387.59
688.697	373.49
689.142	360.09
689.587	349.99
690.032	341.69
690.477	358.39
690.921	364.49
691.366	405.79
691.811	417.69
692.255	443.99
692.7	481.89
693.145	525.89
693.589	735.59
694.034	1197.99
694.478	1627.59
694.923	1836.29
695.367	2393.69
695.812	1249.19
696.256	524.79
696.701	385.39
697.145	363.39
697.59	339.39
698.034	335.39
698.478	336.49
698.922	340.39
699.367	337.39
699.811	350.89
700.255	369.89
700.699	394.99
701.143	442.19
701.588	495.89
702.032	531.39
702.476	534.29
702.92	515.39
703.364	516.89
703.808	684.29
704.252	1101.89
704.696	1543.19
705.14	1749.59
705.584	2232.19
706.027	1123.89
706.471	549.29
706.915	410.39
707.359	368.19
707.803	339.09
708.246	319.19
708.69	326.79
709.134	321.59
709.577	327.89
710.021	337.09
710.465	321.39
710.908	317.69
711.352	308.29
711.795	322.59
712.239	375.79
712.682	406.29
713.126	434.39
713.569	471.99
714.012	376.09
714.456	316.49
714.899	309.49
715.342	284.99
715.786	263.39
716.229	264.99
716.672	265.49
717.115	259.49
717.558	267.89
718.002	261.79
718.445	278.09
718.888	297.59
719.331	302.79
719.774	320.89
720.217	322.19
720.66	298.69
721.103	279.39
721.546	262.29
721.989	256.59
722.432	244.29
722.874	253.29
723.317	236.19
723.76	238.09
724.203	259.79
724.645	327.49
725.088	464.09
725.531	591.79
725.974	673.39
726.416	571.09
726.859	331.09
727.301	265.49
727.744	246.39
728.187	246.89
728.629	245.79
729.071	247.59
729.514	262.69
729.956	277.69
730.399	293.09
730.841	309.39
731.283	285.19
731.726	273.29
732.168	271.09
732.61	281.59
733.053	300.49
733.495	327.69
733.937	367.89
734.379	414.69
734.821	456.69
735.263	570.79
735.705	884.79
736.148	1690.79
736.59	2740.59
737.032	3214.69
737.474	2609.19
737.916	860.99
738.357	452.89
738.799	341.09
739.241	316.19
739.683	291.39
740.125	297.09
740.567	307.29
741.008	332.79
741.45	326.69
741.892	333.19
742.334	362.29
742.775	380.89
743.217	363.59
743.658	288.39
744.1	270.79
744.542	273.69
744.983	328.99
745.425	360.99
745.866	365.89
746.307	298.29
746.749	296.49
747.19	335.29
747.632	482.89
748.073	942.49
748.514	1994.99
748.956	3016.09
749.397	3782.79
749.838	3152.59
750.279	3113.09
750.72	1586.89
751.162	578.69
751.603	341.19
752.044	267.59
752.485	227.29
752.926	218.79
753.367	211.29
753.808	201.29
754.249	200.99
754.69	200.29
755.131	191.49
755.572	188.79
756.013	188.79
756.453	194.69
756.894	202.19
757.335	200.89
757.776	208.09
758.216	202.69
758.657	207.09
759.098	209.09
759.538	238.39
759.979	284.59
760.42	391.69
760.86	753.59
761.301	1981.09
761.741	4725.39
762.182	6774.09
762.622	4780.69
763.063	1388.89
763.503	564.79
763.943	339.79
764.384	274.29
764.824	258.59
765.264	229.99
765.705	214.79
766.145	193.69
766.585	179.79
767.025	177.39
767.465	172.49
767.906	177.79
768.346	189.19
768.786	205.99
769.226	220.49
769.666	323.49
770.106	664.79
770.546	1656.29
770.986	2778.59
771.426	2497.09
771.866	838.99
772.306	343.89
772.745	212.29
773.185	171.19
773.625	170.29
774.065	153.69
774.505	169.89
774.944	217.69
775.384	371.29
775.824	598.49
776.263	572.49
776.703	282.29
777.142	159.19
777.582	143.19
778.021	130.69
778.461	124.29
778.9	128.09
779.34	129.39
779.779	114.49
780.219	113.19
780.658	115.79
781.097	112.19
781.537	119.39
781.976	115.49
782.415	113.59
782.855	109.19
783.294	106.09
783.733	110.09
784.172	109.89
784.611	102.99
785.05	113.39
785.489	124.79
785.928	117.99
786.367	125.19
786.806	121.29
787.245	133.79
787.684	139.69
788.123	157.09
788.562	136.19
789.001	131.19
789.44	128.39
789.879	118.69
790.317	121.29
790.756	137.19
791.195	137.59
791.634	150.79
792.072	208.39
792.511	383.69
792.95	1067.79
793.388	2228.49
793.827	1998.79
794.265	700.89
794.704	292.89
795.142	187.29
795.581	161.99
796.019	136.09
796.458	135.29
796.896	133.99
797.334	139.39
797.773	160.39
798.211	237.49
798.649	472.59
799.087	1084.39
799.526	1693.69
799.964	2129.49
800.402	2120.09
800.84	800.89
801.278	314.69
801.716	197.99
802.154	168.49
802.592	153.29
803.03	155.19
803.468	144.79
803.906	148.69
804.344	155.79
804.782	148.49
805.22	141.09
805.658	142.19
806.096	155.19
806.533	167.09
806.971	186.19
807.409	227.19
807.847	342.09
808.284	720.59
808.722	2001.89
809.16	3491.69
809.597	3349.49
810.035	5820.79
810.472	6098.69
810.91	2234.09
811.347	843.29
811.785	431.19
812.222	265.69
812.66	210.69
813.097	175.89
813.535	143.29
813.972	138.19
814.409	129.39
814.846	115.29
815.284	110.89
815.721	106.39
816.158	113.49
816.595	114.39
817.032	157.19
817.47	188.49
817.907	134.29
818.344	105.39
818.781	110.09
819.218	100.49
819.655	123.49
820.092	194.19
820.529	228.39
820.966	177.59
821.403	136.99
821.839	104.49
822.276	100.69
822.713	128.19
823.15	143.19
823.587	123.39
824.023	155.29
824.46	323.69
824.897	962.79
825.333	1419.79
825.77	615.29
826.206	246.69
826.643	143.19
827.08	104.29
827.516	97.59
827.953	82.59
828.389	87.29
828.825	68.59
829.262	70.99
829.698	70.29
830.135	61.79
830.571	70.49
831.007	64.39
831.443	69.09
831.88	58.19
832.316	56.49
832.752	62.59
833.188	68.19
833.624	64.29
834.06	68.99
834.497	73.09
834.933	77.29
835.369	81.39
835.805	71.29
836.241	77.29
836.677	84.09
837.112	93.69
837.548	111.09
837.984	138.29
838.42	213.39
838.856	537.19
839.292	1631.39
839.727	2404.89
840.163	1137.39
840.599	990.39
841.034	2169.49
841.47	2260.19
841.906	823.79
842.341	346.89
842.777	203.69
843.212	211.59
843.648	193.29
844.083	117.59
844.519	82.49
844.954	69.99
845.39	62.89
845.825	58.79
846.261	60.09
846.696	57.49
847.131	51.89
847.566	62.89
848.002	54.29
848.437	54.59
848.872	61.39
849.307	61.79
849.742	86.89
850.177	190.09
850.613	592.49
851.048	924.99
851.483	398.09
851.918	166.39
852.353	94.39
852.788	57.99
853.223	54.19
853.657	53.89
854.092	50.99
854.527	42.59
854.962	43.99
855.397	41.89
855.832	52.39
856.266	39.29
856.701	46.69
857.136	37.49
857.57	42.19
858.005	59.09
858.44	56.59
858.874	51.79
859.309	56.39
859.743	43.79
860.178	49.89
860.612	41.19
861.047	53.89
861.481	75.39
861.915	77.89
862.35	47.69
862.784	37.19
863.218	48.29
863.653	33.29
864.087	45.29
864.521	61.09
864.955	72.39
865.39	161.99
865.824	176.49
866.258	117.79
866.692	178.19
867.126	189.59
867.56	118.79
867.994	56.19
868.428	46.29
868.862	42.19
869.296	52.89
869.73	61.59
870.164	55.19
870.598	50.09
871.031	41.69
871.465	29.69
871.899	33.39
872.333	30.89
872.766	27.29
873.2	24.29
873.634	32.49
874.067	28.29
874.501	27.69
874.935	32.59
875.368	37.99
875.802	25.99
876.235	26.09
876.669	26.69
877.102	22.49
877.535	28.09
877.969	21.59
878.402	28.09
878.836	18.09
879.269	26.79
879.702	29.39
880.135	20.59
880.569	22.99
881.002	23.49
881.435	14.69
881.868	21.09
882.301	24.49
882.734	15.89
883.167	20.29
883.601	16.89
884.034	18.59
884.467	9.89
884.899	22.79
885.332	16.69
885.765	17.19
886.198	14.79
886.631	12.79
887.064	19.09
887.497	16.89
887.929	24.59
888.362	16.09
888.795	14.99
889.228	18.19
889.66	15.19
890.093	14.69
890.526	10.79
890.958	21.99
891.391	18.49
891.823	26.39
892.256	16.19
892.688	16.49
893.121	21.29
893.553	15.89
893.985	22.89
894.418	19.99
894.85	17.29
895.282	18.29
895.715	20.79
896.147	23.49
896.579	19.89
897.011	11.19
897.444	16.09
897.876	15.09
898.308	23.09
898.74	14.79
899.172	13.29
899.604	26.99
900.036	15.49
900.468	11.99
900.9	18.09
901.332	23.39
901.764	13.49
902.196	22.99
902.628	12.79
903.06	14.29
903.491	28.39
903.923	18.49
904.355	22.59
904.787	26.89
905.218	17.89
905.65	18.19
906.082	10.89
906.513	10.29
906.945	16.39
907.376	14.79
907.808	15.79
908.239	23.89
908.671	20.49
909.102	24.79
909.534	29.79
909.965	46.79
910.397	96.69
910.828	333.69
911.259	491.89
911.691	227.59
912.122	113.49
912.553	54.69
912.984	36.89
913.415	25.09
913.847	22.49
914.278	15.99
914.709	18.79
915.14	20.89
915.571	13.49
916.002	10.39
916.433	22.09
916.864	19.09
917.295	14.49
917.726	24.19
918.157	19.89
918.587	33.79
919.018	23.29
919.449	17.29
919.88	26.09
920.311	30.29
920.741	47.49
921.172	180.79
921.603	156.49
922.033	76.59
922.464	49.79
922.895	25.49
923.325	21.29
923.756	16.59
924.186	11.69
924.617	22.09
925.047	23.09
925.478	22.19
925.908	21.09
926.338	14.39
926.769	9.89
927.199	14.29
927.629	8.99
928.06	12.29
928.49	13.49
928.92	10.09
929.35	9.69
929.78	12.49
930.21	5.99
930.641	9.99
931.071	9.09
931.501	0.19
931.931	4.09
932.361	8.99
932.791	0.99
933.221	3.69
933.651	2.29
934.08	21.69
934.51	29.09
934.94	12.69
935.37	15.69
935.8	17.49
936.229	8.29
936.659	4.09
937.089	1.59
937.519	16.99
937.948	18.59
938.378	21.09
938.807	3.89
939.237	9.29
939.666	12.19
940.096	0.29
940.525	0.99
940.955	4.69
941.384	2.89
941.814	-6.71
942.243	-2.91
942.672	1.59
943.102	-3.01
943.531	-6.31
943.96	1.39
944.39	5.29
944.819	6.59
945.248	6.19
945.677	0.49
946.106	5.99
946.535	0.19
946.964	3.79
947.393	-0.61
947.822	0.19
948.251	-8.01
948.68	5.29
949.109	4.29
949.538	5.89
949.967	5.59
950.396	1.39
950.825	2.99
951.254	2.99
951.682	-4.51
952.111	3.89
952.54	5.09
952.969	-8.21
953.397	-4.11
953.826	2.39
954.254	-4.61
954.683	-0.91
955.112	1.29
955.54	-0.21
955.969	-0.61
956.397	4.09
956.826	-10.41
957.254	8.39
957.682	-3.51
958.111	4.69
958.539	1.09
958.967	0.59
959.396	-2.01
959.824	-3.71
960.252	7.89
960.68	-7.11
961.109	-5.61
961.537	-8.81
961.965	1.29
962.393	2.99
962.821	-5.61
963.249	6.69
963.677	1.09
964.105	2.09
964.533	44.19
964.961	44.19
965.389	20.49
965.817	2.59
966.245	-0.41
966.672	0.19
967.1	-7.21
967.528	0.29
967.956	1.39
968.383	2.39
968.811	-2.91
969.239	-1.31
969.666	-2.61
970.094	5.29
970.522	1.29
970.949	-0.31
971.377	-0.91
971.804	-2.31
972.232	-2.71
972.659	0.99
973.087	-1.91
973.514	-3.91
973.941	-2.91
974.369	-0.21
974.796	-6.31
975.223	1.39
975.651	3.19
976.078	0.59
976.505	2.59
976.932	6.69
977.359	13.49
977.786	18.29
978.214	2.59
978.641	-3.91
979.068	-7.41
979.495	-3.21
979.922	0.79
980.349	-0.01
980.776	2.29
981.202	1.09
981.629	2.49
982.056	-4.11
982.483	2.69
982.91	0.29
983.337	-6.81
983.763	-1.11
984.19	-2.61
984.617	-7.51
985.043	-3.71
985.47	-2.01
985.897	-2.91
986.323	-8.11
986.75	-1.51
987.176	-2.81
987.603	-8.21
988.029	-1.01
988.456	-7.71
988.882	3.39
989.308	-5.21
989.735	-3.01
990.161	4.89
990.587	-3.71
991.014	-0.41
991.44	7.49
991.866	0.89
992.292	-4.51
992.719	-1.21
993.145	-1.81
993.571	-9.71
993.997	-5.61
994.423	0.59
994.849	-3.41
995.275	2.49
995.701	1.09
996.127	-2.91
996.553	-1.41
996.979	-6.01
997.405	-5.91
997.83	-1.81
998.256	-8.71
998.682	-9.21
999.108	-9.61
999.534	-6.01
999.959	-0.81
1000.385	-2.21
1000.811	2.29
1001.236	-8.71
1001.662	-10.11
1002.087	-8.71
1002.513	2.69
1002.938	-6.41
1003.364	-0.81
1003.789	0.39
1004.215	3.19
1004.64	-7.51
1005.066	0.69
1005.491	4.39
1005.916	-2.91
1006.342	-4.91
1006.767	-10.21
1007.192	0.99
1007.617	-7.21
1008.042	-8.41
1008.468	-8.11
1008.893	-5.21
1009.318	0.49
1009.743	-7.21
1010.168	3.89
1010.593	2.59
1011.018	-3.91
1011.443	-8.71
1011.868	1.79
1012.293	-0.81
1012.718	-10.21
1013.143	-2.41
1013.567	-7.61
1013.992	1.79
1014.417	-16.21
1014.842	2.09
1015.267	-1.61
1015.691	-5.01
1016.116	2.89
1016.541	0.09
1016.965	1.69
1017.39	-3.01
1017.814	-3.81
1018.239	-4.11
1018.663	-6.61
1019.088	-13.01
1019.512	-1.81
1019.937	3.69
1020.361	-5.81
1020.785	-6.21
1021.21	-0.11
1021.634	1.89
1022.058	-2.71
1022.483	2.69
1022.907	-1.61
1023.331	-8.21
1023.755	-8.41
1024.179	-3.61
1024.604	-5.31
1025.028	-5.51
1025.452	-3.91
1025.876	-0.01
1026.3	-1.01
1026.724	-10.11
1027.148	-7.21
1027.572	-7.21
1027.996	-2.21
1028.42	3.59
1028.843	-4.11
1029.267	-7.41
1029.691	-4.71
1030.115	-10.71
1030.539	-8.31
1030.962	-0.31
1031.386	-9.31
1031.81	0.89
1032.233	1.89
1032.657	-4.11
1033.08	2.69
1033.504	-1.81
1033.927	-7.21
1034.351	1.99
1034.774	-2.01
1035.198	-1.11
1035.621	-2.51
1036.045	-6.11
1036.468	-2.61
1036.891	-11.21
1037.315	-9.51
1037.738	-8.01
1038.161	-3.71
1038.584	-6.91
1039.008	-3.11
1039.431	-0.81
1039.854	-4.71
1040.277	-13.61
1040.7	-10.11
1041.123	-4.71
1041.546	-5.51
1041.969	-4.71
1042.392	-4.91
1042.815	-8.51
1043.238	1.39
1043.661	0.49
1044.084	-8.31
1044.507	-4.91
1044.93	-9.61
1045.352	-5.81
1045.775	-3.41
1046.198	-1.41
1046.621	-3.51
1047.043	1.39
1047.466	1.19
1047.889	-3.91
1048.311	-2.61
1048.734	-3.41
1049.156	-0.01
1049.579	-4.71
1050.001	-4.61
1050.424	-0.41
1050.846	-8.51
1051.269	-5.31
1051.691	-7.21
1052.113	-4.91
1052.536	-6.01
1052.958	-2.81
1053.38	-9.11
1053.802	-8.91
1054.225	1.49
1054.647	-9.31
1055.069	-6.71
1055.491	-5.21
1055.913	-7.71
1056.335	-0.31
1056.757	-2.01
1057.179	-11.41
1057.601	-5.81
1058.023	-1.21
1058.445	-1.81
1058.867	-3.21
1059.289	-1.31
1059.711	-7.41
1060.133	-2.91
1060.555	-3.01
1060.976	-8.21
1061.398	-2.91
1061.82	-4.31
1062.241	-4.71
1062.663	-8.41
1063.085	-2.61
1063.506	-3.81
1063.928	-3.51
1064.35	2.29
1064.771	-12.61
1065.193	-2.31
1065.614	-7.51
1066.035	-5.31
1066.457	-9.61
1066.878	-3.91
1067.3	-3.21
1067.721	-1.51
1068.142	-7.01
1068.564	-7.01
1068.985	-14.41
1069.406	-4.11
1069.827	-5.01
1070.248	-3.21
1070.67	-8.51
1071.091	-7.51
1071.512	-2.71
1071.933	-7.71
1072.354	-10.21
1072.775	-4.81
1073.196	-9.21
1073.617	-3.91
1074.038	-7.01
1074.459	-5.01
1074.88	-11.21
1075.3	0.09
1075.721	-2.31
1076.142	-0.21
1076.563	5.79
1076.983	-9.41
1077.404	-8.81
1077.825	-7.01
1078.246	-3.91
1078.666	-10.91
1079.087	-5.91
1079.507	-7.61
1079.928	-3.61
1080.348	-2.11
1080.769	-8.51
1081.189	1.79
1081.61	-3.91
1082.03	-8.61
1082.451	-8.01
1082.871	-5.61
1083.291	-6.91
1083.711	-8.01
1084.132	-5.61
1084.552	-9.21
1084.972	1.79
1085.392	-13.01
1085.813	-9.21
1086.233	-6.71
1086.653	-8.31
1087.073	1.99
1087.493	-6.61
1087.913	-6.31
1088.333	-7.31
1088.753	-1.21
1089.173	-1.61
1089.593	-3.31
1090.013	-1.91
1090.433	0.69
1090.852	-6.81
1091.272	-2.11
1091.692	-2.81
1092.112	-5.31
1092.531	-8.11
1092.951	-14.91
1093.371	-1.71
1093.79	-0.01
1094.21	-8.71
1094.63	-7.31
1095.049	-6.01
1095.469	-5.51
1095.888	-7.51
1096.308	4.59
1096.727	2.29
1097.146	-3.41
1097.566	-0.61
1097.985	-11.41
1098.405	-0.71
1098.824	-8.41
1099.243	-8.51
1099.662	-7.41
1100.082	0.49
1100.501	-3.41
1100.92	-9.61
1101.339	-7.41
1101.758	-7.41
