Data from 20171114-ORNL-Ar_H_NY_Subt18_08-04-51-198.txt Node
Date: Tue Nov 14 08:04:51 EST 2017
User: Ender
Spectrometer: HR+D1039
Trigger mode: 0
Integration Time (sec): 2.730000E-2
Scans to average: 10
Electric dark correction enabled: true
Nonlinearity correction enabled: false
Boxcar width: 0
XAxis mode: Wavelengths
Number of Pixels in Spectrum: 2048
>>>>>Begin Spectral Data<<<<<
187.836	-4.41
188.309	-4.41
188.782	-4.41
189.255	2.49
189.728	2.19
190.201	8.29
190.674	1.39
191.147	-4.31
191.619	-4.31
192.092	2.09
192.565	5.99
193.038	-0.01
193.511	-1.71
193.984	3.09
194.456	2.89
194.929	-5.51
195.402	-5.31
195.874	-2.81
196.347	-1.61
196.82	-3.41
197.292	8.79
197.765	2.19
198.237	-5.31
198.71	-2.61
199.182	-0.01
199.655	1.19
200.127	-1.71
200.6	-5.01
201.072	0.89
201.544	-7.61
202.017	-4.41
202.489	9.69
202.961	-5.31
203.433	-0.91
203.906	-1.81
204.378	-4.61
204.85	0.09
205.322	-11.01
205.794	-0.61
206.266	-3.51
206.739	-6.41
207.211	3.09
207.683	-7.71
208.155	-2.01
208.627	-5.11
209.099	-0.11
209.57	-6.31
210.042	-0.71
210.514	-4.01
210.986	0.99
211.458	-6.71
211.93	3.09
212.402	4.59
212.873	-2.91
213.345	-6.61
213.817	-7.51
214.288	-8.21
214.76	-15.41
215.232	-7.21
215.703	-0.11
216.175	-2.11
216.646	-1.01
217.118	-4.51
217.589	-1.81
218.061	-0.81
218.532	-3.01
219.004	-1.41
219.475	-0.91
219.946	-3.31
220.418	-3.11
220.889	7.89
221.36	3.79
221.832	-2.21
222.303	-7.41
222.774	1.69
223.245	-9.31
223.717	-3.71
224.188	-3.11
224.659	-2.51
225.13	-3.41
225.601	0.89
226.072	-0.61
226.543	-2.11
227.014	2.69
227.485	0.19
227.956	-2.11
228.427	2.09
228.898	4.09
229.369	5.49
229.839	-2.71
230.31	-6.01
230.781	1.69
231.252	-1.11
231.722	-4.51
232.193	3.59
232.664	-5.41
233.135	4.49
233.605	6.69
234.076	-6.71
234.546	4.09
235.017	8.79
235.487	4.59
235.958	-1.21
236.428	4.09
236.899	8.19
237.369	10.09
237.84	-3.01
238.31	4.49
238.78	5.09
239.251	-0.21
239.721	6.59
240.191	3.69
240.662	0.09
241.132	-1.21
241.602	-1.71
242.072	2.09
242.542	12.69
243.013	6.09
243.483	6.69
243.953	3.69
244.423	3.09
244.893	-6.51
245.363	6.19
245.833	2.49
246.303	1.09
246.773	8.79
247.243	1.59
247.712	6.39
248.182	11.09
248.652	7.09
249.122	-1.81
249.592	12.69
250.061	25.29
250.531	44.39
251.001	24.09
251.471	24.09
251.94	25.19
252.41	10.09
252.879	-2.21
253.349	13.39
253.818	8.99
254.288	2.89
254.757	3.79
255.227	4.09
255.696	10.09
256.166	9.19
256.635	11.79
257.105	10.59
257.574	7.99
258.043	10.19
258.513	15.99
258.982	21.19
259.451	9.99
259.92	17.09
260.389	10.79
260.859	17.59
261.328	17.29
261.797	24.19
262.266	13.39
262.735	16.99
263.204	8.69
263.673	5.59
264.142	6.49
264.611	-1.71
265.08	-0.41
265.549	-2.41
266.018	4.89
266.487	0.89
266.955	-1.41
267.424	4.89
267.893	9.59
268.362	4.89
268.83	9.89
269.299	12.89
269.768	8.29
270.236	8.89
270.705	9.39
271.174	10.99
271.642	12.39
272.111	14.99
272.579	25.39
273.048	27.19
273.516	29.79
273.985	30.49
274.453	28.79
274.922	24.19
275.39	13.29
275.858	8.19
276.327	12.49
276.795	20.89
277.263	11.79
277.731	33.89
278.2	58.99
278.668	65.59
279.136	47.49
279.604	22.19
280.072	21.09
280.54	12.19
281.008	15.49
281.477	20.79
281.945	15.79
282.413	24.39
282.881	15.49
283.348	10.89
283.816	23.39
284.284	15.59
284.752	24.99
285.22	18.09
285.688	19.99
286.156	22.49
286.623	48.89
287.091	51.99
287.559	30.69
288.026	20.19
288.494	19.89
288.962	3.69
289.429	11.59
289.897	23.79
290.364	14.89
290.832	21.89
291.3	19.69
291.767	31.09
292.234	20.19
292.702	16.89
293.169	22.09
293.637	28.79
294.104	18.39
294.571	12.49
295.039	14.39
295.506	11.89
295.973	24.59
296.44	16.69
296.908	19.69
297.375	22.39
297.842	22.29
298.309	18.49
298.776	18.39
299.243	22.19
299.71	20.29
300.177	26.39
300.644	28.39
301.111	24.29
301.578	29.79
302.045	19.29
302.512	26.29
302.979	29.79
303.446	25.09
303.913	23.49
304.379	21.89
304.846	25.19
305.313	26.99
305.78	29.49
306.246	26.09
306.713	34.09
307.18	26.49
307.646	31.59
308.113	27.49
308.579	22.09
309.046	30.79
309.512	27.39
309.979	20.09
310.445	31.69
310.912	32.49
311.378	37.79
311.845	32.99
312.311	34.69
312.777	28.99
313.244	35.09
313.71	39.39
314.176	29.59
314.642	37.89
315.109	30.09
315.575	38.99
316.041	36.59
316.507	35.29
316.973	40.79
317.439	42.09
317.905	40.59
318.371	38.69
318.837	42.79
319.303	41.89
319.769	39.89
320.235	37.79
320.701	39.39
321.167	43.09
321.633	41.59
322.099	45.69
322.564	48.49
323.03	51.49
323.496	44.79
323.962	42.89
324.427	39.39
324.893	41.39
325.359	41.79
325.824	40.89
326.29	44.69
326.755	44.19
327.221	46.29
327.686	39.49
328.152	53.39
328.617	44.19
329.083	47.89
329.548	53.59
330.014	51.09
330.479	41.89
330.944	46.19
331.41	43.79
331.875	48.19
332.34	47.19
332.805	47.79
333.271	51.79
333.736	48.69
334.201	59.19
334.666	56.39
335.131	62.79
335.596	52.49
336.061	51.39
336.526	44.89
336.991	46.59
337.456	59.39
337.921	53.39
338.386	45.49
338.851	52.79
339.316	47.29
339.781	49.09
340.246	48.59
340.711	50.09
341.175	53.39
341.64	47.59
342.105	55.49
342.569	62.29
343.034	63.59
343.499	55.99
343.963	58.99
344.428	60.49
344.893	61.59
345.357	65.29
345.822	63.89
346.286	70.69
346.751	82.49
347.215	73.59
347.679	79.09
348.144	100.29
348.608	86.39
349.073	72.29
349.537	78.49
350.001	86.29
350.465	89.79
350.93	89.79
351.394	82.49
351.858	77.49
352.322	92.49
352.786	92.79
353.25	107.19
353.715	112.19
354.179	98.49
354.643	121.39
355.107	132.19
355.571	110.69
356.035	103.79
356.498	109.79
356.962	126.29
357.426	133.19
357.89	119.69
358.354	95.99
358.818	85.49
359.281	82.29
359.745	75.89
360.209	81.99
360.673	79.89
361.136	82.39
361.6	84.99
362.064	84.99
362.527	90.79
362.991	97.19
363.454	86.69
363.918	76.29
364.381	73.89
364.845	87.79
365.308	87.89
365.772	85.49
366.235	88.69
366.698	82.69
367.162	86.59
367.625	84.39
368.088	86.29
368.552	85.89
369.015	89.99
369.478	93.99
369.941	101.69
370.404	91.39
370.867	109.39
371.331	100.79
371.794	112.89
372.257	109.09
372.72	114.99
373.183	109.79
373.646	104.59
374.109	103.99
374.572	104.19
375.035	117.29
375.497	107.79
375.96	100.89
376.423	105.39
376.886	115.99
377.349	110.89
377.811	101.39
378.274	103.39
378.737	103.49
379.199	110.79
379.662	102.19
380.125	112.29
380.587	119.09
381.05	113.39
381.512	127.79
381.975	138.79
382.437	130.79
382.9	122.09
383.362	127.99
383.825	143.09
384.287	141.99
384.75	136.29
385.212	133.39
385.674	137.79
386.136	130.49
386.599	119.69
387.061	129.09
387.523	133.19
387.985	133.09
388.447	140.69
388.91	134.89
389.372	157.19
389.834	147.79
390.296	137.69
390.758	150.29
391.22	169.39
391.682	204.49
392.144	279.09
392.606	222.49
393.068	164.19
393.529	162.29
393.991	152.59
394.453	146.39
394.915	151.99
395.377	185.79
395.838	201.69
396.3	150.39
396.762	143.99
397.224	135.79
397.685	125.69
398.147	130.99
398.608	124.99
399.07	125.89
399.531	126.49
399.993	139.29
400.454	146.79
400.916	141.89
401.377	144.29
401.839	147.69
402.3	155.89
402.762	153.99
403.223	171.99
403.684	165.79
404.145	154.79
404.607	152.89
405.068	162.39
405.529	166.59
405.99	184.89
406.451	171.99
406.913	165.99
407.374	161.59
407.835	151.89
408.296	166.89
408.757	166.09
409.218	181.69
409.679	167.19
410.14	165.89
410.601	164.49
411.062	179.29
411.522	183.79
411.983	177.69
412.444	164.69
412.905	174.99
413.366	183.29
413.826	189.49
414.287	212.39
414.748	248.39
415.208	238.79
415.669	203.69
416.13	197.69
416.59	196.09
417.051	208.19
417.511	218.89
417.972	231.59
418.432	242.79
418.893	282.99
419.353	246.99
419.814	193.29
420.274	175.79
420.734	171.89
421.195	191.99
421.655	188.89
422.115	178.29
422.576	185.49
423.036	187.79
423.496	199.89
423.956	209.19
424.416	223.79
424.876	254.19
425.336	252.19
425.797	256.59
426.257	246.79
426.717	231.39
427.177	226.39
427.637	219.09
428.097	218.59
428.556	232.39
429.016	257.89
429.476	249.59
429.936	264.49
430.396	269.09
430.856	283.39
431.315	306.19
431.775	337.79
432.235	367.79
432.694	336.19
433.154	353.79
433.614	375.79
434.073	321.19
434.533	273.29
434.993	262.99
435.452	269.69
435.912	285.79
436.371	278.59
436.83	274.89
437.29	254.79
437.749	241.79
438.209	242.19
438.668	269.39
439.127	281.39
439.587	256.19
440.046	246.59
440.505	253.29
440.964	272.19
441.424	303.79
441.883	306.69
442.342	249.89
442.801	221.99
443.26	213.59
443.719	209.79
444.178	215.69
444.637	203.39
445.096	217.49
445.555	217.59
446.014	208.39
446.473	215.49
446.932	221.29
447.391	218.79
447.849	223.89
448.308	209.69
448.767	215.19
449.226	226.49
449.685	231.89
450.143	237.49
450.602	234.79
451.061	216.89
451.519	220.29
451.978	226.29
452.436	228.99
452.895	234.79
453.353	241.19
453.812	235.59
454.27	233.19
454.729	232.59
455.187	228.19
455.646	238.99
456.104	240.09
456.562	241.89
457.021	255.99
457.479	248.99
457.937	262.99
458.395	252.19
458.854	243.59
459.312	240.49
459.77	267.09
460.228	239.59
460.686	233.99
461.144	239.19
461.602	236.49
462.06	238.39
462.518	241.89
462.976	244.19
463.434	247.79
463.892	245.09
464.35	269.19
464.808	281.19
465.266	255.89
465.724	258.89
466.181	265.49
466.639	265.39
467.097	279.89
467.555	296.09
468.012	293.29
468.47	308.49
468.928	318.79
469.385	329.29
469.843	339.99
470.3	344.89
470.758	344.99
471.215	366.19
471.673	391.99
472.13	387.69
472.588	391.59
473.045	356.69
473.503	366.99
473.96	377.09
474.417	390.99
474.875	424.19
475.332	459.59
475.789	452.89
476.246	451.79
476.704	471.49
477.161	489.29
477.618	506.69
478.075	541.09
478.532	594.99
478.989	653.19
479.446	772.39
479.903	744.49
480.36	774.19
480.817	828.49
481.274	933.19
481.731	1036.89
482.188	1124.59
482.645	1250.69
483.102	1357.59
483.558	1486.39
484.015	1535.69
484.472	1507.79
484.929	1456.99
485.385	1409.09
485.842	1376.89
486.299	1311.89
486.755	1249.09
487.212	1049.99
487.668	893.19
488.125	816.19
488.582	752.19
489.038	725.09
489.494	691.49
489.951	662.29
490.407	644.19
490.864	627.19
491.32	617.49
491.776	625.39
492.233	624.39
492.689	587.09
493.145	582.29
493.602	574.59
494.058	591.19
494.514	588.59
494.97	611.29
495.426	622.09
495.882	600.49
496.338	600.49
496.794	612.09
497.251	608.89
497.707	625.99
498.163	619.59
498.618	623.19
499.074	630.49
499.53	655.49
499.986	657.09
500.442	631.99
500.898	608.39
501.354	599.69
501.809	626.79
502.265	618.39
502.721	624.09
503.177	643.59
503.632	637.59
504.088	648.89
504.543	683.89
504.999	681.19
505.455	640.69
505.91	616.49
506.366	616.19
506.821	604.29
507.277	603.49
507.732	609.59
508.187	604.69
508.643	607.19
509.098	608.89
509.553	630.69
510.009	638.29
510.464	645.59
510.919	663.49
511.375	660.79
511.83	677.39
512.285	696.29
512.74	738.79
513.195	753.19
513.65	738.79
514.105	741.49
514.56	743.99
515.015	761.49
515.47	786.79
515.925	764.79
516.38	760.39
516.835	770.09
517.29	754.49
517.745	758.19
518.2	740.19
518.655	727.09
519.109	713.29
519.564	713.89
520.019	709.49
520.474	699.29
520.928	710.19
521.383	693.79
521.838	690.39
522.292	686.99
522.747	682.59
523.201	666.89
523.656	664.09
524.11	667.39
524.565	660.29
525.019	672.59
525.474	661.49
525.928	676.09
526.382	663.79
526.837	671.39
527.291	674.49
527.745	675.09
528.2	674.19
528.654	665.59
529.108	660.69
529.562	663.69
530.016	667.89
530.47	657.99
530.925	666.19
531.379	667.29
531.833	665.69
532.287	673.79
532.741	674.49
533.195	681.49
533.649	689.39
534.103	686.99
534.556	683.09
535.01	685.89
535.464	683.69
535.918	686.89
536.372	688.09
536.826	684.29
537.279	669.09
537.733	680.19
538.187	690.79
538.64	679.49
539.094	691.99
539.548	699.29
540.001	698.39
540.455	698.39
540.908	698.29
541.362	709.79
541.815	703.09
542.269	725.29
542.722	726.19
543.175	730.29
543.629	738.69
544.082	757.09
544.536	752.79
544.989	756.79
545.442	764.69
545.895	746.99
546.349	754.89
546.802	756.89
547.255	757.69
547.708	768.89
548.161	774.79
548.614	785.09
549.067	794.29
549.52	785.09
549.973	771.59
550.426	769.89
550.879	754.29
551.332	754.39
551.785	771.79
552.238	770.69
552.691	777.09
553.144	793.09
553.596	808.59
554.049	817.39
554.502	852.49
554.955	868.39
555.407	878.59
555.86	859.69
556.313	861.49
556.765	838.09
557.218	842.19
557.67	841.99
558.123	841.89
558.576	828.89
559.028	828.99
559.48	831.59
559.933	825.89
560.385	790.89
560.838	771.39
561.29	735.69
561.742	731.99
562.195	723.29
562.647	727.49
563.099	737.49
563.551	735.69
564.004	745.69
564.456	734.99
564.908	726.49
565.36	711.69
565.812	704.29
566.264	682.09
566.716	680.09
567.168	676.89
567.62	684.79
568.072	658.19
568.524	659.69
568.976	644.89
569.428	638.09
569.88	636.89
570.332	643.79
570.784	652.19
571.235	639.19
571.687	652.59
572.139	659.29
572.59	665.49
573.042	668.09
573.494	672.09
573.945	668.29
574.397	635.39
574.849	652.39
575.3	646.69
575.752	643.49
576.203	636.19
576.655	640.59
577.106	627.59
577.557	622.79
578.009	625.49
578.46	630.59
578.912	620.49
579.363	624.79
579.814	619.99
580.265	617.89
580.717	622.99
581.168	635.59
581.619	631.19
582.07	640.69
582.521	630.79
582.972	621.09
583.423	629.79
583.875	638.89
584.326	649.09
584.777	694.99
585.227	760.69
585.678	847.99
586.129	922.99
586.58	989.19
587.031	1074.29
587.482	1228.09
587.933	1392.79
588.384	1197.09
588.834	907.59
589.285	747.79
589.736	724.09
590.186	718.79
590.637	706.79
591.088	690.59
591.538	683.89
591.989	681.49
592.439	673.79
592.89	669.69
593.34	655.29
593.791	670.99
594.241	652.99
594.692	652.29
595.142	650.69
595.593	651.09
596.043	654.89
596.493	658.29
596.943	664.89
597.394	673.09
597.844	661.39
598.294	680.49
598.744	694.89
599.195	713.79
599.645	753.19
600.095	793.99
600.545	842.59
600.995	892.09
601.445	950.09
601.895	1017.09
602.345	1060.49
602.795	1035.79
603.245	992.09
603.695	943.39
604.145	889.99
604.594	847.89
605.044	788.19
605.494	745.29
605.944	695.19
606.393	686.19
606.843	670.39
607.293	680.99
607.743	673.49
608.192	691.19
608.642	700.39
609.091	709.89
609.541	711.89
609.99	717.09
610.44	708.49
610.889	658.79
611.339	653.99
611.788	632.89
612.238	646.19
612.687	657.19
613.136	649.89
613.586	688.79
614.035	675.39
614.484	697.49
614.933	697.79
615.383	690.19
615.832	678.29
616.281	659.49
616.73	627.69
617.179	608.19
617.628	588.59
618.077	572.59
618.526	571.69
618.975	567.19
619.424	565.09
619.873	558.49
620.322	565.39
620.771	549.69
621.22	547.69
621.669	541.89
622.118	534.09
622.567	532.99
623.015	523.19
623.464	517.69
623.913	522.79
624.361	511.09
624.81	506.39
625.259	510.39
625.707	513.89
626.156	498.49
626.604	514.49
627.053	511.09
627.501	509.19
627.95	520.09
628.398	524.19
628.847	521.79
629.295	511.69
629.744	515.79
630.192	506.49
630.64	519.99
631.089	515.09
631.537	520.79
631.985	532.89
632.433	535.89
632.881	538.09
633.33	579.59
633.778	569.29
634.226	515.39
634.674	522.19
635.122	517.49
635.57	544.79
636.018	570.19
636.466	521.89
636.914	500.59
637.362	514.29
637.81	516.09
638.258	521.09
638.705	524.19
639.153	551.69
639.601	560.49
640.049	579.69
640.497	607.29
640.944	627.19
641.392	576.49
641.84	555.09
642.287	528.99
642.735	509.59
643.182	511.49
643.63	507.49
644.078	513.79
644.525	538.99
644.973	538.89
645.42	547.29
645.867	561.39
646.315	571.69
646.762	590.09
647.21	622.19
647.657	648.49
648.104	683.29
648.551	696.89
648.999	739.49
649.446	810.69
649.893	904.89
650.34	1031.39
650.787	1238.59
651.234	1534.79
651.682	1980.89
652.129	2721.39
652.576	3889.09
653.023	5760.29
653.47	7943.69
653.917	10030.29
654.363	11675.29
654.81	13118.69
655.257	12436.79
655.704	8077.79
656.151	4773.89
656.598	3085.49
657.044	2193.39
657.491	1687.89
657.938	1343.89
658.385	1128.99
658.831	974.39
659.278	875.39
659.724	762.79
660.171	710.79
660.618	650.09
661.064	618.59
661.511	594.39
661.957	584.39
662.404	572.69
662.85	583.39
663.296	560.29
663.743	503.59
664.189	488.09
664.635	484.49
665.082	471.09
665.528	472.69
665.974	462.09
666.42	450.29
666.867	454.59
667.313	434.09
667.759	427.79
668.205	429.59
668.651	429.29
669.097	440.29
669.543	446.39
669.989	422.79
670.435	402.99
670.881	391.19
671.327	401.99
671.773	417.69
672.219	434.29
672.665	480.89
673.11	519.09
673.556	557.79
674.002	592.49
674.448	590.39
674.893	489.39
675.339	422.29
675.785	389.89
676.23	371.79
676.676	349.39
677.122	336.59
677.567	335.39
678.013	325.29
678.458	322.09
678.904	327.79
679.349	306.89
679.794	314.39
680.24	312.39
680.685	314.69
681.131	310.89
681.576	312.89
682.021	320.39
682.466	309.69
682.912	312.69
683.357	313.29
683.802	337.99
684.247	362.19
684.692	405.49
685.137	448.19
685.583	478.29
686.028	505.59
686.473	465.39
686.918	391.99
687.363	376.89
687.807	352.39
688.252	322.79
688.697	310.39
689.142	293.69
689.587	291.19
690.032	279.89
690.477	298.09
690.921	311.39
691.366	339.69
691.811	358.09
692.255	384.69
692.7	407.39
693.145	444.19
693.589	604.99
694.034	982.19
694.478	1342.69
694.923	1559.19
695.367	2054.29
695.812	1065.79
696.256	442.79
696.701	328.39
697.145	305.89
697.59	292.89
698.034	281.29
698.478	292.29
698.922	289.49
699.367	279.49
699.811	298.19
700.255	314.49
700.699	333.19
701.143	374.99
701.588	423.09
702.032	453.49
702.476	454.59
702.92	432.69
703.364	433.09
703.808	541.79
704.252	887.49
704.696	1267.19
705.14	1485.89
705.584	1918.99
706.027	953.89
706.471	470.69
706.915	352.19
707.359	314.99
707.803	275.39
708.246	272.89
708.69	273.19
709.134	274.29
709.577	277.89
710.021	283.39
710.465	266.59
710.908	259.69
711.352	267.59
711.795	268.69
712.239	306.59
712.682	346.09
713.126	373.09
713.569	414.99
714.012	332.69
714.456	285.89
714.899	262.49
715.342	242.49
715.786	234.59
716.229	225.79
716.672	228.09
717.115	218.39
717.558	209.99
718.002	226.79
718.445	236.39
718.888	249.59
719.331	261.19
719.774	267.29
720.217	268.19
720.66	250.59
721.103	231.79
721.546	222.49
721.989	216.59
722.432	205.19
722.874	210.69
723.317	201.39
723.76	204.19
724.203	226.49
724.645	279.29
725.088	378.99
725.531	498.79
725.974	573.39
726.416	484.19
726.859	276.19
727.301	219.89
727.744	207.89
728.187	204.99
728.629	216.39
729.071	210.89
729.514	226.79
729.956	237.59
730.399	251.79
730.841	257.59
731.283	239.89
731.726	237.69
732.168	226.99
732.61	238.09
733.053	253.79
733.495	276.39
733.937	311.09
734.379	351.39
734.821	380.19
735.263	467.79
735.705	719.09
736.148	1354.79
736.59	2250.99
737.032	2746.99
737.474	2218.29
737.916	717.59
738.357	382.29
738.799	292.29
739.241	258.09
739.683	252.39
740.125	260.49
740.567	261.69
741.008	283.19
741.45	279.89
741.892	280.09
742.334	299.99
742.775	312.09
743.217	302.39
743.658	238.39
744.1	224.29
744.542	229.99
744.983	269.99
745.425	310.79
745.866	305.29
746.307	255.29
746.749	239.99
747.19	276.19
747.632	390.79
748.073	740.29
748.514	1587.09
748.956	2508.69
749.397	3129.49
749.838	2605.69
750.279	2657.09
750.72	1334.49
751.162	487.49
751.603	282.79
752.044	227.09
752.485	189.39
752.926	189.99
753.367	178.39
753.808	168.59
754.249	167.29
754.69	165.49
755.131	164.79
755.572	163.59
756.013	160.99
756.453	163.79
756.894	165.19
757.335	163.69
757.776	167.09
758.216	170.79
758.657	171.19
759.098	169.79
759.538	187.39
759.979	223.79
760.42	324.09
760.86	592.49
761.301	1539.59
761.741	3818.79
762.182	5815.99
762.622	4081.69
763.063	1173.79
763.503	477.59
763.943	304.89
764.384	295.29
764.824	352.59
765.264	387.59
765.705	261.49
766.145	181.89
766.585	159.39
767.025	155.09
767.465	160.49
767.906	208.49
768.346	278.49
768.786	291.19
769.226	227.99
769.666	276.09
770.106	512.39
770.546	1317.59
770.986	2350.59
771.426	2129.79
771.866	697.39
772.306	287.59
772.745	184.19
773.185	158.69
773.625	145.99
774.065	140.79
774.505	166.79
774.944	268.39
775.384	557.09
775.824	1049.69
776.263	1043.29
776.703	443.29
777.142	195.19
777.582	139.79
778.021	119.89
778.461	126.69
778.9	124.49
779.34	117.89
779.779	105.19
780.219	98.79
780.658	94.59
781.097	100.59
781.537	104.39
781.976	91.99
782.415	95.59
782.855	89.39
783.294	93.29
783.733	88.09
784.172	102.19
784.611	89.49
785.05	95.79
785.489	106.39
785.928	103.89
786.367	109.19
786.806	103.69
787.245	112.39
787.684	118.59
788.123	124.69
788.562	114.29
789.001	114.69
789.44	97.69
789.879	101.39
790.317	102.29
790.756	111.59
791.195	110.99
791.634	125.39
792.072	177.49
792.511	302.09
792.95	846.29
793.388	1877.49
793.827	1747.59
794.265	599.49
794.704	245.09
795.142	163.49
795.581	132.99
796.019	119.69
796.458	112.09
796.896	106.49
797.334	117.99
797.773	136.39
798.211	187.09
798.649	366.59
799.087	865.79
799.526	1383.09
799.964	1755.79
800.402	1814.99
800.84	669.69
801.278	264.89
801.716	162.29
802.154	131.79
802.592	128.19
803.03	123.19
803.468	109.19
803.906	127.89
804.344	129.59
804.782	120.59
805.22	114.39
805.658	107.09
806.096	133.49
806.533	128.39
806.971	154.89
807.409	190.59
807.847	270.29
808.284	557.29
808.722	1596.59
809.16	2922.29
809.597	2713.09
810.035	4759.09
810.472	5273.29
810.91	1871.29
811.347	702.19
811.785	351.29
812.222	231.09
812.66	177.79
813.097	144.89
813.535	123.29
813.972	121.69
814.409	107.89
814.846	95.79
815.284	97.59
815.721	95.29
816.158	90.99
816.595	99.89
817.032	157.29
817.47	176.59
817.907	139.79
818.344	131.89
818.781	104.39
819.218	81.99
819.655	109.79
820.092	163.09
820.529	183.49
820.966	160.19
821.403	119.99
821.839	97.69
822.276	98.39
822.713	107.29
823.15	118.49
823.587	105.79
824.023	127.19
824.46	246.09
824.897	769.49
825.333	1210.19
825.77	520.29
826.206	200.49
826.643	117.69
827.08	91.69
827.516	73.59
827.953	69.89
828.389	75.09
828.825	65.79
829.262	55.39
829.698	57.49
830.135	56.59
830.571	53.39
831.007	53.49
831.443	54.19
831.88	48.19
832.316	57.19
832.752	57.79
833.188	63.29
833.624	56.89
834.06	60.19
834.497	60.19
834.933	67.39
835.369	66.79
835.805	59.49
836.241	69.19
836.677	66.19
837.112	83.19
837.548	91.39
837.984	116.29
838.42	174.09
838.856	414.89
839.292	1305.19
839.727	2074.49
840.163	958.29
840.599	788.69
841.034	1773.19
841.47	1933.29
841.906	701.19
842.341	292.99
842.777	201.59
843.212	274.49
843.648	277.59
844.083	132.99
844.519	83.09
844.954	70.59
845.39	57.49
845.825	53.79
846.261	50.99
846.696	43.39
847.131	52.89
847.566	58.59
848.002	47.19
848.437	48.09
848.872	53.59
849.307	53.09
849.742	66.69
850.177	151.89
850.613	484.39
851.048	785.99
851.483	338.89
851.918	139.09
852.353	79.09
852.788	51.69
853.223	53.89
853.657	49.79
854.092	44.29
854.527	36.89
854.962	37.89
855.397	45.79
855.832	50.89
856.266	35.29
856.701	31.99
857.136	32.49
857.57	34.29
858.005	40.49
858.44	51.89
858.874	40.99
859.309	46.29
859.743	36.69
860.178	41.59
860.612	39.19
861.047	46.69
861.481	61.79
861.915	64.89
862.35	45.79
862.784	34.19
863.218	39.99
863.653	30.79
864.087	42.29
864.521	52.89
864.955	65.39
865.39	133.99
865.824	157.29
866.258	100.69
866.692	146.49
867.126	152.29
867.56	97.89
867.994	50.49
868.428	30.49
868.862	40.59
869.296	45.99
869.73	53.99
870.164	48.69
870.598	33.99
871.031	36.09
871.465	28.89
871.899	29.89
872.333	21.09
872.766	25.19
873.2	18.69
873.634	24.89
874.067	23.19
874.501	24.69
874.935	37.79
875.368	26.39
875.802	28.59
876.235	23.79
876.669	21.39
877.102	26.89
877.535	27.29
877.969	23.19
878.402	19.99
878.836	18.09
879.269	18.99
879.702	25.29
880.135	21.99
880.569	16.89
881.002	30.19
881.435	19.19
881.868	11.09
882.301	18.89
882.734	17.29
883.167	18.79
883.601	20.39
884.034	16.29
884.467	11.19
884.899	14.19
885.332	16.29
885.765	16.99
886.198	19.49
886.631	20.49
887.064	15.79
887.497	21.69
887.929	24.19
888.362	10.29
888.795	10.79
889.228	16.19
889.66	19.69
890.093	12.79
890.526	12.29
890.958	20.79
891.391	18.49
891.823	24.79
892.256	15.39
892.688	9.39
893.121	16.19
893.553	16.69
893.985	23.69
894.418	17.19
894.85	16.19
895.282	11.89
895.715	16.19
896.147	16.49
896.579	20.89
897.011	20.19
897.444	24.89
897.876	15.69
898.308	13.89
898.74	9.99
899.172	12.29
899.604	19.89
900.036	20.19
900.468	12.39
900.9	14.39
901.332	19.69
901.764	10.89
902.196	18.09
902.628	12.79
903.06	13.79
903.491	27.99
903.923	21.29
904.355	18.49
904.787	23.49
905.218	23.89
905.65	17.09
906.082	10.69
906.513	12.99
906.945	16.99
907.376	13.39
907.808	19.49
908.239	19.09
908.671	20.79
909.102	21.29
909.534	19.39
909.965	43.89
910.397	79.99
910.828	272.49
911.259	432.09
911.691	199.69
912.122	94.99
912.553	50.39
912.984	31.19
913.415	24.49
913.847	22.39
914.278	15.79
914.709	19.69
915.14	23.59
915.571	22.59
916.002	15.69
916.433	17.39
916.864	9.89
917.295	7.59
917.726	18.19
918.157	12.09
918.587	28.09
919.018	19.29
919.449	23.29
919.88	23.89
920.311	26.89
920.741	43.69
921.172	146.59
921.603	135.19
922.033	60.49
922.464	43.99
922.895	19.49
923.325	15.09
923.756	11.69
924.186	13.09
924.617	17.49
925.047	36.19
925.478	46.39
925.908	42.19
926.338	24.39
926.769	12.29
927.199	22.09
927.629	8.49
928.06	23.09
928.49	15.19
928.92	9.79
929.35	12.69
929.78	15.59
930.21	8.09
930.641	11.99
931.071	8.79
931.501	3.49
931.931	10.09
932.361	9.59
932.791	5.99
933.221	2.29
933.651	6.29
934.08	12.09
934.51	28.09
934.94	9.69
935.37	8.19
935.8	9.69
936.229	11.19
936.659	6.49
937.089	1.19
937.519	15.79
937.948	22.59
938.378	9.89
938.807	4.79
939.237	1.79
939.666	9.09
940.096	-4.51
940.525	-1.71
940.955	3.99
941.384	0.49
941.814	-4.41
942.243	-0.61
942.672	1.99
943.102	-0.31
943.531	-1.21
943.96	4.79
944.39	5.49
944.819	-1.01
945.248	6.49
945.677	-0.51
946.106	8.89
946.535	5.59
946.964	3.39
947.393	10.89
947.822	-4.81
948.251	-1.71
948.68	1.09
949.109	12.89
949.538	7.49
949.967	-2.41
950.396	1.19
950.825	-5.61
951.254	2.79
951.682	-1.81
952.111	3.99
952.54	4.59
952.969	-7.51
953.397	-5.11
953.826	3.09
954.254	-2.81
954.683	-2.51
955.112	-6.21
955.54	0.99
955.969	2.89
956.397	2.39
956.826	1.79
957.254	11.19
957.682	3.29
958.111	10.59
958.539	-4.21
958.967	0.99
959.396	-7.61
959.824	3.09
960.252	2.59
960.68	-4.21
961.109	-2.21
961.537	-4.51
961.965	-0.41
962.393	1.29
962.821	-6.51
963.249	-6.61
963.677	1.09
964.105	3.39
964.533	43.29
964.961	42.59
965.389	18.19
965.817	12.39
966.245	-1.01
966.672	-1.31
967.1	-11.81
967.528	0.29
967.956	-2.91
968.383	-0.81
968.811	-0.31
969.239	4.49
969.666	-5.31
970.094	4.19
970.522	5.99
970.949	-1.31
971.377	-2.51
971.804	-3.51
972.232	-1.41
972.659	5.39
973.087	-5.71
973.514	-7.11
973.941	-4.01
974.369	3.39
974.796	-0.81
975.223	4.19
975.651	0.69
976.078	4.49
976.505	-5.21
976.932	3.49
977.359	15.29
977.786	16.39
978.214	1.69
978.641	-5.11
979.068	-1.71
979.495	-6.31
979.922	-0.11
980.349	-3.51
980.776	4.39
981.202	0.59
981.629	12.09
982.056	0.39
982.483	-4.61
982.91	2.59
983.337	-4.41
983.763	-0.71
984.19	-10.21
984.617	-6.01
985.043	-6.71
985.47	3.19
985.897	-1.01
986.323	-8.01
986.75	-1.61
987.176	-0.21
987.603	0.99
988.029	-0.31
988.456	0.09
988.882	2.09
989.308	-2.21
989.735	0.19
990.161	1.39
990.587	-4.01
991.014	7.39
991.44	3.69
991.866	1.39
992.292	-4.11
992.719	-2.71
993.145	1.69
993.571	-8.11
993.997	-1.51
994.423	1.39
994.849	-0.51
995.275	4.39
995.701	-1.11
996.127	-4.01
996.553	5.49
996.979	-1.31
997.405	3.99
997.83	-6.71
998.256	-8.41
998.682	-3.41
999.108	-9.51
999.534	-6.61
999.959	4.19
1000.385	3.09
1000.811	7.09
1001.236	-4.71
1001.662	-6.51
1002.087	-4.81
1002.513	4.29
1002.938	12.19
1003.364	-1.81
1003.789	1.39
1004.215	7.59
1004.64	-0.91
1005.066	3.39
1005.491	2.19
1005.916	-7.91
1006.342	0.29
1006.767	-4.71
1007.192	4.09
1007.617	-3.71
1008.042	-0.71
1008.468	-8.91
1008.893	-0.71
1009.318	-6.31
1009.743	3.29
1010.168	4.69
1010.593	2.39
1011.018	-10.31
1011.443	4.39
1011.868	1.99
1012.293	-4.21
1012.718	-6.11
1013.143	-0.51
1013.567	6.09
1013.992	-6.81
1014.417	-11.51
1014.842	-1.01
1015.267	-2.01
1015.691	0.09
1016.116	1.59
1016.541	-3.61
1016.965	6.79
1017.39	4.69
1017.814	0.69
1018.239	2.59
1018.663	-8.91
1019.088	-8.41
1019.512	-3.41
1019.937	-1.81
1020.361	-2.91
1020.785	-11.01
1021.21	-0.71
1021.634	2.39
1022.058	3.89
1022.483	4.49
1022.907	1.49
1023.331	0.79
1023.755	0.69
1024.179	1.99
1024.604	-5.41
1025.028	-4.01
1025.452	-2.21
1025.876	-3.51
1026.3	1.19
1026.724	-9.61
1027.148	-5.51
1027.572	-3.61
1027.996	-2.41
1028.42	-2.71
1028.843	-3.21
1029.267	-3.11
1029.691	-3.81
1030.115	-0.81
1030.539	1.39
1030.962	-4.31
1031.386	-10.21
1031.81	2.49
1032.233	3.19
1032.657	-2.01
1033.08	-0.21
1033.504	-1.51
1033.927	-0.11
1034.351	3.79
1034.774	-2.21
1035.198	5.19
1035.621	-5.11
1036.045	-5.31
1036.468	6.49
1036.891	-6.51
1037.315	-4.61
1037.738	-3.51
1038.161	0.99
1038.584	-7.21
1039.008	-3.71
1039.431	-3.81
1039.854	-2.41
1040.277	-6.51
1040.7	-5.91
1041.123	5.89
1041.546	-2.61
1041.969	-2.21
1042.392	-3.61
1042.815	-0.91
1043.238	-0.01
1043.661	-0.41
1044.084	-6.01
1044.507	-5.21
1044.93	-7.71
1045.352	-6.81
1045.775	0.79
1046.198	-0.11
1046.621	-4.41
1047.043	-2.61
1047.466	7.19
1047.889	-3.41
1048.311	-9.61
1048.734	-3.71
1049.156	-3.71
1049.579	0.49
1050.001	-5.21
1050.424	2.89
1050.846	-3.71
1051.269	0.59
1051.691	-5.51
1052.113	-3.21
1052.536	-2.41
1052.958	-7.01
1053.38	0.99
1053.802	-3.21
1054.225	5.49
1054.647	-10.71
1055.069	-7.71
1055.491	2.09
1055.913	-2.71
1056.335	0.29
1056.757	-5.11
1057.179	-4.81
1057.601	-5.41
1058.023	-2.01
1058.445	-3.61
1058.867	-5.31
1059.289	-3.41
1059.711	-4.51
1060.133	-4.21
1060.555	4.29
1060.976	-5.41
1061.398	-4.81
1061.82	-0.81
1062.241	-9.41
1062.663	-4.41
1063.085	3.79
1063.506	3.09
1063.928	-4.11
1064.35	-2.41
1064.771	-9.01
1065.193	0.49
1065.614	-6.31
1066.035	1.19
1066.457	-2.71
1066.878	1.19
1067.3	-6.21
1067.721	0.49
1068.142	-8.71
1068.564	-2.11
1068.985	-3.01
1069.406	-7.61
1069.827	-4.41
1070.248	1.49
1070.67	-4.51
1071.091	-3.31
1071.512	-2.21
1071.933	-4.31
1072.354	-3.61
1072.775	-2.81
1073.196	-5.61
1073.617	-4.21
1074.038	-6.31
1074.459	-0.91
1074.88	-4.11
1075.3	-1.31
1075.721	-7.91
1076.142	1.29
1076.563	2.69
1076.983	-9.71
1077.404	-6.81
1077.825	-8.31
1078.246	-2.71
1078.666	-12.11
1079.087	-5.21
1079.507	-4.01
1079.928	7.99
1080.348	-0.31
1080.769	-5.21
1081.189	-2.01
1081.61	-1.31
1082.03	-8.01
1082.451	-6.91
1082.871	-0.21
1083.291	-4.21
1083.711	-10.21
1084.132	-7.01
1084.552	4.69
1084.972	1.09
1085.392	-9.51
1085.813	-14.11
1086.233	-7.91
1086.653	0.49
1087.073	-3.61
1087.493	-2.01
1087.913	-7.01
1088.333	-8.61
1088.753	2.09
1089.173	8.39
1089.593	-4.51
1090.013	3.29
1090.433	-1.51
1090.852	3.09
1091.272	1.69
1091.692	-6.91
1092.112	-2.21
1092.531	-2.31
1092.951	-10.01
1093.371	-3.61
1093.79	-2.51
1094.21	0.69
1094.63	-2.91
1095.049	2.19
1095.469	-0.41
1095.888	-5.61
1096.308	6.79
1096.727	7.79
1097.146	-3.01
1097.566	5.29
1097.985	-7.81
1098.405	0.39
1098.824	-7.21
1099.243	-2.51
1099.662	-6.61
1100.082	-4.61
1100.501	0.49
1100.92	-6.51
1101.339	-3.11
1101.758	-11.11
