Data from 20171114-ORNL-Ar_H_NY_Subt18_08-05-11-944.txt Node
Date: Tue Nov 14 08:05:11 EST 2017
User: Ender
Spectrometer: HR+D1039
Trigger mode: 0
Integration Time (sec): 2.730000E-2
Scans to average: 10
Electric dark correction enabled: true
Nonlinearity correction enabled: false
Boxcar width: 0
XAxis mode: Wavelengths
Number of Pixels in Spectrum: 2048
>>>>>Begin Spectral Data<<<<<
187.836	-3.28
188.309	-3.28
188.782	-3.28
189.255	1.92
189.728	1.52
190.201	9.62
190.674	-0.08
191.147	3.82
191.619	-11.48
192.092	-1.58
192.565	2.32
193.038	-0.58
193.511	1.42
193.984	-1.48
194.456	-3.68
194.929	2.12
195.402	1.62
195.874	-2.18
196.347	-1.18
196.82	-6.88
197.292	4.72
197.765	-0.68
198.237	-9.88
198.71	-1.28
199.182	-2.88
199.655	3.52
200.127	1.42
200.6	-1.28
201.072	-0.38
201.544	1.72
202.017	-4.68
202.489	2.02
202.961	1.82
203.433	-3.18
203.906	-11.28
204.378	-3.98
204.85	-0.18
205.322	-7.88
205.794	0.82
206.266	-4.38
206.739	-10.38
207.211	0.32
207.683	-13.88
208.155	-2.88
208.627	-5.08
209.099	-0.38
209.57	-11.98
210.042	-4.08
210.514	-2.28
210.986	-5.58
211.458	-12.98
211.93	-7.68
212.402	0.22
212.873	-8.88
213.345	-8.48
213.817	-14.98
214.288	-2.68
214.76	-13.98
215.232	2.82
215.703	-3.88
216.175	-4.88
216.646	1.72
217.118	-5.38
217.589	-4.98
218.061	2.02
218.532	-3.58
219.004	-1.88
219.475	-1.18
219.946	-1.78
220.418	-3.18
220.889	8.42
221.36	6.12
221.832	-3.58
222.303	-7.78
222.774	2.02
223.245	-11.58
223.717	-2.98
224.188	-8.18
224.659	-11.88
225.13	-5.18
225.601	-3.68
226.072	-0.88
226.543	-0.78
227.014	3.22
227.485	-1.48
227.956	-2.38
228.427	2.52
228.898	1.22
229.369	5.42
229.839	0.72
230.31	-2.98
230.781	0.32
231.252	0.02
231.722	-7.88
232.193	-1.68
232.664	0.42
233.135	-1.78
233.605	-0.18
234.076	-1.98
234.546	8.02
235.017	3.92
235.487	-1.68
235.958	1.02
236.428	0.32
236.899	2.82
237.369	2.42
237.84	-0.68
238.31	4.32
238.78	4.02
239.251	1.32
239.721	6.72
240.191	-0.18
240.662	-0.88
241.132	-3.78
241.602	-4.38
242.072	5.32
242.542	7.62
243.013	2.32
243.483	7.22
243.953	6.22
244.423	5.82
244.893	2.12
245.363	6.72
245.833	1.82
246.303	-1.28
246.773	8.12
247.243	-0.98
247.712	3.32
248.182	6.02
248.652	10.42
249.122	-2.48
249.592	9.02
250.061	21.32
250.531	37.62
251.001	17.12
251.471	26.42
251.94	20.32
252.41	10.12
252.879	5.02
253.349	17.82
253.818	8.02
254.288	6.02
254.757	10.32
255.227	3.72
255.696	1.82
256.166	4.62
256.635	6.72
257.105	7.62
257.574	10.52
258.043	8.72
258.513	14.12
258.982	16.62
259.451	9.82
259.92	15.82
260.389	12.92
260.859	21.32
261.328	15.92
261.797	18.72
262.266	14.92
262.735	9.82
263.204	9.42
263.673	2.52
264.142	10.02
264.611	-8.58
265.08	3.12
265.549	4.82
266.018	8.42
266.487	5.62
266.955	1.92
267.424	1.02
267.893	9.92
268.362	2.42
268.83	4.12
269.299	15.12
269.768	5.22
270.236	14.12
270.705	8.72
271.174	6.22
271.642	2.62
272.111	13.02
272.579	17.92
273.048	17.22
273.516	26.22
273.985	26.72
274.453	32.12
274.922	19.32
275.39	11.42
275.858	4.32
276.327	15.82
276.795	25.32
277.263	9.32
277.731	35.32
278.2	65.32
278.668	70.22
279.136	53.92
279.604	25.92
280.072	20.02
280.54	14.52
281.008	15.52
281.477	16.42
281.945	16.02
282.413	16.92
282.881	16.52
283.348	12.62
283.816	22.72
284.284	15.12
284.752	26.12
285.22	12.32
285.688	17.92
286.156	15.72
286.623	46.32
287.091	53.32
287.559	26.62
288.026	24.82
288.494	16.22
288.962	4.32
289.429	10.82
289.897	14.12
290.364	19.62
290.832	14.92
291.3	15.32
291.767	24.52
292.234	21.22
292.702	22.12
293.169	20.92
293.637	26.22
294.104	25.02
294.571	13.12
295.039	13.72
295.506	18.12
295.973	20.82
296.44	13.02
296.908	16.72
297.375	20.12
297.842	21.52
298.309	20.02
298.776	16.32
299.243	26.92
299.71	11.92
300.177	24.52
300.644	22.92
301.111	22.62
301.578	25.22
302.045	20.42
302.512	27.32
302.979	29.92
303.446	24.52
303.913	22.72
304.379	25.82
304.846	35.82
305.313	28.82
305.78	26.42
306.246	23.92
306.713	28.32
307.18	34.22
307.646	30.22
308.113	33.52
308.579	22.72
309.046	24.42
309.512	29.62
309.979	16.62
310.445	32.72
310.912	29.72
311.378	36.72
311.845	33.22
312.311	33.02
312.777	32.72
313.244	35.62
313.71	37.92
314.176	32.42
314.642	37.32
315.109	34.42
315.575	40.62
316.041	43.32
316.507	35.52
316.973	41.62
317.439	42.22
317.905	40.42
318.371	44.02
318.837	41.52
319.303	35.32
319.769	37.02
320.235	38.62
320.701	38.52
321.167	39.12
321.633	35.32
322.099	39.12
322.564	41.52
323.03	42.92
323.496	45.02
323.962	43.42
324.427	39.22
324.893	48.42
325.359	45.42
325.824	38.42
326.29	35.12
326.755	41.42
327.221	46.12
327.686	44.22
328.152	45.22
328.617	45.62
329.083	47.02
329.548	52.72
330.014	51.42
330.479	42.42
330.944	44.42
331.41	42.22
331.875	42.42
332.34	45.62
332.805	49.52
333.271	53.72
333.736	43.92
334.201	56.22
334.666	52.72
335.131	53.92
335.596	52.32
336.061	51.22
336.526	42.32
336.991	50.32
337.456	53.82
337.921	50.32
338.386	45.52
338.851	40.02
339.316	51.62
339.781	45.42
340.246	52.92
340.711	53.42
341.175	56.92
341.64	51.12
342.105	56.32
342.569	52.42
343.034	61.02
343.499	55.32
343.963	50.22
344.428	62.12
344.893	58.32
345.357	69.02
345.822	61.92
346.286	68.42
346.751	77.62
347.215	73.02
347.679	78.02
348.144	104.52
348.608	89.32
349.073	75.72
349.537	75.52
350.001	78.82
350.465	93.62
350.93	84.52
351.394	81.42
351.858	77.52
352.322	96.42
352.786	87.82
353.25	104.12
353.715	108.42
354.179	101.52
354.643	119.62
355.107	131.12
355.571	104.12
356.035	102.82
356.498	119.42
356.962	134.52
357.426	130.82
357.89	114.22
358.354	98.12
358.818	84.62
359.281	80.72
359.745	82.92
360.209	82.12
360.673	70.32
361.136	82.62
361.6	84.92
362.064	84.52
362.527	82.32
362.991	95.42
363.454	85.82
363.918	76.92
364.381	79.92
364.845	78.92
365.308	84.02
365.772	83.22
366.235	93.12
366.698	89.22
367.162	92.42
367.625	83.42
368.088	83.12
368.552	94.22
369.015	92.72
369.478	99.32
369.941	99.32
370.404	96.92
370.867	109.12
371.331	108.62
371.794	119.02
372.257	114.62
372.72	112.22
373.183	111.52
373.646	102.52
374.109	101.12
374.572	108.92
375.035	109.62
375.497	111.42
375.96	107.72
376.423	106.32
376.886	121.72
377.349	113.52
377.811	108.12
378.274	102.62
378.737	105.92
379.199	120.02
379.662	107.52
380.125	115.52
380.587	118.22
381.05	129.42
381.512	129.92
381.975	136.82
382.437	119.22
382.9	128.42
383.362	129.92
383.825	142.02
384.287	146.72
384.75	142.22
385.212	141.92
385.674	140.22
386.136	144.92
386.599	131.22
387.061	129.22
387.523	128.42
387.985	134.52
388.447	143.72
388.91	145.92
389.372	155.82
389.834	145.32
390.296	144.92
390.758	152.72
391.22	163.12
391.682	205.82
392.144	286.22
392.606	224.62
393.068	171.32
393.529	167.02
393.991	154.72
394.453	154.82
394.915	158.82
395.377	190.82
395.838	208.42
396.3	154.52
396.762	145.72
397.224	130.12
397.685	132.12
398.147	133.42
398.608	128.92
399.07	125.92
399.531	138.92
399.993	141.32
400.454	151.12
400.916	147.22
401.377	139.92
401.839	150.72
402.3	149.52
402.762	166.62
403.223	177.22
403.684	175.02
404.145	160.22
404.607	154.72
405.068	162.52
405.529	167.32
405.99	185.92
406.451	181.42
406.913	178.32
407.374	159.12
407.835	161.72
408.296	165.72
408.757	171.72
409.218	187.72
409.679	187.22
410.14	177.72
410.601	175.32
411.062	185.82
411.522	186.92
411.983	184.12
412.444	177.32
412.905	178.92
413.366	190.42
413.826	196.22
414.287	221.72
414.748	264.62
415.208	251.22
415.669	205.72
416.13	201.92
416.59	202.12
417.051	217.22
417.511	211.72
417.972	234.02
418.432	246.02
418.893	291.12
419.353	254.12
419.814	196.22
420.274	184.02
420.734	180.52
421.195	201.42
421.655	200.62
422.115	199.82
422.576	190.02
423.036	198.02
423.496	205.72
423.956	208.12
424.416	227.52
424.876	267.02
425.336	260.32
425.797	260.22
426.257	254.12
426.717	238.92
427.177	229.92
427.637	222.02
428.097	240.82
428.556	244.92
429.016	266.62
429.476	261.52
429.936	266.62
430.396	276.72
430.856	291.12
431.315	321.72
431.775	349.42
432.235	377.02
432.694	350.12
433.154	359.42
433.614	386.12
434.073	338.52
434.533	288.42
434.993	276.42
435.452	278.82
435.912	297.22
436.371	291.12
436.83	279.22
437.29	268.32
437.749	247.62
438.209	240.32
438.668	270.92
439.127	286.62
439.587	264.32
440.046	242.82
440.505	264.22
440.964	279.72
441.424	320.82
441.883	314.12
442.342	258.62
442.801	225.32
443.26	216.82
443.719	222.72
444.178	219.52
444.637	216.02
445.096	220.32
445.555	219.62
446.014	224.52
446.473	227.72
446.932	227.12
447.391	224.42
447.849	225.72
448.308	215.22
448.767	220.22
449.226	234.12
449.685	237.32
450.143	247.12
450.602	241.32
451.061	223.42
451.519	232.02
451.978	237.52
452.436	235.62
452.895	241.82
453.353	256.02
453.812	234.92
454.27	238.02
454.729	236.82
455.187	237.72
455.646	243.72
456.104	248.72
456.562	256.42
457.021	269.62
457.479	261.32
457.937	266.12
458.395	260.02
458.854	245.72
459.312	262.72
459.77	269.12
460.228	256.62
460.686	237.02
461.144	256.82
461.602	249.62
462.06	240.52
462.518	255.92
462.976	252.12
463.434	263.12
463.892	260.02
464.35	277.72
464.808	292.82
465.266	261.42
465.724	258.62
466.181	267.72
466.639	269.32
467.097	284.82
467.555	295.82
468.012	297.92
468.47	310.82
468.928	328.52
469.385	345.22
469.843	343.52
470.3	355.62
470.758	372.42
471.215	391.02
471.673	412.32
472.13	406.32
472.588	415.42
473.045	370.52
473.503	376.02
473.96	391.72
474.417	399.02
474.875	426.12
475.332	477.22
475.789	462.02
476.246	466.52
476.704	490.32
477.161	503.92
477.618	521.82
478.075	561.62
478.532	615.52
478.989	685.12
479.446	808.62
479.903	759.62
480.36	810.02
480.817	868.32
481.274	956.22
481.731	1080.12
482.188	1157.82
482.645	1294.12
483.102	1398.22
483.558	1533.52
484.015	1593.52
484.472	1576.12
484.929	1517.62
485.385	1477.82
485.842	1434.62
486.299	1357.72
486.755	1300.12
487.212	1085.32
487.668	927.42
488.125	858.52
488.582	771.52
489.038	741.62
489.494	714.02
489.951	684.72
490.407	671.82
490.864	645.62
491.32	644.42
491.776	640.82
492.233	646.92
492.689	605.72
493.145	599.52
493.602	592.62
494.058	610.02
494.514	616.02
494.97	634.72
495.426	647.82
495.882	629.22
496.338	617.82
496.794	622.82
497.251	614.92
497.707	635.02
498.163	643.02
498.618	648.22
499.074	650.62
499.53	673.92
499.986	679.92
500.442	654.82
500.898	631.52
501.354	623.72
501.809	631.12
502.265	640.42
502.721	653.92
503.177	671.82
503.632	671.72
504.088	681.42
504.543	707.52
504.999	703.22
505.455	651.42
505.91	621.82
506.366	634.12
506.821	630.82
507.277	621.12
507.732	612.42
508.187	617.82
508.643	627.82
509.098	637.12
509.553	642.22
510.009	664.72
510.464	664.02
510.919	687.32
511.375	689.12
511.83	707.52
512.285	721.32
512.74	747.92
513.195	776.52
513.65	775.92
514.105	762.62
514.56	765.62
515.015	783.52
515.47	813.22
515.925	793.32
516.38	777.52
516.835	786.02
517.29	789.72
517.745	775.92
518.2	768.02
518.655	747.82
519.109	731.62
519.564	740.42
520.019	725.32
520.474	730.62
520.928	728.42
521.383	726.62
521.838	703.52
522.292	703.92
522.747	699.12
523.201	701.12
523.656	693.02
524.11	688.62
524.565	682.22
525.019	680.32
525.474	702.22
525.928	701.12
526.382	684.92
526.837	690.02
527.291	699.02
527.745	690.02
528.2	692.42
528.654	687.42
529.108	676.42
529.562	683.92
530.016	688.92
530.47	689.32
530.925	680.82
531.379	694.72
531.833	698.32
532.287	696.92
532.741	702.42
533.195	702.52
533.649	707.02
534.103	717.62
534.556	708.52
535.01	705.22
535.464	706.72
535.918	713.12
536.372	715.92
536.826	711.52
537.279	693.92
537.733	706.92
538.187	716.52
538.64	710.12
539.094	724.02
539.548	724.72
540.001	724.72
540.455	708.52
540.908	726.32
541.362	727.02
541.815	736.82
542.269	750.92
542.722	756.72
543.175	770.82
543.629	758.32
544.082	780.52
544.536	778.72
544.989	773.32
545.442	776.02
545.895	781.32
546.349	778.72
546.802	773.32
547.255	780.52
547.708	797.92
548.161	799.62
548.614	811.32
549.067	816.02
549.52	805.72
549.973	812.72
550.426	798.72
550.879	777.22
551.332	783.32
551.785	793.42
552.238	785.82
552.691	792.92
553.144	823.12
553.596	833.32
554.049	845.92
554.502	885.62
554.955	895.92
555.407	900.42
555.86	885.02
556.313	873.12
556.765	865.42
557.218	874.22
557.67	876.72
558.123	866.82
558.576	861.52
559.028	860.62
559.48	870.82
559.933	858.42
560.385	818.72
560.838	796.42
561.29	770.62
561.742	758.32
562.195	747.92
562.647	757.02
563.099	766.82
563.551	760.32
564.004	771.72
564.456	755.02
564.908	743.02
565.36	734.82
565.812	721.32
566.264	708.32
566.716	715.72
567.168	693.62
567.62	707.12
568.072	692.52
568.524	680.22
568.976	678.42
569.428	659.92
569.88	659.92
570.332	672.92
570.784	668.92
571.235	667.82
571.687	677.92
572.139	676.42
572.59	699.92
573.042	695.12
573.494	685.82
573.945	688.12
574.397	663.42
574.849	676.52
575.3	672.12
575.752	667.62
576.203	668.92
576.655	669.82
577.106	649.82
577.557	654.02
578.009	652.42
578.46	648.72
578.912	642.82
579.363	658.42
579.814	657.42
580.265	652.32
580.717	656.72
581.168	649.02
581.619	662.72
582.07	657.12
582.521	664.42
582.972	652.82
583.423	666.42
583.875	662.32
584.326	687.82
584.777	719.62
585.227	787.32
585.678	875.92
586.129	944.72
586.58	1022.12
587.031	1088.12
587.482	1251.02
587.933	1406.62
588.384	1227.12
588.834	937.52
589.285	770.72
589.736	755.62
590.186	754.92
590.637	741.52
591.088	709.12
591.538	714.42
591.989	714.32
592.439	699.32
592.89	692.72
593.34	679.22
593.791	686.82
594.241	681.62
594.692	687.92
595.142	676.32
595.593	671.62
596.043	687.02
596.493	682.62
596.943	692.02
597.394	697.12
597.844	686.02
598.294	699.62
598.744	722.82
599.195	740.82
599.645	791.32
600.095	818.42
600.545	880.32
600.995	927.52
601.445	983.42
601.895	1057.92
602.345	1092.82
602.795	1072.62
603.245	1028.22
603.695	984.22
604.145	935.82
604.594	877.12
605.044	822.52
605.494	774.92
605.944	722.72
606.393	711.02
606.843	702.52
607.293	717.92
607.743	700.22
608.192	710.32
608.642	732.12
609.091	735.22
609.541	738.92
609.99	730.32
610.44	727.72
610.889	687.52
611.339	665.42
611.788	668.32
612.238	678.12
612.687	692.72
613.136	687.32
613.586	705.92
614.035	692.42
614.484	710.32
614.933	722.52
615.383	711.12
615.832	711.42
616.281	695.22
616.73	663.52
617.179	633.92
617.628	610.52
618.077	601.92
618.526	586.72
618.975	589.52
619.424	585.82
619.873	588.92
620.322	592.12
620.771	572.32
621.22	572.42
621.669	570.82
622.118	557.72
622.567	551.42
623.015	544.82
623.464	538.92
623.913	537.12
624.361	531.42
624.81	531.42
625.259	527.52
625.707	533.52
626.156	524.82
626.604	544.82
627.053	536.12
627.501	534.82
627.95	537.52
628.398	549.62
628.847	538.82
629.295	538.72
629.744	542.72
630.192	543.52
630.64	536.22
631.089	534.52
631.537	546.52
631.985	559.22
632.433	564.22
632.881	579.32
633.33	614.72
633.778	599.32
634.226	546.12
634.674	538.92
635.122	541.92
635.57	567.72
636.018	589.82
636.466	543.62
636.914	526.82
637.362	543.82
637.81	551.82
638.258	548.22
638.705	545.52
639.153	570.52
639.601	574.12
640.049	606.82
640.497	633.02
640.944	655.52
641.392	608.92
641.84	578.32
642.287	556.12
642.735	542.12
643.182	528.12
643.63	545.52
644.078	548.42
644.525	556.02
644.973	560.02
645.42	566.92
645.867	589.42
646.315	608.12
646.762	625.82
647.21	644.52
647.657	671.22
648.104	703.62
648.551	723.32
648.999	779.62
649.446	857.02
649.893	940.72
650.34	1079.52
650.787	1289.72
651.234	1608.32
651.682	2077.62
652.129	2863.62
652.576	4077.12
653.023	6056.02
653.47	8294.52
653.917	10448.22
654.363	12176.12
654.81	13587.52
655.257	12928.72
655.704	8430.82
656.151	4974.42
656.598	3229.72
657.044	2295.72
657.491	1758.02
657.938	1410.22
658.385	1177.02
658.831	1022.22
659.278	913.22
659.724	803.22
660.171	743.12
660.618	684.02
661.064	643.42
661.511	621.12
661.957	609.72
662.404	604.42
662.85	614.92
663.296	586.12
663.743	532.02
664.189	497.42
664.635	506.42
665.082	488.92
665.528	496.72
665.974	490.72
666.42	468.22
666.867	476.52
667.313	459.52
667.759	438.32
668.205	439.82
668.651	446.72
669.097	449.32
669.543	466.32
669.989	442.02
670.435	422.92
670.881	415.72
671.327	420.72
671.773	444.02
672.219	465.72
672.665	506.22
673.11	539.92
673.556	582.82
674.002	626.12
674.448	604.02
674.893	516.52
675.339	453.62
675.785	414.32
676.23	394.22
676.676	363.72
677.122	357.22
677.567	350.42
678.013	342.42
678.458	337.92
678.904	340.72
679.349	320.52
679.794	328.32
680.24	323.22
680.685	325.32
681.131	330.22
681.576	332.82
682.021	330.22
682.466	312.92
682.912	314.72
683.357	325.52
683.802	356.72
684.247	387.62
684.692	421.02
685.137	457.82
685.583	501.12
686.028	520.62
686.473	489.92
686.918	416.72
687.363	387.52
687.807	360.82
688.252	337.52
688.697	334.82
689.142	318.72
689.587	306.92
690.032	293.22
690.477	317.12
690.921	326.62
691.366	357.02
691.811	367.02
692.255	407.42
692.7	428.72
693.145	458.82
693.589	635.72
694.034	1022.82
694.478	1412.22
694.923	1621.82
695.367	2118.22
695.812	1113.92
696.256	458.82
696.701	338.52
697.145	325.32
697.59	306.12
698.034	300.82
698.478	300.42
698.922	302.82
699.367	310.02
699.811	311.72
700.255	325.22
700.699	354.52
701.143	390.52
701.588	445.32
702.032	478.32
702.476	472.22
702.92	452.42
703.364	450.92
703.808	584.02
704.252	930.62
704.696	1323.92
705.14	1566.92
705.584	2002.82
706.027	988.82
706.471	487.12
706.915	364.92
707.359	323.22
707.803	294.32
708.246	278.42
708.69	288.52
709.134	288.62
709.577	283.22
710.021	295.82
710.465	285.82
710.908	282.22
711.352	275.62
711.795	291.52
712.239	316.82
712.682	355.82
713.126	386.72
713.569	429.02
714.012	344.12
714.456	297.32
714.899	280.02
715.342	259.42
715.786	248.12
716.229	244.32
716.672	233.12
717.115	233.42
717.558	236.02
718.002	226.42
718.445	239.62
718.888	271.02
719.331	271.32
719.774	285.02
720.217	283.32
720.66	261.52
721.103	240.82
721.546	234.52
721.989	229.42
722.432	216.22
722.874	222.72
723.317	212.12
723.76	221.22
724.203	239.32
724.645	291.92
725.088	407.32
725.531	523.32
725.974	589.72
726.416	511.92
726.859	282.72
727.301	229.92
727.744	220.92
728.187	220.12
728.629	220.02
729.071	219.62
729.514	234.82
729.956	251.32
730.399	258.12
730.841	258.22
731.283	247.82
731.726	238.92
732.168	230.72
732.61	242.12
733.053	255.72
733.495	287.42
733.937	318.42
734.379	364.12
734.821	401.42
735.263	480.02
735.705	742.62
736.148	1410.32
736.59	2355.32
737.032	2853.92
737.474	2314.52
737.916	739.42
738.357	393.72
738.799	299.82
739.241	269.62
739.683	266.52
740.125	269.92
740.567	279.22
741.008	284.92
741.45	289.32
741.892	291.92
742.334	315.02
742.775	330.82
743.217	314.42
743.658	248.32
744.1	234.72
744.542	244.82
744.983	288.32
745.425	323.42
745.866	317.02
746.307	255.42
746.749	252.72
747.19	298.32
747.632	405.82
748.073	782.42
748.514	1680.22
748.956	2623.62
749.397	3269.72
749.838	2715.82
750.279	2755.62
750.72	1394.82
751.162	509.52
751.603	294.92
752.044	233.92
752.485	205.32
752.926	191.82
753.367	187.52
753.808	177.72
754.249	178.02
754.69	172.32
755.131	169.52
755.572	164.62
756.013	164.82
756.453	169.12
756.894	161.62
757.335	171.32
757.776	175.62
758.216	175.62
758.657	178.02
759.098	182.22
759.538	208.82
759.979	242.32
760.42	337.12
760.86	624.62
761.301	1615.32
761.741	3994.62
762.182	6020.02
762.622	4258.12
763.063	1209.72
763.503	494.52
763.943	306.22
764.384	303.42
764.824	364.12
765.264	393.32
765.705	276.82
766.145	190.52
766.585	169.52
767.025	163.32
767.465	173.02
767.906	215.52
768.346	279.62
768.786	301.72
769.226	232.52
769.666	281.92
770.106	542.12
770.546	1379.82
770.986	2450.92
771.426	2226.22
771.866	728.72
772.306	303.02
772.745	196.12
773.185	161.92
773.625	155.82
774.065	145.22
774.505	177.52
774.944	271.02
775.384	586.82
775.824	1089.92
776.263	1076.92
776.703	457.82
777.142	201.42
777.582	134.82
778.021	128.02
778.461	124.02
778.9	120.02
779.34	121.32
779.779	107.12
780.219	103.62
780.658	99.82
781.097	105.82
781.537	106.52
781.976	104.02
782.415	98.52
782.855	96.92
783.294	97.82
783.733	94.12
784.172	102.32
784.611	91.92
785.05	99.32
785.489	103.72
785.928	107.02
786.367	109.52
786.806	114.72
787.245	119.32
787.684	125.52
788.123	136.62
788.562	119.52
789.001	122.62
789.44	117.22
789.879	107.62
790.317	113.32
790.756	117.52
791.195	111.82
791.634	133.72
792.072	187.62
792.511	317.72
792.95	896.62
793.388	1951.32
793.827	1826.22
794.265	625.22
794.704	261.72
795.142	167.82
795.581	140.42
796.019	126.82
796.458	116.12
796.896	117.42
797.334	122.42
797.773	142.92
798.211	204.32
798.649	379.52
799.087	918.42
799.526	1453.32
799.964	1835.02
800.402	1901.02
800.84	700.52
801.278	278.72
801.716	179.52
802.154	140.62
802.592	134.52
803.03	128.42
803.468	120.12
803.906	134.42
804.344	138.82
804.782	128.72
805.22	123.02
805.658	112.32
806.096	135.12
806.533	144.82
806.971	161.62
807.409	193.22
807.847	278.52
808.284	588.82
808.722	1671.62
809.16	3050.22
809.597	2822.72
810.035	4967.02
810.472	5445.32
810.91	1943.52
811.347	739.82
811.785	371.32
812.222	233.92
812.66	180.52
813.097	149.82
813.535	129.02
813.972	119.32
814.409	109.12
814.846	98.92
815.284	93.52
815.721	97.12
816.158	97.02
816.595	104.22
817.032	159.52
817.47	185.32
817.907	138.72
818.344	138.22
818.781	107.62
819.218	87.22
819.655	112.82
820.092	175.02
820.529	206.92
820.966	163.22
821.403	124.92
821.839	100.92
822.276	98.82
822.713	110.72
823.15	127.32
823.587	99.92
824.023	131.72
824.46	265.32
824.897	805.12
825.333	1263.62
825.77	536.82
826.206	213.92
826.643	124.52
827.08	98.12
827.516	76.12
827.953	70.12
828.389	73.22
828.825	73.02
829.262	60.52
829.698	58.82
830.135	60.82
830.571	51.82
831.007	65.72
831.443	52.32
831.88	55.02
832.316	56.72
832.752	63.12
833.188	63.62
833.624	54.12
834.06	64.72
834.497	58.82
834.933	67.92
835.369	68.82
835.805	62.42
836.241	72.72
836.677	74.52
837.112	79.02
837.548	90.82
837.984	117.02
838.42	184.72
838.856	440.32
839.292	1353.12
839.727	2154.32
840.163	993.12
840.599	824.12
841.034	1840.82
841.47	2006.72
841.906	724.02
842.341	309.72
842.777	209.72
843.212	281.62
843.648	288.92
844.083	141.82
844.519	94.62
844.954	70.22
845.39	53.62
845.825	55.92
846.261	49.52
846.696	51.42
847.131	50.82
847.566	53.92
848.002	45.42
848.437	55.82
848.872	54.62
849.307	56.02
849.742	81.72
850.177	157.92
850.613	500.72
851.048	825.32
851.483	352.82
851.918	137.52
852.353	75.22
852.788	46.52
853.223	49.22
853.657	49.32
854.092	39.82
854.527	34.92
854.962	42.32
855.397	40.82
855.832	41.82
856.266	40.82
856.701	37.32
857.136	31.32
857.57	36.92
858.005	38.72
858.44	53.62
858.874	38.72
859.309	54.62
859.743	32.62
860.178	34.82
860.612	42.02
861.047	44.42
861.481	62.42
861.915	64.12
862.35	44.62
862.784	30.92
863.218	34.02
863.653	30.52
864.087	41.92
864.521	43.22
864.955	61.42
865.39	142.62
865.824	167.42
866.258	104.22
866.692	149.62
867.126	166.52
867.56	95.12
867.994	48.02
868.428	33.92
868.862	42.72
869.296	45.82
869.73	50.22
870.164	49.22
870.598	42.42
871.031	34.92
871.465	27.72
871.899	28.62
872.333	24.02
872.766	24.82
873.2	19.82
873.634	27.12
874.067	28.12
874.501	23.92
874.935	31.92
875.368	31.02
875.802	24.32
876.235	24.32
876.669	20.92
877.102	22.12
877.535	27.72
877.969	18.32
878.402	24.12
878.836	21.62
879.269	20.72
879.702	22.52
880.135	18.02
880.569	21.72
881.002	22.62
881.435	13.02
881.868	13.82
882.301	19.12
882.734	13.72
883.167	21.72
883.601	17.52
884.034	11.02
884.467	15.72
884.899	20.02
885.332	11.92
885.765	15.12
886.198	17.62
886.631	18.52
887.064	21.42
887.497	18.42
887.929	27.72
888.362	15.82
888.795	13.12
889.228	20.42
889.66	18.92
890.093	16.12
890.526	14.02
890.958	15.02
891.391	17.12
891.823	20.12
892.256	15.52
892.688	7.52
893.121	15.22
893.553	16.72
893.985	18.72
894.418	13.72
894.85	12.52
895.282	16.32
895.715	11.12
896.147	11.62
896.579	14.32
897.011	9.62
897.444	17.02
897.876	9.72
898.308	17.32
898.74	5.52
899.172	9.52
899.604	20.32
900.036	18.92
900.468	6.42
900.9	9.42
901.332	15.12
901.764	7.72
902.196	14.62
902.628	16.62
903.06	15.92
903.491	23.82
903.923	18.32
904.355	22.22
904.787	21.12
905.218	21.52
905.65	15.32
906.082	14.22
906.513	11.42
906.945	17.32
907.376	12.52
907.808	21.32
908.239	14.32
908.671	17.82
909.102	16.22
909.534	21.62
909.965	38.82
910.397	81.72
910.828	293.02
911.259	442.92
911.691	207.12
912.122	94.72
912.553	46.32
912.984	30.02
913.415	21.72
913.847	25.72
914.278	14.42
914.709	15.42
915.14	18.72
915.571	19.02
916.002	8.62
916.433	14.32
916.864	10.02
917.295	10.82
917.726	17.02
918.157	14.42
918.587	23.62
919.018	17.02
919.449	19.02
919.88	19.42
920.311	27.32
920.741	46.22
921.172	152.82
921.603	132.32
922.033	68.12
922.464	42.92
922.895	21.92
923.325	20.02
923.756	14.52
924.186	14.92
924.617	24.12
925.047	33.32
925.478	42.82
925.908	38.82
926.338	21.92
926.769	12.22
927.199	17.72
927.629	9.12
928.06	13.02
928.49	10.12
928.92	10.92
929.35	12.02
929.78	8.72
930.21	8.92
930.641	2.72
931.071	6.72
931.501	2.62
931.931	8.42
932.361	2.82
932.791	2.52
933.221	5.02
933.651	4.72
934.08	13.12
934.51	31.32
934.94	13.12
935.37	3.22
935.8	6.22
936.229	5.62
936.659	11.02
937.089	0.02
937.519	14.92
937.948	23.32
938.378	19.62
938.807	1.12
939.237	7.32
939.666	6.02
940.096	-3.28
940.525	3.22
940.955	-7.08
941.384	3.82
941.814	-1.08
942.243	0.72
942.672	4.82
943.102	-0.58
943.531	2.82
943.96	10.42
944.39	4.42
944.819	-5.58
945.248	4.52
945.677	-2.18
946.106	2.92
946.535	4.42
946.964	2.12
947.393	3.92
947.822	0.42
948.251	-3.78
948.68	4.62
949.109	2.52
949.538	1.62
949.967	5.82
950.396	6.92
950.825	-7.08
951.254	1.22
951.682	-7.38
952.111	3.62
952.54	6.02
952.969	-1.48
953.397	-1.78
953.826	-0.88
954.254	-1.48
954.683	5.12
955.112	0.22
955.54	0.42
955.969	2.02
956.397	-4.68
956.826	-4.38
957.254	5.32
957.682	1.32
958.111	5.82
958.539	-4.38
958.967	2.02
959.396	1.52
959.824	1.32
960.252	-0.68
960.68	-9.08
961.109	-4.68
961.537	-3.98
961.965	1.52
962.393	3.72
962.821	-8.08
963.249	2.52
963.677	7.62
964.105	4.22
964.533	38.12
964.961	45.52
965.389	20.12
965.817	8.72
966.245	5.52
966.672	-0.38
967.1	-10.88
967.528	-0.98
967.956	-2.18
968.383	1.22
968.811	-6.68
969.239	3.32
969.666	0.32
970.094	0.22
970.522	0.92
970.949	2.02
971.377	-7.38
971.804	-3.68
972.232	-2.28
972.659	0.02
973.087	-4.38
973.514	-9.68
973.941	2.32
974.369	2.82
974.796	-4.48
975.223	2.82
975.651	3.62
976.078	10.22
976.505	-3.78
976.932	5.32
977.359	16.62
977.786	18.22
978.214	0.22
978.641	-7.38
979.068	-4.38
979.495	-7.88
979.922	-5.68
980.349	-4.58
980.776	6.62
981.202	-0.38
981.629	2.42
982.056	5.52
982.483	-5.28
982.91	0.02
983.337	-8.38
983.763	-0.28
984.19	-9.48
984.617	-4.78
985.043	-6.38
985.47	3.12
985.897	-7.68
986.323	-7.28
986.75	5.62
987.176	-2.38
987.603	-3.18
988.029	-2.08
988.456	-4.78
988.882	-0.08
989.308	-9.38
989.735	-1.58
990.161	-1.98
990.587	-1.88
991.014	-6.18
991.44	7.52
991.866	-0.18
992.292	-2.78
992.719	-5.98
993.145	0.12
993.571	-10.88
993.997	-4.48
994.423	-3.98
994.849	-6.28
995.275	3.92
995.701	-1.88
996.127	-5.78
996.553	-2.08
996.979	-2.28
997.405	-1.98
997.83	-8.58
998.256	-10.98
998.682	-4.38
999.108	-6.58
999.534	-0.78
999.959	-4.68
1000.385	-3.08
1000.811	-2.98
1001.236	-7.18
1001.662	-4.68
1002.087	-11.78
1002.513	-4.58
1002.938	5.52
1003.364	-0.78
1003.789	-5.48
1004.215	3.52
1004.64	-5.48
1005.066	-0.08
1005.491	-0.08
1005.916	-5.68
1006.342	-7.38
1006.767	-7.08
1007.192	5.72
1007.617	0.12
1008.042	-3.68
1008.468	-10.28
1008.893	-4.18
1009.318	-1.38
1009.743	-1.88
1010.168	1.02
1010.593	-0.28
1011.018	-7.88
1011.443	-3.88
1011.868	0.62
1012.293	-4.38
1012.718	-5.88
1013.143	1.72
1013.567	-3.58
1013.992	-0.98
1014.417	-8.58
1014.842	2.52
1015.267	-7.88
1015.691	-6.08
1016.116	7.42
1016.541	0.72
1016.965	2.42
1017.39	3.42
1017.814	-0.18
1018.239	-2.68
1018.663	-7.88
1019.088	-9.98
1019.512	-4.08
1019.937	-5.08
1020.361	-5.38
1020.785	-10.28
1021.21	-3.68
1021.634	-5.08
1022.058	2.02
1022.483	5.12
1022.907	-1.98
1023.331	-4.68
1023.755	0.62
1024.179	1.22
1024.604	-11.68
1025.028	-7.18
1025.452	-1.68
1025.876	-1.38
1026.3	1.22
1026.724	-10.88
1027.148	-6.18
1027.572	-8.28
1027.996	-5.38
1028.42	2.92
1028.843	-4.38
1029.267	-5.48
1029.691	-1.88
1030.115	-3.98
1030.539	-5.78
1030.962	-8.38
1031.386	-9.98
1031.81	-2.58
1032.233	0.02
1032.657	0.32
1033.08	-0.98
1033.504	-10.18
1033.927	-4.28
1034.351	4.22
1034.774	-3.48
1035.198	0.12
1035.621	-3.28
1036.045	-8.08
1036.468	-0.28
1036.891	-7.88
1037.315	-7.48
1037.738	-10.78
1038.161	-2.08
1038.584	-6.28
1039.008	-4.88
1039.431	0.22
1039.854	-2.38
1040.277	-12.58
1040.7	-10.68
1041.123	5.82
1041.546	-8.18
1041.969	-3.68
1042.392	-5.48
1042.815	-2.08
1043.238	2.02
1043.661	3.32
1044.084	-8.48
1044.507	-4.38
1044.93	0.82
1045.352	-7.48
1045.775	-3.68
1046.198	-5.18
1046.621	-4.98
1047.043	5.02
1047.466	12.12
1047.889	-2.48
1048.311	-5.98
1048.734	-3.78
1049.156	-4.68
1049.579	-4.68
1050.001	-7.98
1050.424	-3.58
1050.846	-1.38
1051.269	-2.68
1051.691	-11.38
1052.113	-4.38
1052.536	-2.28
1052.958	-3.48
1053.38	-7.78
1053.802	-4.68
1054.225	5.22
1054.647	-13.68
1055.069	-5.88
1055.491	2.92
1055.913	-0.48
1056.335	-4.18
1056.757	-1.08
1057.179	-3.98
1057.601	-7.78
1058.023	-7.88
1058.445	-7.78
1058.867	-5.48
1059.289	-0.98
1059.711	-6.68
1060.133	1.12
1060.555	1.02
1060.976	-7.78
1061.398	-5.28
1061.82	-5.08
1062.241	-9.58
1062.663	-7.58
1063.085	0.92
1063.506	-1.68
1063.928	-1.98
1064.35	-3.38
1064.771	-6.28
1065.193	-2.68
1065.614	-9.08
1066.035	-5.68
1066.457	3.72
1066.878	1.72
1067.3	-0.48
1067.721	-2.68
1068.142	-3.18
1068.564	0.02
1068.985	-4.48
1069.406	-4.88
1069.827	-3.58
1070.248	-1.78
1070.67	-4.18
1071.091	-6.38
1071.512	-4.68
1071.933	-2.48
1072.354	-5.58
1072.775	-6.38
1073.196	-6.38
1073.617	-6.58
1074.038	-9.78
1074.459	-4.48
1074.88	-6.18
1075.3	0.12
1075.721	-7.98
1076.142	2.42
1076.563	0.22
1076.983	-7.38
1077.404	-11.18
1077.825	-9.28
1078.246	-6.48
1078.666	-12.28
1079.087	-0.48
1079.507	-7.08
1079.928	1.52
1080.348	0.12
1080.769	-5.08
1081.189	-8.08
1081.61	2.42
1082.03	-4.98
1082.451	-7.68
1082.871	-4.78
1083.291	-8.48
1083.711	-9.38
1084.132	-2.88
1084.552	-2.58
1084.972	1.82
1085.392	-8.08
1085.813	-7.38
1086.233	-7.18
1086.653	-9.08
1087.073	-0.38
1087.493	-9.58
1087.913	-7.18
1088.333	-7.08
1088.753	-3.58
1089.173	3.92
1089.593	-4.08
1090.013	-0.08
1090.433	4.62
1090.852	0.82
1091.272	-4.98
1091.692	-1.88
1092.112	-8.58
1092.531	-8.38
1092.951	-17.48
1093.371	-2.48
1093.79	1.52
1094.21	-3.58
1094.63	-11.18
1095.049	-11.38
1095.469	-5.08
1095.888	-5.78
1096.308	4.72
1096.727	1.82
1097.146	-4.78
1097.566	-1.88
1097.985	-5.88
1098.405	-4.78
1098.824	-10.58
1099.243	-9.08
1099.662	-3.28
1100.082	-4.78
1100.501	1.22
1100.92	-7.48
1101.339	-10.58
1101.758	-13.08
