Data from 20171114-ORNL-Ar_H_NY_Subt18_08-09-22-595.txt Node
Date: Tue Nov 14 08:09:22 EST 2017
User: Ender
Spectrometer: HR+D1039
Trigger mode: 0
Integration Time (sec): 2.730000E-2
Scans to average: 10
Electric dark correction enabled: true
Nonlinearity correction enabled: false
Boxcar width: 0
XAxis mode: Wavelengths
Number of Pixels in Spectrum: 2048
>>>>>Begin Spectral Data<<<<<
187.836	-3.44
188.309	-3.44
188.782	-3.44
189.255	5.36
189.728	-6.34
190.201	2.76
190.674	3.66
191.147	1.86
191.619	-10.74
192.092	6.06
192.565	8.36
193.038	-0.84
193.511	-1.14
193.984	-1.34
194.456	0.16
194.929	2.46
195.402	-7.44
195.874	0.66
196.347	-0.74
196.82	-7.74
197.292	8.76
197.765	0.86
198.237	-4.24
198.71	3.86
199.182	-4.44
199.655	-4.14
200.127	-0.54
200.6	-3.64
201.072	-3.34
201.544	-5.04
202.017	-4.04
202.489	2.66
202.961	-1.74
203.433	-4.54
203.906	-6.74
204.378	-3.04
204.85	-6.04
205.322	-1.84
205.794	-0.84
206.266	-4.34
206.739	-11.04
207.211	3.66
207.683	-13.54
208.155	-11.54
208.627	-8.94
209.099	-10.24
209.57	-6.44
210.042	-10.54
210.514	-3.54
210.986	-7.44
211.458	-3.24
211.93	-3.24
212.402	3.76
212.873	-6.84
213.345	-8.74
213.817	-11.14
214.288	-6.74
214.76	-9.54
215.232	-4.24
215.703	-0.04
216.175	-3.54
216.646	-7.04
217.118	-2.24
217.589	-1.94
218.061	-0.34
218.532	-7.94
219.004	3.46
219.475	-6.24
219.946	-5.14
220.418	-5.54
220.889	4.16
221.36	0.06
221.832	-2.44
222.303	-8.04
222.774	-1.04
223.245	-12.34
223.717	-4.94
224.188	-9.34
224.659	-4.34
225.13	-4.24
225.601	-5.04
226.072	-5.04
226.543	-5.04
227.014	-2.94
227.485	-0.64
227.956	-7.64
228.427	-2.74
228.898	-4.44
229.369	5.66
229.839	-4.54
230.31	-9.44
230.781	6.46
231.252	-0.24
231.722	-3.24
232.193	-5.94
232.664	3.96
233.135	-4.64
233.605	-1.84
234.076	-8.94
234.546	-3.14
235.017	2.36
235.487	3.96
235.958	0.66
236.428	-9.94
236.899	-3.94
237.369	-0.04
237.84	-7.44
238.31	-0.34
238.78	-2.14
239.251	-7.04
239.721	-6.34
240.191	0.16
240.662	-2.44
241.132	0.26
241.602	-4.54
242.072	-2.54
242.542	0.86
243.013	-3.64
243.483	-1.44
243.953	-0.44
244.423	3.26
244.893	-6.94
245.363	0.16
245.833	-0.94
246.303	-6.84
246.773	-1.14
247.243	-0.54
247.712	-2.14
248.182	-3.54
248.652	3.76
249.122	-12.64
249.592	-2.24
250.061	-4.44
250.531	2.96
251.001	-8.04
251.471	9.36
251.94	9.06
252.41	-4.54
252.879	-7.04
253.349	7.16
253.818	3.06
254.288	3.96
254.757	-1.04
255.227	-5.04
255.696	-0.74
256.166	0.26
256.635	1.16
257.105	1.26
257.574	1.66
258.043	2.56
258.513	-0.84
258.982	-0.94
259.451	-3.44
259.92	2.36
260.389	-5.44
260.859	-1.84
261.328	3.36
261.797	4.16
262.266	-0.34
262.735	3.96
263.204	-3.54
263.673	-2.04
264.142	4.46
264.611	-9.34
265.08	-4.74
265.549	-2.74
266.018	-0.54
266.487	0.26
266.955	-9.14
267.424	-4.84
267.893	1.16
268.362	-0.74
268.83	1.06
269.299	-2.94
269.768	1.96
270.236	-2.44
270.705	-0.44
271.174	1.06
271.642	5.36
272.111	-2.04
272.579	-0.14
273.048	-3.94
273.516	-2.34
273.985	7.66
274.453	3.16
274.922	6.36
275.39	5.16
275.858	-3.34
276.327	8.36
276.795	7.06
277.263	1.96
277.731	5.96
278.2	4.86
278.668	2.16
279.136	6.76
279.604	-3.14
280.072	7.96
280.54	4.16
281.008	0.26
281.477	8.26
281.945	7.56
282.413	4.36
282.881	5.06
283.348	-1.54
283.816	10.66
284.284	12.46
284.752	17.96
285.22	6.76
285.688	13.16
286.156	1.36
286.623	13.56
287.091	3.26
287.559	7.56
288.026	-0.74
288.494	9.06
288.962	-5.34
289.429	0.46
289.897	7.06
290.364	12.56
290.832	5.96
291.3	2.36
291.767	12.96
292.234	13.46
292.702	2.46
293.169	7.76
293.637	12.26
294.104	10.66
294.571	1.36
295.039	7.96
295.506	3.46
295.973	8.76
296.44	7.26
296.908	9.06
297.375	4.96
297.842	10.96
298.309	11.36
298.776	1.76
299.243	13.56
299.71	4.46
300.177	11.66
300.644	14.56
301.111	11.46
301.578	14.66
302.045	12.16
302.512	10.96
302.979	19.26
303.446	16.26
303.913	12.76
304.379	6.16
304.846	20.36
305.313	15.96
305.78	11.86
306.246	12.76
306.713	14.66
307.18	15.06
307.646	17.16
308.113	17.96
308.579	15.96
309.046	13.76
309.512	16.66
309.979	14.16
310.445	14.86
310.912	23.16
311.378	21.66
311.845	17.96
312.311	23.46
312.777	20.86
313.244	18.76
313.71	29.46
314.176	20.06
314.642	12.46
315.109	19.66
315.575	22.66
316.041	24.06
316.507	14.86
316.973	22.56
317.439	21.06
317.905	26.66
318.371	23.86
318.837	25.56
319.303	22.96
319.769	19.26
320.235	29.06
320.701	19.46
321.167	21.26
321.633	22.56
322.099	28.36
322.564	32.06
323.03	28.66
323.496	32.16
323.962	27.46
324.427	20.76
324.893	27.86
325.359	25.26
325.824	24.26
326.29	23.96
326.755	30.36
327.221	26.56
327.686	25.86
328.152	32.06
328.617	27.76
329.083	33.36
329.548	38.96
330.014	40.96
330.479	30.16
330.944	33.26
331.41	29.46
331.875	32.66
332.34	27.66
332.805	28.36
333.271	32.16
333.736	23.76
334.201	35.26
334.666	37.66
335.131	32.06
335.596	43.26
336.061	39.66
336.526	37.96
336.991	33.06
337.456	40.06
337.921	40.76
338.386	34.46
338.851	40.26
339.316	35.56
339.781	39.96
340.246	42.86
340.711	38.06
341.175	39.06
341.64	36.56
342.105	38.76
342.569	42.86
343.034	45.56
343.499	38.86
343.963	44.56
344.428	54.06
344.893	45.56
345.357	44.26
345.822	46.66
346.286	46.86
346.751	51.86
347.215	57.66
347.679	49.36
348.144	70.46
348.608	61.16
349.073	50.96
349.537	59.56
350.001	57.66
350.465	73.36
350.93	61.26
351.394	64.66
351.858	51.56
352.322	67.06
352.786	58.16
353.25	74.36
353.715	81.36
354.179	77.46
354.643	88.56
355.107	85.96
355.571	81.56
356.035	74.26
356.498	85.36
356.962	78.06
357.426	93.46
357.89	82.26
358.354	70.66
358.818	69.76
359.281	69.46
359.745	66.06
360.209	61.66
360.673	58.16
361.136	67.16
361.6	65.76
362.064	71.96
362.527	67.16
362.991	79.46
363.454	65.66
363.918	65.36
364.381	66.16
364.845	60.86
365.308	79.86
365.772	71.66
366.235	73.96
366.698	72.76
367.162	65.46
367.625	68.46
368.088	74.66
368.552	64.06
369.015	66.56
369.478	71.46
369.941	74.46
370.404	75.66
370.867	80.26
371.331	88.46
371.794	84.06
372.257	84.16
372.72	88.76
373.183	80.46
373.646	76.86
374.109	82.86
374.572	86.06
375.035	88.66
375.497	91.66
375.96	89.36
376.423	90.96
376.886	93.36
377.349	89.76
377.811	87.66
378.274	90.66
378.737	87.56
379.199	90.36
379.662	92.86
380.125	94.76
380.587	86.86
381.05	99.66
381.512	104.56
381.975	104.76
382.437	104.96
382.9	99.56
383.362	100.26
383.825	109.86
384.287	104.66
384.75	100.06
385.212	107.46
385.674	113.56
386.136	115.56
386.599	107.86
387.061	106.36
387.523	104.26
387.985	108.56
388.447	118.96
388.91	114.36
389.372	116.66
389.834	115.16
390.296	113.86
390.758	110.36
391.22	120.76
391.682	132.46
392.144	132.56
392.606	124.96
393.068	125.36
393.529	136.46
393.991	123.16
394.453	116.66
394.915	120.66
395.377	117.96
395.838	114.86
396.3	120.06
396.762	124.66
397.224	119.26
397.685	119.46
398.147	122.76
398.608	117.76
399.07	118.66
399.531	124.56
399.993	131.86
400.454	141.66
400.916	139.66
401.377	135.36
401.839	140.66
402.3	130.26
402.762	149.06
403.223	156.66
403.684	150.86
404.145	151.76
404.607	150.36
405.068	150.36
405.529	149.36
405.99	169.26
406.451	162.46
406.913	159.16
407.374	153.36
407.835	146.56
408.296	152.56
408.757	155.46
409.218	171.96
409.679	158.06
410.14	162.36
410.601	165.56
411.062	169.76
411.522	169.66
411.983	162.86
412.444	161.76
412.905	168.56
413.366	176.16
413.826	181.36
414.287	205.56
414.748	247.76
415.208	236.76
415.669	207.06
416.13	201.46
416.59	193.16
417.051	213.36
417.511	213.86
417.972	226.06
418.432	237.26
418.893	275.96
419.353	240.46
419.814	193.36
420.274	174.06
420.734	176.56
421.195	187.66
421.655	183.66
422.115	187.66
422.576	181.56
423.036	191.06
423.496	199.16
423.956	212.26
424.416	222.36
424.876	250.16
425.336	245.96
425.797	251.66
426.257	232.16
426.717	227.96
427.177	219.66
427.637	215.26
428.097	219.06
428.556	229.76
429.016	251.96
429.476	248.26
429.936	254.76
430.396	261.86
430.856	266.06
431.315	292.26
431.775	316.96
432.235	348.76
432.694	330.96
433.154	338.76
433.614	367.26
434.073	314.76
434.533	265.06
434.993	253.46
435.452	262.36
435.912	265.66
436.371	271.06
436.83	260.06
437.29	246.36
437.749	237.56
438.209	236.36
438.668	264.36
439.127	269.76
439.587	246.96
440.046	236.26
440.505	247.96
440.964	260.76
441.424	308.06
441.883	291.66
442.342	245.66
442.801	215.36
443.26	212.76
443.719	211.16
444.178	208.16
444.637	208.76
445.096	214.46
445.555	222.56
446.014	215.96
446.473	218.86
446.932	229.96
447.391	219.96
447.849	226.56
448.308	217.16
448.767	222.66
449.226	232.86
449.685	235.46
450.143	252.36
450.602	236.66
451.061	225.96
451.519	228.06
451.978	236.46
452.436	232.96
452.895	241.26
453.353	244.06
453.812	233.26
454.27	240.36
454.729	229.36
455.187	237.16
455.646	237.96
456.104	243.66
456.562	258.36
457.021	265.16
457.479	254.76
457.937	271.16
458.395	260.36
458.854	249.56
459.312	253.66
459.77	270.76
460.228	250.96
460.686	241.36
461.144	250.26
461.602	244.96
462.06	244.66
462.518	255.16
462.976	257.46
463.434	253.56
463.892	267.56
464.35	268.56
464.808	286.26
465.266	261.96
465.724	266.86
466.181	278.76
466.639	276.26
467.097	289.06
467.555	307.06
468.012	307.66
468.47	307.76
468.928	324.66
469.385	336.86
469.843	342.26
470.3	353.26
470.758	357.16
471.215	373.96
471.673	394.56
472.13	399.26
472.588	409.76
473.045	372.76
473.503	375.66
473.96	390.26
474.417	395.76
474.875	421.26
475.332	459.56
475.789	456.46
476.246	460.76
476.704	476.76
477.161	498.46
477.618	507.06
478.075	545.96
478.532	598.66
478.989	658.66
479.446	762.16
479.903	728.56
480.36	754.56
480.817	814.66
481.274	895.36
481.731	982.76
482.188	1054.76
482.645	1172.16
483.102	1253.16
483.558	1371.56
484.015	1408.86
484.472	1392.76
484.929	1340.56
485.385	1292.26
485.842	1273.66
486.299	1233.96
486.755	1182.26
487.212	1018.16
487.668	874.86
488.125	816.66
488.582	742.26
489.038	710.66
489.494	682.86
489.951	675.76
490.407	642.06
490.864	629.46
491.32	622.56
491.776	625.76
492.233	635.56
492.689	596.16
493.145	600.86
493.602	591.06
494.058	609.86
494.514	601.96
494.97	625.96
495.426	639.16
495.882	616.06
496.338	606.66
496.794	611.56
497.251	599.56
497.707	614.86
498.163	627.36
498.618	632.56
499.074	633.86
499.53	658.56
499.986	653.56
500.442	631.46
500.898	619.36
501.354	607.16
501.809	618.66
502.265	613.76
502.721	624.26
503.177	621.26
503.632	631.26
504.088	642.26
504.543	655.66
504.999	676.76
505.455	646.96
505.91	628.96
506.366	637.86
506.821	630.36
507.277	627.06
507.732	636.26
508.187	633.46
508.643	640.56
509.098	632.86
509.553	661.16
510.009	663.66
510.464	667.26
510.919	692.36
511.375	687.46
511.83	702.56
512.285	718.16
512.74	755.86
513.195	782.56
513.65	764.46
514.105	758.16
514.56	760.56
515.015	778.96
515.47	786.96
515.925	776.46
516.38	783.86
516.835	781.06
517.29	781.56
517.745	776.76
518.2	770.66
518.655	741.16
519.109	737.06
519.564	741.06
520.019	736.06
520.474	716.26
520.928	722.86
521.383	714.46
521.838	710.76
522.292	708.36
522.747	713.96
523.201	711.96
523.656	696.56
524.11	699.56
524.565	702.26
525.019	689.66
525.474	687.66
525.928	699.66
526.382	696.56
526.837	700.96
527.291	699.06
527.745	689.66
528.2	699.96
528.654	696.26
529.108	686.06
529.562	697.96
530.016	689.36
530.47	684.76
530.925	691.76
531.379	691.26
531.833	699.66
532.287	696.96
532.741	702.46
533.195	694.86
533.649	707.26
534.103	709.36
534.556	701.16
535.01	710.06
535.464	695.46
535.918	718.26
536.372	716.66
536.826	716.46
537.279	709.96
537.733	709.16
538.187	721.36
538.64	701.66
539.094	719.96
539.548	723.56
540.001	718.76
540.455	728.16
540.908	738.26
541.362	742.46
541.815	744.76
542.269	756.76
542.722	759.36
543.175	778.56
543.629	779.16
544.082	792.16
544.536	795.26
544.989	796.56
545.442	797.16
545.895	799.36
546.349	799.96
546.802	797.26
547.255	808.66
547.708	812.96
548.161	821.36
548.614	835.76
549.067	827.16
549.52	826.96
549.973	826.66
550.426	809.76
550.879	808.06
551.332	816.06
551.785	820.26
552.238	818.26
552.691	824.66
553.144	843.76
553.596	869.56
554.049	867.76
554.502	906.26
554.955	928.06
555.407	917.76
555.86	912.46
556.313	892.96
556.765	883.96
557.218	896.46
557.67	884.46
558.123	878.96
558.576	875.66
559.028	883.56
559.48	899.26
559.933	887.16
560.385	852.86
560.838	825.46
561.29	799.06
561.742	792.86
562.195	778.46
562.647	776.46
563.099	787.16
563.551	778.86
564.004	793.86
564.456	772.86
564.908	760.66
565.36	756.06
565.812	737.36
566.264	735.56
566.716	722.56
567.168	703.76
567.62	722.96
568.072	703.36
568.524	705.86
568.976	696.16
569.428	688.46
569.88	673.96
570.332	695.16
570.784	691.86
571.235	694.96
571.687	717.36
572.139	711.46
572.59	717.06
573.042	728.46
573.494	734.66
573.945	713.76
574.397	692.06
574.849	704.46
575.3	695.76
575.752	698.46
576.203	690.96
576.655	703.06
577.106	682.36
577.557	673.36
578.009	679.46
578.46	674.86
578.912	672.16
579.363	679.06
579.814	675.66
580.265	673.46
580.717	673.16
581.168	678.16
581.619	686.06
582.07	697.86
582.521	684.56
582.972	678.66
583.423	691.56
583.875	686.56
584.326	697.96
584.777	707.36
585.227	720.36
585.678	725.96
586.129	730.46
586.58	761.46
587.031	781.96
587.482	801.16
587.933	820.86
588.384	803.56
588.834	793.66
589.285	775.96
589.736	780.06
590.186	779.66
590.637	791.06
591.088	756.86
591.538	752.66
591.989	734.86
592.439	738.36
592.89	723.16
593.34	713.96
593.791	721.26
594.241	707.36
594.692	713.36
595.142	714.06
595.593	703.06
596.043	714.46
596.493	721.96
596.943	708.16
597.394	728.06
597.844	737.76
598.294	743.46
598.744	773.16
599.195	801.16
599.645	835.06
600.095	887.06
600.545	938.06
600.995	1001.26
601.445	1051.76
601.895	1117.66
602.345	1157.36
602.795	1129.96
603.245	1102.76
603.695	1029.56
604.145	970.96
604.594	933.46
605.044	875.16
605.494	824.16
605.944	777.86
606.393	762.76
606.843	745.76
607.293	743.56
607.743	753.96
608.192	756.36
608.642	768.56
609.091	770.26
609.541	772.66
609.99	773.66
610.44	773.46
610.889	732.36
611.339	712.86
611.788	697.56
612.238	707.46
612.687	709.16
613.136	710.16
613.586	721.96
614.035	722.26
614.484	721.56
614.933	711.86
615.383	718.76
615.832	716.46
616.281	711.26
616.73	683.46
617.179	663.66
617.628	657.26
618.077	642.46
618.526	636.66
618.975	629.06
619.424	627.76
619.873	618.06
620.322	634.06
620.771	616.46
621.22	616.56
621.669	601.56
622.118	608.86
622.567	595.06
623.015	580.06
623.464	585.26
623.913	568.96
624.361	561.26
624.81	567.46
625.259	564.06
625.707	567.66
626.156	568.56
626.604	581.16
627.053	574.36
627.501	582.36
627.95	587.86
628.398	599.06
628.847	586.16
629.295	583.16
629.744	587.16
630.192	575.36
630.64	578.26
631.089	555.96
631.537	552.26
631.985	531.66
632.433	544.96
632.881	530.36
633.33	547.36
633.778	534.16
634.226	537.56
634.674	542.76
635.122	553.86
635.57	558.76
636.018	569.96
636.466	577.46
636.914	563.16
637.362	585.16
637.81	579.96
638.258	591.16
638.705	590.76
639.153	621.66
639.601	631.16
640.049	660.46
640.497	681.76
640.944	708.86
641.392	666.36
641.84	625.36
642.287	594.66
642.735	570.66
643.182	580.06
643.63	578.66
644.078	566.46
644.525	596.16
644.973	590.56
645.42	612.86
645.867	634.46
646.315	651.06
646.762	657.36
647.21	695.36
647.657	713.06
648.104	752.26
648.551	761.46
648.999	828.36
649.446	893.06
649.893	992.16
650.34	1115.66
650.787	1335.66
651.234	1661.06
651.682	2132.66
652.129	2895.26
652.576	4111.36
653.023	5990.36
653.47	8080.56
653.917	9966.66
654.363	11347.66
654.81	12475.16
655.257	11799.96
655.704	7831.26
656.151	4737.86
656.598	3096.86
657.044	2236.76
657.491	1738.26
657.938	1407.06
658.385	1183.16
658.831	1037.76
659.278	941.36
659.724	828.16
660.171	776.26
660.618	717.66
661.064	680.36
661.511	671.36
661.957	654.86
662.404	639.96
662.85	645.66
663.296	632.86
663.743	570.16
664.189	549.16
664.635	543.66
665.082	530.26
665.528	537.26
665.974	533.56
666.42	520.36
666.867	511.26
667.313	498.76
667.759	468.56
668.205	462.96
668.651	458.86
669.097	453.96
669.543	461.06
669.989	450.76
670.435	456.96
670.881	457.46
671.327	468.76
671.773	478.66
672.219	505.26
672.665	570.46
673.11	610.86
673.556	651.06
674.002	686.06
674.448	682.06
674.893	568.06
675.339	494.26
675.785	451.86
676.23	425.76
676.676	402.56
677.122	395.56
677.567	379.56
678.013	389.36
678.458	373.26
678.904	370.36
679.349	360.16
679.794	372.96
680.24	365.16
680.685	360.56
681.131	364.46
681.576	368.46
682.021	364.26
682.466	363.36
682.912	361.86
683.357	368.76
683.802	399.56
684.247	434.46
684.692	482.96
685.137	519.26
685.583	556.26
686.028	593.76
686.473	551.96
686.918	466.86
687.363	440.16
687.807	405.96
688.252	382.56
688.697	371.66
689.142	348.86
689.587	342.66
690.032	341.06
690.477	361.06
690.921	366.56
691.366	410.16
691.811	419.36
692.255	448.46
692.7	483.86
693.145	539.86
693.589	750.06
694.034	1219.36
694.478	1632.56
694.923	1801.06
695.367	2342.46
695.812	1259.16
696.256	526.56
696.701	393.66
697.145	357.36
697.59	343.16
698.034	329.56
698.478	335.96
698.922	335.86
699.367	327.16
699.811	345.16
700.255	365.66
700.699	399.96
701.143	435.26
701.588	491.26
702.032	533.36
702.476	539.76
702.92	523.86
703.364	526.86
703.808	702.56
704.252	1139.96
704.696	1547.96
705.14	1727.16
705.584	2205.66
706.027	1113.56
706.471	540.96
706.915	416.76
707.359	368.06
707.803	335.16
708.246	331.46
708.69	333.66
709.134	329.06
709.577	322.46
710.021	329.66
710.465	325.96
710.908	315.56
711.352	311.06
711.795	326.36
712.239	379.26
712.682	403.26
713.126	421.46
713.569	463.86
714.012	361.66
714.456	312.16
714.899	296.66
715.342	286.16
715.786	271.26
716.229	270.16
716.672	269.56
717.115	258.16
717.558	262.56
718.002	261.16
718.445	275.36
718.888	295.66
719.331	303.96
719.774	317.56
720.217	315.76
720.66	294.76
721.103	276.96
721.546	264.36
721.989	252.56
722.432	240.76
722.874	250.06
723.317	241.06
723.76	242.86
724.203	267.36
724.645	332.86
725.088	479.36
725.531	603.26
725.974	668.96
726.416	572.46
726.859	311.86
727.301	263.26
727.744	246.96
728.187	241.96
728.629	244.36
729.071	256.26
729.514	278.36
729.956	287.86
730.399	294.66
730.841	300.96
731.283	279.56
731.726	274.36
732.168	276.46
732.61	285.66
733.053	302.06
733.495	324.26
733.937	378.86
734.379	420.86
734.821	465.26
735.263	593.96
735.705	922.76
736.148	1757.36
736.59	2773.96
737.032	3154.36
737.474	2597.86
737.916	862.86
738.357	453.56
738.799	342.76
739.241	315.76
739.683	296.36
740.125	309.96
740.567	318.06
741.008	329.66
741.45	340.26
741.892	336.16
742.334	364.76
742.775	386.26
743.217	357.66
743.658	280.76
744.1	272.36
744.542	288.66
744.983	343.16
745.425	367.36
745.866	357.76
746.307	293.46
746.749	297.86
747.19	337.86
747.632	494.06
748.073	983.66
748.514	2065.66
748.956	3006.96
749.397	3819.86
749.838	3155.26
750.279	3050.86
750.72	1562.56
751.162	587.56
751.603	346.16
752.044	268.26
752.485	231.76
752.926	222.16
753.367	209.76
753.808	199.76
754.249	205.96
754.69	198.66
755.131	197.96
755.572	191.86
756.013	193.86
756.453	190.86
756.894	196.86
757.335	196.76
757.776	209.16
758.216	207.56
758.657	205.36
759.098	210.56
759.538	243.16
759.979	290.86
760.42	408.86
760.86	801.86
761.301	2075.76
761.741	4835.76
762.182	6647.66
762.622	4711.16
763.063	1402.16
763.503	572.76
763.943	338.96
764.384	276.56
764.824	245.46
765.264	232.76
765.705	213.56
766.145	191.86
766.585	186.36
767.025	182.86
767.465	172.26
767.906	190.86
768.346	185.36
768.786	208.26
769.226	228.36
769.666	331.26
770.106	694.46
770.546	1722.76
770.986	2754.86
771.426	2434.96
771.866	851.06
772.306	346.36
772.745	214.36
773.185	172.86
773.625	169.76
774.065	158.86
774.505	162.56
774.944	220.06
775.384	375.86
775.824	590.66
776.263	560.26
776.703	278.86
777.142	161.76
777.582	135.16
778.021	127.06
778.461	127.26
778.9	128.26
779.34	136.16
779.779	121.46
780.219	116.06
780.658	112.16
781.097	113.36
781.537	113.06
781.976	119.96
782.415	112.16
782.855	100.86
783.294	109.66
783.733	111.86
784.172	106.06
784.611	110.46
785.05	112.76
785.489	116.26
785.928	121.76
786.367	126.76
786.806	121.56
787.245	139.06
787.684	142.96
788.123	154.56
788.562	144.76
789.001	131.16
789.44	125.46
789.879	128.26
790.317	121.46
790.756	131.06
791.195	132.66
791.634	154.16
792.072	223.06
792.511	406.16
792.95	1120.16
793.388	2222.06
793.827	1962.36
794.265	693.06
794.704	289.76
795.142	193.26
795.581	161.66
796.019	140.36
796.458	134.76
796.896	125.56
797.334	142.06
797.773	167.46
798.211	243.46
798.649	486.56
799.087	1109.66
799.526	1723.46
799.964	2152.36
800.402	2065.76
800.84	793.26
801.278	324.76
801.716	195.96
802.154	160.76
802.592	157.26
803.03	150.66
803.468	142.56
803.906	156.96
804.344	154.26
804.782	148.26
805.22	142.56
805.658	139.56
806.096	150.76
806.533	163.66
806.971	186.86
807.409	231.26
807.847	348.56
808.284	755.76
808.722	2078.16
809.16	3470.46
809.597	3436.66
810.035	5852.56
810.472	5948.26
810.91	2207.16
811.347	857.06
811.785	426.76
812.222	273.86
812.66	204.96
813.097	173.76
813.535	154.66
813.972	131.26
814.409	128.16
814.846	117.46
815.284	118.76
815.721	102.96
816.158	107.36
816.595	113.56
817.032	163.56
817.47	184.36
817.907	131.16
818.344	103.76
818.781	104.06
819.218	103.86
819.655	135.06
820.092	200.66
820.529	215.66
820.966	178.46
821.403	132.46
821.839	107.16
822.276	106.26
822.713	126.46
823.15	142.46
823.587	121.66
824.023	166.76
824.46	334.86
824.897	980.36
825.333	1407.16
825.77	617.26
826.206	245.46
826.643	145.86
827.08	112.66
827.516	96.16
827.953	77.76
828.389	83.06
828.825	73.46
829.262	70.46
829.698	70.16
830.135	63.16
830.571	61.46
831.007	63.26
831.443	68.26
831.88	70.86
832.316	69.46
832.752	69.36
833.188	67.06
833.624	64.76
834.06	70.86
834.497	71.16
834.933	74.36
835.369	78.16
835.805	73.46
836.241	84.16
836.677	90.16
837.112	90.76
837.548	112.26
837.984	143.06
838.42	218.16
838.856	566.46
839.292	1654.96
839.727	2384.26
840.163	1145.06
840.599	1032.76
841.034	2184.36
841.47	2196.86
841.906	824.66
842.341	344.26
842.777	209.66
843.212	209.66
843.648	188.96
844.083	111.76
844.519	86.16
844.954	70.66
845.39	60.46
845.825	61.16
846.261	63.16
846.696	57.96
847.131	56.96
847.566	68.26
848.002	52.16
848.437	60.36
848.872	61.76
849.307	67.86
849.742	88.66
850.177	198.36
850.613	608.06
851.048	905.36
851.483	398.16
851.918	164.26
852.353	92.76
852.788	57.16
853.223	55.66
853.657	55.66
854.092	53.96
854.527	45.36
854.962	44.56
855.397	49.86
855.832	52.56
856.266	47.96
856.701	34.86
857.136	42.96
857.57	42.26
858.005	50.86
858.44	70.06
858.874	50.46
859.309	52.36
859.743	43.46
860.178	44.26
860.612	41.76
861.047	54.86
861.481	72.56
861.915	75.96
862.35	53.66
862.784	37.96
863.218	40.06
863.653	31.06
864.087	48.46
864.521	59.26
864.955	68.16
865.39	172.46
865.824	181.46
866.258	119.16
866.692	178.66
867.126	189.46
867.56	115.26
867.994	58.36
868.428	40.96
868.862	47.16
869.296	57.86
869.73	63.16
870.164	60.16
870.598	54.06
871.031	39.06
871.465	36.16
871.899	32.26
872.333	14.56
872.766	30.86
873.2	29.66
873.634	33.46
874.067	29.46
874.501	30.36
874.935	38.06
875.368	32.16
875.802	29.16
876.235	30.16
876.669	28.36
877.102	30.56
877.535	29.56
877.969	21.56
878.402	22.36
878.836	21.96
879.269	27.36
879.702	31.86
880.135	24.26
880.569	18.26
881.002	28.26
881.435	21.96
881.868	17.16
882.301	21.86
882.734	19.06
883.167	21.46
883.601	17.86
884.034	20.56
884.467	16.26
884.899	17.66
885.332	15.36
885.765	18.56
886.198	20.76
886.631	20.46
887.064	22.06
887.497	24.86
887.929	29.76
888.362	20.76
888.795	13.06
889.228	17.76
889.66	24.16
890.093	19.66
890.526	17.06
890.958	18.46
891.391	21.56
891.823	26.36
892.256	13.76
892.688	11.96
893.121	15.36
893.553	19.56
893.985	26.56
894.418	22.16
894.85	17.16
895.282	17.06
895.715	25.36
896.147	19.56
896.579	15.26
897.011	20.06
897.444	16.66
897.876	14.36
898.308	15.86
898.74	15.66
899.172	13.46
899.604	24.16
900.036	24.46
900.468	13.56
900.9	17.66
901.332	23.36
901.764	13.46
902.196	24.26
902.628	19.26
903.06	21.86
903.491	29.66
903.923	25.16
904.355	20.96
904.787	28.96
905.218	26.66
905.65	19.96
906.082	15.66
906.513	12.46
906.945	14.46
907.376	11.56
907.808	19.16
908.239	20.96
908.671	19.46
909.102	20.16
909.534	25.66
909.965	51.46
910.397	107.46
910.828	346.36
911.259	489.76
911.691	224.96
912.122	116.26
912.553	56.86
912.984	37.66
913.415	23.86
913.847	23.96
914.278	18.96
914.709	14.86
915.14	18.26
915.571	20.86
916.002	10.56
916.433	20.86
916.864	14.96
917.295	15.36
917.726	20.56
918.157	18.26
918.587	28.96
919.018	24.66
919.449	23.36
919.88	25.46
920.311	31.86
920.741	50.26
921.172	177.86
921.603	157.06
922.033	76.86
922.464	53.76
922.895	25.56
923.325	17.26
923.756	14.06
924.186	15.96
924.617	20.46
925.047	18.16
925.478	25.86
925.908	20.56
926.338	14.56
926.769	9.46
927.199	20.66
927.629	9.56
928.06	16.16
928.49	9.96
928.92	12.96
929.35	5.86
929.78	11.86
930.21	12.36
930.641	5.76
931.071	8.46
931.501	7.36
931.931	9.06
932.361	4.76
932.791	2.76
933.221	6.86
933.651	4.86
934.08	21.26
934.51	30.36
934.94	11.76
935.37	9.46
935.8	11.76
936.229	5.96
936.659	8.26
937.089	5.46
937.519	15.46
937.948	31.96
938.378	15.66
938.807	9.46
939.237	-4.34
939.666	8.06
940.096	-1.14
940.525	0.16
940.955	3.46
941.384	5.26
941.814	2.06
942.243	-1.14
942.672	5.26
943.102	-2.14
943.531	-1.44
943.96	2.56
944.39	0.76
944.819	6.26
945.248	5.86
945.677	-0.94
946.106	-0.64
946.535	1.86
946.964	-1.14
947.393	0.86
947.822	2.06
948.251	-8.04
948.68	3.16
949.109	5.86
949.538	7.36
949.967	4.36
950.396	-0.34
950.825	-4.44
951.254	4.16
951.682	-4.54
952.111	8.36
952.54	7.16
952.969	-4.34
953.397	-8.24
953.826	2.16
954.254	-4.44
954.683	5.16
955.112	0.06
955.54	3.36
955.969	-0.74
956.397	3.16
956.826	-4.74
957.254	5.76
957.682	6.26
958.111	7.96
958.539	-1.44
958.967	0.16
959.396	-1.34
959.824	0.86
960.252	4.26
960.68	-7.44
961.109	1.36
961.537	-8.54
961.965	-2.94
962.393	3.86
962.821	-0.54
963.249	-0.44
963.677	3.96
964.105	0.56
964.533	46.16
964.961	42.16
965.389	19.26
965.817	11.16
966.245	2.96
966.672	8.16
967.1	-5.54
967.528	2.16
967.956	-2.64
968.383	-2.14
968.811	0.06
969.239	0.16
969.666	-5.44
970.094	-0.14
970.522	7.16
970.949	0.06
971.377	-0.54
971.804	0.16
972.232	-5.64
972.659	0.16
973.087	-2.84
973.514	-2.24
973.941	-7.24
974.369	4.66
974.796	-0.44
975.223	-1.24
975.651	-7.04
976.078	-2.44
976.505	-4.94
976.932	1.16
977.359	23.86
977.786	12.16
978.214	2.26
978.641	-2.64
979.068	-3.64
979.495	-9.74
979.922	0.96
980.349	0.36
980.776	-1.04
981.202	7.06
981.629	5.76
982.056	3.46
982.483	0.86
982.91	7.96
983.337	-3.04
983.763	-3.34
984.19	-8.84
984.617	-1.64
985.043	-3.64
985.47	0.26
985.897	-7.04
986.323	-3.44
986.75	8.36
987.176	-1.94
987.603	-10.44
988.029	1.36
988.456	-4.64
988.882	-2.14
989.308	-8.84
989.735	-4.24
990.161	-2.34
990.587	-4.24
991.014	0.76
991.44	-2.44
991.866	-0.64
992.292	-5.04
992.719	-2.84
993.145	3.76
993.571	-3.14
993.997	-3.84
994.423	1.16
994.849	-5.44
995.275	7.86
995.701	-0.64
996.127	-8.64
996.553	4.26
996.979	-4.54
997.405	-3.24
997.83	-5.84
998.256	-5.04
998.682	-1.54
999.108	-1.64
999.534	-1.24
999.959	-3.84
1000.385	-7.24
1000.811	-1.84
1001.236	-6.74
1001.662	-10.54
1002.087	-8.54
1002.513	4.86
1002.938	1.76
1003.364	-4.54
1003.789	-0.04
1004.215	-0.84
1004.64	-0.24
1005.066	5.06
1005.491	-5.44
1005.916	1.46
1006.342	-5.94
1006.767	-5.24
1007.192	7.26
1007.617	-5.14
1008.042	-6.04
1008.468	-7.84
1008.893	-5.64
1009.318	-2.64
1009.743	1.16
1010.168	2.76
1010.593	5.26
1011.018	-13.24
1011.443	-7.04
1011.868	-1.64
1012.293	-4.04
1012.718	-6.44
1013.143	-1.44
1013.567	-1.34
1013.992	-3.04
1014.417	-15.54
1014.842	3.66
1015.267	-4.64
1015.691	-4.04
1016.116	3.26
1016.541	2.86
1016.965	2.16
1017.39	3.96
1017.814	0.56
1018.239	-1.54
1018.663	-6.24
1019.088	-15.94
1019.512	1.16
1019.937	0.26
1020.361	-3.24
1020.785	-9.94
1021.21	-1.44
1021.634	-4.34
1022.058	4.06
1022.483	1.16
1022.907	-3.84
1023.331	-0.34
1023.755	-1.94
1024.179	-1.24
1024.604	-9.34
1025.028	-5.84
1025.452	-9.14
1025.876	4.46
1026.3	-5.64
1026.724	-14.84
1027.148	-3.04
1027.572	-8.34
1027.996	-7.44
1028.42	-3.34
1028.843	-1.54
1029.267	-5.84
1029.691	-4.94
1030.115	-6.44
1030.539	-5.74
1030.962	-7.34
1031.386	-11.44
1031.81	3.06
1032.233	1.16
1032.657	-2.94
1033.08	-3.54
1033.504	-4.14
1033.927	-7.84
1034.351	-2.14
1034.774	-3.04
1035.198	-8.64
1035.621	-6.34
1036.045	-10.74
1036.468	5.66
1036.891	-2.44
1037.315	-6.94
1037.738	-8.74
1038.161	-1.64
1038.584	-8.34
1039.008	-8.94
1039.431	-2.84
1039.854	-4.54
1040.277	-4.74
1040.7	-13.14
1041.123	2.16
1041.546	-3.94
1041.969	-5.84
1042.392	-3.04
1042.815	-1.64
1043.238	-3.04
1043.661	-4.44
1044.084	-3.94
1044.507	-7.04
1044.93	-6.94
1045.352	-7.04
1045.775	-0.44
1046.198	-5.74
1046.621	-6.94
1047.043	0.36
1047.466	4.36
1047.889	-1.14
1048.311	-4.04
1048.734	1.16
1049.156	-8.44
1049.579	-2.34
1050.001	-4.54
1050.424	-2.44
1050.846	-1.04
1051.269	-0.74
1051.691	-3.44
1052.113	-7.04
1052.536	0.26
1052.958	-0.24
1053.38	-7.74
1053.802	-10.64
1054.225	-2.24
1054.647	-5.94
1055.069	-4.54
1055.491	5.06
1055.913	-7.74
1056.335	-0.24
1056.757	-6.64
1057.179	-4.74
1057.601	-2.34
1058.023	-7.64
1058.445	-5.44
1058.867	-4.04
1059.289	-5.14
1059.711	-8.94
1060.133	-3.04
1060.555	-8.44
1060.976	-8.34
1061.398	-5.74
1061.82	-6.14
1062.241	-4.64
1062.663	-7.04
1063.085	-1.44
1063.506	-2.64
1063.928	-1.74
1064.35	-1.04
1064.771	-2.84
1065.193	-5.34
1065.614	-11.04
1066.035	-1.44
1066.457	-7.94
1066.878	-1.24
1067.3	-9.14
1067.721	-4.24
1068.142	0.36
1068.564	-11.34
1068.985	-1.14
1069.406	-7.14
1069.827	-2.14
1070.248	-3.04
1070.67	-10.64
1071.091	-7.74
1071.512	-6.44
1071.933	-2.64
1072.354	-8.84
1072.775	-5.54
1073.196	-11.94
1073.617	-5.94
1074.038	-3.34
1074.459	-0.24
1074.88	-9.64
1075.3	-2.24
1075.721	-5.24
1076.142	4.46
1076.563	2.06
1076.983	-9.64
1077.404	-7.24
1077.825	-14.64
1078.246	0.56
1078.666	-12.94
1079.087	-4.24
1079.507	-9.74
1079.928	2.36
1080.348	1.26
1080.769	-4.34
1081.189	-3.74
1081.61	-3.24
1082.03	-5.64
1082.451	-4.64
1082.871	-4.04
1083.291	-8.54
1083.711	-10.14
1084.132	-4.04
1084.552	1.06
1084.972	-1.14
1085.392	-8.94
1085.813	-5.24
1086.233	-4.84
1086.653	-5.84
1087.073	-3.14
1087.493	-7.34
1087.913	-11.14
1088.333	-6.94
1088.753	-0.84
1089.173	0.96
1089.593	-0.34
1090.013	0.46
1090.433	-1.04
1090.852	-7.64
1091.272	-1.74
1091.692	-4.04
1092.112	-3.04
1092.531	-8.54
1092.951	-13.94
1093.371	0.16
1093.79	-0.14
1094.21	-6.24
1094.63	-1.94
1095.049	-5.04
1095.469	-0.14
1095.888	-4.64
1096.308	1.66
1096.727	-0.14
1097.146	-1.94
1097.566	-0.04
1097.985	-4.84
1098.405	-3.04
1098.824	-8.24
1099.243	-4.34
1099.662	-4.74
1100.082	-3.84
1100.501	-1.04
1100.92	-6.54
1101.339	-8.64
1101.758	-8.94
