Data from 20171114-ORNL-Ar_H_NY_Subt18_08-06-35-475.txt Node
Date: Tue Nov 14 08:06:35 EST 2017
User: Ender
Spectrometer: HR+D1039
Trigger mode: 0
Integration Time (sec): 2.730000E-2
Scans to average: 10
Electric dark correction enabled: true
Nonlinearity correction enabled: false
Boxcar width: 0
XAxis mode: Wavelengths
Number of Pixels in Spectrum: 2048
>>>>>Begin Spectral Data<<<<<
187.836	1.67
188.309	1.67
188.782	1.67
189.255	1.47
189.728	-0.03
190.201	-0.13
190.674	-2.93
191.147	-0.33
191.619	-3.83
192.092	8.47
192.565	7.97
193.038	3.77
193.511	-1.03
193.984	-3.43
194.456	-4.83
194.929	-0.83
195.402	-3.23
195.874	-2.73
196.347	-0.13
196.82	-8.13
197.292	5.17
197.765	-1.83
198.237	-6.13
198.71	6.07
199.182	2.17
199.655	2.47
200.127	-0.73
200.6	-1.43
201.072	-0.73
201.544	-5.03
202.017	-3.23
202.489	1.77
202.961	-2.93
203.433	-2.43
203.906	-0.53
204.378	1.67
204.85	0.97
205.322	0.07
205.794	-3.43
206.266	-4.43
206.739	-11.53
207.211	5.07
207.683	-12.03
208.155	-4.13
208.627	-7.73
209.099	-3.43
209.57	-4.43
210.042	-7.03
210.514	-2.53
210.986	-5.93
211.458	-5.73
211.93	-2.53
212.402	4.07
212.873	-4.23
213.345	-11.43
213.817	-12.53
214.288	-2.73
214.76	-13.43
215.232	-2.93
215.703	-3.23
216.175	1.77
216.646	1.97
217.118	-0.73
217.589	-6.33
218.061	0.77
218.532	-8.53
219.004	-4.03
219.475	-6.63
219.946	-7.13
220.418	-0.43
220.889	3.97
221.36	-1.13
221.832	-2.93
222.303	-6.93
222.774	-2.73
223.245	-10.43
223.717	-8.63
224.188	-6.33
224.659	-2.93
225.13	-6.43
225.601	-4.23
226.072	4.27
226.543	-1.63
227.014	-0.73
227.485	-1.33
227.956	-5.13
228.427	-5.03
228.898	0.47
229.369	2.77
229.839	-4.13
230.31	-7.43
230.781	2.77
231.252	4.97
231.722	-0.03
232.193	-2.13
232.664	-0.03
233.135	1.37
233.605	4.27
234.076	-4.03
234.546	2.17
235.017	3.37
235.487	-1.03
235.958	-3.83
236.428	-1.73
236.899	3.77
237.369	2.47
237.84	0.97
238.31	8.27
238.78	1.27
239.251	0.37
239.721	-3.23
240.191	-0.83
240.662	-8.73
241.132	-1.13
241.602	4.47
242.072	3.97
242.542	6.27
243.013	-3.33
243.483	2.17
243.953	2.57
244.423	3.87
244.893	-1.63
245.363	2.07
245.833	0.47
246.303	-6.43
246.773	7.67
247.243	-4.83
247.712	3.57
248.182	10.27
248.652	11.07
249.122	-1.13
249.592	9.97
250.061	21.77
250.531	32.77
251.001	11.07
251.471	16.67
251.94	16.07
252.41	7.97
252.879	0.67
253.349	11.27
253.818	11.07
254.288	5.17
254.757	3.57
255.227	3.27
255.696	9.57
256.166	4.97
256.635	6.37
257.105	7.17
257.574	0.67
258.043	2.87
258.513	8.47
258.982	14.87
259.451	4.17
259.92	18.27
260.389	7.77
260.859	16.07
261.328	12.97
261.797	14.47
262.266	12.77
262.735	8.07
263.204	3.37
263.673	3.67
264.142	4.07
264.611	-2.03
265.08	3.87
265.549	1.17
266.018	5.57
266.487	0.37
266.955	-1.13
267.424	-1.33
267.893	4.67
268.362	-1.23
268.83	3.07
269.299	8.87
269.768	6.77
270.236	7.57
270.705	8.77
271.174	4.07
271.642	5.17
272.111	13.67
272.579	14.37
273.048	24.87
273.516	28.67
273.985	27.67
274.453	19.77
274.922	16.67
275.39	9.77
275.858	-4.43
276.327	12.37
276.795	16.37
277.263	10.47
277.731	33.27
278.2	51.97
278.668	50.67
279.136	47.97
279.604	17.17
280.072	14.17
280.54	5.27
281.008	15.77
281.477	14.07
281.945	12.47
282.413	8.77
282.881	11.67
283.348	7.67
283.816	16.17
284.284	13.67
284.752	20.27
285.22	13.47
285.688	16.87
286.156	23.47
286.623	42.47
287.091	51.17
287.559	24.57
288.026	13.57
288.494	16.97
288.962	9.17
289.429	13.07
289.897	16.87
290.364	18.17
290.832	14.97
291.3	8.37
291.767	20.07
292.234	22.77
292.702	16.67
293.169	10.87
293.637	23.47
294.104	18.67
294.571	10.27
295.039	12.57
295.506	13.77
295.973	18.47
296.44	17.57
296.908	23.17
297.375	17.97
297.842	18.17
298.309	18.67
298.776	16.27
299.243	22.87
299.71	12.17
300.177	15.87
300.644	15.47
301.111	23.17
301.578	23.87
302.045	18.67
302.512	17.67
302.979	25.77
303.446	20.37
303.913	17.07
304.379	15.37
304.846	25.87
305.313	25.57
305.78	22.77
306.246	24.77
306.713	23.17
307.18	23.87
307.646	30.07
308.113	27.37
308.579	24.87
309.046	22.67
309.512	23.57
309.979	10.27
310.445	24.47
310.912	32.77
311.378	35.57
311.845	32.67
312.311	30.67
312.777	25.17
313.244	35.37
313.71	41.37
314.176	34.27
314.642	32.67
315.109	30.77
315.575	33.77
316.041	37.47
316.507	33.57
316.973	39.77
317.439	31.67
317.905	41.57
318.371	40.77
318.837	33.97
319.303	36.07
319.769	32.57
320.235	36.27
320.701	32.77
321.167	35.17
321.633	36.97
322.099	38.17
322.564	41.67
323.03	39.67
323.496	35.57
323.962	36.37
324.427	36.87
324.893	47.07
325.359	36.27
325.824	42.57
326.29	38.17
326.755	34.57
327.221	38.27
327.686	41.57
328.152	42.17
328.617	38.07
329.083	45.37
329.548	49.77
330.014	45.37
330.479	42.37
330.944	46.07
331.41	36.97
331.875	48.57
332.34	43.97
332.805	42.57
333.271	49.67
333.736	45.77
334.201	49.37
334.666	54.17
335.131	51.37
335.596	53.87
336.061	52.77
336.526	42.47
336.991	49.37
337.456	56.07
337.921	44.27
338.386	48.87
338.851	44.47
339.316	44.27
339.781	47.07
340.246	46.77
340.711	38.57
341.175	43.97
341.64	41.47
342.105	53.57
342.569	54.67
343.034	59.27
343.499	54.97
343.963	51.97
344.428	62.47
344.893	60.57
345.357	61.67
345.822	58.27
346.286	70.17
346.751	78.27
347.215	66.17
347.679	70.47
348.144	93.97
348.608	75.47
349.073	63.27
349.537	69.07
350.001	80.97
350.465	88.07
350.93	85.87
351.394	77.57
351.858	73.67
352.322	92.77
352.786	87.07
353.25	101.57
353.715	113.87
354.179	91.57
354.643	120.77
355.107	124.17
355.571	103.87
356.035	104.47
356.498	109.07
356.962	112.67
357.426	128.47
357.89	117.77
358.354	84.97
358.818	78.07
359.281	77.27
359.745	70.87
360.209	77.57
360.673	76.87
361.136	75.47
361.6	82.57
362.064	84.07
362.527	84.47
362.991	90.87
363.454	73.97
363.918	80.47
364.381	76.07
364.845	79.37
365.308	76.67
365.772	84.57
366.235	83.27
366.698	77.47
367.162	93.77
367.625	87.57
368.088	89.87
368.552	91.97
369.015	86.77
369.478	93.07
369.941	99.57
370.404	94.77
370.867	108.87
371.331	105.37
371.794	116.77
372.257	108.17
372.72	118.47
373.183	104.57
373.646	99.97
374.109	110.37
374.572	105.17
375.035	105.17
375.497	108.97
375.96	106.27
376.423	107.47
376.886	109.27
377.349	107.27
377.811	98.77
378.274	104.17
378.737	100.27
379.199	111.47
379.662	116.97
380.125	122.67
380.587	117.67
381.05	123.17
381.512	130.47
381.975	134.77
382.437	130.97
382.9	123.77
383.362	132.67
383.825	134.57
384.287	146.27
384.75	142.07
385.212	144.47
385.674	138.07
386.136	127.97
386.599	121.77
387.061	124.07
387.523	137.57
387.985	135.87
388.447	144.57
388.91	139.17
389.372	160.77
389.834	155.87
390.296	147.07
390.758	154.97
391.22	171.37
391.682	215.97
392.144	306.47
392.606	234.57
393.068	172.67
393.529	166.77
393.991	149.87
394.453	158.27
394.915	163.57
395.377	197.37
395.838	222.07
396.3	154.47
396.762	141.67
397.224	132.87
397.685	127.47
398.147	124.57
398.608	127.97
399.07	127.27
399.531	129.67
399.993	140.87
400.454	150.07
400.916	145.17
401.377	141.57
401.839	142.17
402.3	151.97
402.762	164.27
403.223	179.57
403.684	170.77
404.145	161.17
404.607	160.37
405.068	163.67
405.529	166.47
405.99	183.47
406.451	178.47
406.913	171.27
407.374	163.67
407.835	156.97
408.296	163.07
408.757	173.57
409.218	192.17
409.679	183.77
410.14	179.07
410.601	176.97
411.062	180.97
411.522	187.67
411.983	196.87
412.444	173.27
412.905	180.87
413.366	177.47
413.826	187.77
414.287	214.47
414.748	254.97
415.208	238.67
415.669	208.87
416.13	199.87
416.59	201.37
417.051	206.37
417.511	222.97
417.972	235.47
418.432	249.87
418.893	278.07
419.353	248.47
419.814	202.67
420.274	175.47
420.734	188.17
421.195	192.97
421.655	195.77
422.115	192.97
422.576	192.27
423.036	195.67
423.496	204.67
423.956	211.97
424.416	223.17
424.876	267.47
425.336	255.37
425.797	259.87
426.257	250.27
426.717	237.07
427.177	228.27
427.637	227.47
428.097	229.97
428.556	239.07
429.016	265.27
429.476	265.47
429.936	265.57
430.396	276.57
430.856	293.47
431.315	318.47
431.775	344.07
432.235	371.37
432.694	354.37
433.154	360.27
433.614	389.37
434.073	339.37
434.533	276.37
434.993	264.37
435.452	285.27
435.912	301.07
436.371	288.67
436.83	293.37
437.29	273.17
437.749	249.47
438.209	243.27
438.668	273.27
439.127	278.67
439.587	262.57
440.046	250.17
440.505	261.67
440.964	281.57
441.424	324.67
441.883	312.87
442.342	260.07
442.801	220.67
443.26	222.27
443.719	224.47
444.178	215.97
444.637	214.77
445.096	217.27
445.555	215.17
446.014	228.17
446.473	222.57
446.932	232.27
447.391	225.77
447.849	223.67
448.308	213.47
448.767	223.07
449.226	242.47
449.685	237.97
450.143	248.87
450.602	239.87
451.061	231.77
451.519	231.57
451.978	227.47
452.436	233.67
452.895	235.17
453.353	255.37
453.812	235.77
454.27	235.77
454.729	244.47
455.187	239.77
455.646	243.97
456.104	250.27
456.562	265.17
457.021	267.07
457.479	258.07
457.937	278.27
458.395	263.07
458.854	248.07
459.312	259.07
459.77	276.57
460.228	258.57
460.686	244.17
461.144	249.37
461.602	241.27
462.06	237.27
462.518	254.57
462.976	246.17
463.434	249.87
463.892	261.07
464.35	272.87
464.808	289.57
465.266	261.27
465.724	270.97
466.181	269.77
466.639	271.17
467.097	293.07
467.555	307.37
468.012	300.37
468.47	299.27
468.928	334.47
469.385	337.47
469.843	346.97
470.3	346.87
470.758	362.17
471.215	387.57
471.673	409.07
472.13	420.37
472.588	423.77
473.045	367.27
473.503	376.47
473.96	394.57
474.417	407.27
474.875	426.87
475.332	475.27
475.789	455.97
476.246	463.37
476.704	477.97
477.161	507.27
477.618	525.67
478.075	560.97
478.532	618.07
478.989	693.37
479.446	800.67
479.903	771.67
480.36	804.07
480.817	859.37
481.274	954.07
481.731	1057.27
482.188	1153.97
482.645	1299.17
483.102	1401.87
483.558	1528.27
484.015	1595.07
484.472	1557.67
484.929	1502.37
485.385	1461.47
485.842	1420.37
486.299	1353.97
486.755	1293.67
487.212	1085.27
487.668	910.57
488.125	840.37
488.582	771.37
489.038	741.27
489.494	700.37
489.951	683.57
490.407	664.17
490.864	647.47
491.32	639.57
491.776	630.37
492.233	638.17
492.689	604.67
493.145	602.77
493.602	593.07
494.058	614.77
494.514	618.37
494.97	637.67
495.426	645.17
495.882	619.57
496.338	611.07
496.794	627.77
497.251	610.27
497.707	629.17
498.163	633.57
498.618	641.37
499.074	642.37
499.53	669.17
499.986	671.37
500.442	647.27
500.898	630.17
501.354	612.17
501.809	640.17
502.265	638.87
502.721	661.97
503.177	664.37
503.632	659.47
504.088	674.47
504.543	709.27
504.999	714.97
505.455	657.07
505.91	628.07
506.366	636.47
506.821	619.07
507.277	622.07
507.732	624.17
508.187	634.27
508.643	633.87
509.098	633.97
509.553	648.67
510.009	656.07
510.464	666.27
510.919	685.97
511.375	687.97
511.83	700.47
512.285	732.47
512.74	750.57
513.195	780.47
513.65	774.97
514.105	760.97
514.56	757.07
515.015	779.27
515.47	798.87
515.925	786.87
516.38	772.57
516.835	791.57
517.29	784.27
517.745	769.47
518.2	759.47
518.655	740.97
519.109	732.27
519.564	744.67
520.019	735.07
520.474	724.77
520.928	724.37
521.383	721.77
521.838	719.57
522.292	707.47
522.747	702.97
523.201	701.67
523.656	689.37
524.11	693.67
524.565	692.57
525.019	697.07
525.474	694.57
525.928	697.67
526.382	690.57
526.837	690.27
527.291	701.57
527.745	697.97
528.2	693.97
528.654	687.17
529.108	677.67
529.562	683.87
530.016	692.97
530.47	681.37
530.925	695.47
531.379	688.77
531.833	704.37
532.287	708.47
532.741	707.17
533.195	700.07
533.649	703.17
534.103	714.67
534.556	710.27
535.01	705.37
535.464	711.77
535.918	716.07
536.372	719.57
536.826	716.17
537.279	707.77
537.733	704.97
538.187	714.07
538.64	712.17
539.094	722.77
539.548	725.97
540.001	725.57
540.455	727.77
540.908	729.77
541.362	726.77
541.815	752.87
542.269	764.27
542.722	766.47
543.175	784.87
543.629	760.27
544.082	781.97
544.536	783.57
544.989	790.17
545.442	785.77
545.895	778.97
546.349	784.07
546.802	777.37
547.255	801.27
547.708	801.17
548.161	811.17
548.614	812.27
549.067	830.77
549.52	815.37
549.973	811.37
550.426	806.37
550.879	804.07
551.332	795.37
551.785	813.77
552.238	809.07
552.691	816.07
553.144	823.27
553.596	849.97
554.049	866.07
554.502	895.57
554.955	906.27
555.407	908.47
555.86	890.87
556.313	892.07
556.765	877.57
557.218	881.67
557.67	872.17
558.123	872.77
558.576	868.67
559.028	870.77
559.48	879.97
559.933	866.77
560.385	830.97
560.838	809.27
561.29	780.17
561.742	783.37
562.195	766.67
562.647	751.47
563.099	765.07
563.551	764.67
564.004	781.67
564.456	770.17
564.908	761.87
565.36	754.07
565.812	738.07
566.264	730.37
566.716	721.97
567.168	715.57
567.62	719.37
568.072	699.97
568.524	689.87
568.976	692.07
569.428	670.67
569.88	671.57
570.332	690.07
570.784	687.37
571.235	675.47
571.687	695.97
572.139	699.27
572.59	709.37
573.042	708.27
573.494	703.77
573.945	701.07
574.397	679.07
574.849	685.77
575.3	685.67
575.752	675.87
576.203	673.17
576.655	681.07
577.106	669.67
577.557	655.77
578.009	668.27
578.46	661.57
578.912	653.87
579.363	673.77
579.814	667.17
580.265	662.27
580.717	665.67
581.168	670.77
581.619	673.47
582.07	671.47
582.521	671.47
582.972	674.27
583.423	666.27
583.875	680.47
584.326	701.47
584.777	751.97
585.227	814.17
585.678	912.77
586.129	996.37
586.58	1058.37
587.031	1138.77
587.482	1282.87
587.933	1465.07
588.384	1273.17
588.834	950.47
589.285	804.17
589.736	770.87
590.186	765.67
590.637	771.07
591.088	742.27
591.538	741.67
591.989	727.67
592.439	719.27
592.89	715.27
593.34	715.67
593.791	698.77
594.241	701.77
594.692	705.77
595.142	696.17
595.593	696.87
596.043	706.97
596.493	715.67
596.943	710.47
597.394	715.37
597.844	716.87
598.294	721.47
598.744	748.57
599.195	778.27
599.645	815.37
600.095	852.27
600.545	912.17
600.995	969.77
601.445	1027.07
601.895	1084.47
602.345	1121.47
602.795	1107.47
603.245	1062.37
603.695	997.27
604.145	958.17
604.594	904.07
605.044	850.77
605.494	800.27
605.944	740.67
606.393	739.77
606.843	729.17
607.293	743.77
607.743	729.77
608.192	741.97
608.642	757.37
609.091	763.37
609.541	773.77
609.99	770.27
610.44	776.97
610.889	728.27
611.339	702.77
611.788	683.57
612.238	693.87
612.687	713.77
613.136	717.07
613.586	737.67
614.035	732.97
614.484	751.77
614.933	757.07
615.383	739.57
615.832	731.67
616.281	729.07
616.73	688.97
617.179	667.87
617.628	658.77
618.077	637.27
618.526	612.97
618.975	620.97
619.424	618.97
619.873	613.37
620.322	622.17
620.771	605.87
621.22	600.87
621.669	591.67
622.118	587.27
622.567	576.37
623.015	570.97
623.464	556.47
623.913	554.47
624.361	546.27
624.81	546.27
625.259	550.47
625.707	553.37
626.156	554.37
626.604	566.67
627.053	548.57
627.501	564.77
627.95	561.07
628.398	573.27
628.847	567.27
629.295	570.27
629.744	572.57
630.192	576.27
630.64	567.17
631.089	559.47
631.537	574.67
631.985	584.57
632.433	594.17
632.881	598.37
633.33	654.47
633.778	638.17
634.226	572.87
634.674	567.87
635.122	576.67
635.57	583.67
636.018	622.37
636.466	570.57
636.914	556.87
637.362	573.67
637.81	580.67
638.258	585.57
638.705	564.97
639.153	611.87
639.601	614.07
640.049	639.17
640.497	664.57
640.944	699.47
641.392	657.77
641.84	608.17
642.287	583.27
642.735	569.27
643.182	567.67
643.63	566.97
644.078	580.07
644.525	586.37
644.973	586.87
645.42	599.07
645.867	620.97
646.315	637.57
646.762	660.97
647.21	691.07
647.657	704.77
648.104	744.57
648.551	764.77
648.999	829.67
649.446	912.77
649.893	1003.57
650.34	1152.87
650.787	1383.47
651.234	1708.97
651.682	2235.77
652.129	3055.37
652.576	4398.67
653.023	6492.87
653.47	8935.07
653.917	11152.77
654.363	12870.27
654.81	14209.17
655.257	13537.47
655.704	8867.77
656.151	5231.07
656.598	3384.97
657.044	2396.77
657.491	1850.07
657.938	1457.07
658.385	1223.57
658.831	1058.77
659.278	960.57
659.724	854.07
660.171	775.07
660.618	713.47
661.064	681.67
661.511	660.57
661.957	648.17
662.404	647.07
662.85	650.87
663.296	615.07
663.743	568.57
664.189	534.17
664.635	530.17
665.082	520.97
665.528	522.07
665.974	511.37
666.42	505.97
666.867	508.07
667.313	486.57
667.759	480.97
668.205	468.87
668.651	485.97
669.097	474.77
669.543	489.67
669.989	463.97
670.435	449.57
670.881	439.47
671.327	441.07
671.773	469.57
672.219	484.47
672.665	536.97
673.11	579.27
673.556	628.87
674.002	660.77
674.448	654.77
674.893	542.57
675.339	474.77
675.785	440.17
676.23	418.07
676.676	391.57
677.122	387.57
677.567	372.07
678.013	359.17
678.458	347.97
678.904	348.87
679.349	345.17
679.794	353.77
680.24	350.67
680.685	346.77
681.131	345.97
681.576	348.37
682.021	354.47
682.466	346.07
682.912	346.07
683.357	352.27
683.802	378.17
684.247	408.47
684.692	450.37
685.137	487.07
685.583	528.07
686.028	549.87
686.473	513.87
686.918	443.27
687.363	416.87
687.807	391.17
688.252	365.17
688.697	346.47
689.142	332.37
689.587	325.07
690.032	324.47
690.477	329.97
690.921	347.47
691.366	379.07
691.811	401.37
692.255	429.97
692.7	457.57
693.145	494.67
693.589	679.67
694.034	1115.97
694.478	1505.77
694.923	1712.97
695.367	2228.17
695.812	1177.97
696.256	498.77
696.701	371.87
697.145	344.27
697.59	327.87
698.034	310.27
698.478	338.37
698.922	324.77
699.367	324.07
699.811	344.37
700.255	346.97
700.699	381.77
701.143	420.47
701.588	471.57
702.032	518.87
702.476	500.07
702.92	487.57
703.364	486.07
703.808	622.87
704.252	1016.57
704.696	1432.87
705.14	1643.27
705.584	2103.37
706.027	1045.77
706.471	516.27
706.915	393.47
707.359	345.07
707.803	315.87
708.246	305.27
708.69	308.07
709.134	313.37
709.577	312.47
710.021	313.57
710.465	303.77
710.908	294.47
711.352	304.57
711.795	314.17
712.239	345.27
712.682	385.57
713.126	409.67
713.569	460.17
714.012	367.77
714.456	319.37
714.899	289.17
715.342	275.47
715.786	254.57
716.229	260.97
716.672	256.57
717.115	243.47
717.558	243.27
718.002	249.77
718.445	264.77
718.888	279.17
719.331	292.27
719.774	306.17
720.217	305.97
720.66	279.87
721.103	266.37
721.546	249.97
721.989	238.37
722.432	226.07
722.874	234.67
723.317	231.87
723.76	230.67
724.203	253.27
724.645	314.87
725.088	443.77
725.531	559.07
725.974	633.77
726.416	533.47
726.859	303.57
727.301	242.47
727.744	236.57
728.187	237.07
728.629	238.57
729.071	241.27
729.514	256.07
729.956	269.27
730.399	280.97
730.841	282.37
731.283	273.17
731.726	263.67
732.168	259.37
732.61	265.27
733.053	285.67
733.495	312.67
733.937	345.37
734.379	396.77
734.821	437.37
735.263	530.27
735.705	823.07
736.148	1555.57
736.59	2545.87
737.032	3015.77
737.474	2420.07
737.916	801.77
738.357	420.07
738.799	320.47
739.241	292.87
739.683	275.77
740.125	283.97
740.567	297.87
741.008	315.87
741.45	307.17
741.892	313.37
742.334	344.27
742.775	360.47
743.217	332.57
743.658	273.37
744.1	249.57
744.542	261.17
744.983	314.37
745.425	342.77
745.866	343.77
746.307	285.67
746.749	280.57
747.19	319.77
747.632	444.17
748.073	868.47
748.514	1844.37
748.956	2835.87
749.397	3519.37
749.838	2912.77
750.279	2908.97
750.72	1471.27
751.162	534.77
751.603	321.27
752.044	248.47
752.485	214.67
752.926	215.47
753.367	199.87
753.808	189.17
754.249	188.97
754.69	188.37
755.131	181.47
755.572	174.07
756.013	181.27
756.453	178.97
756.894	183.27
757.335	186.97
757.776	198.27
758.216	190.37
758.657	202.67
759.098	199.97
759.538	224.07
759.979	264.17
760.42	369.27
760.86	691.77
761.301	1801.67
761.741	4344.97
762.182	6303.07
762.622	4433.77
763.063	1286.37
763.503	526.07
763.943	344.57
764.384	337.57
764.824	396.57
765.264	429.67
765.705	297.37
766.145	204.17
766.585	188.67
767.025	176.97
767.465	176.57
767.906	236.67
768.346	308.87
768.786	331.17
769.226	252.57
769.666	318.97
770.106	603.67
770.546	1520.97
770.986	2607.87
771.426	2334.97
771.866	776.17
772.306	323.77
772.745	204.17
773.185	172.17
773.625	169.97
774.065	157.17
774.505	193.77
774.944	291.57
775.384	656.27
775.824	1179.37
776.263	1149.97
776.703	491.97
777.142	215.37
777.582	159.47
778.021	142.77
778.461	139.07
778.9	133.07
779.34	140.77
779.779	120.57
780.219	114.97
780.658	114.57
781.097	108.47
781.537	108.57
781.976	109.57
782.415	106.37
782.855	107.17
783.294	105.77
783.733	107.67
784.172	106.07
784.611	102.97
785.05	107.87
785.489	108.57
785.928	116.77
786.367	116.57
786.806	118.67
787.245	131.67
787.684	132.87
788.123	149.07
788.562	134.97
789.001	121.27
789.44	121.67
789.879	116.77
790.317	118.97
790.756	133.67
791.195	128.97
791.634	147.77
792.072	202.27
792.511	357.67
792.95	991.27
793.388	2121.27
793.827	1915.17
794.265	667.67
794.704	280.97
795.142	187.07
795.581	151.67
796.019	134.77
796.458	124.57
796.896	119.17
797.334	127.97
797.773	156.97
798.211	217.27
798.649	431.57
799.087	1005.77
799.526	1565.27
799.964	1979.67
800.402	1963.47
800.84	738.87
801.278	293.37
801.716	179.37
802.154	155.27
802.592	147.37
803.03	138.57
803.468	128.37
803.906	142.67
804.344	152.77
804.782	138.17
805.22	132.07
805.658	130.47
806.096	143.87
806.533	154.57
806.971	163.17
807.409	212.47
807.847	305.17
808.284	646.77
808.722	1829.07
809.16	3231.27
809.597	3055.07
810.035	5321.87
810.472	5681.17
810.91	2036.97
811.347	777.67
811.785	397.57
812.222	244.57
812.66	188.17
813.097	162.17
813.535	141.97
813.972	131.57
814.409	109.67
814.846	108.17
815.284	111.37
815.721	99.47
816.158	104.77
816.595	120.17
817.032	174.57
817.47	192.87
817.907	169.77
818.344	152.77
818.781	118.17
819.218	107.47
819.655	121.77
820.092	180.47
820.529	214.37
820.966	174.07
821.403	130.57
821.839	111.87
822.276	108.57
822.713	127.47
823.15	133.07
823.587	114.57
824.023	142.07
824.46	295.57
824.897	881.77
825.333	1331.67
825.77	557.97
826.206	223.07
826.643	137.47
827.08	103.37
827.516	85.67
827.953	77.27
828.389	73.47
828.825	67.67
829.262	67.67
829.698	63.27
830.135	60.77
830.571	63.47
831.007	61.67
831.443	68.47
831.88	60.27
832.316	62.07
832.752	60.57
833.188	60.67
833.624	62.97
834.06	65.97
834.497	68.67
834.933	72.57
835.369	70.17
835.805	68.27
836.241	74.67
836.677	87.47
837.112	87.97
837.548	96.87
837.984	136.17
838.42	198.17
838.856	487.57
839.292	1473.87
839.727	2253.37
840.163	1046.27
840.599	903.77
841.034	1989.57
841.47	2078.57
841.906	753.47
842.341	327.67
842.777	222.67
843.212	309.67
843.648	298.27
844.083	141.57
844.519	98.37
844.954	81.87
845.39	59.57
845.825	54.57
846.261	54.87
846.696	57.67
847.131	51.97
847.566	60.97
848.002	52.07
848.437	55.47
848.872	62.47
849.307	60.27
849.742	81.57
850.177	171.17
850.613	541.37
851.048	854.77
851.483	366.77
851.918	159.07
852.353	82.37
852.788	60.87
853.223	65.57
853.657	54.47
854.092	53.07
854.527	44.37
854.962	46.07
855.397	41.07
855.832	52.57
856.266	45.47
856.701	44.87
857.136	36.97
857.57	46.87
858.005	54.47
858.44	56.77
858.874	43.97
859.309	56.97
859.743	46.07
860.178	46.07
860.612	41.97
861.047	53.97
861.481	72.37
861.915	72.67
862.35	51.47
862.784	37.97
863.218	34.17
863.653	35.87
864.087	46.47
864.521	57.07
864.955	66.87
865.39	150.17
865.824	178.47
866.258	106.97
866.692	161.67
867.126	171.57
867.56	97.77
867.994	52.07
868.428	38.97
868.862	44.57
869.296	51.87
869.73	58.37
870.164	53.77
870.598	47.97
871.031	34.77
871.465	30.07
871.899	33.47
872.333	24.77
872.766	23.97
873.2	25.77
873.634	24.57
874.067	27.77
874.501	25.37
874.935	33.67
875.368	30.07
875.802	21.27
876.235	21.87
876.669	19.47
877.102	19.07
877.535	30.97
877.969	24.67
878.402	22.87
878.836	18.17
879.269	26.17
879.702	25.77
880.135	20.77
880.569	19.87
881.002	27.47
881.435	25.67
881.868	12.37
882.301	22.37
882.734	19.17
883.167	20.17
883.601	18.87
884.034	21.67
884.467	16.97
884.899	22.37
885.332	19.07
885.765	15.77
886.198	16.77
886.631	16.77
887.064	17.17
887.497	17.17
887.929	23.17
888.362	17.27
888.795	14.77
889.228	19.87
889.66	23.47
890.093	18.47
890.526	13.37
890.958	16.27
891.391	15.97
891.823	21.27
892.256	19.87
892.688	12.57
893.121	21.87
893.553	18.87
893.985	22.57
894.418	22.47
894.85	13.77
895.282	24.97
895.715	19.57
896.147	18.27
896.579	15.67
897.011	8.27
897.444	17.97
897.876	12.37
898.308	18.87
898.74	13.77
899.172	11.77
899.604	18.47
900.036	22.77
900.468	18.97
900.9	17.87
901.332	20.17
901.764	17.27
902.196	16.47
902.628	16.27
903.06	19.57
903.491	28.67
903.923	19.47
904.355	24.67
904.787	25.87
905.218	21.47
905.65	20.77
906.082	12.37
906.513	14.77
906.945	16.47
907.376	12.97
907.808	21.47
908.239	23.87
908.671	19.07
909.102	20.67
909.534	20.87
909.965	49.07
910.397	86.27
910.828	305.97
911.259	462.37
911.691	218.97
912.122	103.77
912.553	49.17
912.984	32.17
913.415	24.77
913.847	23.97
914.278	12.57
914.709	16.77
915.14	20.87
915.571	14.47
916.002	12.77
916.433	16.77
916.864	15.27
917.295	17.07
917.726	23.27
918.157	19.77
918.587	29.57
919.018	16.47
919.449	22.17
919.88	26.07
920.311	32.77
920.741	50.47
921.172	162.57
921.603	153.37
922.033	72.77
922.464	46.77
922.895	24.47
923.325	19.57
923.756	19.07
924.186	15.07
924.617	28.27
925.047	43.17
925.478	56.87
925.908	41.47
926.338	24.87
926.769	21.27
927.199	16.27
927.629	7.97
928.06	13.27
928.49	14.97
928.92	13.57
929.35	13.07
929.78	11.27
930.21	8.97
930.641	12.67
931.071	14.47
931.501	5.27
931.931	9.47
932.361	9.97
932.791	1.17
933.221	5.37
933.651	8.47
934.08	18.47
934.51	33.87
934.94	12.27
935.37	9.97
935.8	7.37
936.229	9.17
936.659	12.27
937.089	7.17
937.519	16.47
937.948	23.67
938.378	20.37
938.807	9.37
939.237	2.17
939.666	1.07
940.096	-5.63
940.525	3.67
940.955	1.57
941.384	3.57
941.814	2.87
942.243	4.17
942.672	4.97
943.102	-0.33
943.531	1.67
943.96	2.97
944.39	-1.63
944.819	8.27
945.248	-1.53
945.677	2.27
946.106	7.27
946.535	3.67
946.964	0.87
947.393	-0.53
947.822	8.17
948.251	0.07
948.68	12.17
949.109	8.47
949.538	8.17
949.967	0.77
950.396	0.17
950.825	0.97
951.254	2.07
951.682	-5.43
952.111	5.77
952.54	2.67
952.969	0.27
953.397	-8.43
953.826	-2.23
954.254	2.07
954.683	5.17
955.112	2.67
955.54	5.17
955.969	1.17
956.397	-3.33
956.826	-2.83
957.254	4.17
957.682	1.87
958.111	4.97
958.539	-6.63
958.967	2.57
959.396	-4.93
959.824	-1.23
960.252	7.27
960.68	-6.83
961.109	8.27
961.537	-3.53
961.965	3.27
962.393	0.77
962.821	-3.23
963.249	2.97
963.677	6.57
964.105	2.57
964.533	38.57
964.961	41.67
965.389	22.97
965.817	11.37
966.245	2.67
966.672	-0.33
967.1	-3.23
967.528	-1.93
967.956	-2.83
968.383	-0.63
968.811	4.67
969.239	-7.33
969.666	0.27
970.094	5.57
970.522	6.07
970.949	-5.73
971.377	-4.23
971.804	7.17
972.232	1.77
972.659	-6.13
973.087	1.57
973.514	-1.83
973.941	-1.43
974.369	4.87
974.796	2.77
975.223	-0.93
975.651	-1.23
976.078	0.57
976.505	-1.73
976.932	3.47
977.359	18.07
977.786	14.47
978.214	4.47
978.641	-2.23
979.068	0.77
979.495	-6.83
979.922	0.67
980.349	-2.43
980.776	-0.43
981.202	1.37
981.629	4.87
982.056	4.57
982.483	-1.43
982.91	3.87
983.337	-8.63
983.763	6.17
984.19	-6.83
984.617	-3.63
985.043	-3.13
985.47	-4.03
985.897	-1.13
986.323	-2.03
986.75	6.07
987.176	5.77
987.603	-1.63
988.029	0.87
988.456	-1.83
988.882	4.27
989.308	-2.03
989.735	-1.93
990.161	3.57
990.587	-3.83
991.014	5.07
991.44	10.47
991.866	-1.93
992.292	-1.93
992.719	-2.23
993.145	1.47
993.571	-6.63
993.997	-1.63
994.423	1.27
994.849	-1.63
995.275	-4.93
995.701	2.57
996.127	-5.63
996.553	5.17
996.979	0.07
997.405	-0.73
997.83	-3.13
998.256	-1.43
998.682	-3.83
999.108	-7.93
999.534	-1.23
999.959	-0.13
1000.385	-1.83
1000.811	-1.23
1001.236	-3.23
1001.662	-7.23
1002.087	-5.53
1002.513	-1.73
1002.938	1.37
1003.364	3.47
1003.789	0.17
1004.215	4.07
1004.64	-0.63
1005.066	5.67
1005.491	6.87
1005.916	0.77
1006.342	-3.33
1006.767	-8.43
1007.192	6.37
1007.617	-10.83
1008.042	-1.23
1008.468	-3.33
1008.893	-7.03
1009.318	-1.83
1009.743	-8.43
1010.168	-1.93
1010.593	0.67
1011.018	-7.13
1011.443	-1.73
1011.868	0.27
1012.293	-1.13
1012.718	-9.23
1013.143	2.57
1013.567	3.47
1013.992	-3.23
1014.417	-17.53
1014.842	2.47
1015.267	-9.73
1015.691	0.97
1016.116	0.07
1016.541	0.97
1016.965	0.47
1017.39	3.87
1017.814	-5.33
1018.239	-0.83
1018.663	-4.23
1019.088	-7.73
1019.512	2.07
1019.937	-5.33
1020.361	0.07
1020.785	-11.63
1021.21	-2.53
1021.634	6.57
1022.058	1.27
1022.483	2.77
1022.907	-4.03
1023.331	-3.23
1023.755	-7.03
1024.179	-8.23
1024.604	-8.53
1025.028	-5.23
1025.452	-8.33
1025.876	-6.33
1026.3	0.67
1026.724	-6.23
1027.148	-0.73
1027.572	-7.83
1027.996	-2.33
1028.42	-5.33
1028.843	-1.63
1029.267	-4.03
1029.691	1.37
1030.115	-6.13
1030.539	-10.13
1030.962	-3.53
1031.386	-4.03
1031.81	2.97
1032.233	-1.33
1032.657	-4.23
1033.08	1.17
1033.504	-3.13
1033.927	-5.23
1034.351	0.07
1034.774	-4.63
1035.198	-3.43
1035.621	-7.83
1036.045	-12.03
1036.468	-2.13
1036.891	-7.53
1037.315	-5.53
1037.738	-7.33
1038.161	0.87
1038.584	-8.33
1039.008	-5.53
1039.431	-1.83
1039.854	-1.83
1040.277	-14.23
1040.7	-8.13
1041.123	-3.03
1041.546	-9.33
1041.969	-4.13
1042.392	-7.53
1042.815	-4.03
1043.238	0.97
1043.661	6.07
1044.084	-4.63
1044.507	-5.73
1044.93	-7.93
1045.352	-8.13
1045.775	-4.93
1046.198	-1.13
1046.621	-7.63
1047.043	0.47
1047.466	5.87
1047.889	-4.53
1048.311	-5.33
1048.734	-3.93
1049.156	-3.33
1049.579	-0.63
1050.001	-8.23
1050.424	-2.73
1050.846	-3.73
1051.269	-3.73
1051.691	-5.43
1052.113	-7.53
1052.536	0.87
1052.958	-3.23
1053.38	-5.73
1053.802	-11.73
1054.225	-0.63
1054.647	-9.63
1055.069	-9.63
1055.491	0.67
1055.913	-7.93
1056.335	-1.13
1056.757	-3.93
1057.179	-8.13
1057.601	-3.43
1058.023	-7.93
1058.445	-4.53
1058.867	-3.63
1059.289	-4.43
1059.711	-10.33
1060.133	-10.03
1060.555	-6.43
1060.976	-6.33
1061.398	-10.33
1061.82	-11.53
1062.241	-6.53
1062.663	-6.23
1063.085	-3.43
1063.506	-3.23
1063.928	-2.13
1064.35	2.57
1064.771	-6.13
1065.193	-6.13
1065.614	-8.83
1066.035	0.17
1066.457	-8.73
1066.878	-1.73
1067.3	-9.43
1067.721	-4.03
1068.142	-1.73
1068.564	-7.43
1068.985	-5.23
1069.406	-5.73
1069.827	-4.03
1070.248	-4.23
1070.67	-4.13
1071.091	-10.93
1071.512	-1.03
1071.933	-3.53
1072.354	-8.03
1072.775	-5.63
1073.196	-7.73
1073.617	-4.03
1074.038	-7.63
1074.459	-1.23
1074.88	-9.63
1075.3	2.77
1075.721	-5.43
1076.142	3.87
1076.563	-4.43
1076.983	-12.23
1077.404	0.77
1077.825	-5.33
1078.246	-5.53
1078.666	-6.43
1079.087	-3.43
1079.507	-1.53
1079.928	3.57
1080.348	-3.43
1080.769	-5.43
1081.189	-2.53
1081.61	-2.73
1082.03	-9.43
1082.451	-5.33
1082.871	-1.83
1083.291	-7.53
1083.711	-10.93
1084.132	-8.33
1084.552	-4.73
1084.972	-6.83
1085.392	-10.63
1085.813	-8.23
1086.233	-8.63
1086.653	-6.03
1087.073	-2.83
1087.493	-8.23
1087.913	-7.93
1088.333	-6.53
1088.753	-2.53
1089.173	2.67
1089.593	2.17
1090.013	-2.73
1090.433	-2.33
1090.852	-2.83
1091.272	6.67
1091.692	-5.23
1092.112	-9.13
1092.531	-3.43
1092.951	-14.53
1093.371	-1.73
1093.79	4.07
1094.21	-7.33
1094.63	-6.23
1095.049	-4.53
1095.469	-5.53
1095.888	-1.43
1096.308	1.77
1096.727	1.47
1097.146	-2.43
1097.566	1.27
1097.985	-5.23
1098.405	-1.03
1098.824	-6.73
1099.243	-4.03
1099.662	-1.63
1100.082	-7.03
1100.501	-5.33
1100.92	-7.93
1101.339	-1.83
1101.758	-7.13
