Data from 20171114-ORNL-Ar_H_NY_Subt18_08-05-09-487.txt Node
Date: Tue Nov 14 08:05:09 EST 2017
User: Ender
Spectrometer: HR+D1039
Trigger mode: 0
Integration Time (sec): 2.730000E-2
Scans to average: 10
Electric dark correction enabled: true
Nonlinearity correction enabled: false
Boxcar width: 0
XAxis mode: Wavelengths
Number of Pixels in Spectrum: 2048
>>>>>Begin Spectral Data<<<<<
187.836	-5.04
188.309	-5.04
188.782	-5.04
189.255	0.36
189.728	-1.44
190.201	2.86
190.674	3.56
191.147	1.76
191.619	-7.34
192.092	2.46
192.565	3.96
193.038	-4.24
193.511	2.56
193.984	3.46
194.456	3.96
194.929	-5.34
195.402	-2.24
195.874	0.76
196.347	0.46
196.82	-8.94
197.292	7.36
197.765	0.76
198.237	-5.94
198.71	4.76
199.182	4.46
199.655	7.16
200.127	5.26
200.6	-4.34
201.072	2.56
201.544	-7.84
202.017	-4.04
202.489	0.76
202.961	0.06
203.433	-4.54
203.906	-6.04
204.378	-7.54
204.85	-2.64
205.322	-9.64
205.794	-11.94
206.266	-4.74
206.739	-5.84
207.211	0.66
207.683	-0.74
208.155	-6.34
208.627	-6.04
209.099	-9.24
209.57	-7.04
210.042	-7.24
210.514	-7.44
210.986	-0.74
211.458	-4.34
211.93	-0.84
212.402	-4.54
212.873	-6.24
213.345	-5.34
213.817	-8.34
214.288	-1.54
214.76	-11.64
215.232	-3.74
215.703	-2.54
216.175	1.96
216.646	-5.04
217.118	-7.94
217.589	-2.34
218.061	-4.04
218.532	-8.64
219.004	-3.44
219.475	-1.64
219.946	-2.54
220.418	-5.94
220.889	3.76
221.36	0.76
221.832	-2.14
222.303	-12.14
222.774	-0.54
223.245	-9.14
223.717	-7.84
224.188	-0.44
224.659	-8.04
225.13	-7.54
225.601	2.66
226.072	3.26
226.543	-0.64
227.014	-0.74
227.485	-2.84
227.956	-5.54
228.427	0.76
228.898	1.16
229.369	2.26
229.839	-1.84
230.31	-10.04
230.781	3.66
231.252	-5.04
231.722	-3.64
232.193	-6.24
232.664	-2.44
233.135	4.96
233.605	1.96
234.076	-6.04
234.546	0.46
235.017	4.16
235.487	-0.24
235.958	-1.64
236.428	0.26
236.899	9.46
237.369	7.06
237.84	1.86
238.31	11.86
238.78	2.56
239.251	1.26
239.721	6.76
240.191	4.86
240.662	0.26
241.132	3.86
241.602	-5.04
242.072	6.76
242.542	5.56
243.013	1.86
243.483	10.36
243.953	2.06
244.423	-1.94
244.893	-5.34
245.363	6.26
245.833	5.16
246.303	1.56
246.773	10.56
247.243	0.96
247.712	5.36
248.182	7.56
248.652	14.66
249.122	-2.94
249.592	14.76
250.061	20.56
250.531	36.66
251.001	19.26
251.471	23.06
251.94	18.26
252.41	7.56
252.879	4.16
253.349	9.56
253.818	15.76
254.288	7.46
254.757	5.26
255.227	-1.84
255.696	5.56
256.166	10.06
256.635	6.46
257.105	7.66
257.574	4.56
258.043	12.46
258.513	12.56
258.982	21.36
259.451	14.56
259.92	15.16
260.389	14.86
260.859	18.76
261.328	15.66
261.797	15.66
262.266	11.36
262.735	14.66
263.204	5.06
263.673	-6.74
264.142	6.36
264.611	-0.14
265.08	2.26
265.549	-2.64
266.018	4.26
266.487	0.76
266.955	-0.84
267.424	-0.04
267.893	10.66
268.362	2.86
268.83	8.46
269.299	9.46
269.768	10.26
270.236	8.46
270.705	3.06
271.174	8.46
271.642	13.46
272.111	6.46
272.579	19.46
273.048	21.66
273.516	29.36
273.985	33.06
274.453	28.06
274.922	19.56
275.39	11.66
275.858	6.46
276.327	8.16
276.795	17.86
277.263	13.06
277.731	33.36
278.2	58.76
278.668	67.36
279.136	52.26
279.604	19.36
280.072	14.76
280.54	14.76
281.008	12.06
281.477	24.06
281.945	14.06
282.413	16.16
282.881	17.16
283.348	11.66
283.816	17.96
284.284	12.76
284.752	18.36
285.22	12.76
285.688	12.76
286.156	17.06
286.623	50.36
287.091	58.16
287.559	27.26
288.026	17.76
288.494	14.46
288.962	4.76
289.429	14.56
289.897	18.36
290.364	12.16
290.832	19.06
291.3	18.26
291.767	18.66
292.234	22.56
292.702	19.16
293.169	22.56
293.637	30.26
294.104	20.66
294.571	8.96
295.039	9.46
295.506	15.46
295.973	20.56
296.44	14.36
296.908	22.66
297.375	17.76
297.842	18.96
298.309	19.16
298.776	22.16
299.243	26.06
299.71	14.16
300.177	22.96
300.644	23.96
301.111	23.06
301.578	23.96
302.045	19.46
302.512	29.06
302.979	31.86
303.446	22.26
303.913	26.26
304.379	22.96
304.846	29.06
305.313	22.66
305.78	20.66
306.246	27.26
306.713	26.06
307.18	27.36
307.646	26.66
308.113	33.86
308.579	18.56
309.046	29.06
309.512	28.26
309.979	21.86
310.445	32.16
310.912	30.76
311.378	37.56
311.845	30.96
312.311	35.26
312.777	30.16
313.244	30.36
313.71	37.76
314.176	32.66
314.642	37.06
315.109	34.96
315.575	37.66
316.041	41.86
316.507	44.36
316.973	41.16
317.439	35.76
317.905	40.86
318.371	38.76
318.837	36.26
319.303	35.06
319.769	37.96
320.235	36.86
320.701	39.66
321.167	46.16
321.633	39.96
322.099	45.46
322.564	47.86
323.03	40.26
323.496	42.66
323.962	51.26
324.427	40.86
324.893	49.96
325.359	40.06
325.824	36.86
326.29	40.46
326.755	42.56
327.221	44.56
327.686	45.16
328.152	52.36
328.617	47.76
329.083	54.96
329.548	54.86
330.014	49.06
330.479	42.76
330.944	54.46
331.41	47.56
331.875	49.26
332.34	48.16
332.805	47.16
333.271	51.96
333.736	48.36
334.201	59.26
334.666	52.06
335.131	59.76
335.596	56.06
336.061	52.96
336.526	49.36
336.991	51.06
337.456	54.66
337.921	47.86
338.386	45.96
338.851	51.06
339.316	47.66
339.781	44.76
340.246	52.56
340.711	46.56
341.175	56.76
341.64	48.56
342.105	55.56
342.569	52.96
343.034	58.36
343.499	54.36
343.963	60.96
344.428	71.66
344.893	65.56
345.357	62.26
345.822	63.66
346.286	69.76
346.751	81.36
347.215	73.96
347.679	73.76
348.144	103.26
348.608	90.06
349.073	76.36
349.537	75.46
350.001	80.56
350.465	94.16
350.93	84.56
351.394	82.96
351.858	77.46
352.322	85.66
352.786	90.86
353.25	102.76
353.715	109.06
354.179	105.46
354.643	122.36
355.107	132.46
355.571	105.66
356.035	108.06
356.498	123.06
356.962	128.66
357.426	137.76
357.89	120.66
358.354	93.36
358.818	88.16
359.281	84.26
359.745	70.76
360.209	76.26
360.673	72.56
361.136	85.56
361.6	86.16
362.064	87.16
362.527	88.36
362.991	94.66
363.454	82.36
363.918	72.76
364.381	79.96
364.845	83.96
365.308	86.76
365.772	86.86
366.235	87.16
366.698	89.46
367.162	91.06
367.625	95.76
368.088	95.56
368.552	96.56
369.015	86.06
369.478	101.06
369.941	101.36
370.404	94.86
370.867	102.86
371.331	105.66
371.794	115.16
372.257	109.36
372.72	116.26
373.183	105.76
373.646	105.56
374.109	114.06
374.572	113.56
375.035	106.26
375.497	105.36
375.96	107.06
376.423	99.26
376.886	122.46
377.349	111.86
377.811	103.16
378.274	108.16
378.737	110.16
379.199	110.96
379.662	112.86
380.125	121.96
380.587	116.56
381.05	127.06
381.512	130.76
381.975	134.56
382.437	132.96
382.9	130.76
383.362	136.06
383.825	141.56
384.287	150.26
384.75	142.76
385.212	147.86
385.674	143.56
386.136	133.06
386.599	124.96
387.061	134.56
387.523	137.76
387.985	135.66
388.447	141.36
388.91	147.36
389.372	160.76
389.834	149.26
390.296	145.06
390.758	155.46
391.22	179.36
391.682	203.36
392.144	293.46
392.606	233.56
393.068	166.46
393.529	164.16
393.991	157.66
394.453	150.26
394.915	160.06
395.377	196.16
395.838	217.76
396.3	159.26
396.762	142.76
397.224	137.56
397.685	134.86
398.147	135.06
398.608	134.56
399.07	125.96
399.531	135.16
399.993	141.56
400.454	151.66
400.916	145.66
401.377	145.16
401.839	156.56
402.3	157.06
402.762	168.96
403.223	183.56
403.684	177.46
404.145	163.46
404.607	155.76
405.068	160.76
405.529	171.26
405.99	187.96
406.451	176.86
406.913	175.56
407.374	168.56
407.835	164.06
408.296	175.76
408.757	178.56
409.218	195.66
409.679	182.56
410.14	173.96
410.601	181.76
411.062	182.16
411.522	194.66
411.983	191.36
412.444	177.26
412.905	190.66
413.366	180.06
413.826	192.26
414.287	213.06
414.748	260.46
415.208	244.06
415.669	211.46
416.13	214.06
416.59	202.56
417.051	210.86
417.511	217.76
417.972	239.06
418.432	247.06
418.893	287.66
419.353	253.46
419.814	199.56
420.274	183.96
420.734	185.26
421.195	200.86
421.655	194.06
422.115	189.76
422.576	186.96
423.036	198.86
423.496	212.06
423.956	218.66
424.416	224.26
424.876	268.96
425.336	256.76
425.797	259.76
426.257	263.36
426.717	243.76
427.177	234.86
427.637	227.16
428.097	233.56
428.556	245.96
429.016	271.26
429.476	258.66
429.936	277.86
430.396	279.16
430.856	291.16
431.315	316.26
431.775	356.06
432.235	380.06
432.694	347.66
433.154	356.96
433.614	383.16
434.073	337.36
434.533	281.06
434.993	270.86
435.452	288.16
435.912	298.06
436.371	292.06
436.83	286.56
437.29	272.86
437.749	249.76
438.209	245.16
438.668	273.36
439.127	282.26
439.587	268.76
440.046	247.66
440.505	265.66
440.964	284.56
441.424	312.76
441.883	309.16
442.342	260.96
442.801	220.36
443.26	224.26
443.719	215.56
444.178	224.86
444.637	205.86
445.096	214.36
445.555	218.76
446.014	219.26
446.473	220.96
446.932	222.66
447.391	218.86
447.849	230.26
448.308	223.26
448.767	224.76
449.226	229.96
449.685	230.26
450.143	257.86
450.602	236.06
451.061	233.06
451.519	234.56
451.978	235.76
452.436	233.96
452.895	237.46
453.353	252.76
453.812	239.66
454.27	233.06
454.729	242.76
455.187	235.26
455.646	245.56
456.104	244.36
456.562	260.76
457.021	275.56
457.479	253.66
457.937	268.16
458.395	263.56
458.854	246.46
459.312	246.76
459.77	278.26
460.228	251.26
460.686	247.76
461.144	251.16
461.602	241.86
462.06	238.36
462.518	250.76
462.976	253.76
463.434	259.06
463.892	262.06
464.35	275.96
464.808	282.56
465.266	259.56
465.724	269.16
466.181	270.06
466.639	262.06
467.097	290.36
467.555	303.66
468.012	303.26
468.47	324.16
468.928	325.46
469.385	337.16
469.843	350.86
470.3	349.56
470.758	360.76
471.215	386.36
471.673	406.06
472.13	409.36
472.588	413.66
473.045	367.76
473.503	376.16
473.96	385.56
474.417	403.06
474.875	433.26
475.332	476.96
475.789	463.06
476.246	461.06
476.704	481.36
477.161	510.56
477.618	515.86
478.075	553.26
478.532	623.06
478.989	691.56
479.446	810.66
479.903	776.26
480.36	802.46
480.817	869.16
481.274	969.56
481.731	1076.36
482.188	1166.96
482.645	1303.86
483.102	1419.96
483.558	1546.76
484.015	1606.56
484.472	1581.06
484.929	1538.56
485.385	1470.86
485.842	1431.76
486.299	1369.36
486.755	1302.46
487.212	1085.96
487.668	923.96
488.125	852.46
488.582	786.36
489.038	741.96
489.494	707.36
489.951	694.06
490.407	664.96
490.864	657.26
491.32	649.46
491.776	642.06
492.233	650.36
492.689	605.96
493.145	598.06
493.602	591.06
494.058	611.36
494.514	610.86
494.97	636.36
495.426	649.86
495.882	619.06
496.338	603.36
496.794	620.06
497.251	615.66
497.707	629.66
498.163	634.16
498.618	639.86
499.074	641.36
499.53	684.26
499.986	669.36
500.442	657.46
500.898	627.26
501.354	624.66
501.809	622.66
502.265	643.96
502.721	653.36
503.177	667.76
503.632	660.86
504.088	666.86
504.543	713.16
504.999	708.66
505.455	657.16
505.91	622.96
506.366	622.56
506.821	622.96
507.277	615.46
507.732	620.66
508.187	617.46
508.643	628.26
509.098	628.66
509.553	651.06
510.009	662.56
510.464	666.06
510.919	687.36
511.375	690.26
511.83	701.26
512.285	716.36
512.74	754.96
513.195	777.86
513.65	771.96
514.105	757.76
514.56	763.96
515.015	789.16
515.47	810.06
515.925	780.86
516.38	786.86
516.835	784.96
517.29	779.16
517.745	771.16
518.2	759.36
518.655	736.06
519.109	730.06
519.564	731.96
520.019	721.86
520.474	722.46
520.928	720.36
521.383	710.96
521.838	709.76
522.292	703.06
522.747	700.86
523.201	701.36
523.656	693.36
524.11	686.06
524.565	688.56
525.019	682.16
525.474	695.26
525.928	687.46
526.382	689.16
526.837	692.36
527.291	701.56
527.745	691.36
528.2	685.16
528.654	685.16
529.108	681.66
529.562	675.16
530.016	682.46
530.47	686.26
530.925	691.86
531.379	685.46
531.833	694.06
532.287	688.56
532.741	700.26
533.195	698.86
533.649	705.86
534.103	719.86
534.556	704.76
535.01	693.36
535.464	691.16
535.918	709.76
536.372	713.66
536.826	714.36
537.279	696.06
537.733	700.06
538.187	704.36
538.64	705.46
539.094	711.26
539.548	724.26
540.001	717.36
540.455	710.06
540.908	715.16
541.362	729.06
541.815	730.06
542.269	743.16
542.722	745.96
543.175	755.76
543.629	756.06
544.082	767.56
544.536	770.06
544.989	771.96
545.442	766.46
545.895	766.46
546.349	776.26
546.802	783.26
547.255	788.46
547.708	794.66
548.161	787.66
548.614	803.26
549.067	809.46
549.52	802.56
549.973	795.56
550.426	788.86
550.879	779.76
551.332	779.46
551.785	782.86
552.238	777.66
552.691	806.36
553.144	805.56
553.596	823.56
554.049	836.46
554.502	870.26
554.955	893.16
555.407	890.96
555.86	882.36
556.313	880.06
556.765	866.96
557.218	859.16
557.67	874.96
558.123	856.26
558.576	854.56
559.028	852.76
559.48	867.46
559.933	846.26
560.385	818.46
560.838	786.06
561.29	766.46
561.742	763.46
562.195	752.26
562.647	751.56
563.099	758.66
563.551	753.06
564.004	759.86
564.456	749.36
564.908	743.66
565.36	733.76
565.812	711.06
566.264	697.76
566.716	705.36
567.168	688.26
567.62	710.66
568.072	681.86
568.524	672.76
568.976	668.06
569.428	652.16
569.88	656.06
570.332	659.26
570.784	660.16
571.235	658.56
571.687	674.66
572.139	677.26
572.59	684.76
573.042	685.46
573.494	697.46
573.945	683.96
574.397	676.96
574.849	661.96
575.3	669.26
575.752	661.66
576.203	664.26
576.655	669.76
577.106	642.46
577.557	643.46
578.009	649.36
578.46	643.76
578.912	637.46
579.363	630.66
579.814	636.76
580.265	645.46
580.717	642.36
581.168	639.36
581.619	651.06
582.07	648.16
582.521	650.06
582.972	646.86
583.423	653.96
583.875	659.96
584.326	670.96
584.777	729.16
585.227	790.96
585.678	878.76
586.129	961.86
586.58	1033.06
587.031	1123.76
587.482	1277.16
587.933	1452.76
588.384	1267.26
588.834	948.26
589.285	770.06
589.736	749.46
590.186	744.66
590.637	736.06
591.088	717.76
591.538	710.46
591.989	697.36
592.439	696.26
592.89	684.86
593.34	681.96
593.791	681.26
594.241	677.66
594.692	688.76
595.142	674.96
595.593	662.16
596.043	683.96
596.493	685.66
596.943	679.06
597.394	683.36
597.844	672.56
598.294	695.56
598.744	718.56
599.195	738.16
599.645	773.66
600.095	815.26
600.545	881.76
600.995	930.06
601.445	974.26
601.895	1045.26
602.345	1069.66
602.795	1064.36
603.245	1015.76
603.695	964.36
604.145	915.06
604.594	863.66
605.044	821.66
605.494	758.46
605.944	720.46
606.393	700.66
606.843	688.06
607.293	698.86
607.743	694.66
608.192	717.86
608.642	721.06
609.091	726.76
609.541	726.96
609.99	730.26
610.44	729.96
610.889	697.96
611.339	664.66
611.788	657.26
612.238	664.36
612.687	681.86
613.136	680.26
613.586	693.36
614.035	698.36
614.484	717.66
614.933	723.06
615.383	713.46
615.832	707.16
616.281	682.16
616.73	653.66
617.179	629.66
617.628	618.06
618.077	606.76
618.526	586.06
618.975	587.36
619.424	584.56
619.873	589.66
620.322	589.96
620.771	574.56
621.22	573.86
621.669	563.96
622.118	559.86
622.567	552.96
623.015	534.26
623.464	531.46
623.913	523.76
624.361	518.26
624.81	523.76
625.259	517.16
625.707	527.36
626.156	522.26
626.604	529.76
627.053	524.86
627.501	530.86
627.95	534.86
628.398	543.96
628.847	532.36
629.295	521.46
629.744	539.06
630.192	531.46
630.64	535.46
631.089	527.76
631.537	546.06
631.985	546.36
632.433	554.96
632.881	571.16
633.33	618.76
633.778	593.76
634.226	533.16
634.674	534.06
635.122	541.66
635.57	557.96
636.018	592.96
636.466	533.26
636.914	520.36
637.362	534.96
637.81	535.06
638.258	541.96
638.705	540.86
639.153	578.86
639.601	578.86
640.049	600.86
640.497	630.36
640.944	644.06
641.392	599.16
641.84	577.26
642.287	549.36
642.735	530.46
643.182	541.36
643.63	532.36
644.078	542.76
644.525	556.36
644.973	567.16
645.42	561.26
645.867	587.46
646.315	593.86
646.762	616.46
647.21	642.06
647.657	661.86
648.104	696.06
648.551	732.86
648.999	776.36
649.446	847.56
649.893	937.46
650.34	1073.96
650.787	1295.16
651.234	1600.26
651.682	2084.96
652.129	2848.46
652.576	4075.36
653.023	6089.16
653.47	8376.86
653.917	10559.46
654.363	12280.06
654.81	13723.76
655.257	13043.86
655.704	8476.86
656.151	4977.16
656.598	3223.16
657.044	2278.56
657.491	1754.86
657.938	1402.96
658.385	1169.86
658.831	1019.66
659.278	901.86
659.724	795.26
660.171	744.86
660.618	673.56
661.064	643.06
661.511	614.56
661.957	598.36
662.404	601.26
662.85	602.36
663.296	584.16
663.743	531.66
664.189	499.26
664.635	495.46
665.082	486.96
665.528	487.96
665.974	484.06
666.42	477.06
666.867	472.96
667.313	461.96
667.759	448.26
668.205	446.06
668.651	453.26
669.097	447.86
669.543	461.36
669.989	440.66
670.435	424.46
670.881	414.86
671.327	413.36
671.773	428.46
672.219	450.96
672.665	500.16
673.11	531.46
673.556	572.36
674.002	608.86
674.448	607.76
674.893	510.76
675.339	437.76
675.785	408.26
676.23	390.56
676.676	365.56
677.122	351.16
677.567	341.36
678.013	338.66
678.458	326.36
678.904	329.86
679.349	323.66
679.794	329.46
680.24	321.96
680.685	317.86
681.131	322.96
681.576	322.06
682.021	327.06
682.466	319.26
682.912	321.26
683.357	326.96
683.802	345.86
684.247	373.06
684.692	416.16
685.137	450.16
685.583	491.16
686.028	525.36
686.473	478.86
686.918	413.06
687.363	386.96
687.807	357.26
688.252	332.86
688.697	326.06
689.142	315.36
689.587	305.26
690.032	297.16
690.477	311.46
690.921	320.76
691.366	343.46
691.811	371.46
692.255	399.26
692.7	426.66
693.145	455.06
693.589	626.46
694.034	1007.06
694.478	1399.66
694.923	1599.96
695.367	2111.16
695.812	1108.56
696.256	451.46
696.701	339.76
697.145	313.66
697.59	306.46
698.034	297.76
698.478	302.06
698.922	297.46
699.367	299.36
699.811	310.76
700.255	324.26
700.699	352.56
701.143	389.06
701.588	435.46
702.032	477.36
702.476	470.06
702.92	450.56
703.364	441.86
703.808	573.86
704.252	922.66
704.696	1319.66
705.14	1544.86
705.584	1979.26
706.027	981.56
706.471	479.26
706.915	365.56
707.359	322.06
707.803	287.96
708.246	283.46
708.69	276.96
709.134	288.76
709.577	290.16
710.021	285.56
710.465	282.76
710.908	277.56
711.352	266.46
711.795	285.06
712.239	318.26
712.682	355.66
713.126	376.96
713.569	434.26
714.012	335.16
714.456	288.06
714.899	267.66
715.342	250.76
715.786	232.16
716.229	239.26
716.672	239.06
717.115	223.86
717.558	233.86
718.002	234.16
718.445	235.06
718.888	260.86
719.331	264.56
719.774	279.16
720.217	273.36
720.66	257.26
721.103	243.06
721.546	229.66
721.989	227.76
722.432	209.66
722.874	220.66
723.317	209.16
723.76	217.46
724.203	235.46
724.645	286.66
725.088	397.16
725.531	513.86
725.974	603.26
726.416	501.66
726.859	281.96
727.301	224.06
727.744	210.56
728.187	211.36
728.629	219.26
729.071	219.56
729.514	229.26
729.956	244.66
730.399	258.76
730.841	267.66
731.283	245.86
731.726	241.96
732.168	237.06
732.61	238.26
733.053	256.16
733.495	287.66
733.937	323.76
734.379	362.46
734.821	395.36
735.263	488.16
735.705	744.36
736.148	1408.56
736.59	2339.16
737.032	2827.06
737.474	2308.96
737.916	741.66
738.357	389.86
738.799	292.16
739.241	279.46
739.683	258.46
740.125	264.46
740.567	267.86
741.008	285.76
741.45	287.86
741.892	284.06
742.334	321.96
742.775	335.76
743.217	312.26
743.658	243.86
744.1	232.86
744.542	238.16
744.983	282.06
745.425	317.36
745.866	309.16
746.307	267.06
746.749	265.16
747.19	290.86
747.632	406.96
748.073	767.86
748.514	1642.86
748.956	2599.26
749.397	3232.56
749.838	2709.56
750.279	2725.76
750.72	1377.86
751.162	501.46
751.603	293.66
752.044	224.86
752.485	194.26
752.926	186.96
753.367	185.36
753.808	179.46
754.249	174.96
754.69	166.76
755.131	161.16
755.572	169.56
756.013	164.16
756.453	166.16
756.894	172.96
757.335	173.56
757.776	178.86
758.216	174.96
758.657	181.36
759.098	182.06
759.538	201.66
759.979	234.86
760.42	336.26
760.86	624.36
761.301	1606.56
761.741	3936.06
762.182	5977.96
762.622	4208.36
763.063	1200.76
763.503	501.36
763.943	316.86
764.384	309.46
764.824	380.96
765.264	413.66
765.705	283.96
766.145	194.16
766.585	171.16
767.025	166.66
767.465	170.96
767.906	222.56
768.346	296.56
768.786	319.76
769.226	240.66
769.666	284.96
770.106	545.76
770.546	1380.16
770.986	2413.16
771.426	2199.36
771.866	725.26
772.306	301.26
772.745	190.76
773.185	157.46
773.625	158.76
774.065	155.76
774.505	177.76
774.944	278.16
775.384	615.26
775.824	1139.66
776.263	1123.46
776.703	469.26
777.142	209.46
777.582	141.96
778.021	126.36
778.461	124.66
778.9	126.86
779.34	117.16
779.779	112.66
780.219	97.36
780.658	92.96
781.097	102.26
781.537	111.86
781.976	102.26
782.415	95.56
782.855	93.06
783.294	97.66
783.733	98.96
784.172	104.86
784.611	86.56
785.05	102.56
785.489	99.86
785.928	103.36
786.367	108.16
786.806	103.56
787.245	118.86
787.684	125.36
788.123	140.76
788.562	121.46
789.001	119.76
789.44	109.46
789.879	106.86
790.317	110.76
790.756	116.96
791.195	113.26
791.634	132.16
792.072	186.86
792.511	321.16
792.95	893.56
793.388	1933.56
793.827	1818.46
794.265	625.36
794.704	263.06
795.142	169.36
795.581	137.46
796.019	124.56
796.458	114.76
796.896	107.66
797.334	112.76
797.773	144.76
798.211	200.36
798.649	386.16
799.087	907.26
799.526	1444.06
799.964	1807.86
800.402	1884.56
800.84	704.46
801.278	269.36
801.716	168.36
802.154	137.16
802.592	126.56
803.03	122.46
803.468	128.46
803.906	128.96
804.344	135.16
804.782	132.96
805.22	121.66
805.658	121.26
806.096	132.76
806.533	143.66
806.971	153.96
807.409	198.36
807.847	272.36
808.284	576.56
808.722	1659.96
809.16	3015.86
809.597	2795.46
810.035	4899.26
810.472	5401.06
810.91	1937.96
811.347	721.16
811.785	361.36
812.222	234.16
812.66	180.46
813.097	149.96
813.535	132.46
813.972	118.96
814.409	113.86
814.846	97.46
815.284	102.06
815.721	88.36
816.158	98.76
816.595	113.96
817.032	163.66
817.47	180.46
817.907	147.76
818.344	142.46
818.781	110.56
819.218	90.76
819.655	116.76
820.092	167.16
820.529	195.76
820.966	171.66
821.403	125.66
821.839	99.16
822.276	94.46
822.713	105.16
823.15	124.86
823.587	106.06
824.023	134.26
824.46	260.66
824.897	791.86
825.333	1258.66
825.77	543.46
826.206	209.86
826.643	123.66
827.08	94.16
827.516	69.46
827.953	65.66
828.389	69.86
828.825	61.66
829.262	57.76
829.698	56.96
830.135	65.36
830.571	59.66
831.007	56.86
831.443	55.46
831.88	57.36
832.316	53.06
832.752	60.76
833.188	67.66
833.624	59.96
834.06	63.46
834.497	63.76
834.933	58.46
835.369	66.26
835.805	60.46
836.241	64.46
836.677	75.96
837.112	77.36
837.548	88.16
837.984	123.56
838.42	173.96
838.856	431.76
839.292	1363.66
839.727	2112.36
840.163	978.16
840.599	816.06
841.034	1828.66
841.47	1980.06
841.906	711.46
842.341	307.36
842.777	210.36
843.212	292.26
843.648	294.46
844.083	140.96
844.519	92.26
844.954	69.36
845.39	54.36
845.825	52.06
846.261	53.76
846.696	52.66
847.131	40.06
847.566	50.76
848.002	49.06
848.437	54.86
848.872	54.46
849.307	54.26
849.742	77.26
850.177	150.96
850.613	499.06
851.048	806.86
851.483	353.66
851.918	138.56
852.353	76.66
852.788	54.06
853.223	47.66
853.657	55.26
854.092	45.06
854.527	36.26
854.962	40.46
855.397	37.66
855.832	45.66
856.266	39.26
856.701	33.96
857.136	34.86
857.57	35.36
858.005	45.76
858.44	54.46
858.874	41.86
859.309	45.16
859.743	38.06
860.178	46.96
860.612	37.26
861.047	48.46
861.481	64.26
861.915	65.76
862.35	46.66
862.784	28.46
863.218	38.36
863.653	32.36
864.087	39.66
864.521	50.16
864.955	65.36
865.39	141.66
865.824	158.96
866.258	101.66
866.692	150.36
867.126	166.76
867.56	94.76
867.994	49.76
868.428	38.06
868.862	41.16
869.296	51.26
869.73	54.46
870.164	49.76
870.598	42.16
871.031	31.56
871.465	29.56
871.899	30.86
872.333	23.06
872.766	21.16
873.2	21.16
873.634	30.16
874.067	24.86
874.501	22.46
874.935	33.66
875.368	29.26
875.802	23.56
876.235	21.86
876.669	23.66
877.102	22.36
877.535	25.26
877.969	18.26
878.402	20.16
878.836	19.06
879.269	17.66
879.702	23.16
880.135	19.46
880.569	20.26
881.002	28.16
881.435	19.96
881.868	18.56
882.301	20.16
882.734	14.66
883.167	20.06
883.601	11.46
884.034	19.96
884.467	11.96
884.899	17.56
885.332	19.66
885.765	17.86
886.198	13.16
886.631	21.16
887.064	19.16
887.497	17.76
887.929	23.86
888.362	11.86
888.795	13.16
889.228	17.26
889.66	18.06
890.093	15.86
890.526	19.36
890.958	15.06
891.391	17.76
891.823	17.26
892.256	17.26
892.688	9.46
893.121	12.06
893.553	13.66
893.985	16.96
894.418	17.26
894.85	11.36
895.282	17.66
895.715	12.96
896.147	17.66
896.579	14.46
897.011	10.26
897.444	12.16
897.876	13.56
898.308	12.66
898.74	17.96
899.172	12.66
899.604	13.36
900.036	17.26
900.468	14.96
900.9	17.36
901.332	14.86
901.764	15.26
902.196	15.16
902.628	16.46
903.06	19.16
903.491	22.66
903.923	21.56
904.355	18.26
904.787	21.96
905.218	17.26
905.65	16.66
906.082	10.36
906.513	10.26
906.945	13.66
907.376	18.56
907.808	20.16
908.239	23.96
908.671	26.46
909.102	23.36
909.534	26.26
909.965	42.36
910.397	84.46
910.828	283.16
911.259	440.96
911.691	200.46
912.122	102.06
912.553	44.86
912.984	34.36
913.415	24.56
913.847	27.56
914.278	14.16
914.709	11.66
915.14	15.76
915.571	19.46
916.002	4.26
916.433	17.96
916.864	18.06
917.295	13.76
917.726	14.46
918.157	14.26
918.587	24.36
919.018	17.86
919.449	17.96
919.88	24.66
920.311	30.16
920.741	37.26
921.172	154.76
921.603	143.36
922.033	66.06
922.464	39.46
922.895	17.96
923.325	22.16
923.756	12.16
924.186	12.16
924.617	22.66
925.047	38.86
925.478	46.86
925.908	38.76
926.338	26.96
926.769	17.36
927.199	14.26
927.629	8.46
928.06	17.56
928.49	16.96
928.92	20.06
929.35	12.26
929.78	11.16
930.21	7.16
930.641	6.76
931.071	11.56
931.501	2.56
931.931	7.66
932.361	8.86
932.791	0.06
933.221	1.26
933.651	2.36
934.08	18.36
934.51	28.06
934.94	9.46
935.37	5.56
935.8	7.36
936.229	7.56
936.659	7.76
937.089	1.16
937.519	12.66
937.948	21.76
938.378	18.36
938.807	8.46
939.237	4.86
939.666	9.56
940.096	0.36
940.525	0.86
940.955	0.46
941.384	10.36
941.814	0.56
942.243	1.06
942.672	-0.44
943.102	-2.84
943.531	-3.34
943.96	4.76
944.39	1.86
944.819	0.86
945.248	3.26
945.677	-2.64
946.106	6.96
946.535	7.26
946.964	1.26
947.393	10.26
947.822	0.26
948.251	0.16
948.68	7.46
949.109	5.36
949.538	6.66
949.967	1.86
950.396	4.96
950.825	2.76
951.254	3.56
951.682	-4.34
952.111	6.06
952.54	3.86
952.969	-2.34
953.397	-7.24
953.826	-0.64
954.254	-4.34
954.683	4.06
955.112	-1.14
955.54	5.56
955.969	3.06
956.397	-1.64
956.826	-2.54
957.254	7.06
957.682	2.06
958.111	3.36
958.539	0.26
958.967	-0.84
959.396	-0.24
959.824	0.66
960.252	3.26
960.68	-8.04
961.109	-2.84
961.537	-3.04
961.965	3.26
962.393	1.76
962.821	-1.14
963.249	-4.04
963.677	1.96
964.105	-0.84
964.533	42.56
964.961	32.76
965.389	18.76
965.817	6.36
966.245	-1.24
966.672	3.56
967.1	-6.04
967.528	-0.14
967.956	-2.24
968.383	0.46
968.811	-0.94
969.239	-5.24
969.666	-3.54
970.094	2.76
970.522	2.56
970.949	-3.94
971.377	-1.64
971.804	-7.74
972.232	-5.74
972.659	2.66
973.087	-4.44
973.514	-5.24
973.941	-3.24
974.369	4.76
974.796	-0.64
975.223	0.16
975.651	-6.14
976.078	0.76
976.505	-1.14
976.932	0.36
977.359	15.36
977.786	17.86
978.214	1.26
978.641	-0.84
979.068	-7.14
979.495	-5.44
979.922	-0.74
980.349	-0.14
980.776	2.16
981.202	1.96
981.629	-1.04
982.056	3.86
982.483	-3.04
982.91	4.26
983.337	-4.24
983.763	3.16
984.19	-5.34
984.617	-5.94
985.043	-5.84
985.47	-0.24
985.897	-3.94
986.323	-11.74
986.75	-2.74
987.176	-4.54
987.603	3.46
988.029	-0.04
988.456	1.36
988.882	-1.04
989.308	-10.44
989.735	-1.04
990.161	-2.24
990.587	-1.14
991.014	-0.24
991.44	7.36
991.866	-3.94
992.292	-6.14
992.719	-2.84
993.145	-0.44
993.571	-10.04
993.997	-6.64
994.423	-0.94
994.849	0.36
995.275	2.46
995.701	3.66
996.127	0.56
996.553	-0.84
996.979	-7.84
997.405	0.16
997.83	-2.94
998.256	-3.54
998.682	-9.24
999.108	-5.14
999.534	-0.84
999.959	0.36
1000.385	-1.04
1000.811	2.86
1001.236	-7.64
1001.662	-7.94
1002.087	-6.14
1002.513	-1.34
1002.938	2.16
1003.364	-8.14
1003.789	5.16
1004.215	-0.34
1004.64	-7.14
1005.066	-3.54
1005.491	5.76
1005.916	-0.44
1006.342	-4.84
1006.767	-10.74
1007.192	6.26
1007.617	-4.64
1008.042	-0.44
1008.468	-2.94
1008.893	-6.24
1009.318	-1.74
1009.743	-1.34
1010.168	-1.44
1010.593	4.06
1011.018	-8.84
1011.443	-4.34
1011.868	-2.64
1012.293	-3.94
1012.718	-6.74
1013.143	-6.24
1013.567	1.86
1013.992	-1.14
1014.417	-13.94
1014.842	0.96
1015.267	-5.14
1015.691	-1.74
1016.116	4.56
1016.541	-1.74
1016.965	0.56
1017.39	3.96
1017.814	6.26
1018.239	3.86
1018.663	-6.04
1019.088	-12.74
1019.512	-6.24
1019.937	-6.64
1020.361	-4.84
1020.785	-8.64
1021.21	-3.84
1021.634	-1.54
1022.058	-3.84
1022.483	6.46
1022.907	3.06
1023.331	-1.34
1023.755	-4.24
1024.179	-2.54
1024.604	-1.94
1025.028	-1.34
1025.452	-6.94
1025.876	-5.24
1026.3	-4.04
1026.724	-11.04
1027.148	-9.24
1027.572	-11.04
1027.996	-5.24
1028.42	1.76
1028.843	-2.84
1029.267	-8.94
1029.691	2.06
1030.115	-6.24
1030.539	-7.34
1030.962	-5.44
1031.386	-9.44
1031.81	2.16
1032.233	-1.74
1032.657	-4.24
1033.08	-0.14
1033.504	-3.54
1033.927	-2.64
1034.351	1.66
1034.774	-4.34
1035.198	-0.64
1035.621	-7.14
1036.045	-7.54
1036.468	-0.84
1036.891	-7.64
1037.315	-4.14
1037.738	-5.34
1038.161	6.16
1038.584	-2.74
1039.008	-4.84
1039.431	0.76
1039.854	-2.84
1040.277	-15.64
1040.7	-13.24
1041.123	-0.54
1041.546	-5.64
1041.969	-0.04
1042.392	-8.74
1042.815	0.96
1043.238	-2.24
1043.661	5.86
1044.084	-12.94
1044.507	0.86
1044.93	-2.64
1045.352	-5.44
1045.775	-7.74
1046.198	2.56
1046.621	0.26
1047.043	-3.44
1047.466	8.66
1047.889	-2.24
1048.311	-3.04
1048.734	-1.74
1049.156	-0.44
1049.579	-4.54
1050.001	-3.14
1050.424	-6.44
1050.846	-3.74
1051.269	-5.14
1051.691	-4.84
1052.113	-4.24
1052.536	-4.94
1052.958	-2.74
1053.38	-4.44
1053.802	-7.94
1054.225	1.46
1054.647	-8.34
1055.069	-10.64
1055.491	3.86
1055.913	-8.24
1056.335	-4.94
1056.757	-2.64
1057.179	-3.94
1057.601	-2.94
1058.023	-5.64
1058.445	0.26
1058.867	-3.54
1059.289	0.96
1059.711	-8.54
1060.133	-3.14
1060.555	-3.14
1060.976	-8.74
1061.398	-12.14
1061.82	-6.34
1062.241	-6.24
1062.663	-4.84
1063.085	-3.44
1063.506	0.46
1063.928	-6.14
1064.35	-2.74
1064.771	-11.44
1065.193	-5.04
1065.614	-10.64
1066.035	-2.24
1066.457	-3.94
1066.878	-1.04
1067.3	-9.34
1067.721	-2.54
1068.142	0.86
1068.564	-12.74
1068.985	-4.24
1069.406	-5.24
1069.827	-3.24
1070.248	5.26
1070.67	-6.34
1071.091	-5.34
1071.512	-5.54
1071.933	-3.44
1072.354	-10.44
1072.775	-5.64
1073.196	-9.74
1073.617	-3.44
1074.038	-11.04
1074.459	-7.44
1074.88	-8.34
1075.3	0.86
1075.721	-2.24
1076.142	4.36
1076.563	4.16
1076.983	-11.64
1077.404	-5.14
1077.825	-10.94
1078.246	-1.64
1078.666	-11.54
1079.087	-3.94
1079.507	-1.14
1079.928	-3.84
1080.348	-1.84
1080.769	-2.74
1081.189	1.16
1081.61	-2.44
1082.03	-6.04
1082.451	-5.74
1082.871	-7.34
1083.291	-2.24
1083.711	-8.44
1084.132	-1.14
1084.552	-5.24
1084.972	-1.14
1085.392	-9.24
1085.813	-10.04
1086.233	-5.74
1086.653	-4.74
1087.073	-2.34
1087.493	-4.64
1087.913	-5.04
1088.333	-6.14
1088.753	-2.14
1089.173	0.26
1089.593	-9.54
1090.013	0.36
1090.433	1.66
1090.852	3.06
1091.272	-4.54
1091.692	-2.04
1092.112	-3.94
1092.531	-12.54
1092.951	-12.74
1093.371	-3.54
1093.79	-1.84
1094.21	-4.74
1094.63	-1.34
1095.049	-5.24
1095.469	0.26
1095.888	-4.34
1096.308	5.06
1096.727	3.66
1097.146	-8.24
1097.566	-1.34
1097.985	-4.04
1098.405	-4.94
1098.824	-3.64
1099.243	-9.84
1099.662	-3.14
1100.082	-4.84
1100.501	-5.94
1100.92	-8.44
1101.339	-6.34
1101.758	-5.74
