Data from 20171114-ORNL-Ar_H_NY_Subt18_08-07-39-078.txt Node
Date: Tue Nov 14 08:07:39 EST 2017
User: Ender
Spectrometer: HR+D1039
Trigger mode: 0
Integration Time (sec): 2.730000E-2
Scans to average: 10
Electric dark correction enabled: true
Nonlinearity correction enabled: false
Boxcar width: 0
XAxis mode: Wavelengths
Number of Pixels in Spectrum: 2048
>>>>>Begin Spectral Data<<<<<
187.836	-2.62
188.309	-2.62
188.782	-2.62
189.255	6.47
189.728	-1.12
190.201	4.07
190.674	-0.62
191.147	-0.63
191.619	-3.03
192.092	-0.42
192.565	2.27
193.038	-2.33
193.511	-1.93
193.984	1.27
194.456	1.38
194.929	4.77
195.402	-5.93
195.874	-1.62
196.347	-3.43
196.82	-1.73
197.292	5.47
197.765	2.08
198.237	-6.42
198.71	-3.23
199.182	-0.62
199.655	-2.53
200.127	1.97
200.6	1.98
201.072	4.57
201.544	-4.83
202.017	-1.93
202.489	4.57
202.961	-0.32
203.433	-2.33
203.906	-6.23
204.378	-2.52
204.85	-4.93
205.322	-6.12
205.794	-5.43
206.266	-2.83
206.739	-13.62
207.211	7.67
207.683	-7.23
208.155	-4.12
208.627	-7.73
209.099	-0.73
209.57	-10.32
210.042	-8.63
210.514	0.08
210.986	-2.02
211.458	-7.23
211.93	2.47
212.402	9.97
212.873	-4.83
213.345	-6.42
213.817	-5.83
214.288	-4.43
214.76	-9.62
215.232	-6.82
215.703	-1.92
216.175	0.27
216.646	-0.33
217.118	-3.33
217.589	-6.02
218.061	1.87
218.532	-10.62
219.004	-1.52
219.475	-1.92
219.946	-0.53
220.418	-2.82
220.889	2.57
221.36	-2.42
221.832	-3.23
222.303	-7.42
222.774	3.98
223.245	-8.02
223.717	-3.43
224.188	-7.23
224.659	-12.23
225.13	-9.12
225.601	-2.63
226.072	0.67
226.543	-1.23
227.014	1.27
227.485	-3.93
227.956	-7.02
228.427	0.88
228.898	0.38
229.369	3.97
229.839	-1.83
230.31	-7.73
230.781	5.38
231.252	-3.33
231.722	-4.93
232.193	-3.23
232.664	2.67
233.135	-1.73
233.605	0.08
234.076	-6.83
234.546	-1.43
235.017	2.88
235.487	-2.52
235.958	0.38
236.428	-2.23
236.899	-2.02
237.369	1.68
237.84	-1.52
238.31	9.27
238.78	-1.73
239.251	-0.82
239.721	4.27
240.191	-3.82
240.662	-1.12
241.132	1.77
241.602	-1.03
242.072	2.48
242.542	3.88
243.013	1.67
243.483	7.77
243.953	-0.92
244.423	-3.32
244.893	-10.62
245.363	3.27
245.833	4.98
246.303	-3.33
246.773	5.57
247.243	-1.33
247.712	5.87
248.182	10.97
248.652	9.17
249.122	-0.23
249.592	14.17
250.061	14.98
250.531	24.68
251.001	10.27
251.471	15.17
251.94	17.27
252.41	6.48
252.879	4.67
253.349	15.27
253.818	10.67
254.288	1.68
254.757	4.77
255.227	-0.02
255.696	1.17
256.166	1.98
256.635	2.08
257.105	5.98
257.574	1.17
258.043	6.08
258.513	8.57
258.982	9.68
259.451	9.88
259.92	7.98
260.389	6.67
260.859	13.38
261.328	7.08
261.797	19.98
262.266	5.38
262.735	4.27
263.204	2.57
263.673	-1.02
264.142	8.08
264.611	-0.23
265.08	-0.33
265.549	-3.92
266.018	10.98
266.487	-5.13
266.955	-3.02
267.424	-1.33
267.893	6.98
268.362	-0.23
268.83	2.98
269.299	10.18
269.768	6.17
270.236	7.67
270.705	1.07
271.174	2.38
271.642	6.88
272.111	9.17
272.579	14.17
273.048	12.57
273.516	20.58
273.985	25.08
274.453	24.07
274.922	18.77
275.39	15.27
275.858	3.38
276.327	7.07
276.795	14.17
277.263	8.47
277.731	25.47
278.2	45.77
278.668	43.98
279.136	43.67
279.604	13.77
280.072	9.77
280.54	9.58
281.008	8.07
281.477	13.27
281.945	5.17
282.413	13.38
282.881	9.98
283.348	5.27
283.816	9.77
284.284	16.57
284.752	19.17
285.22	10.67
285.688	10.97
286.156	13.88
286.623	37.27
287.091	44.38
287.559	25.77
288.026	21.77
288.494	14.38
288.962	3.17
289.429	9.27
289.897	21.58
290.364	16.57
290.832	11.27
291.3	9.77
291.767	16.68
292.234	19.88
292.702	11.08
293.169	13.38
293.637	18.77
294.104	19.57
294.571	5.77
295.039	9.38
295.506	9.88
295.973	18.77
296.44	7.27
296.908	19.38
297.375	16.48
297.842	18.07
298.309	10.38
298.776	7.77
299.243	17.67
299.71	9.67
300.177	21.27
300.644	15.98
301.111	19.48
301.578	18.57
302.045	16.48
302.512	21.27
302.979	18.17
303.446	16.47
303.913	13.48
304.379	18.07
304.846	19.48
305.313	18.17
305.78	12.17
306.246	19.27
306.713	17.37
307.18	20.98
307.646	23.97
308.113	27.27
308.579	22.57
309.046	19.38
309.512	25.68
309.979	9.77
310.445	20.17
310.912	25.57
311.378	28.57
311.845	25.27
312.311	26.07
312.777	28.57
313.244	25.18
313.71	30.27
314.176	22.38
314.642	26.88
315.109	29.17
315.575	33.58
316.041	37.67
316.507	25.27
316.973	33.07
317.439	25.77
317.905	31.38
318.371	25.57
318.837	25.58
319.303	30.57
319.769	29.18
320.235	32.17
320.701	30.97
321.167	36.27
321.633	31.98
322.099	32.87
322.564	37.77
323.03	39.27
323.496	35.88
323.962	36.27
324.427	31.48
324.893	38.67
325.359	37.17
325.824	31.27
326.29	29.97
326.755	30.77
327.221	32.97
327.686	37.07
328.152	37.98
328.617	30.48
329.083	37.38
329.548	39.88
330.014	38.77
330.479	34.27
330.944	32.97
331.41	38.38
331.875	34.68
332.34	38.48
332.805	40.47
333.271	41.88
333.736	36.48
334.201	42.27
334.666	42.17
335.131	45.47
335.596	38.57
336.061	47.27
336.526	33.77
336.991	45.88
337.456	54.27
337.921	47.27
338.386	33.57
338.851	43.77
339.316	43.77
339.781	40.77
340.246	45.58
340.711	39.38
341.175	46.17
341.64	38.27
342.105	41.77
342.569	45.87
343.034	52.17
343.499	48.77
343.963	45.18
344.428	52.27
344.893	55.37
345.357	49.77
345.822	56.97
346.286	60.07
346.751	64.88
347.215	58.77
347.679	65.48
348.144	75.38
348.608	69.48
349.073	56.98
349.537	56.77
350.001	66.17
350.465	79.88
350.93	69.07
351.394	74.98
351.858	58.77
352.322	85.38
352.786	74.18
353.25	81.97
353.715	94.58
354.179	85.87
354.643	102.58
355.107	110.67
355.571	96.38
356.035	87.98
356.498	102.38
356.962	110.47
357.426	115.97
357.89	100.27
358.354	75.67
358.818	78.88
359.281	74.27
359.745	70.27
360.209	68.38
360.673	69.48
361.136	60.27
361.6	74.37
362.064	75.27
362.527	82.17
362.991	72.98
363.454	76.67
363.918	72.38
364.381	70.77
364.845	70.97
365.308	75.17
365.772	80.77
366.235	81.17
366.698	79.97
367.162	77.97
367.625	76.88
368.088	76.97
368.552	83.67
369.015	85.48
369.478	86.77
369.941	99.88
370.404	88.57
370.867	96.47
371.331	100.67
371.794	105.27
372.257	104.48
372.72	105.17
373.183	92.67
373.646	92.88
374.109	96.98
374.572	100.37
375.035	96.38
375.497	97.77
375.96	99.17
376.423	98.87
376.886	98.08
377.349	101.47
377.811	94.17
378.274	94.98
378.737	102.17
379.199	103.58
379.662	107.77
380.125	105.27
380.587	109.58
381.05	113.68
381.512	121.67
381.975	118.67
382.437	123.88
382.9	114.17
383.362	124.07
383.825	129.18
384.287	135.48
384.75	133.07
385.212	134.27
385.674	132.37
386.136	126.98
386.599	115.07
387.061	118.88
387.523	125.38
387.985	128.77
388.447	139.17
388.91	136.98
389.372	150.68
389.834	141.17
390.296	135.47
390.758	145.98
391.22	158.98
391.682	197.38
392.144	286.97
392.606	218.57
393.068	156.08
393.529	154.77
393.991	144.58
394.453	136.67
394.915	144.07
395.377	179.48
395.838	206.08
396.3	148.07
396.762	130.58
397.224	119.07
397.685	120.47
398.147	112.08
398.608	124.58
399.07	123.98
399.531	128.88
399.993	127.88
400.454	142.77
400.916	129.77
401.377	132.58
401.839	141.37
402.3	136.17
402.762	150.77
403.223	168.77
403.684	159.47
404.145	152.67
404.607	151.17
405.068	154.47
405.529	156.27
405.99	176.58
406.451	158.97
406.913	161.47
407.374	155.77
407.835	157.77
408.296	155.38
408.757	155.48
409.218	178.67
409.679	165.88
410.14	172.68
410.601	169.57
411.062	170.17
411.522	188.48
411.983	179.47
412.444	160.48
412.905	173.27
413.366	172.88
413.826	182.67
414.287	203.78
414.748	244.58
415.208	229.67
415.669	200.67
416.13	195.47
416.59	185.47
417.051	202.27
417.511	204.98
417.972	217.77
418.432	228.97
418.893	276.17
419.353	232.48
419.814	184.17
420.274	171.77
420.734	171.07
421.195	182.87
421.655	182.68
422.115	181.17
422.576	183.77
423.036	185.98
423.496	200.38
423.956	204.38
424.416	212.77
424.876	255.48
425.336	247.67
425.797	247.68
426.257	249.27
426.717	229.38
427.177	223.58
427.637	212.57
428.097	215.57
428.556	231.97
429.016	260.08
429.476	249.27
429.936	262.48
430.396	264.77
430.856	280.48
431.315	302.57
431.775	328.67
432.235	365.97
432.694	331.77
433.154	343.58
433.614	375.77
434.073	321.68
434.533	278.98
434.993	264.17
435.452	272.58
435.912	281.67
436.371	267.38
436.83	267.88
437.29	258.17
437.749	232.78
438.209	231.67
438.668	260.77
439.127	279.08
439.587	258.18
440.046	238.67
440.505	244.98
440.964	258.98
441.424	304.48
441.883	295.07
442.342	251.27
442.801	215.17
443.26	214.27
443.719	213.58
444.178	212.77
444.637	202.57
445.096	213.18
445.555	219.77
446.014	213.07
446.473	217.88
446.932	224.68
447.391	218.47
447.849	213.07
448.308	216.38
448.767	210.27
449.226	220.48
449.685	225.38
450.143	240.38
450.602	229.48
451.061	218.08
451.519	223.27
451.978	227.27
452.436	219.78
452.895	230.88
453.353	246.27
453.812	230.38
454.27	233.08
454.729	230.38
455.187	226.27
455.646	235.68
456.104	247.58
456.562	252.07
457.021	258.47
457.479	250.08
457.937	268.87
458.395	255.07
458.854	235.67
459.312	240.58
459.77	261.17
460.228	246.37
460.686	230.17
461.144	243.97
461.602	238.48
462.06	236.48
462.518	246.37
462.976	246.98
463.434	242.97
463.892	249.38
464.35	268.37
464.808	277.47
465.266	257.97
465.724	259.98
466.181	267.28
466.639	263.67
467.097	281.58
467.555	288.88
468.012	288.38
468.47	293.78
468.928	304.48
469.385	329.57
469.843	333.58
470.3	328.38
470.758	350.67
471.215	368.88
471.673	390.67
472.13	391.18
472.588	407.47
473.045	354.77
473.503	366.57
473.96	381.08
474.417	384.38
474.875	418.48
475.332	458.28
475.789	445.77
476.246	452.57
476.704	475.57
477.161	491.28
477.618	505.17
478.075	534.38
478.532	598.47
478.989	658.17
479.446	782.98
479.903	751.98
480.36	790.67
480.817	822.98
481.274	935.47
481.731	1033.07
482.188	1121.97
482.645	1259.08
483.102	1363.08
483.558	1491.28
484.015	1550.98
484.472	1522.28
484.929	1478.78
485.385	1422.77
485.842	1376.88
486.299	1320.08
486.755	1257.27
487.212	1061.47
487.668	902.07
488.125	824.47
488.582	754.88
489.038	728.97
489.494	691.18
489.951	660.28
490.407	660.18
490.864	635.18
491.32	622.28
491.776	615.17
492.233	621.57
492.689	589.97
493.145	586.37
493.602	580.27
494.058	595.08
494.514	599.98
494.97	608.77
495.426	631.28
495.882	602.78
496.338	602.58
496.794	606.28
497.251	598.08
497.707	617.98
498.163	623.47
498.618	620.67
499.074	631.47
499.53	647.77
499.986	653.98
500.442	635.68
500.898	614.98
501.354	607.48
501.809	618.48
502.265	619.78
502.721	642.77
503.177	655.27
503.632	635.58
504.088	653.57
504.543	691.87
504.999	687.38
505.455	625.87
505.91	611.28
506.366	614.97
506.821	611.67
507.277	603.17
507.732	611.77
508.187	611.58
508.643	611.78
509.098	618.28
509.553	632.87
510.009	641.18
510.464	648.47
510.919	661.17
511.375	668.87
511.83	677.67
512.285	698.48
512.74	730.58
513.195	753.28
513.65	749.27
514.105	737.77
514.56	750.37
515.015	771.68
515.47	776.67
515.925	766.98
516.38	764.27
516.835	762.77
517.29	760.98
517.745	756.88
518.2	736.48
518.655	724.87
519.109	719.88
519.564	721.37
520.019	711.27
520.474	695.88
520.928	698.18
521.383	695.57
521.838	685.38
522.292	690.08
522.747	689.97
523.201	682.67
523.656	675.38
524.11	681.18
524.565	678.08
525.019	680.07
525.474	684.58
525.928	674.88
526.382	685.08
526.837	680.67
527.291	681.17
527.745	677.98
528.2	676.07
528.654	675.47
529.108	673.97
529.562	671.58
530.016	664.27
530.47	671.08
530.925	674.17
531.379	683.47
531.833	688.68
532.287	678.67
532.741	688.77
533.195	683.48
533.649	697.58
534.103	703.08
534.556	690.07
535.01	685.77
535.464	688.88
535.918	703.07
536.372	700.68
536.826	701.18
537.279	692.57
537.733	687.28
538.187	692.67
538.64	697.87
539.094	703.97
539.548	717.07
540.001	702.77
540.455	704.77
540.908	717.77
541.362	724.78
541.815	718.78
542.269	729.17
542.722	737.38
543.175	744.47
543.629	750.67
544.082	777.88
544.536	766.78
544.989	767.48
545.442	772.17
545.895	761.48
546.349	771.48
546.802	771.67
547.255	778.58
547.708	790.47
548.161	792.27
548.614	809.27
549.067	808.08
549.52	798.17
549.973	786.27
550.426	786.87
550.879	775.58
551.332	773.18
551.785	785.27
552.238	783.58
552.691	791.38
553.144	805.67
553.596	839.27
554.049	841.08
554.502	868.17
554.955	885.67
555.407	885.47
555.86	878.58
556.313	874.17
556.765	859.18
557.218	860.77
557.67	869.27
558.123	854.67
558.576	845.47
559.028	856.88
559.48	858.77
559.933	852.47
560.385	813.07
560.838	793.07
561.29	766.17
561.742	768.57
562.195	752.67
562.647	758.07
563.099	761.37
563.551	764.88
564.004	771.77
564.456	760.98
564.908	747.98
565.36	738.58
565.812	717.98
566.264	716.27
566.716	715.18
567.168	701.27
567.62	710.68
568.072	690.97
568.524	683.98
568.976	677.57
569.428	669.47
569.88	649.67
570.332	661.77
570.784	669.57
571.235	664.68
571.687	684.78
572.139	685.37
572.59	696.07
573.042	702.37
573.494	693.48
573.945	694.27
574.397	673.17
574.849	678.77
575.3	669.47
575.752	677.67
576.203	674.17
576.655	674.57
577.106	657.97
577.557	654.07
578.009	652.07
578.46	656.07
578.912	639.18
579.363	653.78
579.814	660.57
580.265	652.68
580.717	652.58
581.168	655.38
581.619	658.98
582.07	671.98
582.521	654.37
582.972	662.57
583.423	666.77
583.875	668.17
584.326	697.87
584.777	735.27
585.227	811.08
585.678	896.27
586.129	992.18
586.58	1063.38
587.031	1147.57
587.482	1303.58
587.933	1480.68
588.384	1279.28
588.834	961.28
589.285	790.87
589.736	767.67
590.186	761.77
590.637	764.17
591.088	734.07
591.538	724.47
591.989	723.28
592.439	722.48
592.89	707.57
593.34	701.08
593.791	702.07
594.241	702.48
594.692	692.88
595.142	689.47
595.593	688.67
596.043	689.37
596.493	697.78
596.943	709.48
597.394	704.67
597.844	697.88
598.294	713.18
598.744	739.58
599.195	765.58
599.645	803.97
600.095	841.48
600.545	892.27
600.995	959.28
601.445	1011.58
601.895	1066.17
602.345	1116.38
602.795	1087.97
603.245	1040.68
603.695	993.28
604.145	935.57
604.594	888.07
605.044	835.58
605.494	786.27
605.944	729.17
606.393	733.68
606.843	714.77
607.293	721.27
607.743	719.38
608.192	730.98
608.642	750.58
609.091	749.77
609.541	763.77
609.99	751.77
610.44	748.98
610.889	714.77
611.339	690.87
611.788	678.98
612.238	695.48
612.687	709.98
613.136	711.47
613.586	732.48
614.035	729.38
614.484	747.27
614.933	755.77
615.383	745.67
615.832	731.77
616.281	712.98
616.73	682.28
617.179	658.37
617.628	641.87
618.077	622.17
618.526	608.87
618.975	609.87
619.424	606.67
619.873	610.88
620.322	613.58
620.771	591.88
621.22	597.37
621.669	579.07
622.118	572.98
622.567	570.77
623.015	563.97
623.464	567.58
623.913	558.48
624.361	554.67
624.81	550.88
625.259	545.27
625.707	543.77
626.156	549.58
626.604	562.57
627.053	558.07
627.501	563.67
627.95	559.98
628.398	571.87
628.847	567.98
629.295	561.78
629.744	565.57
630.192	557.68
630.64	556.67
631.089	553.77
631.537	572.58
631.985	583.97
632.433	604.58
632.881	612.18
633.33	650.57
633.778	636.08
634.226	559.27
634.674	574.48
635.122	569.87
635.57	592.57
636.018	615.77
636.466	574.17
636.914	544.58
637.362	561.88
637.81	564.87
638.258	570.68
638.705	570.67
639.153	595.08
639.601	623.27
640.049	633.87
640.497	658.48
640.944	678.18
641.392	636.17
641.84	616.77
642.287	583.67
642.735	559.48
643.182	562.57
643.63	573.58
644.078	568.27
644.525	581.77
644.973	593.88
645.42	591.48
645.867	615.28
646.315	630.68
646.762	654.68
647.21	687.18
647.657	704.27
648.104	738.27
648.551	764.78
648.999	836.88
649.446	907.97
649.893	1004.97
650.34	1153.28
650.787	1377.28
651.234	1731.28
651.682	2252.78
652.129	3102.97
652.576	4462.18
653.023	6583.18
653.47	9035.57
653.917	11211.67
654.363	12892.08
654.81	14212.67
655.257	13516.88
655.704	8852.87
656.151	5221.68
656.598	3374.48
657.044	2401.27
657.491	1850.68
657.938	1473.18
658.385	1237.08
658.831	1071.17
659.278	949.37
659.724	847.07
660.171	777.27
660.618	715.58
661.064	692.07
661.511	664.58
661.957	649.18
662.404	631.58
662.85	642.77
663.296	614.17
663.743	553.37
664.189	532.27
664.635	523.17
665.082	516.58
665.528	518.18
665.974	521.08
666.42	509.18
666.867	503.58
667.313	488.88
667.759	478.87
668.205	467.57
668.651	480.57
669.097	478.27
669.543	498.27
669.989	466.58
670.435	445.77
670.881	444.48
671.327	443.47
671.773	470.17
672.219	485.57
672.665	535.07
673.11	574.17
673.556	616.27
674.002	661.67
674.448	645.67
674.893	535.88
675.339	470.27
675.785	433.67
676.23	416.07
676.676	386.38
677.122	376.48
677.567	362.27
678.013	363.58
678.458	353.47
678.904	362.07
679.349	345.38
679.794	356.78
680.24	345.77
680.685	338.17
681.131	346.17
681.576	344.17
682.021	355.17
682.466	339.07
682.912	346.07
683.357	354.58
683.802	377.57
684.247	403.17
684.692	448.07
685.137	492.38
685.583	524.67
686.028	555.07
686.473	511.48
686.918	448.37
687.363	417.18
687.807	380.77
688.252	360.98
688.697	355.07
689.142	333.47
689.587	328.48
690.032	317.67
690.477	342.27
690.921	346.57
691.366	372.88
691.811	387.68
692.255	418.88
692.7	454.97
693.145	503.38
693.589	707.68
694.034	1140.18
694.478	1517.17
694.923	1692.48
695.367	2209.88
695.812	1169.88
696.256	484.77
696.701	368.57
697.145	339.28
697.59	331.67
698.034	318.67
698.478	324.38
698.922	322.68
699.367	322.78
699.811	344.17
700.255	347.48
700.699	381.97
701.143	416.07
701.588	473.07
702.032	511.08
702.476	504.48
702.92	481.88
703.364	483.48
703.808	642.87
704.252	1035.78
704.696	1444.78
705.14	1637.07
705.584	2079.88
706.027	1055.77
706.471	517.98
706.915	395.37
707.359	343.88
707.803	309.48
708.246	309.18
708.69	311.68
709.134	302.58
709.577	314.88
710.021	319.37
710.465	309.07
710.908	300.77
711.352	291.17
711.795	306.07
712.239	351.38
712.682	380.67
713.126	418.17
713.569	457.08
714.012	365.58
714.456	312.57
714.899	293.67
715.342	271.07
715.786	260.97
716.229	250.37
716.672	250.47
717.115	245.58
717.558	240.07
718.002	247.98
718.445	261.58
718.888	282.87
719.331	288.98
719.774	298.38
720.217	298.38
720.66	273.98
721.103	266.37
721.546	243.27
721.989	244.67
722.432	229.78
722.874	232.98
723.317	229.38
723.76	229.67
724.203	253.17
724.645	314.28
725.088	441.98
725.531	573.48
725.974	624.67
726.416	535.37
726.859	299.68
727.301	240.97
727.744	242.48
728.187	219.48
728.629	237.57
729.071	240.08
729.514	260.97
729.956	270.57
730.399	276.27
730.841	281.77
731.283	269.88
731.726	256.88
732.168	259.08
732.61	264.27
733.053	281.07
733.495	310.48
733.937	344.98
734.379	393.57
734.821	438.88
735.263	539.18
735.705	832.58
736.148	1586.78
736.59	2554.57
737.032	2975.48
737.474	2427.18
737.916	800.38
738.357	418.17
738.799	330.88
739.241	291.67
739.683	285.17
740.125	289.38
740.567	295.38
741.008	309.87
741.45	310.47
741.892	312.58
742.334	343.98
742.775	351.27
743.217	327.87
743.658	272.57
744.1	257.18
744.542	255.58
744.983	303.28
745.425	338.07
745.866	333.47
746.307	286.97
746.749	277.78
747.19	322.57
747.632	460.88
748.073	893.27
748.514	1870.17
748.956	2798.38
749.397	3533.38
749.838	2932.57
750.279	2872.47
750.72	1457.98
751.162	542.28
751.603	315.87
752.044	248.27
752.485	214.67
752.926	208.18
753.367	201.57
753.808	184.77
754.249	189.27
754.69	186.17
755.131	183.67
755.572	177.88
756.013	178.07
756.453	177.77
756.894	184.68
757.335	189.58
757.776	192.38
758.216	191.47
758.657	199.48
759.098	201.28
759.538	226.47
759.979	270.98
760.42	382.67
760.86	710.97
761.301	1842.28
761.741	4392.88
762.182	6245.48
762.622	4377.07
763.063	1285.97
763.503	534.48
763.943	337.57
764.384	344.37
764.824	401.48
765.264	436.77
765.705	303.48
766.145	205.77
766.585	180.88
767.025	175.97
767.465	178.97
767.906	239.58
768.346	308.37
768.786	335.57
769.226	263.17
769.666	318.87
770.106	619.37
770.546	1561.78
770.986	2597.28
771.426	2307.48
771.866	776.07
772.306	328.88
772.745	213.17
773.185	166.27
773.625	171.17
774.065	164.67
774.505	192.07
774.944	308.37
775.384	689.48
775.824	1228.88
776.263	1171.28
776.703	498.98
777.142	218.67
777.582	148.17
778.021	135.98
778.461	138.77
778.9	143.77
779.34	134.58
779.779	116.38
780.219	112.18
780.658	107.88
781.097	110.17
781.537	114.67
781.976	111.17
782.415	112.57
782.855	102.77
783.294	106.48
783.733	106.67
784.172	104.38
784.611	101.77
785.05	113.07
785.489	110.88
785.928	116.57
786.367	122.88
786.806	112.17
787.245	129.57
787.684	132.67
788.123	148.27
788.562	131.98
789.001	127.58
789.44	120.67
789.879	114.38
790.317	115.38
790.756	124.08
791.195	127.27
791.634	148.58
792.072	209.18
792.511	375.68
792.95	1018.47
793.388	2114.68
793.827	1890.88
794.265	670.17
794.704	276.88
795.142	179.48
795.581	149.38
796.019	137.88
796.458	133.58
796.896	124.17
797.334	131.17
797.773	154.88
798.211	215.77
798.649	451.57
799.087	1021.27
799.526	1573.48
799.964	1999.58
800.402	1950.98
800.84	743.48
801.278	296.08
801.716	183.48
802.154	152.07
802.592	145.58
803.03	141.18
803.468	134.08
803.906	145.67
804.344	144.27
804.782	135.17
805.22	133.97
805.658	125.17
806.096	147.58
806.533	161.07
806.971	171.97
807.409	214.37
807.847	317.27
808.284	668.77
808.722	1865.77
809.16	3226.68
809.597	3098.07
810.035	5330.07
810.472	5617.07
810.91	2044.68
811.347	783.98
811.785	397.38
812.222	253.17
812.66	188.08
813.097	160.67
813.535	137.87
813.972	124.77
814.409	118.38
814.846	106.77
815.284	105.17
815.721	99.88
816.158	106.18
816.595	119.18
817.032	176.67
817.47	195.77
817.907	162.58
818.344	147.57
818.781	121.38
819.218	101.77
819.655	121.48
820.092	182.17
820.529	213.07
820.966	173.98
821.403	135.27
821.839	102.88
822.276	103.27
822.713	120.27
823.15	132.77
823.587	120.88
824.023	152.27
824.46	303.57
824.897	884.78
825.333	1337.18
825.77	563.77
826.206	229.48
826.643	133.67
827.08	102.48
827.516	86.98
827.953	80.77
828.389	77.77
828.825	71.57
829.262	74.47
829.698	64.77
830.135	64.27
830.571	61.07
831.007	59.98
831.443	59.77
831.88	65.08
832.316	58.77
832.752	62.48
833.188	64.27
833.624	66.48
834.06	69.27
834.497	71.38
834.933	73.88
835.369	72.77
835.805	65.47
836.241	74.67
836.677	81.27
837.112	88.07
837.548	107.98
837.984	133.48
838.42	200.68
838.856	499.38
839.292	1506.47
839.727	2252.38
840.163	1049.47
840.599	931.17
841.034	2009.97
841.47	2053.18
841.906	756.88
842.341	330.67
842.777	233.38
843.212	322.27
843.648	307.67
844.083	149.07
844.519	96.58
844.954	80.18
845.39	62.08
845.825	59.88
846.261	54.58
846.696	60.88
847.131	52.38
847.566	59.57
848.002	51.27
848.437	54.88
848.872	58.48
849.307	59.38
849.742	82.08
850.177	186.08
850.613	561.48
851.048	860.87
851.483	372.27
851.918	147.47
852.353	82.67
852.788	59.97
853.223	55.27
853.657	52.97
854.092	48.77
854.527	41.47
854.962	45.77
855.397	46.27
855.832	51.27
856.266	43.77
856.701	35.88
857.136	30.67
857.57	42.88
858.005	52.58
858.44	61.07
858.874	47.38
859.309	53.27
859.743	39.67
860.178	46.07
860.612	41.57
861.047	51.57
861.481	66.48
861.915	68.88
862.35	50.57
862.784	30.97
863.218	33.98
863.653	28.17
864.087	43.07
864.521	50.58
864.955	68.77
865.39	158.87
865.824	172.98
866.258	117.38
866.692	164.98
867.126	171.88
867.56	103.07
867.994	53.17
868.428	36.67
868.862	43.48
869.296	56.48
869.73	56.97
870.164	54.47
870.598	45.48
871.031	41.07
871.465	31.47
871.899	33.98
872.333	22.98
872.766	23.17
873.2	25.57
873.634	34.27
874.067	23.77
874.501	31.37
874.935	37.57
875.368	29.77
875.802	30.17
876.235	26.77
876.669	28.38
877.102	20.17
877.535	28.68
877.969	16.48
878.402	25.97
878.836	20.57
879.269	26.77
879.702	21.07
880.135	19.07
880.569	20.67
881.002	27.38
881.435	20.88
881.868	17.27
882.301	27.48
882.734	15.38
883.167	19.77
883.601	19.98
884.034	24.17
884.467	16.08
884.899	18.27
885.332	14.88
885.765	12.18
886.198	12.77
886.631	22.17
887.064	15.57
887.497	16.67
887.929	25.47
888.362	13.17
888.795	18.17
889.228	14.67
889.66	15.17
890.093	14.97
890.526	13.97
890.958	13.48
891.391	14.27
891.823	24.77
892.256	10.77
892.688	10.77
893.121	24.48
893.553	16.88
893.985	22.67
894.418	20.97
894.85	7.77
895.282	17.97
895.715	13.57
896.147	15.58
896.579	18.07
897.011	14.48
897.444	22.77
897.876	9.58
898.308	20.07
898.74	16.77
899.172	12.17
899.604	21.48
900.036	16.57
900.468	7.98
900.9	12.67
901.332	11.97
901.764	15.48
902.196	21.68
902.628	16.17
903.06	14.47
903.491	26.17
903.923	24.38
904.355	22.88
904.787	26.67
905.218	26.68
905.65	18.38
906.082	14.97
906.513	15.77
906.945	20.17
907.376	19.57
907.808	22.38
908.239	20.98
908.671	22.17
909.102	28.88
909.534	22.48
909.965	42.08
910.397	91.27
910.828	312.58
911.259	459.98
911.691	212.08
912.122	102.48
912.553	46.38
912.984	38.27
913.415	27.98
913.847	25.88
914.278	19.67
914.709	16.97
915.14	14.38
915.571	17.27
916.002	13.48
916.433	15.98
916.864	15.17
917.295	13.97
917.726	25.67
918.157	16.47
918.587	24.88
919.018	19.48
919.449	22.27
919.88	21.27
920.311	27.38
920.741	48.17
921.172	161.38
921.603	161.27
922.033	73.07
922.464	44.48
922.895	19.57
923.325	24.08
923.756	14.38
924.186	21.38
924.617	21.58
925.047	44.77
925.478	53.17
925.908	43.88
926.338	25.27
926.769	15.58
927.199	19.58
927.629	3.77
928.06	16.27
928.49	12.68
928.92	13.98
929.35	13.58
929.78	12.17
930.21	6.47
930.641	12.07
931.071	11.98
931.501	-0.52
931.931	10.08
932.361	4.98
932.791	3.27
933.221	5.48
933.651	8.27
934.08	21.67
934.51	30.17
934.94	12.38
935.37	12.18
935.8	5.38
936.229	6.17
936.659	10.67
937.089	3.67
937.519	12.48
937.948	22.27
938.378	16.58
938.807	2.77
939.237	0.38
939.666	8.58
940.096	-1.62
940.525	3.77
940.955	3.88
941.384	7.68
941.814	-5.33
942.243	1.48
942.672	6.07
943.102	-1.42
943.531	-2.83
943.96	5.07
944.39	5.47
944.819	4.37
945.248	3.77
945.677	5.88
946.106	7.08
946.535	2.07
946.964	-0.02
947.393	8.48
947.822	6.38
948.251	-4.13
948.68	6.18
949.109	2.57
949.538	6.18
949.967	0.77
950.396	5.17
950.825	1.27
951.254	0.38
951.682	-0.53
952.111	6.98
952.54	4.67
952.969	1.48
953.397	-1.03
953.826	7.27
954.254	-5.43
954.683	2.57
955.112	3.17
955.54	-3.52
955.969	5.38
956.397	2.77
956.826	-1.02
957.254	1.08
957.682	-2.83
958.111	2.17
958.539	-1.92
958.967	3.58
959.396	-1.93
959.824	1.77
960.252	5.67
960.68	-6.03
961.109	0.37
961.537	-2.52
961.965	-0.73
962.393	0.08
962.821	-4.82
963.249	0.47
963.677	8.17
964.105	8.27
964.533	45.27
964.961	39.07
965.389	21.27
965.817	12.67
966.245	4.38
966.672	1.18
967.1	-11.02
967.528	0.17
967.956	-0.12
968.383	2.37
968.811	-2.33
969.239	0.47
969.666	-5.42
970.094	-0.62
970.522	0.17
970.949	0.77
971.377	-3.32
971.804	-1.33
972.232	-4.62
972.659	-3.12
973.087	-3.13
973.514	-5.53
973.941	-1.62
974.369	0.88
974.796	-1.23
975.223	-2.03
975.651	-3.82
976.078	5.08
976.505	-1.83
976.932	5.57
977.359	15.67
977.786	12.38
978.214	2.38
978.641	-4.83
979.068	-0.43
979.495	-1.23
979.922	-1.13
980.349	-1.12
980.776	5.97
981.202	1.07
981.629	6.48
982.056	4.57
982.483	-0.62
982.91	2.17
983.337	-6.12
983.763	6.47
984.19	-7.93
984.617	-1.83
985.043	-8.83
985.47	-2.52
985.897	-5.33
986.323	-4.23
986.75	3.98
987.176	1.38
987.603	3.57
988.029	-1.63
988.456	-1.53
988.882	3.48
989.308	-12.23
989.735	-4.63
990.161	-3.43
990.587	2.27
991.014	-3.73
991.44	10.07
991.866	-3.73
992.292	-6.42
992.719	-6.93
993.145	1.08
993.571	-4.92
993.997	-3.52
994.423	-0.12
994.849	-4.93
995.275	2.08
995.701	2.17
996.127	-5.53
996.553	1.38
996.979	-6.42
997.405	-3.12
997.83	-10.33
998.256	-4.33
998.682	-9.12
999.108	-7.63
999.534	0.57
999.959	-4.23
1000.385	-2.62
1000.811	-3.83
1001.236	-8.33
1001.662	-8.62
1002.087	-10.32
1002.513	-3.33
1002.938	2.77
1003.364	-6.02
1003.789	-0.12
1004.215	0.77
1004.64	-4.33
1005.066	3.38
1005.491	-0.62
1005.916	-1.73
1006.342	-2.12
1006.767	-7.02
1007.192	5.48
1007.617	-3.53
1008.042	-1.73
1008.468	-4.23
1008.893	-1.02
1009.318	-6.83
1009.743	-1.53
1010.168	-0.93
1010.593	2.27
1011.018	-11.42
1011.443	1.07
1011.868	1.38
1012.293	3.98
1012.718	-4.82
1013.143	-4.23
1013.567	1.27
1013.992	-6.43
1014.417	-11.12
1014.842	5.37
1015.267	-1.83
1015.691	-4.12
1016.116	5.27
1016.541	2.67
1016.965	4.37
1017.39	5.57
1017.814	-3.73
1018.239	-2.12
1018.663	-8.73
1019.088	-11.62
1019.512	-4.53
1019.937	-2.02
1020.361	-6.43
1020.785	-6.43
1021.21	0.27
1021.634	-4.62
1022.058	-0.53
1022.483	1.98
1022.907	1.77
1023.331	-1.12
1023.755	0.77
1024.179	3.57
1024.604	-8.62
1025.028	-5.93
1025.452	-3.62
1025.876	-3.23
1026.3	0.67
1026.724	-9.12
1027.148	-3.83
1027.572	-11.52
1027.996	0.98
1028.42	-2.93
1028.843	-1.13
1029.267	-4.73
1029.691	-0.73
1030.115	-4.62
1030.539	-12.73
1030.962	-12.83
1031.386	-9.12
1031.81	-1.02
1032.233	2.67
1032.657	-2.82
1033.08	1.77
1033.504	-2.63
1033.927	-3.62
1034.351	-9.12
1034.774	-6.12
1035.198	2.07
1035.621	0.48
1036.045	-7.33
1036.468	3.17
1036.891	-7.23
1037.315	-8.93
1037.738	-11.62
1038.161	-2.43
1038.584	-4.83
1039.008	-3.12
1039.431	-3.23
1039.854	-6.83
1040.277	-10.42
1040.7	-16.92
1041.123	-4.33
1041.546	-8.82
1041.969	-2.73
1042.392	-2.83
1042.815	3.57
1043.238	5.17
1043.661	0.27
1044.084	-4.62
1044.507	-7.93
1044.93	-3.52
1045.352	-5.62
1045.775	-5.83
1046.198	-0.83
1046.621	0.68
1047.043	-3.12
1047.466	4.48
1047.889	-5.53
1048.311	-4.52
1048.734	0.77
1049.156	-6.92
1049.579	-1.33
1050.001	-4.12
1050.424	-0.83
1050.846	-8.03
1051.269	-4.02
1051.691	-9.62
1052.113	-9.23
1052.536	-5.73
1052.958	-8.73
1053.38	-2.93
1053.802	-8.33
1054.225	3.88
1054.647	-7.93
1055.069	-7.53
1055.491	-1.52
1055.913	-4.83
1056.335	-1.12
1056.757	-7.73
1057.179	-1.62
1057.601	-1.42
1058.023	-5.23
1058.445	-3.13
1058.867	-6.33
1059.289	1.57
1059.711	-5.92
1060.133	1.27
1060.555	-2.73
1060.976	-4.62
1061.398	-1.83
1061.82	-4.93
1062.241	-6.33
1062.663	-5.93
1063.085	-9.83
1063.506	1.77
1063.928	-5.23
1064.35	-4.73
1064.771	-13.23
1065.193	-3.33
1065.614	-7.83
1066.035	-0.32
1066.457	-7.23
1066.878	2.88
1067.3	-7.03
1067.721	-0.43
1068.142	-1.03
1068.564	-4.33
1068.985	-2.23
1069.406	-7.73
1069.827	-6.02
1070.248	0.07
1070.67	-2.52
1071.091	-8.12
1071.512	-1.13
1071.933	-8.93
1072.354	-10.02
1072.775	-4.33
1073.196	-7.52
1073.617	-1.03
1074.038	-5.92
1074.459	-8.52
1074.88	-6.02
1075.3	1.77
1075.721	-5.73
1076.142	-3.23
1076.563	-2.23
1076.983	-8.52
1077.404	-2.52
1077.825	-8.82
1078.246	-4.73
1078.666	-2.83
1079.087	-0.12
1079.507	-8.63
1079.928	-5.03
1080.348	-6.42
1080.769	-13.33
1081.189	-5.82
1081.61	-4.02
1082.03	-4.23
1082.451	-4.23
1082.871	-5.82
1083.291	-7.83
1083.711	-0.73
1084.132	-1.42
1084.552	-2.73
1084.972	1.77
1085.392	-5.13
1085.813	-7.62
1086.233	-5.62
1086.653	-4.33
1087.073	-4.52
1087.493	-8.12
1087.913	-6.23
1088.333	-5.73
1088.753	-6.23
1089.173	-0.13
1089.593	-10.23
1090.013	-1.33
1090.433	-2.53
1090.852	-2.93
1091.272	-2.43
1091.692	-3.33
1092.112	-1.23
1092.531	-2.93
1092.951	-13.92
1093.371	-6.43
1093.79	1.88
1094.21	-6.52
1094.63	-6.52
1095.049	-3.73
1095.469	-0.02
1095.888	-6.43
1096.308	-0.53
1096.727	1.48
1097.146	-8.92
1097.566	-3.42
1097.985	-9.43
1098.405	-3.42
1098.824	-5.33
1099.243	-5.23
1099.662	-7.62
1100.082	-3.62
1100.501	1.47
1100.92	-7.73
1101.339	-1.13
1101.758	-1.73
