Data from 20171114-ORNL-Ar_H_NY_Subt18_08-05-10-852.txt Node
Date: Tue Nov 14 08:05:10 EST 2017
User: Ender
Spectrometer: HR+D1039
Trigger mode: 0
Integration Time (sec): 2.730000E-2
Scans to average: 10
Electric dark correction enabled: true
Nonlinearity correction enabled: false
Boxcar width: 0
XAxis mode: Wavelengths
Number of Pixels in Spectrum: 2048
>>>>>Begin Spectral Data<<<<<
187.836	-4.51
188.309	-4.51
188.782	-4.51
189.255	5.49
189.728	-5.11
190.201	6.69
190.674	-1.71
191.147	6.69
191.619	-7.91
192.092	4.39
192.565	1.29
193.038	1.59
193.511	2.99
193.984	-4.71
194.456	-4.91
194.929	-2.21
195.402	0.69
195.874	1.29
196.347	-6.81
196.82	-6.91
197.292	5.99
197.765	-1.21
198.237	-5.41
198.71	4.09
199.182	2.89
199.655	9.09
200.127	3.59
200.6	0.49
201.072	-0.31
201.544	-3.71
202.017	-3.71
202.489	4.59
202.961	-2.01
203.433	-1.61
203.906	-11.11
204.378	-7.61
204.85	-3.61
205.322	-3.61
205.794	-0.31
206.266	-5.01
206.739	-3.91
207.211	5.19
207.683	-7.01
208.155	-3.91
208.627	-7.21
209.099	-0.81
209.57	-11.11
210.042	-9.11
210.514	-0.51
210.986	-2.81
211.458	-8.61
211.93	-4.61
212.402	3.79
212.873	-3.91
213.345	-5.91
213.817	-5.31
214.288	-6.01
214.76	-5.41
215.232	-2.31
215.703	-2.51
216.175	0.59
216.646	2.39
217.118	-5.71
217.589	-8.21
218.061	1.89
218.532	-0.51
219.004	-2.81
219.475	-9.31
219.946	-1.71
220.418	-5.31
220.889	-3.81
221.36	1.99
221.832	-6.71
222.303	-8.41
222.774	-3.91
223.245	-7.11
223.717	-11.61
224.188	-1.01
224.659	-2.31
225.13	-7.81
225.601	-2.81
226.072	-1.91
226.543	0.59
227.014	2.39
227.485	0.79
227.956	-4.81
228.427	0.99
228.898	0.19
229.369	9.39
229.839	-4.71
230.31	-3.51
230.781	10.49
231.252	-0.51
231.722	-0.11
232.193	-3.51
232.664	3.49
233.135	2.79
233.605	-3.21
234.076	-0.11
234.546	1.99
235.017	7.89
235.487	2.69
235.958	3.19
236.428	-3.61
236.899	10.59
237.369	0.69
237.84	-1.71
238.31	10.59
238.78	2.59
239.251	2.29
239.721	4.99
240.191	4.39
240.662	1.19
241.132	-0.21
241.602	-0.51
242.072	-6.01
242.542	12.09
243.013	0.69
243.483	5.79
243.953	-1.21
244.423	3.49
244.893	-3.61
245.363	3.99
245.833	2.39
246.303	-5.21
246.773	6.69
247.243	2.19
247.712	4.59
248.182	6.79
248.652	9.89
249.122	-3.21
249.592	6.19
250.061	24.09
250.531	35.59
251.001	18.29
251.471	27.29
251.94	22.39
252.41	11.99
252.879	4.49
253.349	15.09
253.818	12.69
254.288	6.59
254.757	6.59
255.227	8.39
255.696	8.99
256.166	7.39
256.635	5.89
257.105	10.89
257.574	6.79
258.043	10.69
258.513	11.79
258.982	21.69
259.451	13.99
259.92	15.99
260.389	14.09
260.859	16.29
261.328	15.09
261.797	15.59
262.266	9.69
262.735	8.39
263.204	4.39
263.673	4.19
264.142	10.89
264.611	4.29
265.08	-0.81
265.549	6.39
266.018	5.39
266.487	4.39
266.955	-2.31
267.424	5.89
267.893	6.49
268.362	3.59
268.83	1.39
269.299	12.89
269.768	9.79
270.236	4.59
270.705	5.99
271.174	10.29
271.642	15.99
272.111	12.89
272.579	20.39
273.048	22.99
273.516	32.99
273.985	27.59
274.453	31.09
274.922	20.49
275.39	18.39
275.858	9.29
276.327	10.09
276.795	23.09
277.263	13.99
277.731	28.49
278.2	56.49
278.668	60.99
279.136	51.19
279.604	26.79
280.072	17.09
280.54	8.29
281.008	11.29
281.477	16.49
281.945	8.69
282.413	18.69
282.881	17.19
283.348	10.39
283.816	20.19
284.284	21.99
284.752	21.79
285.22	15.99
285.688	18.19
286.156	19.09
286.623	46.49
287.091	53.39
287.559	31.09
288.026	16.29
288.494	22.09
288.962	10.39
289.429	12.19
289.897	25.69
290.364	18.99
290.832	18.09
291.3	12.49
291.767	18.59
292.234	20.59
292.702	23.79
293.169	20.89
293.637	23.29
294.104	23.69
294.571	13.99
295.039	15.99
295.506	18.79
295.973	12.79
296.44	15.09
296.908	22.09
297.375	22.29
297.842	22.99
298.309	14.79
298.776	17.39
299.243	21.39
299.71	13.59
300.177	25.79
300.644	24.29
301.111	23.99
301.578	26.39
302.045	21.59
302.512	20.99
302.979	27.69
303.446	20.69
303.913	15.89
304.379	21.69
304.846	31.89
305.313	28.59
305.78	23.79
306.246	27.89
306.713	27.89
307.18	26.89
307.646	29.79
308.113	33.69
308.579	29.49
309.046	26.49
309.512	29.49
309.979	18.39
310.445	27.59
310.912	29.49
311.378	33.19
311.845	27.39
312.311	32.59
312.777	36.89
313.244	32.89
313.71	40.59
314.176	34.59
314.642	33.29
315.109	29.09
315.575	37.59
316.041	32.29
316.507	39.19
316.973	42.39
317.439	37.19
317.905	37.09
318.371	37.39
318.837	36.89
319.303	37.69
319.769	37.99
320.235	33.29
320.701	40.29
321.167	33.99
321.633	37.09
322.099	42.09
322.564	44.79
323.03	39.89
323.496	42.59
323.962	42.99
324.427	37.79
324.893	46.09
325.359	37.49
325.824	41.79
326.29	40.69
326.755	41.79
327.221	41.99
327.686	39.79
328.152	49.69
328.617	46.59
329.083	52.99
329.548	54.39
330.014	55.39
330.479	47.49
330.944	44.39
331.41	49.19
331.875	44.49
332.34	49.59
332.805	49.89
333.271	52.39
333.736	45.19
334.201	60.19
334.666	56.49
335.131	58.59
335.596	51.79
336.061	59.59
336.526	46.89
336.991	53.89
337.456	55.89
337.921	54.29
338.386	52.59
338.851	49.19
339.316	48.99
339.781	54.19
340.246	59.29
340.711	51.09
341.175	52.49
341.64	50.29
342.105	54.59
342.569	58.29
343.034	59.79
343.499	60.09
343.963	53.59
344.428	67.89
344.893	62.99
345.357	61.99
345.822	64.49
346.286	70.69
346.751	86.59
347.215	68.49
347.679	75.19
348.144	106.19
348.608	84.39
349.073	75.29
349.537	72.79
350.001	83.99
350.465	90.69
350.93	82.79
351.394	82.79
351.858	76.99
352.322	89.59
352.786	86.69
353.25	101.39
353.715	111.29
354.179	108.19
354.643	128.89
355.107	129.59
355.571	106.39
356.035	104.69
356.498	119.29
356.962	126.59
357.426	130.79
357.89	121.89
358.354	88.19
358.818	84.59
359.281	81.29
359.745	81.69
360.209	73.69
360.673	82.89
361.136	83.19
361.6	81.89
362.064	87.69
362.527	85.59
362.991	88.39
363.454	80.89
363.918	81.79
364.381	85.79
364.845	87.29
365.308	95.19
365.772	87.89
366.235	92.19
366.698	84.59
367.162	86.99
367.625	90.29
368.088	92.29
368.552	92.99
369.015	92.99
369.478	93.49
369.941	107.49
370.404	95.99
370.867	113.09
371.331	111.59
371.794	120.29
372.257	112.19
372.72	116.69
373.183	114.59
373.646	101.69
374.109	107.49
374.572	105.09
375.035	113.59
375.497	107.39
375.96	107.89
376.423	105.19
376.886	117.19
377.349	108.39
377.811	102.89
378.274	112.39
378.737	107.49
379.199	114.69
379.662	118.19
380.125	122.89
380.587	114.99
381.05	121.19
381.512	125.99
381.975	128.79
382.437	131.99
382.9	128.99
383.362	136.19
383.825	135.79
384.287	146.59
384.75	141.09
385.212	137.59
385.674	149.99
386.136	125.99
386.599	126.89
387.061	127.49
387.523	128.39
387.985	133.29
388.447	140.09
388.91	146.39
389.372	163.39
389.834	151.09
390.296	136.39
390.758	154.99
391.22	159.89
391.682	208.99
392.144	289.19
392.606	231.19
393.068	167.39
393.529	169.79
393.991	155.29
394.453	149.69
394.915	156.79
395.377	191.39
395.838	213.29
396.3	150.49
396.762	144.29
397.224	131.59
397.685	128.69
398.147	131.69
398.608	133.39
399.07	131.29
399.531	132.09
399.993	143.79
400.454	154.99
400.916	144.29
401.377	142.69
401.839	154.09
402.3	139.69
402.762	172.69
403.223	183.89
403.684	173.39
404.145	161.39
404.607	161.59
405.068	165.49
405.529	171.79
405.99	187.59
406.451	179.89
406.913	176.99
407.374	161.59
407.835	159.49
408.296	162.39
408.757	172.39
409.218	189.69
409.679	181.69
410.14	170.59
410.601	175.59
411.062	181.69
411.522	188.89
411.983	186.19
412.444	177.19
412.905	182.29
413.366	185.69
413.826	198.29
414.287	225.39
414.748	256.69
415.208	237.29
415.669	214.09
416.13	202.19
416.59	200.09
417.051	208.39
417.511	221.79
417.972	233.69
418.432	249.29
418.893	283.79
419.353	252.39
419.814	192.79
420.274	185.29
420.734	178.39
421.195	198.19
421.655	187.69
422.115	194.69
422.576	196.99
423.036	196.79
423.496	198.89
423.956	207.89
424.416	226.89
424.876	261.49
425.336	258.79
425.797	261.29
426.257	250.29
426.717	235.39
427.177	228.49
427.637	229.19
428.097	228.49
428.556	244.39
429.016	267.29
429.476	265.49
429.936	277.29
430.396	278.09
430.856	288.39
431.315	320.09
431.775	346.69
432.235	378.59
432.694	348.39
433.154	362.89
433.614	385.69
434.073	336.39
434.533	285.19
434.993	274.59
435.452	283.09
435.912	298.29
436.371	287.89
436.83	285.49
437.29	266.29
437.749	246.69
438.209	242.29
438.668	271.19
439.127	291.49
439.587	264.79
440.046	247.19
440.505	253.69
440.964	275.79
441.424	318.59
441.883	313.49
442.342	256.99
442.801	217.09
443.26	219.29
443.719	212.99
444.178	220.59
444.637	204.69
445.096	220.79
445.555	221.39
446.014	226.29
446.473	228.39
446.932	234.09
447.391	221.89
447.849	223.89
448.308	216.59
448.767	222.09
449.226	239.89
449.685	240.49
450.143	247.69
450.602	239.29
451.061	221.39
451.519	232.19
451.978	225.59
452.436	231.49
452.895	240.69
453.353	248.49
453.812	237.89
454.27	239.69
454.729	233.19
455.187	241.69
455.646	251.89
456.104	243.59
456.562	255.29
457.021	256.09
457.479	265.39
457.937	268.79
458.395	264.79
458.854	247.59
459.312	262.39
459.77	271.49
460.228	249.19
460.686	242.59
461.144	247.49
461.602	243.09
462.06	244.99
462.518	255.59
462.976	254.99
463.434	256.69
463.892	260.69
464.35	274.69
464.808	287.09
465.266	264.09
465.724	268.09
466.181	270.09
466.639	269.69
467.097	293.89
467.555	292.69
468.012	300.89
468.47	312.09
468.928	328.39
469.385	343.19
469.843	348.99
470.3	342.99
470.758	360.69
471.215	382.19
471.673	399.39
472.13	400.99
472.588	409.89
473.045	366.89
473.503	374.19
473.96	394.69
474.417	398.79
474.875	421.09
475.332	475.09
475.789	457.99
476.246	455.39
476.704	484.69
477.161	498.19
477.618	521.99
478.075	557.79
478.532	616.89
478.989	693.09
479.446	812.39
479.903	757.59
480.36	797.29
480.817	869.59
481.274	961.79
481.731	1072.19
482.188	1168.09
482.645	1299.09
483.102	1417.49
483.558	1546.49
484.015	1586.19
484.472	1570.89
484.929	1527.79
485.385	1484.99
485.842	1439.59
486.299	1364.29
486.755	1302.89
487.212	1082.89
487.668	927.89
488.125	843.19
488.582	777.89
489.038	749.49
489.494	714.69
489.951	680.19
490.407	665.59
490.864	645.39
491.32	640.59
491.776	647.79
492.233	644.29
492.689	607.09
493.145	601.79
493.602	585.79
494.058	600.69
494.514	620.89
494.97	636.49
495.426	646.89
495.882	618.19
496.338	608.19
496.794	627.29
497.251	614.19
497.707	637.49
498.163	630.39
498.618	643.79
499.074	645.19
499.53	669.39
499.986	667.79
500.442	651.39
500.898	633.59
501.354	624.49
501.809	624.89
502.265	642.49
502.721	658.29
503.177	669.59
503.632	653.79
504.088	664.19
504.543	708.69
504.999	704.89
505.455	646.99
505.91	625.69
506.366	627.89
506.821	624.49
507.277	624.79
507.732	610.59
508.187	615.09
508.643	628.09
509.098	618.99
509.553	651.59
510.009	657.59
510.464	672.59
510.919	676.69
511.375	688.59
511.83	707.89
512.285	727.79
512.74	751.09
513.195	778.49
513.65	775.49
514.105	755.89
514.56	774.19
515.015	793.59
515.47	804.89
515.925	793.69
516.38	785.69
516.835	786.09
517.29	779.39
517.745	775.89
518.2	764.19
518.655	751.79
519.109	728.89
519.564	729.59
520.019	725.09
520.474	718.69
520.928	730.39
521.383	714.69
521.838	702.69
522.292	702.19
522.747	705.49
523.201	688.59
523.656	688.09
524.11	688.99
524.565	684.19
525.019	681.59
525.474	696.29
525.928	681.89
526.382	693.69
526.837	688.59
527.291	694.39
527.745	688.29
528.2	687.19
528.654	685.09
529.108	680.69
529.562	684.39
530.016	681.19
530.47	685.29
530.925	688.49
531.379	690.19
531.833	696.99
532.287	686.79
532.741	689.29
533.195	698.19
533.649	707.49
534.103	715.29
534.556	699.49
535.01	703.79
535.464	692.79
535.918	704.09
536.372	722.19
536.826	701.19
537.279	684.39
537.733	699.09
538.187	701.39
538.64	713.89
539.094	721.79
539.548	728.29
540.001	718.09
540.455	712.39
540.908	716.49
541.362	721.99
541.815	720.79
542.269	739.99
542.722	750.79
543.175	761.19
543.629	762.59
544.082	776.79
544.536	767.19
544.989	777.29
545.442	780.39
545.895	777.79
546.349	777.69
546.802	776.39
547.255	777.09
547.708	784.69
548.161	795.49
548.614	810.29
549.067	816.89
549.52	812.39
549.973	795.59
550.426	795.09
550.879	779.99
551.332	793.39
551.785	786.89
552.238	798.49
552.691	805.79
553.144	815.69
553.596	838.09
554.049	844.99
554.502	870.39
554.955	894.59
555.407	886.49
555.86	877.49
556.313	877.89
556.765	871.69
557.218	871.09
557.67	869.09
558.123	855.99
558.576	850.99
559.028	856.59
559.48	870.59
559.933	852.29
560.385	822.69
560.838	784.69
561.29	769.49
561.742	759.39
562.195	749.39
562.647	743.79
563.099	753.99
563.551	750.89
564.004	756.39
564.456	751.89
564.908	750.29
565.36	732.59
565.812	711.89
566.264	704.19
566.716	705.29
567.168	699.29
567.62	703.89
568.072	690.59
568.524	680.69
568.976	667.89
569.428	654.39
569.88	655.79
570.332	662.09
570.784	670.99
571.235	653.49
571.687	676.59
572.139	687.69
572.59	689.59
573.042	683.39
573.494	693.49
573.945	694.49
574.397	660.29
574.849	669.99
575.3	670.19
575.752	661.49
576.203	661.89
576.655	655.49
577.106	647.49
577.557	647.49
578.009	643.69
578.46	641.49
578.912	642.49
579.363	642.79
579.814	642.49
580.265	649.99
580.717	649.09
581.168	644.09
581.619	649.79
582.07	656.19
582.521	649.59
582.972	654.29
583.423	647.99
583.875	664.69
584.326	683.39
584.777	728.99
585.227	799.59
585.678	879.09
586.129	969.09
586.58	1038.69
587.031	1108.99
587.482	1269.79
587.933	1463.49
588.384	1261.09
588.834	957.49
589.285	773.89
589.736	752.49
590.186	743.49
590.637	746.19
591.088	715.49
591.538	708.39
591.989	699.49
592.439	692.19
592.89	697.09
593.34	678.59
593.791	679.59
594.241	676.19
594.692	676.59
595.142	672.89
595.593	672.29
596.043	676.89
596.493	687.89
596.943	690.29
597.394	692.79
597.844	679.99
598.294	697.09
598.744	719.89
599.195	741.29
599.645	780.69
600.095	811.49
600.545	862.19
600.995	920.19
601.445	980.49
601.895	1039.39
602.345	1087.89
602.795	1075.69
603.245	1019.49
603.695	971.49
604.145	915.09
604.594	874.89
605.044	813.99
605.494	763.69
605.944	722.69
606.393	714.89
606.843	696.79
607.293	705.89
607.743	696.29
608.192	705.19
608.642	721.69
609.091	729.29
609.541	728.69
609.99	734.79
610.44	732.29
610.889	692.09
611.339	669.59
611.788	655.49
612.238	662.19
612.687	684.59
613.136	681.89
613.586	701.79
614.035	702.09
614.484	717.89
614.933	718.09
615.383	704.39
615.832	698.99
616.281	693.89
616.73	644.19
617.179	633.09
617.628	612.09
618.077	608.09
618.526	592.29
618.975	588.09
619.424	581.89
619.873	589.99
620.322	582.59
620.771	579.29
621.22	569.49
621.669	559.19
622.118	564.39
622.567	549.89
623.015	541.59
623.464	543.09
623.913	529.99
624.361	530.29
624.81	524.89
625.259	522.99
625.707	526.19
626.156	525.39
626.604	530.59
627.053	540.19
627.501	527.19
627.95	546.09
628.398	554.19
628.847	540.49
629.295	531.79
629.744	541.19
630.192	538.09
630.64	537.29
631.089	542.69
631.537	550.29
631.985	554.39
632.433	560.29
632.881	570.99
633.33	615.99
633.778	609.89
634.226	530.49
634.674	535.39
635.122	541.19
635.57	568.29
636.018	596.09
636.466	548.39
636.914	524.19
637.362	533.79
637.81	541.19
638.258	549.29
638.705	545.09
639.153	574.79
639.601	582.19
640.049	604.19
640.497	626.89
640.944	654.79
641.392	595.99
641.84	578.59
642.287	547.69
642.735	528.29
643.182	531.69
643.63	532.69
644.078	541.89
644.525	561.49
644.973	550.89
645.42	560.89
645.867	580.29
646.315	599.49
646.762	617.99
647.21	652.89
647.657	668.69
648.104	706.09
648.551	721.69
648.999	793.09
649.446	854.09
649.893	953.79
650.34	1087.89
650.787	1303.09
651.234	1621.79
651.682	2104.69
652.129	2879.09
652.576	4118.19
653.023	6112.79
653.47	8436.09
653.917	10629.59
654.363	12386.69
654.81	13773.69
655.257	13110.09
655.704	8529.49
656.151	5056.69
656.598	3255.39
657.044	2305.89
657.491	1762.19
657.938	1424.49
658.385	1174.99
658.831	1016.99
659.278	917.39
659.724	806.99
660.171	739.19
660.618	679.49
661.064	654.69
661.511	627.39
661.957	610.99
662.404	601.69
662.85	609.09
663.296	581.29
663.743	523.99
664.189	504.49
664.635	501.49
665.082	496.89
665.528	485.69
665.974	477.69
666.42	472.39
666.867	472.19
667.313	455.09
667.759	452.99
668.205	451.59
668.651	454.29
669.097	456.19
669.543	473.09
669.989	441.29
670.435	420.59
670.881	408.09
671.327	414.59
671.773	438.89
672.219	452.69
672.665	497.69
673.11	535.09
673.556	588.79
674.002	628.59
674.448	606.99
674.893	506.49
675.339	435.09
675.785	411.89
676.23	392.19
676.676	359.89
677.122	347.69
677.567	345.99
678.013	347.19
678.458	333.19
678.904	331.89
679.349	322.89
679.794	330.99
680.24	330.09
680.685	323.49
681.131	327.49
681.576	325.59
682.021	326.79
682.466	320.69
682.912	317.69
683.357	317.69
683.802	347.79
684.247	387.09
684.692	417.99
685.137	448.09
685.583	491.09
686.028	517.39
686.473	481.29
686.918	410.89
687.363	381.89
687.807	371.09
688.252	337.79
688.697	324.49
689.142	315.99
689.587	309.29
690.032	305.39
690.477	317.19
690.921	324.19
691.366	354.69
691.811	370.99
692.255	383.29
692.7	422.19
693.145	460.59
693.589	631.69
694.034	1022.09
694.478	1396.89
694.923	1609.99
695.367	2120.29
695.812	1104.39
696.256	463.79
696.701	350.09
697.145	310.29
697.59	302.89
698.034	294.59
698.478	305.69
698.922	303.69
699.367	298.29
699.811	311.99
700.255	331.79
700.699	347.49
701.143	388.99
701.588	442.09
702.032	476.29
702.476	480.29
702.92	450.39
703.364	454.19
703.808	567.89
704.252	926.19
704.696	1315.39
705.14	1533.89
705.584	1977.09
706.027	988.49
706.471	483.39
706.915	372.99
707.359	329.69
707.803	290.89
708.246	285.69
708.69	280.19
709.134	287.19
709.577	291.19
710.021	290.39
710.465	274.19
710.908	276.39
711.352	266.69
711.795	282.69
712.239	318.49
712.682	346.09
713.126	382.39
713.569	426.79
714.012	340.69
714.456	295.79
714.899	280.79
715.342	250.79
715.786	237.49
716.229	233.69
716.672	235.09
717.115	225.89
717.558	226.59
718.002	232.79
718.445	243.09
718.888	260.69
719.331	265.69
719.774	283.19
720.217	282.49
720.66	255.39
721.103	245.39
721.546	228.09
721.989	228.79
722.432	212.39
722.874	215.89
723.317	203.89
723.76	216.79
724.203	236.59
724.645	285.59
725.088	403.89
725.531	512.19
725.974	603.99
726.416	515.29
726.859	283.99
727.301	219.19
727.744	211.29
728.187	215.99
728.629	221.79
729.071	224.99
729.514	237.69
729.956	243.19
730.399	259.99
730.841	267.79
731.283	247.79
731.726	243.99
732.168	239.29
732.61	244.19
733.053	265.79
733.495	289.09
733.937	323.69
734.379	360.79
734.821	393.79
735.263	489.09
735.705	736.29
736.148	1399.99
736.59	2344.89
737.032	2841.39
737.474	2313.19
737.916	738.09
738.357	394.29
738.799	303.19
739.241	272.09
739.683	265.19
740.125	263.49
740.567	275.49
741.008	284.59
741.45	290.09
741.892	296.19
742.334	319.49
742.775	328.69
743.217	315.79
743.658	249.79
744.1	230.89
744.542	238.19
744.983	273.39
745.425	315.09
745.866	319.89
746.307	259.69
746.749	255.89
747.19	286.69
747.632	402.79
748.073	774.49
748.514	1661.39
748.956	2596.59
749.397	3251.99
749.838	2696.09
750.279	2751.09
750.72	1374.59
751.162	507.19
751.603	292.19
752.044	230.29
752.485	202.79
752.926	185.59
753.367	191.19
753.808	176.09
754.249	170.29
754.69	168.29
755.131	170.59
755.572	168.39
756.013	158.89
756.453	169.39
756.894	174.49
757.335	172.99
757.776	177.59
758.216	170.39
758.657	179.59
759.098	182.79
759.538	204.99
759.979	237.69
760.42	329.59
760.86	617.49
761.301	1596.19
761.741	3944.19
762.182	5986.59
762.622	4210.79
763.063	1202.89
763.503	499.79
763.943	320.79
764.384	316.09
764.824	373.19
765.264	402.09
765.705	284.49
766.145	192.09
766.585	170.49
767.025	160.99
767.465	166.39
767.906	220.39
768.346	293.49
768.786	313.89
769.226	237.29
769.666	283.39
770.106	551.59
770.546	1372.89
770.986	2443.99
771.426	2212.49
771.866	720.69
772.306	309.19
772.745	186.99
773.185	155.29
773.625	151.09
774.065	152.29
774.505	180.59
774.944	278.19
775.384	612.99
775.824	1147.59
776.263	1130.89
776.703	475.59
777.142	201.59
777.582	147.79
778.021	124.69
778.461	128.49
778.9	122.69
779.34	132.79
779.779	100.19
780.219	105.09
780.658	94.09
781.097	99.89
781.537	94.49
781.976	100.99
782.415	96.89
782.855	96.99
783.294	98.39
783.733	91.99
784.172	100.99
784.611	99.09
785.05	98.59
785.489	99.89
785.928	109.39
786.367	108.49
786.806	105.69
787.245	118.99
787.684	130.09
788.123	140.59
788.562	115.39
789.001	120.39
789.44	111.39
789.879	105.09
790.317	109.79
790.756	115.89
791.195	115.89
791.634	133.59
792.072	184.79
792.511	322.69
792.95	897.79
793.388	1964.69
793.827	1822.79
794.265	627.49
794.704	254.29
795.142	171.09
795.581	136.89
796.019	127.79
796.458	110.39
796.896	111.49
797.334	120.09
797.773	139.19
798.211	196.29
798.649	375.59
799.087	908.99
799.526	1449.49
799.964	1824.69
800.402	1875.79
800.84	698.39
801.278	266.29
801.716	168.39
802.154	140.79
802.592	132.79
803.03	126.89
803.468	123.39
803.906	135.29
804.344	136.39
804.782	128.49
805.22	115.09
805.658	122.79
806.096	126.79
806.533	135.19
806.971	162.49
807.409	196.59
807.847	269.29
808.284	571.79
808.722	1667.59
809.16	3015.89
809.597	2812.59
810.035	4935.79
810.472	5449.39
810.91	1944.59
811.347	734.09
811.785	369.09
812.222	235.39
812.66	180.49
813.097	149.19
813.535	128.19
813.972	115.19
814.409	106.19
814.846	97.19
815.284	101.99
815.721	85.09
816.158	97.19
816.595	105.69
817.032	163.59
817.47	182.09
817.907	147.39
818.344	137.59
818.781	105.99
819.218	88.89
819.655	113.59
820.092	171.19
820.529	200.49
820.966	158.69
821.403	129.09
821.839	100.69
822.276	90.99
822.713	107.19
823.15	122.89
823.587	108.89
824.023	132.59
824.46	265.99
824.897	814.79
825.333	1253.49
825.77	534.89
826.206	211.39
826.643	115.49
827.08	98.89
827.516	78.69
827.953	73.19
828.389	73.39
828.825	65.99
829.262	64.99
829.698	51.69
830.135	60.39
830.571	54.29
831.007	55.79
831.443	59.89
831.88	57.49
832.316	57.59
832.752	57.19
833.188	61.39
833.624	59.69
834.06	66.79
834.497	66.39
834.933	64.99
835.369	71.79
835.805	57.49
836.241	70.39
836.677	72.59
837.112	81.29
837.548	94.49
837.984	122.39
838.42	182.29
838.856	429.69
839.292	1348.79
839.727	2122.59
840.163	983.99
840.599	827.69
841.034	1833.69
841.47	1990.89
841.906	722.29
842.341	304.19
842.777	213.69
843.212	296.69
843.648	291.19
844.083	141.69
844.519	87.19
844.954	67.39
845.39	47.49
845.825	55.29
846.261	55.59
846.696	54.79
847.131	47.29
847.566	47.49
848.002	48.19
848.437	50.19
848.872	60.49
849.307	61.39
849.742	73.49
850.177	156.09
850.613	496.59
851.048	820.69
851.483	350.99
851.918	141.19
852.353	84.19
852.788	52.69
853.223	46.79
853.657	53.29
854.092	39.39
854.527	33.79
854.962	34.59
855.397	39.09
855.832	40.69
856.266	35.39
856.701	40.99
857.136	32.69
857.57	38.09
858.005	48.49
858.44	51.89
858.874	37.09
859.309	46.39
859.743	34.39
860.178	45.69
860.612	37.49
861.047	46.59
861.481	63.59
861.915	63.29
862.35	44.99
862.784	29.79
863.218	37.89
863.653	30.29
864.087	43.09
864.521	50.79
864.955	56.29
865.39	142.59
865.824	156.29
866.258	108.99
866.692	156.99
867.126	163.19
867.56	95.59
867.994	48.99
868.428	33.69
868.862	40.99
869.296	48.79
869.73	47.79
870.164	46.39
870.598	40.59
871.031	38.59
871.465	26.09
871.899	29.99
872.333	20.89
872.766	18.09
873.2	20.19
873.634	25.49
874.067	22.89
874.501	21.19
874.935	28.99
875.368	22.99
875.802	24.39
876.235	19.69
876.669	18.39
877.102	24.39
877.535	20.89
877.969	24.49
878.402	22.49
878.836	18.09
879.269	20.29
879.702	25.79
880.135	17.49
880.569	20.19
881.002	26.59
881.435	26.29
881.868	16.29
882.301	13.09
882.734	13.29
883.167	19.49
883.601	17.79
884.034	20.89
884.467	8.09
884.899	22.79
885.332	12.39
885.765	19.19
886.198	12.19
886.631	21.69
887.064	20.29
887.497	16.69
887.929	28.99
888.362	13.29
888.795	8.19
889.228	19.19
889.66	16.19
890.093	11.19
890.526	16.69
890.958	19.09
891.391	19.09
891.823	22.99
892.256	12.89
892.688	11.89
893.121	11.09
893.553	8.29
893.985	23.59
894.418	21.39
894.85	7.89
895.282	14.29
895.715	21.09
896.147	19.19
896.579	16.49
897.011	11.29
897.444	14.89
897.876	5.89
898.308	16.89
898.74	12.69
899.172	8.39
899.604	26.29
900.036	24.49
900.468	15.09
900.9	13.09
901.332	12.49
901.764	7.39
902.196	13.09
902.628	9.39
903.06	15.59
903.491	26.09
903.923	23.39
904.355	17.29
904.787	21.19
905.218	22.09
905.65	18.09
906.082	17.19
906.513	10.29
906.945	19.99
907.376	9.29
907.808	10.89
908.239	20.79
908.671	21.19
909.102	20.69
909.534	21.79
909.965	42.99
910.397	73.69
910.828	285.59
911.259	440.09
911.691	199.29
912.122	97.99
912.553	46.59
912.984	33.69
913.415	22.39
913.847	23.69
914.278	16.99
914.709	14.39
915.14	13.29
915.571	16.89
916.002	5.79
916.433	18.19
916.864	18.69
917.295	8.49
917.726	20.39
918.157	17.49
918.587	27.09
919.018	19.69
919.449	23.39
919.88	24.19
920.311	28.89
920.741	38.59
921.172	161.79
921.603	145.79
922.033	60.49
922.464	43.99
922.895	15.39
923.325	20.19
923.756	15.89
924.186	16.39
924.617	26.09
925.047	41.39
925.478	47.79
925.908	37.89
926.338	29.49
926.769	15.09
927.199	22.29
927.629	3.19
928.06	17.69
928.49	14.79
928.92	12.59
929.35	10.99
929.78	13.29
930.21	7.99
930.641	2.19
931.071	13.29
931.501	-1.11
931.931	7.69
932.361	6.39
932.791	-2.41
933.221	0.79
933.651	2.89
934.08	17.79
934.51	23.39
934.94	12.19
935.37	8.79
935.8	9.39
936.229	11.09
936.659	5.99
937.089	-2.21
937.519	6.89
937.948	21.69
938.378	10.59
938.807	7.69
939.237	7.59
939.666	11.29
940.096	-6.41
940.525	3.29
940.955	2.19
941.384	0.69
941.814	-4.11
942.243	-6.21
942.672	4.19
943.102	0.29
943.531	7.19
943.96	4.79
944.39	0.99
944.819	1.49
945.248	4.29
945.677	2.89
946.106	3.19
946.535	8.99
946.964	-1.81
947.393	10.29
947.822	-0.21
948.251	-2.11
948.68	4.89
949.109	4.79
949.538	6.39
949.967	2.19
950.396	2.29
950.825	-4.41
951.254	5.89
951.682	-6.11
952.111	6.99
952.54	8.09
952.969	-5.41
953.397	-2.31
953.826	-1.81
954.254	-3.91
954.683	-1.21
955.112	-5.11
955.54	-4.61
955.969	-1.21
956.397	-4.01
956.826	-1.51
957.254	3.89
957.682	-1.21
958.111	7.89
958.539	-0.61
958.967	4.29
959.396	-1.11
959.824	-0.01
960.252	0.99
960.68	-4.71
961.109	-0.51
961.537	-2.01
961.965	3.49
962.393	4.19
962.821	-3.61
963.249	1.99
963.677	1.69
964.105	3.79
964.533	41.89
964.961	36.49
965.389	20.79
965.817	9.09
966.245	-0.21
966.672	2.49
967.1	-7.01
967.528	0.59
967.956	-4.31
968.383	0.99
968.811	-4.11
969.239	-4.01
969.666	-2.51
970.094	1.89
970.522	0.29
970.949	-6.01
971.377	-5.21
971.804	-4.51
972.232	-3.11
972.659	-6.61
973.087	-4.11
973.514	-0.31
973.941	-5.51
974.369	6.29
974.796	2.19
975.223	2.49
975.651	-2.91
976.078	7.89
976.505	-0.21
976.932	3.69
977.359	12.29
977.786	8.39
978.214	1.59
978.641	-1.11
979.068	0.99
979.495	-4.01
979.922	-1.61
980.349	0.99
980.776	3.09
981.202	2.59
981.629	1.49
982.056	8.29
982.483	-5.51
982.91	2.99
983.337	-4.21
983.763	5.39
984.19	-3.21
984.617	-5.21
985.043	-5.21
985.47	-1.51
985.897	-6.81
986.323	-11.51
986.75	6.69
987.176	-3.81
987.603	-2.81
988.029	-0.91
988.456	-3.61
988.882	3.19
989.308	-4.01
989.735	-8.11
990.161	1.39
990.587	-3.11
991.014	-5.61
991.44	3.59
991.866	-4.71
992.292	-6.41
992.719	-5.71
993.145	-5.01
993.571	-6.11
993.997	-4.11
994.423	-2.51
994.849	-1.71
995.275	6.99
995.701	2.99
996.127	-0.41
996.553	5.69
996.979	-6.81
997.405	1.99
997.83	-5.41
998.256	-7.71
998.682	-6.61
999.108	-3.81
999.534	-3.51
999.959	-5.91
1000.385	-2.91
1000.811	6.69
1001.236	-6.31
1001.662	-11.91
1002.087	-6.81
1002.513	4.89
1002.938	-1.11
1003.364	2.29
1003.789	-0.31
1004.215	4.79
1004.64	-0.61
1005.066	-0.21
1005.491	-0.91
1005.916	-4.81
1006.342	-7.01
1006.767	-3.31
1007.192	6.89
1007.617	-4.31
1008.042	-0.51
1008.468	-7.91
1008.893	-1.61
1009.318	-6.61
1009.743	-2.91
1010.168	2.69
1010.593	-4.11
1011.018	-8.01
1011.443	0.29
1011.868	1.49
1012.293	-3.61
1012.718	-1.71
1013.143	3.39
1013.567	-2.71
1013.992	-7.81
1014.417	-9.71
1014.842	2.49
1015.267	-6.51
1015.691	-9.51
1016.116	2.99
1016.541	1.29
1016.965	3.09
1017.39	7.29
1017.814	2.69
1018.239	-4.41
1018.663	-6.91
1019.088	-7.01
1019.512	-6.71
1019.937	-3.01
1020.361	-7.41
1020.785	-8.91
1021.21	-4.01
1021.634	-6.71
1022.058	2.99
1022.483	0.79
1022.907	-3.91
1023.331	-6.21
1023.755	-5.61
1024.179	-4.11
1024.604	-4.71
1025.028	-4.31
1025.452	-6.61
1025.876	0.09
1026.3	-0.31
1026.724	-11.91
1027.148	-4.71
1027.572	-8.51
1027.996	0.19
1028.42	2.79
1028.843	-0.71
1029.267	-5.81
1029.691	-0.81
1030.115	-10.11
1030.539	0.99
1030.962	-11.11
1031.386	-13.11
1031.81	-0.41
1032.233	-1.01
1032.657	-1.81
1033.08	-0.71
1033.504	-3.01
1033.927	-1.41
1034.351	1.49
1034.774	-4.51
1035.198	-1.41
1035.621	-10.81
1036.045	-6.01
1036.468	1.39
1036.891	-11.31
1037.315	-3.91
1037.738	-11.11
1038.161	-2.01
1038.584	-8.01
1039.008	-5.11
1039.431	1.69
1039.854	3.39
1040.277	-12.31
1040.7	-14.51
1041.123	1.59
1041.546	-9.21
1041.969	-4.21
1042.392	-2.01
1042.815	-3.41
1043.238	0.19
1043.661	2.69
1044.084	-10.81
1044.507	-0.61
1044.93	-4.91
1045.352	-10.41
1045.775	-3.31
1046.198	-5.31
1046.621	-2.21
1047.043	1.29
1047.466	10.09
1047.889	1.19
1048.311	-4.61
1048.734	-0.31
1049.156	3.89
1049.579	-2.81
1050.001	-2.21
1050.424	-8.11
1050.846	-4.11
1051.269	-5.31
1051.691	-3.81
1052.113	-7.11
1052.536	0.49
1052.958	-5.11
1053.38	-4.51
1053.802	-13.31
1054.225	3.49
1054.647	-13.71
1055.069	-5.31
1055.491	-1.51
1055.913	-8.31
1056.335	-3.61
1056.757	-4.91
1057.179	0.39
1057.601	-6.21
1058.023	1.19
1058.445	-1.21
1058.867	-2.21
1059.289	-6.11
1059.711	-7.61
1060.133	-3.11
1060.555	-5.91
1060.976	-4.01
1061.398	-1.31
1061.82	-1.01
1062.241	-4.01
1062.663	-0.11
1063.085	-7.41
1063.506	-2.91
1063.928	-7.51
1064.35	-3.21
1064.771	-9.91
1065.193	-3.61
1065.614	-1.61
1066.035	-6.41
1066.457	0.69
1066.878	2.79
1067.3	-4.61
1067.721	-6.91
1068.142	-4.31
1068.564	-2.41
1068.985	-8.71
1069.406	-2.71
1069.827	-3.71
1070.248	-0.91
1070.67	-9.71
1071.091	-4.11
1071.512	-4.61
1071.933	-6.71
1072.354	-9.21
1072.775	-8.11
1073.196	-4.41
1073.617	-2.11
1074.038	-4.81
1074.459	-4.21
1074.88	-5.91
1075.3	-0.51
1075.721	-2.61
1076.142	-5.01
1076.563	-1.41
1076.983	-14.51
1077.404	-6.01
1077.825	-14.11
1078.246	-7.51
1078.666	-12.01
1079.087	-5.31
1079.507	-7.81
1079.928	-3.01
1080.348	1.29
1080.769	-3.91
1081.189	-4.31
1081.61	-2.71
1082.03	-9.31
1082.451	-7.11
1082.871	-5.81
1083.291	-6.11
1083.711	-8.01
1084.132	-6.21
1084.552	-2.01
1084.972	-3.61
1085.392	-13.31
1085.813	-11.81
1086.233	-5.91
1086.653	-6.31
1087.073	-5.01
1087.493	-6.91
1087.913	-9.91
1088.333	-4.11
1088.753	-0.31
1089.173	0.79
1089.593	-4.71
1090.013	2.39
1090.433	-0.91
1090.852	0.19
1091.272	2.39
1091.692	-1.31
1092.112	-6.41
1092.531	-8.31
1092.951	-13.31
1093.371	-8.51
1093.79	3.79
1094.21	-7.61
1094.63	-5.81
1095.049	-8.01
1095.469	-0.41
1095.888	-6.71
1096.308	0.09
1096.727	7.49
1097.146	-9.61
1097.566	2.39
1097.985	-4.71
1098.405	-5.91
1098.824	-9.11
1099.243	-9.31
1099.662	-9.61
1100.082	-8.71
1100.501	-1.91
1100.92	-9.41
1101.339	-4.21
1101.758	-8.51
