Data from 20171114-ORNL-Ar_H_NY_Subt18_08-08-52-537.txt Node
Date: Tue Nov 14 08:08:52 EST 2017
User: Ender
Spectrometer: HR+D1039
Trigger mode: 0
Integration Time (sec): 2.730000E-2
Scans to average: 10
Electric dark correction enabled: true
Nonlinearity correction enabled: false
Boxcar width: 0
XAxis mode: Wavelengths
Number of Pixels in Spectrum: 2048
>>>>>Begin Spectral Data<<<<<
187.836	-5.08
188.309	-5.08
188.782	-5.08
189.255	2.62
189.728	-4.88
190.201	5.72
190.674	1.02
191.147	2.92
191.619	-7.18
192.092	2.12
192.565	9.32
193.038	2.62
193.511	-1.08
193.984	-4.98
194.456	0.42
194.929	0.02
195.402	-0.78
195.874	-2.78
196.347	-0.58
196.82	-3.98
197.292	2.72
197.765	-1.88
198.237	-5.98
198.71	0.52
199.182	0.02
199.655	4.12
200.127	4.22
200.6	-7.58
201.072	-7.08
201.544	-4.98
202.017	-0.98
202.489	1.12
202.961	-2.18
203.433	-4.28
203.906	-9.08
204.378	-9.18
204.85	-1.38
205.322	-5.68
205.794	-1.08
206.266	-1.78
206.739	-13.08
207.211	3.02
207.683	-9.18
208.155	-7.18
208.627	-6.88
209.099	0.62
209.57	-7.18
210.042	-3.28
210.514	-4.68
210.986	-8.38
211.458	-11.38
211.93	-4.48
212.402	-1.38
212.873	-6.68
213.345	-11.78
213.817	-15.98
214.288	-8.68
214.76	-11.38
215.232	-3.38
215.703	1.82
216.175	-3.78
216.646	-0.08
217.118	-7.58
217.589	-5.18
218.061	-1.98
218.532	-4.58
219.004	-1.88
219.475	-1.68
219.946	-1.48
220.418	-8.28
220.889	0.72
221.36	-5.98
221.832	-5.78
222.303	-7.38
222.774	-0.08
223.245	-8.18
223.717	-8.08
224.188	-3.78
224.659	-9.38
225.13	-4.28
225.601	-2.68
226.072	-0.78
226.543	1.12
227.014	-3.58
227.485	-5.28
227.956	-4.88
228.427	-0.38
228.898	-3.88
229.369	-0.08
229.839	-2.08
230.31	-6.08
230.781	1.52
231.252	-5.88
231.722	-8.08
232.193	-5.08
232.664	-2.98
233.135	-2.48
233.605	-3.68
234.076	-12.98
234.546	0.92
235.017	3.82
235.487	-0.48
235.958	-3.88
236.428	-3.58
236.899	0.22
237.369	-5.38
237.84	-0.18
238.31	0.72
238.78	-0.28
239.251	-2.68
239.721	-6.58
240.191	-3.18
240.662	-4.88
241.132	-2.88
241.602	-2.68
242.072	-1.58
242.542	0.32
243.013	-5.48
243.483	2.32
243.953	0.52
244.423	-4.48
244.893	-5.58
245.363	0.22
245.833	1.42
246.303	-4.28
246.773	2.42
247.243	0.42
247.712	-4.68
248.182	2.92
248.652	2.92
249.122	-10.78
249.592	5.02
250.061	9.02
250.531	18.22
251.001	-1.88
251.471	7.32
251.94	11.62
252.41	1.42
252.879	-3.48
253.349	0.02
253.818	3.82
254.288	-7.98
254.757	1.12
255.227	-3.38
255.696	-1.78
256.166	5.22
256.635	-0.68
257.105	4.62
257.574	-4.58
258.043	4.92
258.513	0.22
258.982	4.12
259.451	-1.88
259.92	3.52
260.389	1.02
260.859	12.92
261.328	8.02
261.797	6.92
262.266	-0.68
262.735	4.82
263.204	1.12
263.673	-4.78
264.142	2.72
264.611	-6.28
265.08	-9.08
265.549	-5.98
266.018	-5.28
266.487	-2.88
266.955	-6.88
267.424	0.22
267.893	7.62
268.362	-3.78
268.83	-6.38
269.299	2.82
269.768	2.62
270.236	-0.88
270.705	-1.18
271.174	-3.68
271.642	-4.48
272.111	-1.18
272.579	7.22
273.048	9.82
273.516	5.32
273.985	12.72
274.453	7.42
274.922	8.42
275.39	3.42
275.858	2.42
276.327	-0.98
276.795	13.12
277.263	1.02
277.731	14.22
278.2	28.72
278.668	22.62
279.136	32.52
279.604	4.52
280.072	9.12
280.54	-0.48
281.008	3.42
281.477	9.42
281.945	-2.18
282.413	8.12
282.881	5.92
283.348	2.72
283.816	5.92
284.284	4.42
284.752	11.82
285.22	5.02
285.688	12.92
286.156	12.12
286.623	29.42
287.091	20.42
287.559	14.42
288.026	6.12
288.494	5.32
288.962	-8.28
289.429	2.72
289.897	6.72
290.364	5.52
290.832	13.62
291.3	11.72
291.767	13.32
292.234	12.02
292.702	5.82
293.169	12.12
293.637	18.52
294.104	9.32
294.571	1.52
295.039	5.92
295.506	1.72
295.973	12.62
296.44	8.42
296.908	14.02
297.375	9.62
297.842	15.72
298.309	7.52
298.776	7.82
299.243	15.32
299.71	2.62
300.177	15.32
300.644	14.62
301.111	16.32
301.578	14.42
302.045	13.22
302.512	13.02
302.979	18.12
303.446	18.02
303.913	11.82
304.379	12.42
304.846	17.32
305.313	12.52
305.78	13.72
306.246	15.12
306.713	14.62
307.18	14.72
307.646	12.42
308.113	16.82
308.579	15.52
309.046	19.02
309.512	21.52
309.979	9.12
310.445	20.22
310.912	21.72
311.378	21.12
311.845	19.92
312.311	20.72
312.777	21.12
313.244	23.02
313.71	27.42
314.176	18.92
314.642	21.32
315.109	14.92
315.575	22.32
316.041	28.82
316.507	17.92
316.973	27.62
317.439	19.92
317.905	25.82
318.371	16.82
318.837	29.52
319.303	24.42
319.769	23.42
320.235	22.02
320.701	26.22
321.167	22.72
321.633	20.22
322.099	26.72
322.564	24.72
323.03	31.42
323.496	28.32
323.962	32.22
324.427	31.22
324.893	36.32
325.359	24.52
325.824	26.02
326.29	26.92
326.755	26.12
327.221	27.32
327.686	24.22
328.152	39.42
328.617	28.12
329.083	32.42
329.548	37.12
330.014	29.22
330.479	32.42
330.944	34.22
331.41	29.32
331.875	28.82
332.34	31.02
332.805	29.32
333.271	36.72
333.736	35.22
334.201	35.92
334.666	39.72
335.131	42.42
335.596	39.62
336.061	38.42
336.526	25.72
336.991	33.02
337.456	43.52
337.921	35.92
338.386	29.92
338.851	35.52
339.316	37.02
339.781	32.32
340.246	46.82
340.711	34.82
341.175	39.72
341.64	28.82
342.105	43.62
342.569	39.02
343.034	48.92
343.499	44.12
343.963	40.32
344.428	50.02
344.893	51.52
345.357	51.52
345.822	49.92
346.286	51.42
346.751	50.22
347.215	52.12
347.679	52.02
348.144	76.82
348.608	66.82
349.073	59.52
349.537	56.92
350.001	60.92
350.465	70.42
350.93	61.72
351.394	62.12
351.858	52.42
352.322	74.42
352.786	62.92
353.25	83.72
353.715	85.52
354.179	81.42
354.643	97.62
355.107	96.22
355.571	78.12
356.035	84.62
356.498	93.32
356.962	95.32
357.426	100.82
357.89	87.62
358.354	71.02
358.818	68.12
359.281	61.52
359.745	62.72
360.209	63.62
360.673	63.52
361.136	59.32
361.6	73.32
362.064	69.42
362.527	69.72
362.991	80.22
363.454	63.32
363.918	64.92
364.381	68.62
364.845	66.72
365.308	74.22
365.772	77.52
366.235	67.22
366.698	65.32
367.162	70.92
367.625	63.52
368.088	75.32
368.552	72.62
369.015	77.42
369.478	83.22
369.941	90.92
370.404	80.82
370.867	87.12
371.331	92.12
371.794	89.92
372.257	85.02
372.72	88.72
373.183	95.12
373.646	82.92
374.109	76.62
374.572	93.12
375.035	88.82
375.497	90.42
375.96	84.92
376.423	85.02
376.886	92.62
377.349	92.82
377.811	87.82
378.274	93.52
378.737	90.12
379.199	93.52
379.662	96.12
380.125	101.62
380.587	100.72
381.05	99.02
381.512	105.52
381.975	111.22
382.437	105.52
382.9	99.82
383.362	110.02
383.825	120.92
384.287	117.02
384.75	118.22
385.212	115.12
385.674	119.62
386.136	115.82
386.599	108.92
387.061	104.92
387.523	110.82
387.985	115.72
388.447	120.32
388.91	122.52
389.372	132.12
389.834	129.42
390.296	125.92
390.758	133.62
391.22	139.42
391.682	164.62
392.144	219.32
392.606	174.42
393.068	143.62
393.529	146.52
393.991	134.72
394.453	117.62
394.915	134.42
395.377	150.32
395.838	167.12
396.3	135.52
396.762	129.02
397.224	121.82
397.685	119.52
398.147	121.92
398.608	117.32
399.07	128.72
399.531	124.62
399.993	135.22
400.454	134.12
400.916	134.72
401.377	131.22
401.839	139.32
402.3	132.32
402.762	149.82
403.223	165.72
403.684	153.12
404.145	143.12
404.607	139.62
405.068	150.22
405.529	156.02
405.99	170.32
406.451	157.42
406.913	166.62
407.374	149.02
407.835	145.72
408.296	149.92
408.757	151.02
409.218	171.92
409.679	162.32
410.14	160.92
410.601	163.82
411.062	162.12
411.522	168.82
411.983	166.62
412.444	160.92
412.905	169.22
413.366	168.92
413.826	182.12
414.287	197.42
414.748	252.62
415.208	229.22
415.669	196.02
416.13	198.82
416.59	195.92
417.051	204.12
417.511	201.92
417.972	221.72
418.432	225.72
418.893	267.62
419.353	238.22
419.814	190.32
420.274	175.02
420.734	171.12
421.195	189.62
421.655	186.02
422.115	181.92
422.576	180.22
423.036	189.32
423.496	190.72
423.956	209.72
424.416	211.62
424.876	248.32
425.336	234.52
425.797	245.12
426.257	237.52
426.717	223.12
427.177	215.12
427.637	209.22
428.097	222.22
428.556	228.02
429.016	256.12
429.476	241.62
429.936	255.92
430.396	254.02
430.856	268.82
431.315	289.62
431.775	321.12
432.235	358.52
432.694	322.92
433.154	344.32
433.614	357.42
434.073	314.62
434.533	264.12
434.993	249.32
435.452	262.72
435.912	271.32
436.371	272.22
436.83	261.32
437.29	251.42
437.749	229.62
438.209	234.82
438.668	265.22
439.127	262.92
439.587	254.32
440.046	228.62
440.505	243.92
440.964	252.92
441.424	300.22
441.883	296.62
442.342	250.92
442.801	213.12
443.26	212.82
443.719	208.42
444.178	211.32
444.637	204.42
445.096	218.82
445.555	210.82
446.014	207.32
446.473	216.22
446.932	224.02
447.391	217.62
447.849	216.72
448.308	206.22
448.767	213.72
449.226	226.12
449.685	220.82
450.143	239.42
450.602	229.32
451.061	224.92
451.519	226.12
451.978	226.42
452.436	221.92
452.895	228.82
453.353	236.92
453.812	236.62
454.27	223.12
454.729	235.02
455.187	224.92
455.646	237.02
456.104	234.82
456.562	247.62
457.021	263.12
457.479	250.52
457.937	268.52
458.395	250.52
458.854	247.82
459.312	248.82
459.77	266.42
460.228	245.82
460.686	231.52
461.144	245.32
461.602	237.12
462.06	238.02
462.518	244.12
462.976	243.42
463.434	247.62
463.892	256.22
464.35	264.22
464.808	273.52
465.266	252.72
465.724	255.62
466.181	266.52
466.639	258.82
467.097	280.62
467.555	291.32
468.012	289.22
468.47	299.72
468.928	316.42
469.385	328.42
469.843	328.02
470.3	336.72
470.758	344.72
471.215	374.12
471.673	390.62
472.13	385.22
472.588	400.02
473.045	365.22
473.503	372.12
473.96	380.62
474.417	386.42
474.875	414.12
475.332	458.92
475.789	445.82
476.246	458.72
476.704	469.32
477.161	488.12
477.618	502.12
478.075	538.52
478.532	591.12
478.989	653.82
479.446	768.22
479.903	732.22
480.36	769.52
480.817	818.52
481.274	900.92
481.731	994.02
482.188	1069.32
482.645	1191.62
483.102	1284.62
483.558	1405.02
484.015	1434.92
484.472	1424.22
484.929	1381.52
485.385	1341.82
485.842	1299.62
486.299	1250.12
486.755	1198.62
487.212	1015.42
487.668	870.22
488.125	804.02
488.582	742.02
489.038	698.42
489.494	677.72
489.951	654.42
490.407	636.52
490.864	621.52
491.32	611.12
491.776	616.32
492.233	621.12
492.689	577.22
493.145	583.72
493.602	568.52
494.058	592.32
494.514	592.72
494.97	616.82
495.426	616.52
495.882	596.82
496.338	581.62
496.794	601.12
497.251	578.32
497.707	594.92
498.163	605.72
498.618	603.92
499.074	619.12
499.53	647.82
499.986	646.52
500.442	626.32
500.898	607.92
501.354	597.42
501.809	606.82
502.265	616.72
502.721	621.92
503.177	642.52
503.632	629.32
504.088	638.82
504.543	676.32
504.999	670.42
505.455	630.42
505.91	615.52
506.366	613.82
506.821	610.12
507.277	608.52
507.732	609.72
508.187	613.92
508.643	609.62
509.098	622.02
509.553	636.82
510.009	646.02
510.464	641.52
510.919	659.72
511.375	670.42
511.83	683.72
512.285	703.42
512.74	736.62
513.195	760.62
513.65	738.62
514.105	736.62
514.56	743.72
515.015	761.92
515.47	784.02
515.925	763.92
516.38	760.82
516.835	763.22
517.29	766.12
517.745	750.02
518.2	736.32
518.655	726.72
519.109	712.92
519.564	717.52
520.019	705.42
520.474	707.92
520.928	698.32
521.383	704.12
521.838	686.22
522.292	689.82
522.747	691.82
523.201	693.12
523.656	685.72
524.11	678.32
524.565	681.32
525.019	682.82
525.474	679.12
525.928	674.82
526.382	677.12
526.837	681.32
527.291	687.32
527.745	675.22
528.2	676.52
528.654	672.32
529.108	669.22
529.562	671.42
530.016	671.72
530.47	672.32
530.925	670.32
531.379	679.12
531.833	677.72
532.287	685.82
532.741	691.42
533.195	677.32
533.649	683.82
534.103	696.62
534.556	689.52
535.01	688.92
535.464	688.02
535.918	694.42
536.372	699.02
536.826	697.82
537.279	691.32
537.733	694.62
538.187	686.62
538.64	699.02
539.094	711.62
539.548	713.12
540.001	708.12
540.455	698.82
540.908	713.42
541.362	721.22
541.815	725.72
542.269	745.12
542.722	742.12
543.175	752.42
543.629	755.22
544.082	765.82
544.536	777.62
544.989	763.22
545.442	773.92
545.895	780.82
546.349	782.42
546.802	786.62
547.255	780.52
547.708	791.62
548.161	792.72
548.614	812.12
549.067	806.62
549.52	802.02
549.973	789.02
550.426	783.22
550.879	784.22
551.332	782.32
551.785	783.72
552.238	790.82
552.691	801.72
553.144	806.62
553.596	836.32
554.049	849.62
554.502	863.22
554.955	881.32
555.407	881.62
555.86	884.92
556.313	864.02
556.765	857.82
557.218	869.62
557.67	860.32
558.123	862.12
558.576	845.42
559.028	864.62
559.48	866.32
559.933	852.72
560.385	817.52
560.838	794.72
561.29	776.52
561.742	768.42
562.195	757.82
562.647	748.22
563.099	760.02
563.551	753.52
564.004	768.92
564.456	756.22
564.908	744.02
565.36	726.12
565.812	714.22
566.264	711.42
566.716	700.22
567.168	700.82
567.62	695.82
568.072	691.52
568.524	685.12
568.976	679.22
569.428	665.22
569.88	661.82
570.332	673.02
570.784	671.82
571.235	676.02
571.687	681.92
572.139	690.82
572.59	697.52
573.042	699.82
573.494	702.22
573.945	691.22
574.397	672.22
574.849	677.52
575.3	680.72
575.752	670.52
576.203	666.62
576.655	678.02
577.106	662.62
577.557	658.02
578.009	655.32
578.46	658.52
578.912	647.62
579.363	658.62
579.814	655.92
580.265	650.22
580.717	654.62
581.168	658.12
581.619	664.22
582.07	669.82
582.521	662.62
582.972	653.72
583.423	664.22
583.875	664.32
584.326	681.52
584.777	722.72
585.227	762.92
585.678	831.12
586.129	876.32
586.58	931.02
587.031	984.32
587.482	1084.12
587.933	1198.02
588.384	1086.32
588.834	876.82
589.285	781.72
589.736	760.92
590.186	761.32
590.637	759.72
591.088	740.52
591.538	731.62
591.989	722.02
592.439	713.82
592.89	706.02
593.34	702.72
593.791	693.32
594.241	686.42
594.692	700.72
595.142	687.32
595.593	692.52
596.043	704.22
596.493	696.32
596.943	705.72
597.394	710.02
597.844	706.42
598.294	719.82
598.744	763.12
599.195	779.12
599.645	813.12
600.095	848.72
600.545	909.62
600.995	957.92
601.445	1009.52
601.895	1079.72
602.345	1111.62
602.795	1086.12
603.245	1063.52
603.695	997.22
604.145	936.12
604.594	897.22
605.044	840.22
605.494	792.62
605.944	743.82
606.393	731.12
606.843	718.92
607.293	724.62
607.743	723.02
608.192	737.62
608.642	750.22
609.091	757.02
609.541	764.62
609.99	754.72
610.44	758.92
610.889	717.82
611.339	688.32
611.788	682.22
612.238	682.02
612.687	715.92
613.136	701.32
613.586	715.02
614.035	708.42
614.484	721.42
614.933	720.62
615.383	719.72
615.832	718.12
616.281	703.22
616.73	674.22
617.179	656.32
617.628	643.92
618.077	632.42
618.526	617.92
618.975	611.92
619.424	610.42
619.873	611.52
620.322	613.22
620.771	603.52
621.22	593.02
621.669	590.32
622.118	584.92
622.567	577.62
623.015	562.22
623.464	560.82
623.913	556.22
624.361	548.02
624.81	553.02
625.259	550.62
625.707	551.92
626.156	543.82
626.604	558.62
627.053	556.02
627.501	561.12
627.95	561.62
628.398	571.82
628.847	565.12
629.295	574.32
629.744	571.22
630.192	574.62
630.64	559.42
631.089	553.72
631.537	558.42
631.985	561.12
632.433	568.52
632.881	568.62
633.33	603.12
633.778	587.82
634.226	548.32
634.674	549.62
635.122	553.82
635.57	572.32
636.018	589.42
636.466	573.12
636.914	552.22
637.362	566.62
637.81	566.12
638.258	574.52
638.705	580.02
639.153	617.32
639.601	617.72
640.049	641.32
640.497	666.02
640.944	688.22
641.392	644.42
641.84	610.42
642.287	580.02
642.735	560.82
643.182	563.72
643.63	563.52
644.078	572.12
644.525	582.02
644.973	586.12
645.42	603.02
645.867	615.22
646.315	637.52
646.762	661.62
647.21	685.22
647.657	704.52
648.104	741.02
648.551	757.42
648.999	815.02
649.446	899.32
649.893	992.42
650.34	1136.52
650.787	1350.32
651.234	1670.22
651.682	2170.02
652.129	2968.22
652.576	4267.22
653.023	6270.62
653.47	8526.82
653.917	10555.42
654.363	12018.72
654.81	13233.02
655.257	12559.62
655.704	8245.92
656.151	4923.82
656.598	3210.12
657.044	2298.72
657.491	1780.12
657.938	1421.62
658.385	1195.32
658.831	1049.52
659.278	934.22
659.724	831.92
660.171	768.02
660.618	707.32
661.064	674.72
661.511	652.52
661.957	647.42
662.404	637.82
662.85	643.82
663.296	612.62
663.743	544.42
664.189	536.22
664.635	522.32
665.082	537.42
665.528	520.72
665.974	511.82
666.42	507.92
666.867	503.02
667.313	483.92
667.759	475.42
668.205	460.62
668.651	460.12
669.097	467.32
669.543	472.92
669.989	453.22
670.435	447.82
670.881	447.52
671.327	438.32
671.773	464.32
672.219	501.42
672.665	551.82
673.11	592.42
673.556	629.12
674.002	670.42
674.448	656.82
674.893	550.32
675.339	478.62
675.785	442.32
676.23	420.02
676.676	390.52
677.122	384.02
677.567	368.82
678.013	366.62
678.458	358.32
678.904	364.02
679.349	348.92
679.794	359.82
680.24	358.92
680.685	341.62
681.131	352.32
681.576	341.02
682.021	358.72
682.466	345.52
682.912	343.32
683.357	346.52
683.802	375.72
684.247	413.92
684.692	455.92
685.137	502.62
685.583	535.22
686.028	558.92
686.473	514.82
686.918	446.62
687.363	421.82
687.807	388.42
688.252	362.82
688.697	346.72
689.142	334.12
689.587	330.02
690.032	327.92
690.477	352.32
690.921	350.32
691.366	382.12
691.811	401.42
692.255	428.92
692.7	461.02
693.145	518.42
693.589	729.22
694.034	1190.62
694.478	1569.82
694.923	1724.52
695.367	2224.92
695.812	1200.22
696.256	503.82
696.701	372.52
697.145	349.92
697.59	324.12
698.034	321.52
698.478	328.22
698.922	329.22
699.367	325.12
699.811	345.92
700.255	362.02
700.699	381.82
701.143	427.92
701.588	476.02
702.032	519.02
702.476	514.12
702.92	489.52
703.364	500.32
703.808	660.12
704.252	1081.42
704.696	1500.02
705.14	1691.02
705.584	2115.62
706.027	1066.62
706.471	523.32
706.915	403.22
707.359	353.42
707.803	315.62
708.246	310.32
708.69	312.42
709.134	316.82
709.577	306.02
710.021	318.22
710.465	304.32
710.908	298.92
711.352	304.42
711.795	315.72
712.239	355.42
712.682	381.82
713.126	422.42
713.569	460.72
714.012	363.12
714.456	317.52
714.899	296.72
715.342	272.52
715.786	269.52
716.229	267.22
716.672	251.42
717.115	252.52
717.558	250.72
718.002	257.32
718.445	267.12
718.888	284.82
719.331	291.02
719.774	308.22
720.217	303.02
720.66	282.22
721.103	270.62
721.546	252.62
721.989	248.42
722.432	233.12
722.874	240.22
723.317	227.72
723.76	238.82
724.203	265.02
724.645	326.92
725.088	456.92
725.531	574.52
725.974	645.02
726.416	547.72
726.859	312.72
727.301	251.62
727.744	239.22
728.187	236.72
728.629	242.92
729.071	247.62
729.514	255.02
729.956	272.12
730.399	287.22
730.841	293.32
731.283	275.72
731.726	265.12
732.168	264.82
732.61	271.42
733.053	288.72
733.495	318.82
733.937	357.02
734.379	399.62
734.821	449.22
735.263	566.32
735.705	886.72
736.148	1669.72
736.59	2657.92
737.032	3037.82
737.474	2472.52
737.916	824.62
738.357	430.92
738.799	336.62
739.241	301.52
739.683	287.12
740.125	299.92
740.567	295.62
741.008	317.62
741.45	320.72
741.892	322.52
742.334	356.92
742.775	365.82
743.217	339.42
743.658	276.42
744.1	253.52
744.542	268.12
744.983	318.12
745.425	348.62
745.866	359.02
746.307	283.22
746.749	291.02
747.19	327.22
747.632	475.22
748.073	941.32
748.514	1957.82
748.956	2899.12
749.397	3667.82
749.838	3037.92
750.279	2945.52
750.72	1505.12
751.162	556.22
751.603	328.22
752.044	254.52
752.485	213.82
752.926	214.62
753.367	203.52
753.808	192.82
754.249	188.72
754.69	190.52
755.131	184.92
755.572	189.52
756.013	179.92
756.453	183.22
756.894	190.12
757.335	185.02
757.776	196.72
758.216	198.92
758.657	204.42
759.098	206.32
759.538	228.22
759.979	272.22
760.42	393.92
760.86	755.82
761.301	1968.22
761.741	4635.72
762.182	6407.72
762.622	4499.82
763.063	1335.52
763.503	552.32
763.943	342.52
764.384	314.72
764.824	332.82
765.264	350.62
765.705	261.12
766.145	196.22
766.585	184.62
767.025	170.82
767.465	180.92
767.906	218.42
768.346	265.02
768.786	288.92
769.226	249.62
769.666	326.82
770.106	657.02
770.546	1653.32
770.986	2652.92
771.426	2351.12
771.866	796.32
772.306	336.72
772.745	205.62
773.185	172.72
773.625	170.02
774.065	155.82
774.505	186.32
774.944	267.92
775.384	542.62
775.824	914.52
776.263	876.82
776.703	391.92
777.142	191.42
777.582	143.72
778.021	131.02
778.461	129.62
778.9	130.72
779.34	134.62
779.779	116.52
780.219	105.62
780.658	107.42
781.097	115.52
781.537	120.12
781.976	105.72
782.415	106.72
782.855	100.52
783.294	108.92
783.733	104.92
784.172	111.62
784.611	105.32
785.05	108.32
785.489	113.62
785.928	118.02
786.367	121.62
786.806	116.82
787.245	131.12
787.684	133.72
788.123	142.92
788.562	129.42
789.001	123.42
789.44	123.62
789.879	120.02
790.317	122.22
790.756	131.72
791.195	131.42
791.634	155.62
792.072	207.52
792.511	384.52
792.95	1073.52
793.388	2161.42
793.827	1899.12
794.265	675.12
794.704	291.92
795.142	190.82
795.581	148.22
796.019	135.72
796.458	133.22
796.896	120.62
797.334	130.22
797.773	156.52
798.211	232.62
798.649	468.62
799.087	1050.22
799.526	1640.42
799.964	2064.82
800.402	2003.02
800.84	763.52
801.278	306.82
801.716	188.72
802.154	154.02
802.592	145.52
803.03	147.32
803.468	139.82
803.906	150.32
804.344	153.12
804.782	138.92
805.22	137.32
805.658	135.12
806.096	151.02
806.533	151.32
806.971	182.92
807.409	223.12
807.847	326.32
808.284	715.92
808.722	1945.22
809.16	3333.32
809.597	3285.42
810.035	5554.42
810.472	5701.32
810.91	2116.12
811.347	819.02
811.785	412.52
812.222	263.42
812.66	193.62
813.097	169.52
813.535	142.12
813.972	132.02
814.409	116.32
814.846	108.72
815.284	108.42
815.721	104.12
816.158	109.12
816.595	115.72
817.032	163.62
817.47	190.72
817.907	141.42
818.344	124.22
818.781	108.02
819.218	98.82
819.655	127.32
820.092	191.12
820.529	217.12
820.966	173.32
821.403	127.62
821.839	106.02
822.276	95.92
822.713	123.92
823.15	137.92
823.587	120.12
824.023	147.52
824.46	324.32
824.897	938.52
825.333	1351.32
825.77	586.52
826.206	232.42
826.643	144.52
827.08	97.22
827.516	81.62
827.953	79.62
828.389	74.92
828.825	75.82
829.262	64.72
829.698	63.42
830.135	61.02
830.571	61.22
831.007	60.62
831.443	68.02
831.88	57.02
832.316	56.42
832.752	62.32
833.188	65.32
833.624	66.92
834.06	64.92
834.497	71.62
834.933	73.32
835.369	76.52
835.805	67.32
836.241	80.52
836.677	77.62
837.112	90.22
837.548	106.12
837.984	131.92
838.42	212.92
838.856	529.52
839.292	1571.62
839.727	2293.42
840.163	1090.22
840.599	975.02
841.034	2080.62
841.47	2097.92
841.906	777.62
842.341	336.32
842.777	221.52
843.212	268.32
843.648	252.52
844.083	134.32
844.519	93.52
844.954	72.72
845.39	62.62
845.825	61.22
846.261	60.02
846.696	55.42
847.131	60.42
847.566	60.72
848.002	58.72
848.437	53.02
848.872	63.32
849.307	61.52
849.742	87.82
850.177	195.62
850.613	586.32
851.048	879.72
851.483	375.52
851.918	155.02
852.353	82.92
852.788	57.32
853.223	55.92
853.657	55.22
854.092	44.22
854.527	35.62
854.962	44.12
855.397	43.72
855.832	52.82
856.266	37.22
856.701	35.72
857.136	38.62
857.57	41.22
858.005	53.22
858.44	61.02
858.874	43.32
859.309	49.22
859.743	37.32
860.178	49.12
860.612	47.52
861.047	51.82
861.481	69.62
861.915	74.22
862.35	55.82
862.784	35.92
863.218	35.62
863.653	37.72
864.087	48.92
864.521	55.12
864.955	76.42
865.39	152.52
865.824	174.62
866.258	114.52
866.692	172.52
867.126	170.92
867.56	111.42
867.994	58.12
868.428	36.12
868.862	48.92
869.296	53.62
869.73	60.72
870.164	55.12
870.598	46.42
871.031	38.92
871.465	28.92
871.899	31.02
872.333	24.52
872.766	27.02
873.2	25.02
873.634	32.42
874.067	23.82
874.501	28.62
874.935	34.22
875.368	29.22
875.802	28.12
876.235	23.62
876.669	25.22
877.102	21.32
877.535	26.42
877.969	23.02
878.402	30.52
878.836	12.92
879.269	21.72
879.702	22.92
880.135	23.22
880.569	24.72
881.002	26.12
881.435	22.02
881.868	15.42
882.301	25.32
882.734	15.92
883.167	22.12
883.601	22.62
884.034	20.62
884.467	16.12
884.899	21.62
885.332	17.52
885.765	12.22
886.198	12.72
886.631	16.22
887.064	17.22
887.497	19.92
887.929	22.82
888.362	14.82
888.795	13.22
889.228	22.62
889.66	17.82
890.093	19.12
890.526	13.42
890.958	16.82
891.391	17.72
891.823	23.92
892.256	16.22
892.688	9.62
893.121	16.42
893.553	12.82
893.985	20.92
894.418	18.92
894.85	14.92
895.282	14.82
895.715	13.22
896.147	21.92
896.579	17.22
897.011	14.32
897.444	12.92
897.876	16.32
898.308	16.72
898.74	19.72
899.172	6.92
899.604	26.32
900.036	24.82
900.468	16.12
900.9	17.42
901.332	18.02
901.764	17.22
902.196	16.12
902.628	17.42
903.06	12.92
903.491	32.82
903.923	27.22
904.355	21.62
904.787	23.92
905.218	28.72
905.65	26.22
906.082	9.22
906.513	12.02
906.945	13.42
907.376	18.32
907.808	19.32
908.239	21.22
908.671	25.92
909.102	15.12
909.534	27.32
909.965	49.72
910.397	97.12
910.828	315.72
911.259	471.82
911.691	217.32
912.122	105.92
912.553	51.72
912.984	27.62
913.415	25.72
913.847	25.12
914.278	15.12
914.709	15.22
915.14	24.22
915.571	16.52
916.002	10.52
916.433	17.32
916.864	14.42
917.295	13.32
917.726	18.62
918.157	18.52
918.587	29.22
919.018	23.22
919.449	16.42
919.88	25.72
920.311	38.42
920.741	50.82
921.172	173.82
921.603	143.22
922.033	70.72
922.464	44.32
922.895	20.72
923.325	15.22
923.756	10.92
924.186	13.02
924.617	17.12
925.047	29.52
925.478	37.32
925.908	42.62
926.338	20.02
926.769	16.32
927.199	20.02
927.629	6.72
928.06	15.02
928.49	16.12
928.92	16.52
929.35	10.52
929.78	14.42
930.21	11.02
930.641	6.92
931.071	5.22
931.501	2.62
931.931	5.62
932.361	3.82
932.791	1.72
933.221	5.82
933.651	7.42
934.08	15.32
934.51	35.82
934.94	5.62
935.37	12.42
935.8	9.12
936.229	5.32
936.659	8.82
937.089	-1.08
937.519	12.22
937.948	20.22
938.378	12.02
938.807	7.02
939.237	4.22
939.666	8.32
940.096	-4.68
940.525	1.62
940.955	1.82
941.384	1.52
941.814	-8.48
942.243	-2.68
942.672	8.02
943.102	1.82
943.531	1.52
943.96	4.82
944.39	-2.78
944.819	-0.68
945.248	-2.58
945.677	-5.78
946.106	8.92
946.535	-0.38
946.964	5.42
947.393	-0.18
947.822	-2.58
948.251	-6.08
948.68	7.32
949.109	9.42
949.538	1.72
949.967	-1.38
950.396	-2.58
950.825	6.02
951.254	1.02
951.682	-3.98
952.111	3.62
952.54	2.42
952.969	-1.98
953.397	-12.18
953.826	1.42
954.254	-10.08
954.683	6.62
955.112	-3.28
955.54	-3.58
955.969	3.42
956.397	0.52
956.826	-5.98
957.254	4.22
957.682	3.82
958.111	3.12
958.539	-0.28
958.967	-4.38
959.396	-2.58
959.824	1.52
960.252	4.12
960.68	-4.48
961.109	-11.48
961.537	0.32
961.965	0.02
962.393	0.42
962.821	-4.38
963.249	-0.98
963.677	1.02
964.105	1.92
964.533	48.52
964.961	43.82
965.389	26.02
965.817	11.02
966.245	4.82
966.672	3.42
967.1	-8.38
967.528	-3.08
967.956	-7.98
968.383	1.32
968.811	-7.88
969.239	1.02
969.666	-4.98
970.094	0.72
970.522	-0.68
970.949	-0.48
971.377	-1.08
971.804	-7.88
972.232	1.02
972.659	3.12
973.087	1.32
973.514	-5.98
973.941	0.92
974.369	7.12
974.796	0.02
975.223	-2.18
975.651	-3.48
976.078	3.82
976.505	-5.88
976.932	7.42
977.359	13.92
977.786	14.22
978.214	1.22
978.641	-3.78
979.068	-1.78
979.495	-8.08
979.922	-2.48
980.349	-10.78
980.776	4.42
981.202	-4.68
981.629	7.62
982.056	3.52
982.483	-3.18
982.91	-1.58
983.337	-8.48
983.763	4.82
984.19	-4.98
984.617	0.32
985.043	-9.78
985.47	2.52
985.897	-4.28
986.323	-9.48
986.75	-2.68
987.176	-1.58
987.603	2.32
988.029	-2.78
988.456	-3.48
988.882	0.82
989.308	-3.78
989.735	-8.48
990.161	-3.88
990.587	1.12
991.014	-0.38
991.44	5.12
991.866	-3.98
992.292	1.02
992.719	-5.18
993.145	2.02
993.571	-9.98
993.997	-1.28
994.423	3.62
994.849	-6.28
995.275	4.02
995.701	2.02
996.127	-1.98
996.553	1.82
996.979	0.62
997.405	-7.18
997.83	-4.88
998.256	-4.48
998.682	-5.58
999.108	-3.78
999.534	-4.98
999.959	-3.28
1000.385	-10.78
1000.811	2.92
1001.236	-8.38
1001.662	-4.18
1002.087	-6.58
1002.513	1.22
1002.938	4.62
1003.364	-5.08
1003.789	-4.78
1004.215	2.12
1004.64	-3.78
1005.066	-2.38
1005.491	0.52
1005.916	-0.98
1006.342	0.92
1006.767	-4.38
1007.192	2.12
1007.617	0.12
1008.042	-7.38
1008.468	-9.78
1008.893	-9.18
1009.318	-4.68
1009.743	-2.58
1010.168	5.32
1010.593	4.62
1011.018	-7.48
1011.443	-0.48
1011.868	-1.28
1012.293	2.32
1012.718	-7.78
1013.143	-2.68
1013.567	2.22
1013.992	-2.98
1014.417	-12.08
1014.842	-0.48
1015.267	-6.08
1015.691	-3.28
1016.116	6.92
1016.541	-4.38
1016.965	0.42
1017.39	-1.78
1017.814	-5.68
1018.239	-0.48
1018.663	-11.78
1019.088	-7.88
1019.512	-4.08
1019.937	0.72
1020.361	-6.88
1020.785	-5.88
1021.21	-0.88
1021.634	-1.18
1022.058	-3.48
1022.483	-3.18
1022.907	-2.98
1023.331	-5.98
1023.755	-0.78
1024.179	-3.38
1024.604	-8.28
1025.028	-6.68
1025.452	-5.48
1025.876	0.72
1026.3	1.92
1026.724	-2.88
1027.148	-7.38
1027.572	-4.18
1027.996	-4.98
1028.42	-3.58
1028.843	-1.48
1029.267	-5.88
1029.691	0.42
1030.115	-9.28
1030.539	-2.38
1030.962	-12.78
1031.386	-9.88
1031.81	-4.58
1032.233	0.72
1032.657	-2.28
1033.08	-0.68
1033.504	-3.88
1033.927	-8.18
1034.351	-3.98
1034.774	-7.38
1035.198	-1.48
1035.621	-9.48
1036.045	1.52
1036.468	-5.78
1036.891	-8.88
1037.315	-6.18
1037.738	-11.68
1038.161	-1.48
1038.584	-13.88
1039.008	-8.08
1039.431	-3.98
1039.854	-5.28
1040.277	-18.88
1040.7	-11.78
1041.123	-5.18
1041.546	-7.88
1041.969	-4.68
1042.392	-11.28
1042.815	2.92
1043.238	-1.88
1043.661	4.62
1044.084	-6.38
1044.507	-3.58
1044.93	-7.98
1045.352	-9.38
1045.775	0.52
1046.198	-1.98
1046.621	0.62
1047.043	0.12
1047.466	11.32
1047.889	-9.08
1048.311	-8.48
1048.734	-8.08
1049.156	-0.58
1049.579	-4.28
1050.001	-4.98
1050.424	3.82
1050.846	-7.28
1051.269	2.42
1051.691	-4.98
1052.113	-7.48
1052.536	-2.98
1052.958	-7.28
1053.38	-7.98
1053.802	-6.68
1054.225	4.22
1054.647	-15.48
1055.069	-6.38
1055.491	-6.38
1055.913	-11.18
1056.335	-2.48
1056.757	-2.98
1057.179	-4.48
1057.601	-7.88
1058.023	-0.78
1058.445	-7.78
1058.867	-5.38
1059.289	-9.48
1059.711	-6.28
1060.133	-3.48
1060.555	-7.18
1060.976	-3.18
1061.398	-9.08
1061.82	-6.78
1062.241	-10.28
1062.663	-9.18
1063.085	-4.18
1063.506	3.72
1063.928	-5.08
1064.35	0.12
1064.771	-7.28
1065.193	-1.38
1065.614	-5.58
1066.035	-8.08
1066.457	3.02
1066.878	-3.58
1067.3	-4.88
1067.721	-3.48
1068.142	-11.18
1068.564	-2.28
1068.985	-6.38
1069.406	-5.38
1069.827	-4.48
1070.248	-1.08
1070.67	-6.18
1071.091	-4.08
1071.512	-1.98
1071.933	-6.58
1072.354	-4.48
1072.775	-10.78
1073.196	-10.78
1073.617	-3.08
1074.038	-10.28
1074.459	-2.28
1074.88	-1.08
1075.3	-0.88
1075.721	0.12
1076.142	0.62
1076.563	-5.48
1076.983	-7.58
1077.404	-7.78
1077.825	-9.58
1078.246	-1.28
1078.666	-5.58
1079.087	-5.38
1079.507	-3.78
1079.928	-3.58
1080.348	-0.18
1080.769	-3.58
1081.189	0.62
1081.61	-5.48
1082.03	-13.18
1082.451	-11.38
1082.871	-8.08
1083.291	-8.08
1083.711	-10.38
1084.132	-7.08
1084.552	-5.98
1084.972	-5.28
1085.392	-11.88
1085.813	-16.28
1086.233	-7.78
1086.653	-9.08
1087.073	-2.28
1087.493	-6.68
1087.913	-5.08
1088.333	-6.58
1088.753	-4.48
1089.173	-0.98
1089.593	-8.78
1090.013	4.72
1090.433	-0.78
1090.852	-0.08
1091.272	0.52
1091.692	-0.98
1092.112	0.22
1092.531	-9.88
1092.951	-12.98
1093.371	-6.48
1093.79	-1.58
1094.21	-9.08
1094.63	-4.98
1095.049	-7.88
1095.469	-6.58
1095.888	-5.08
1096.308	-0.28
1096.727	2.22
1097.146	-7.28
1097.566	-0.08
1097.985	-8.78
1098.405	-3.48
1098.824	-8.48
1099.243	-4.68
1099.662	-6.78
1100.082	-6.48
1100.501	-5.08
1100.92	-7.58
1101.339	-10.38
1101.758	-11.28
