Data from 20171114-ORNL-Ar_H_NY_Subt18_08-09-09-765.txt Node
Date: Tue Nov 14 08:09:09 EST 2017
User: Ender
Spectrometer: HR+D1039
Trigger mode: 0
Integration Time (sec): 2.730000E-2
Scans to average: 10
Electric dark correction enabled: true
Nonlinearity correction enabled: false
Boxcar width: 0
XAxis mode: Wavelengths
Number of Pixels in Spectrum: 2048
>>>>>Begin Spectral Data<<<<<
187.836	2.33
188.309	2.33
188.782	2.33
189.255	1.52
189.728	-1.57
190.201	4.12
190.674	2.23
191.147	4.33
191.619	-9.08
192.092	0.13
192.565	0.52
193.038	-1.67
193.511	1.12
193.984	3.73
194.456	-2.27
194.929	-2.27
195.402	-4.38
195.874	1.23
196.347	0.02
196.82	-11.88
197.292	8.52
197.765	-0.17
198.237	-6.87
198.71	-1.77
199.182	-7.77
199.655	3.83
200.127	-1.17
200.6	-2.27
201.072	-4.67
201.544	-0.07
202.017	1.03
202.489	2.73
202.961	-1.37
203.433	-1.67
203.906	-4.27
204.378	-10.57
204.85	1.42
205.322	-8.07
205.794	-2.98
206.266	0.12
206.739	-9.27
207.211	2.13
207.683	-6.07
208.155	-5.88
208.627	-3.67
209.099	-0.57
209.57	-9.37
210.042	-7.98
210.514	-4.17
210.986	-1.27
211.458	-14.57
211.93	-4.48
212.402	5.62
212.873	-7.57
213.345	-9.07
213.817	-9.27
214.288	-7.88
214.76	-12.07
215.232	0.03
215.703	-1.97
216.175	-5.07
216.646	-7.67
217.118	-8.38
217.589	-5.37
218.061	-7.67
218.532	-4.27
219.004	-4.38
219.475	-5.97
219.946	-4.57
220.418	-9.97
220.889	0.83
221.36	-7.07
221.832	-1.98
222.303	-3.27
222.774	1.53
223.245	-6.37
223.717	-7.77
224.188	-2.47
224.659	-8.48
225.13	-7.57
225.601	-4.08
226.072	-0.67
226.543	-1.17
227.014	0.02
227.485	-3.77
227.956	-6.77
228.427	-4.57
228.898	1.03
229.369	2.83
229.839	-6.57
230.31	-5.17
230.781	-0.17
231.252	-3.47
231.722	-3.48
232.193	1.33
232.664	-1.07
233.135	-1.38
233.605	-1.07
234.076	-6.08
234.546	-3.88
235.017	3.73
235.487	-2.88
235.958	-3.47
236.428	-11.17
236.899	-3.27
237.369	0.13
237.84	-8.88
238.31	-1.27
238.78	-0.57
239.251	-10.97
239.721	5.83
240.191	0.13
240.662	-3.87
241.132	0.23
241.602	-5.58
242.072	1.83
242.542	1.13
243.013	1.93
243.483	-0.27
243.953	4.03
244.423	-3.17
244.893	-12.98
245.363	-3.48
245.833	0.93
246.303	-7.88
246.773	0.62
247.243	-2.98
247.712	-5.27
248.182	5.23
248.652	1.43
249.122	-7.38
249.592	-7.07
250.061	0.62
250.531	9.93
251.001	7.73
251.471	8.03
251.94	7.73
252.41	1.83
252.879	-2.77
253.349	2.42
253.818	2.73
254.288	-1.07
254.757	-3.57
255.227	-3.17
255.696	1.73
256.166	-1.87
256.635	6.23
257.105	2.83
257.574	-1.27
258.043	0.53
258.513	-2.27
258.982	-0.17
259.451	-3.48
259.92	1.62
260.389	-1.97
260.859	6.23
261.328	2.23
261.797	7.43
262.266	-3.57
262.735	0.13
263.204	0.83
263.673	-5.97
264.142	0.33
264.611	-11.48
265.08	-3.07
265.549	-4.07
266.018	2.43
266.487	-0.38
266.955	-2.77
267.424	-2.37
267.893	5.53
268.362	-2.57
268.83	-1.38
269.299	6.53
269.768	-3.98
270.236	3.33
270.705	-2.77
271.174	-1.67
271.642	2.62
272.111	-3.57
272.579	0.12
273.048	5.52
273.516	-0.27
273.985	6.13
274.453	12.23
274.922	10.33
275.39	6.33
275.858	-3.77
276.327	9.62
276.795	13.43
277.263	-1.38
277.731	12.73
278.2	3.52
278.668	9.23
279.136	15.33
279.604	-0.37
280.072	2.83
280.54	-0.87
281.008	5.23
281.477	5.93
281.945	3.83
282.413	3.33
282.881	6.03
283.348	4.73
283.816	12.43
284.284	9.62
284.752	20.73
285.22	7.83
285.688	12.62
286.156	10.53
286.623	16.33
287.091	12.73
287.559	7.62
288.026	11.73
288.494	13.23
288.962	-4.07
289.429	5.42
289.897	9.73
290.364	10.33
290.832	13.53
291.3	7.73
291.767	13.53
292.234	11.03
292.702	5.53
293.169	2.43
293.637	14.33
294.104	7.83
294.571	5.42
295.039	8.62
295.506	2.73
295.973	9.52
296.44	0.53
296.908	6.83
297.375	11.53
297.842	14.93
298.309	7.53
298.776	0.93
299.243	9.02
299.71	1.43
300.177	21.53
300.644	16.23
301.111	11.53
301.578	14.02
302.045	9.43
302.512	15.33
302.979	15.63
303.446	12.23
303.913	8.13
304.379	8.53
304.846	15.23
305.313	16.93
305.78	14.23
306.246	13.43
306.713	19.33
307.18	13.03
307.646	17.73
308.113	16.43
308.579	10.43
309.046	15.03
309.512	16.43
309.979	10.83
310.445	24.93
310.912	18.02
311.378	31.03
311.845	20.33
312.311	18.03
312.777	22.02
313.244	22.03
313.71	20.62
314.176	16.43
314.642	19.03
315.109	16.73
315.575	21.63
316.041	23.43
316.507	22.83
316.973	24.23
317.439	18.03
317.905	27.83
318.371	27.12
318.837	29.23
319.303	23.23
319.769	21.73
320.235	19.52
320.701	23.92
321.167	24.33
321.633	26.33
322.099	25.92
322.564	23.93
323.03	29.23
323.496	31.03
323.962	29.73
324.427	29.83
324.893	34.73
325.359	30.92
325.824	27.52
326.29	30.93
326.755	22.33
327.221	30.12
327.686	28.93
328.152	36.93
328.617	37.03
329.083	32.93
329.548	41.73
330.014	43.53
330.479	28.73
330.944	34.02
331.41	39.12
331.875	38.13
332.34	29.33
332.805	26.83
333.271	32.53
333.736	26.23
334.201	33.43
334.666	41.42
335.131	37.23
335.596	46.42
336.061	35.62
336.526	25.83
336.991	37.13
337.456	46.83
337.921	38.62
338.386	35.53
338.851	29.92
339.316	38.12
339.781	36.43
340.246	41.73
340.711	40.93
341.175	40.93
341.64	30.03
342.105	37.13
342.569	44.62
343.034	40.73
343.499	41.03
343.963	38.13
344.428	50.73
344.893	51.23
345.357	51.23
345.822	46.42
346.286	49.62
346.751	59.93
347.215	50.73
347.679	50.73
348.144	75.62
348.608	59.43
349.073	56.23
349.537	53.93
350.001	59.12
350.465	70.63
350.93	65.83
351.394	69.23
351.858	57.33
352.322	68.73
352.786	64.43
353.25	78.52
353.715	78.63
354.179	75.83
354.643	87.23
355.107	94.83
355.571	82.73
356.035	81.93
356.498	89.93
356.962	85.42
357.426	96.73
357.89	91.23
358.354	68.52
358.818	69.93
359.281	64.33
359.745	62.43
360.209	54.23
360.673	53.53
361.136	64.63
361.6	70.02
362.064	62.33
362.527	64.42
362.991	74.03
363.454	66.73
363.918	63.23
364.381	67.12
364.845	69.62
365.308	75.23
365.772	83.12
366.235	73.53
366.698	71.52
367.162	70.83
367.625	70.62
368.088	67.23
368.552	75.62
369.015	74.73
369.478	73.53
369.941	88.43
370.404	78.92
370.867	91.73
371.331	79.83
371.794	93.83
372.257	87.03
372.72	91.23
373.183	91.43
373.646	78.33
374.109	85.13
374.572	88.73
375.035	87.12
375.497	93.92
375.96	93.23
376.423	88.33
376.886	98.13
377.349	96.93
377.811	86.33
378.274	91.33
378.737	90.52
379.199	90.33
379.662	95.73
380.125	102.13
380.587	86.73
381.05	93.23
381.512	100.23
381.975	104.02
382.437	110.33
382.9	102.52
383.362	114.12
383.825	117.93
384.287	110.73
384.75	105.02
385.212	113.92
385.674	121.23
386.136	108.33
386.599	100.73
387.061	108.93
387.523	114.23
387.985	113.83
388.447	122.02
388.91	116.33
389.372	121.33
389.834	121.73
390.296	126.12
390.758	123.03
391.22	124.93
391.682	146.02
392.144	167.23
392.606	152.02
393.068	133.33
393.529	136.23
393.991	129.23
394.453	121.52
394.915	130.62
395.377	137.33
395.838	143.73
396.3	125.02
396.762	121.93
397.224	123.52
397.685	125.52
398.147	125.33
398.608	118.33
399.07	122.73
399.531	127.63
399.993	136.23
400.454	137.93
400.916	143.02
401.377	131.53
401.839	137.92
402.3	137.12
402.762	150.43
403.223	161.23
403.684	159.62
404.145	152.83
404.607	148.03
405.068	155.93
405.529	150.93
405.99	168.13
406.451	162.02
406.913	164.02
407.374	150.43
407.835	145.83
408.296	156.33
408.757	160.73
409.218	175.52
409.679	160.63
410.14	170.23
410.601	162.03
411.062	169.13
411.522	167.13
411.983	172.62
412.444	167.03
412.905	172.33
413.366	172.62
413.826	184.12
414.287	203.02
414.748	253.73
415.208	240.22
415.669	206.62
416.13	194.12
416.59	194.42
417.051	209.23
417.511	211.22
417.972	233.33
418.432	236.43
418.893	278.73
419.353	245.33
419.814	192.83
420.274	176.62
420.734	177.62
421.195	183.92
421.655	189.73
422.115	185.62
422.576	185.52
423.036	190.33
423.496	200.93
423.956	211.93
424.416	217.83
424.876	250.33
425.336	250.03
425.797	247.33
426.257	238.53
426.717	232.23
427.177	227.43
427.637	217.33
428.097	222.12
428.556	230.63
429.016	251.73
429.476	242.53
429.936	264.03
430.396	263.52
430.856	274.33
431.315	289.83
431.775	328.33
432.235	356.93
432.694	326.33
433.154	341.73
433.614	366.62
434.073	316.12
434.533	275.92
434.993	260.43
435.452	268.02
435.912	274.72
436.371	261.62
436.83	263.93
437.29	252.03
437.749	240.93
438.209	231.52
438.668	261.93
439.127	273.43
439.587	245.53
440.046	231.43
440.505	249.03
440.964	259.53
441.424	302.53
441.883	289.03
442.342	251.93
442.801	226.73
443.26	217.32
443.719	218.33
444.178	219.93
444.637	209.83
445.096	214.92
445.555	214.13
446.014	220.42
446.473	226.83
446.932	228.73
447.391	226.73
447.849	221.83
448.308	211.52
448.767	224.83
449.226	230.83
449.685	231.63
450.143	251.43
450.602	235.72
451.061	220.32
451.519	232.12
451.978	232.02
452.436	232.23
452.895	233.33
453.353	244.92
453.812	235.03
454.27	237.23
454.729	236.73
455.187	242.52
455.646	244.03
456.104	241.33
456.562	262.73
457.021	263.73
457.479	249.73
457.937	274.53
458.395	256.62
458.854	245.83
459.312	248.02
459.77	265.63
460.228	253.62
460.686	241.63
461.144	248.73
461.602	242.92
462.06	250.23
462.518	252.33
462.976	254.72
463.434	253.63
463.892	263.02
464.35	269.22
464.808	281.93
465.266	261.13
465.724	265.43
466.181	276.33
466.639	263.52
467.097	286.73
467.555	292.63
468.012	299.52
468.47	300.23
468.928	326.33
469.385	334.62
469.843	338.93
470.3	346.33
470.758	355.93
471.215	387.13
471.673	396.52
472.13	400.42
472.588	398.43
473.045	372.03
473.503	372.83
473.96	390.43
474.417	400.43
474.875	428.03
475.332	471.02
475.789	451.62
476.246	458.12
476.704	487.42
477.161	496.93
477.618	509.02
478.075	541.53
478.532	601.73
478.989	656.83
479.446	766.33
479.903	735.62
480.36	772.32
480.817	812.72
481.274	907.93
481.731	987.73
482.188	1065.12
482.645	1178.82
483.102	1259.92
483.558	1383.23
484.015	1430.32
484.472	1404.63
484.929	1384.83
485.385	1317.53
485.842	1292.33
486.299	1251.12
486.755	1199.72
487.212	1027.33
487.668	877.12
488.125	808.73
488.582	748.33
489.038	716.32
489.494	684.73
489.951	666.23
490.407	645.23
490.864	625.92
491.32	622.52
491.776	635.83
492.233	636.33
492.689	612.23
493.145	607.23
493.602	589.82
494.058	605.52
494.514	594.12
494.97	612.53
495.426	635.23
495.882	602.43
496.338	605.83
496.794	608.43
497.251	594.52
497.707	617.23
498.163	627.32
498.618	631.62
499.074	634.83
499.53	649.23
499.986	648.53
500.442	639.53
500.898	611.42
501.354	613.33
501.809	623.72
502.265	621.02
502.721	619.92
503.177	643.03
503.632	639.13
504.088	645.23
504.543	668.42
504.999	687.83
505.455	656.62
505.91	628.52
506.366	627.13
506.821	621.62
507.277	626.03
507.732	620.03
508.187	628.32
508.643	644.43
509.098	634.93
509.553	648.92
510.009	667.03
510.464	666.43
510.919	687.63
511.375	695.62
511.83	702.12
512.285	708.12
512.74	751.13
513.195	772.33
513.65	758.93
514.105	760.03
514.56	761.92
515.015	776.03
515.47	799.23
515.925	770.73
516.38	784.02
516.835	791.13
517.29	774.53
517.745	768.93
518.2	760.33
518.655	743.92
519.109	734.62
519.564	737.53
520.019	727.73
520.474	724.03
520.928	717.12
521.383	714.62
521.838	702.43
522.292	713.23
522.747	713.93
523.201	701.92
523.656	710.33
524.11	703.73
524.565	699.13
525.019	692.83
525.474	704.63
525.928	697.73
526.382	694.82
526.837	694.02
527.291	691.43
527.745	686.83
528.2	693.12
528.654	689.63
529.108	684.23
529.562	693.43
530.016	685.23
530.47	686.93
530.925	687.82
531.379	695.33
531.833	692.12
532.287	698.92
532.741	696.33
533.195	690.53
533.649	701.13
534.103	716.43
534.556	702.53
535.01	707.12
535.464	698.93
535.918	716.83
536.372	709.62
536.826	711.83
537.279	693.33
537.733	704.43
538.187	716.32
538.64	710.62
539.094	711.83
539.548	727.53
540.001	727.03
540.455	730.62
540.908	736.02
541.362	730.33
541.815	744.02
542.269	751.92
542.722	762.73
543.175	763.13
543.629	769.33
544.082	781.63
544.536	784.13
544.989	784.83
545.442	793.63
545.895	786.22
546.349	794.62
546.802	797.22
547.255	796.93
547.708	811.73
548.161	817.53
548.614	816.12
549.067	824.63
549.52	818.73
549.973	813.52
550.426	812.33
550.879	797.43
551.332	795.42
551.785	808.13
552.238	816.02
552.691	815.73
553.144	838.83
553.596	846.43
554.049	858.82
554.502	897.82
554.955	909.72
555.407	912.52
555.86	903.93
556.313	889.02
556.765	885.73
557.218	882.53
557.67	881.62
558.123	889.03
558.576	883.13
559.028	883.23
559.48	878.53
559.933	871.23
560.385	847.33
560.838	813.03
561.29	796.63
561.742	785.43
562.195	776.73
562.647	765.83
563.099	778.53
563.551	781.52
564.004	789.92
564.456	772.53
564.908	762.22
565.36	743.13
565.812	731.23
566.264	723.83
566.716	711.23
567.168	711.62
567.62	701.03
568.072	700.93
568.524	699.83
568.976	698.62
569.428	674.02
569.88	681.73
570.332	684.53
570.784	695.72
571.235	696.12
571.687	702.02
572.139	710.03
572.59	715.72
573.042	714.62
573.494	719.62
573.945	709.72
574.397	696.33
574.849	701.93
575.3	702.43
575.752	690.32
576.203	676.33
576.655	697.83
577.106	677.83
577.557	676.62
578.009	675.12
578.46	668.73
578.912	666.03
579.363	665.02
579.814	677.62
580.265	662.83
580.717	669.52
581.168	673.82
581.619	689.03
582.07	695.62
582.521	675.33
582.972	673.53
583.423	677.53
583.875	676.83
584.326	689.53
584.777	712.83
585.227	741.13
585.678	781.13
586.129	801.73
586.58	834.53
587.031	868.93
587.482	903.22
587.933	969.13
588.384	924.62
588.834	830.23
589.285	784.62
589.736	781.93
590.186	782.42
590.637	771.43
591.088	758.73
591.538	746.83
591.989	744.73
592.439	727.23
592.89	719.53
593.34	712.52
593.791	711.12
594.241	716.83
594.692	710.52
595.142	702.93
595.593	700.13
596.043	710.33
596.493	716.83
596.943	713.83
597.394	732.13
597.844	724.23
598.294	741.12
598.744	768.13
599.195	793.83
599.645	847.23
600.095	871.42
600.545	937.92
600.995	977.53
601.445	1037.03
601.895	1092.43
602.345	1152.62
602.795	1132.82
603.245	1072.03
603.695	1035.53
604.145	976.73
604.594	924.62
605.044	870.43
605.494	810.83
605.944	768.82
606.393	755.42
606.843	732.93
607.293	746.33
607.743	732.52
608.192	745.42
608.642	761.83
609.091	769.33
609.541	767.93
609.99	766.43
610.44	767.83
610.889	730.12
611.339	707.33
611.788	687.73
612.238	697.23
612.687	717.83
613.136	700.33
613.586	717.33
614.035	709.03
614.484	725.93
614.933	711.93
615.383	723.33
615.832	722.83
616.281	712.12
616.73	682.23
617.179	662.42
617.628	642.92
618.077	631.13
618.526	630.12
618.975	617.83
619.424	620.92
619.873	617.93
620.322	614.82
620.771	617.02
621.22	610.53
621.669	604.23
622.118	592.23
622.567	593.73
623.015	576.23
623.464	579.43
623.913	567.73
624.361	561.62
624.81	559.93
625.259	566.53
625.707	568.62
626.156	559.82
626.604	565.22
627.053	568.53
627.501	574.42
627.95	575.23
628.398	589.53
628.847	566.12
629.295	574.52
629.744	583.12
630.192	586.12
630.64	565.12
631.089	562.62
631.537	555.73
631.985	555.13
632.433	554.02
632.881	552.83
633.33	562.72
633.778	549.52
634.226	544.73
634.674	552.03
635.122	564.23
635.57	563.92
636.018	579.02
636.466	571.02
636.914	563.43
637.362	573.73
637.81	585.03
638.258	585.73
638.705	593.43
639.153	623.43
639.601	619.93
640.049	654.62
640.497	692.92
640.944	705.62
641.392	651.73
641.84	622.62
642.287	595.02
642.735	572.42
643.182	580.03
643.63	568.82
644.078	571.53
644.525	599.42
644.973	601.02
645.42	602.53
645.867	616.33
646.315	643.53
646.762	663.12
647.21	693.12
647.657	715.92
648.104	744.43
648.551	765.13
648.999	840.02
649.446	894.43
649.893	995.73
650.34	1125.42
650.787	1338.83
651.234	1671.82
651.682	2154.23
652.129	2944.02
652.576	4185.83
653.023	6090.53
653.47	8215.02
653.917	10142.73
654.363	11604.93
654.81	12723.73
655.257	12084.93
655.704	7984.23
656.151	4783.52
656.598	3130.73
657.044	2268.62
657.491	1751.82
657.938	1417.73
658.385	1187.23
658.831	1058.93
659.278	941.73
659.724	829.83
660.171	779.72
660.618	722.43
661.064	682.03
661.511	660.63
661.957	650.03
662.404	640.02
662.85	643.23
663.296	628.52
663.743	561.42
664.189	539.92
664.635	541.23
665.082	535.63
665.528	540.53
665.974	524.82
666.42	521.03
666.867	512.23
667.313	491.23
667.759	483.42
668.205	474.83
668.651	463.83
669.097	461.83
669.543	449.33
669.989	456.13
670.435	458.73
670.881	461.83
671.327	462.82
671.773	478.62
672.219	501.92
672.665	563.12
673.11	597.83
673.556	648.82
674.002	687.52
674.448	676.62
674.893	569.23
675.339	496.23
675.785	455.13
676.23	436.03
676.676	402.23
677.122	393.42
677.567	386.43
678.013	373.32
678.458	370.52
678.904	372.93
679.349	355.93
679.794	360.02
680.24	359.42
680.685	362.93
681.131	358.13
681.576	356.33
682.021	364.83
682.466	361.83
682.912	363.92
683.357	369.13
683.802	389.83
684.247	426.12
684.692	481.03
685.137	510.63
685.583	552.52
686.028	578.53
686.473	531.92
686.918	456.42
687.363	433.53
687.807	402.92
688.252	371.62
688.697	364.12
689.142	347.93
689.587	338.73
690.032	338.33
690.477	348.23
690.921	364.33
691.366	398.02
691.811	417.92
692.255	441.73
692.7	485.83
693.145	536.73
693.589	747.33
694.034	1210.03
694.478	1611.93
694.923	1775.92
695.367	2325.23
695.812	1234.13
696.256	519.03
696.701	385.03
697.145	351.63
697.59	342.42
698.034	334.12
698.478	333.62
698.922	328.53
699.367	336.73
699.811	341.73
700.255	371.62
700.699	400.63
701.143	439.12
701.588	489.53
702.032	533.23
702.476	532.33
702.92	510.03
703.364	509.22
703.808	688.62
704.252	1126.53
704.696	1539.22
705.14	1717.73
705.584	2187.23
706.027	1112.92
706.471	539.72
706.915	417.92
707.359	366.93
707.803	334.33
708.246	320.12
708.69	314.92
709.134	318.63
709.577	313.33
710.021	326.03
710.465	318.42
710.908	311.63
711.352	308.23
711.795	321.03
712.239	369.13
712.682	398.53
713.126	428.12
713.569	477.43
714.012	366.23
714.456	319.43
714.899	288.02
715.342	276.43
715.786	265.13
716.229	265.62
716.672	268.63
717.115	260.93
717.558	258.33
718.002	265.12
718.445	273.13
718.888	292.33
719.331	301.23
719.774	318.23
720.217	317.32
720.66	298.62
721.103	267.23
721.546	263.83
721.989	258.03
722.432	240.02
722.874	244.12
723.317	241.23
723.76	242.43
724.203	272.62
724.645	328.13
725.088	475.03
725.531	594.12
725.974	663.42
726.416	564.62
726.859	319.73
727.301	261.33
727.744	252.83
728.187	241.93
728.629	242.92
729.071	249.83
729.514	267.43
729.956	282.33
730.399	288.82
730.841	298.92
731.283	280.93
731.726	276.53
732.168	272.52
732.61	277.92
733.053	306.73
733.495	326.83
733.937	369.62
734.379	413.92
734.821	457.52
735.263	586.62
735.705	909.93
736.148	1731.22
736.59	2734.62
737.032	3134.82
737.474	2564.72
737.916	861.23
738.357	448.43
738.799	346.82
739.241	314.23
739.683	292.92
740.125	301.63
740.567	309.63
741.008	329.53
741.45	327.63
741.892	328.52
742.334	362.93
742.775	373.42
743.217	356.83
743.658	279.23
744.1	258.93
744.542	277.33
744.983	326.83
745.425	353.73
745.866	354.02
746.307	298.13
746.749	292.23
747.19	354.53
747.632	501.93
748.073	982.62
748.514	2013.53
748.956	3001.13
749.397	3776.63
749.838	3114.93
750.279	3043.33
750.72	1563.22
751.162	578.73
751.603	336.92
752.044	259.03
752.485	225.73
752.926	218.03
753.367	211.42
753.808	206.92
754.249	199.62
754.69	201.23
755.131	190.03
755.572	188.43
756.013	188.93
756.453	194.93
756.894	192.43
757.335	201.83
757.776	206.83
758.216	205.53
758.657	204.62
759.098	207.73
759.538	234.52
759.979	283.62
760.42	411.52
760.86	790.63
761.301	2064.73
761.741	4820.12
762.182	6606.33
762.622	4645.73
763.063	1379.83
763.503	572.62
763.943	345.42
764.384	288.83
764.824	289.93
765.264	279.93
765.705	231.42
766.145	186.83
766.585	188.33
767.025	181.12
767.465	170.62
767.906	206.33
768.346	217.83
768.786	233.92
769.226	236.73
769.666	344.92
770.106	691.62
770.546	1709.22
770.986	2744.03
771.426	2430.53
771.866	834.93
772.306	343.93
772.745	214.63
773.185	173.73
773.625	168.23
774.065	158.73
774.505	179.62
774.944	227.62
775.384	422.23
775.824	691.33
776.263	659.02
776.703	313.83
777.142	168.83
777.582	143.23
778.021	130.03
778.461	133.13
778.9	130.83
779.34	131.63
779.779	121.43
780.219	114.83
780.658	106.53
781.097	115.23
781.537	118.73
781.976	113.33
782.415	109.02
782.855	111.12
783.294	105.13
783.733	111.83
784.172	113.93
784.611	109.02
785.05	114.73
785.489	119.73
785.928	121.03
786.367	129.93
786.806	124.33
787.245	139.52
787.684	146.93
788.123	155.43
788.562	140.43
789.001	123.83
789.44	124.63
789.879	115.02
790.317	120.23
790.756	125.73
791.195	137.83
791.634	158.63
792.072	217.62
792.511	405.93
792.95	1120.12
793.388	2212.43
793.827	1956.52
794.265	699.63
794.704	299.63
795.142	192.03
795.581	160.33
796.019	140.43
796.458	134.93
796.896	128.63
797.334	135.03
797.773	172.23
798.211	238.52
798.649	485.12
799.087	1110.12
799.526	1698.62
799.964	2127.63
800.402	2062.93
800.84	799.83
801.278	317.52
801.716	199.12
802.154	161.23
802.592	152.03
803.03	146.53
803.468	139.13
803.906	151.73
804.344	157.83
804.782	152.33
805.22	136.62
805.658	138.12
806.096	154.63
806.533	159.83
806.971	187.83
807.409	233.83
807.847	344.62
808.284	741.42
808.722	2043.52
809.16	3452.93
809.597	3432.03
810.035	5785.93
810.472	5905.12
810.91	2186.43
811.347	837.83
811.785	432.83
812.222	268.22
812.66	207.33
813.097	170.92
813.535	150.73
813.972	137.43
814.409	121.12
814.846	112.13
815.284	111.43
815.721	115.52
816.158	108.73
816.595	117.13
817.032	165.33
817.47	187.62
817.907	131.03
818.344	108.12
818.781	103.43
819.218	100.93
819.655	130.43
820.092	203.32
820.529	220.03
820.966	179.33
821.403	122.43
821.839	111.43
822.276	98.13
822.713	131.73
823.15	136.33
823.587	125.03
824.023	164.83
824.46	340.73
824.897	976.63
825.333	1396.42
825.77	602.33
826.206	245.33
826.643	146.02
827.08	102.03
827.516	80.83
827.953	76.03
828.389	84.33
828.825	75.12
829.262	70.33
829.698	65.53
830.135	63.13
830.571	68.52
831.007	69.63
831.443	70.43
831.88	67.43
832.316	71.02
832.752	68.53
833.188	65.23
833.624	66.93
834.06	69.23
834.497	72.23
834.933	77.83
835.369	79.93
835.805	68.43
836.241	81.12
836.677	82.83
837.112	95.52
837.548	112.12
837.984	137.73
838.42	219.73
838.856	564.02
839.292	1650.52
839.727	2370.43
840.163	1120.53
840.599	1023.02
841.034	2175.33
841.47	2171.13
841.906	811.62
842.341	351.23
842.777	210.33
843.212	230.33
843.648	210.62
844.083	125.52
844.519	86.93
844.954	79.93
845.39	52.03
845.825	60.53
846.261	61.53
846.696	56.53
847.131	58.63
847.566	57.83
848.002	58.23
848.437	50.73
848.872	63.23
849.307	70.93
849.742	94.43
850.177	202.12
850.613	600.83
851.048	905.12
851.483	400.73
851.918	161.42
852.353	93.73
852.788	54.52
853.223	57.73
853.657	54.73
854.092	56.73
854.527	48.23
854.962	35.02
855.397	49.33
855.832	50.62
856.266	45.33
856.701	39.13
857.136	40.73
857.57	42.73
858.005	52.73
858.44	58.73
858.874	50.83
859.309	54.33
859.743	41.93
860.178	51.33
860.612	43.33
861.047	56.52
861.481	72.93
861.915	76.43
862.35	48.03
862.784	42.12
863.218	37.53
863.653	35.83
864.087	49.12
864.521	53.23
864.955	76.63
865.39	163.83
865.824	187.53
866.258	118.93
866.692	180.53
867.126	184.93
867.56	114.62
867.994	55.42
868.428	43.62
868.862	50.43
869.296	57.13
869.73	64.52
870.164	60.93
870.598	44.83
871.031	39.62
871.465	32.62
871.899	31.03
872.333	28.13
872.766	22.73
873.2	22.33
873.634	28.93
874.067	25.23
874.501	29.73
874.935	36.23
875.368	35.73
875.802	28.53
876.235	24.93
876.669	27.53
877.102	20.23
877.535	26.53
877.969	19.73
878.402	30.12
878.836	14.73
879.269	30.83
879.702	27.12
880.135	21.23
880.569	22.12
881.002	30.33
881.435	21.83
881.868	17.93
882.301	23.83
882.734	11.93
883.167	25.43
883.601	17.83
884.034	22.83
884.467	14.63
884.899	24.03
885.332	20.13
885.765	19.13
886.198	20.02
886.631	18.23
887.064	16.53
887.497	27.73
887.929	21.93
888.362	16.03
888.795	17.93
889.228	22.12
889.66	20.23
890.093	16.92
890.526	13.92
890.958	17.13
891.391	21.53
891.823	20.53
892.256	16.83
892.688	10.52
893.121	18.13
893.553	14.43
893.985	22.73
894.418	17.52
894.85	17.83
895.282	20.52
895.715	20.43
896.147	15.53
896.579	20.43
897.011	14.33
897.444	18.13
897.876	11.53
898.308	18.62
898.74	19.63
899.172	9.93
899.604	24.23
900.036	22.42
900.468	13.43
900.9	15.23
901.332	23.02
901.764	16.23
902.196	17.23
902.628	22.43
903.06	21.73
903.491	28.73
903.923	25.93
904.355	21.23
904.787	25.02
905.218	20.63
905.65	23.73
906.082	13.23
906.513	16.02
906.945	17.62
907.376	17.23
907.808	20.03
908.239	23.13
908.671	18.93
909.102	26.53
909.534	31.83
909.965	47.73
910.397	103.62
910.828	341.13
911.259	488.62
911.691	227.73
912.122	120.23
912.553	54.93
912.984	35.13
913.415	29.93
913.847	25.62
914.278	18.12
914.709	10.33
915.14	24.73
915.571	24.33
916.002	12.53
916.433	19.53
916.864	20.62
917.295	15.23
917.726	22.83
918.157	17.33
918.587	26.23
919.018	24.43
919.449	22.73
919.88	21.23
920.311	32.43
920.741	52.33
921.172	177.03
921.603	169.02
922.033	72.83
922.464	47.13
922.895	18.42
923.325	18.53
923.756	18.02
924.186	9.23
924.617	19.83
925.047	25.03
925.478	30.83
925.908	29.93
926.338	19.63
926.769	18.43
927.199	17.03
927.629	6.63
928.06	11.12
928.49	13.43
928.92	12.93
929.35	6.73
929.78	12.12
930.21	12.92
930.641	6.53
931.071	10.73
931.501	6.13
931.931	10.93
932.361	5.93
932.791	1.93
933.221	9.73
933.651	7.83
934.08	16.02
934.51	34.73
934.94	15.43
935.37	12.43
935.8	16.02
936.229	7.62
936.659	10.33
937.089	4.33
937.519	15.53
937.948	27.33
938.378	18.73
938.807	8.62
939.237	5.03
939.666	8.73
940.096	-8.07
940.525	3.12
940.955	5.93
941.384	1.73
941.814	-5.88
942.243	-0.87
942.672	1.73
943.102	-4.77
943.531	2.13
943.96	5.62
944.39	3.52
944.819	-0.08
945.248	3.33
945.677	2.33
946.106	10.83
946.535	11.02
946.964	1.62
947.393	-0.57
947.822	0.83
948.251	-2.67
948.68	1.53
949.109	12.33
949.538	5.63
949.967	2.93
950.396	5.23
950.825	2.73
951.254	0.83
951.682	-9.67
952.111	3.43
952.54	7.13
952.969	-2.07
953.397	-6.08
953.826	-1.88
954.254	-2.88
954.683	7.23
955.112	-0.57
955.54	-0.67
955.969	3.03
956.397	-1.77
956.826	-0.17
957.254	-0.07
957.682	4.83
958.111	8.83
958.539	-2.57
958.967	1.83
959.396	-5.08
959.824	4.33
960.252	7.83
960.68	-1.48
961.109	-7.67
961.537	-2.67
961.965	-0.77
962.393	2.73
962.821	-5.97
963.249	4.52
963.677	1.13
964.105	8.62
964.533	52.63
964.961	42.62
965.389	20.93
965.817	4.62
966.245	-0.27
966.672	-6.07
967.1	-1.27
967.528	2.23
967.956	-3.97
968.383	5.42
968.811	-1.57
969.239	-0.27
969.666	-4.37
970.094	0.93
970.522	0.53
970.949	-3.48
971.377	-3.27
971.804	-7.87
972.232	-3.77
972.659	-3.67
973.087	0.33
973.514	-2.67
973.941	-4.27
974.369	4.52
974.796	-3.97
975.223	0.42
975.651	-0.77
976.078	2.93
976.505	-0.98
976.932	9.43
977.359	16.02
977.786	15.33
978.214	1.33
978.641	-3.98
979.068	-2.38
979.495	-2.17
979.922	0.73
980.349	-6.47
980.776	1.52
981.202	-4.98
981.629	5.43
982.056	4.42
982.483	1.63
982.91	1.93
983.337	-1.57
983.763	4.52
984.19	-5.17
984.617	3.63
985.043	-5.47
985.47	4.13
985.897	2.23
986.323	-2.67
986.75	7.13
987.176	1.23
987.603	3.33
988.029	5.23
988.456	4.23
988.882	6.23
989.308	-7.08
989.735	-2.77
990.161	1.83
990.587	-6.58
991.014	-1.17
991.44	10.52
991.866	-0.17
992.292	-3.57
992.719	-4.77
993.145	7.93
993.571	-8.17
993.997	-4.07
994.423	-5.97
994.849	-2.77
995.275	6.53
995.701	-4.07
996.127	-2.58
996.553	-1.37
996.979	-3.27
997.405	0.43
997.83	0.33
998.256	-1.77
998.682	-0.57
999.108	-7.77
999.534	-4.67
999.959	-0.77
1000.385	-0.17
1000.811	-6.17
1001.236	-12.27
1001.662	-8.97
1002.087	-10.37
1002.513	-0.17
1002.938	1.83
1003.364	-2.57
1003.789	-4.67
1004.215	-1.67
1004.64	-1.98
1005.066	-1.07
1005.491	-5.27
1005.916	-0.67
1006.342	-0.87
1006.767	1.73
1007.192	6.23
1007.617	-1.98
1008.042	-3.97
1008.468	-2.88
1008.893	-7.47
1009.318	-5.88
1009.743	-1.27
1010.168	1.73
1010.593	3.93
1011.018	-11.67
1011.443	-2.47
1011.868	-2.27
1012.293	-0.47
1012.718	-11.47
1013.143	-5.48
1013.567	4.93
1013.992	-1.17
1014.417	-11.77
1014.842	1.02
1015.267	-5.17
1015.691	-4.97
1016.116	7.43
1016.541	-5.67
1016.965	6.23
1017.39	1.73
1017.814	-0.87
1018.239	-4.67
1018.663	-6.57
1019.088	-7.57
1019.512	-3.27
1019.937	-4.38
1020.361	-8.47
1020.785	-10.67
1021.21	-1.17
1021.634	-1.77
1022.058	1.73
1022.483	3.33
1022.907	-1.77
1023.331	-3.27
1023.755	-2.98
1024.179	1.83
1024.604	-2.87
1025.028	-8.77
1025.452	-6.17
1025.876	-3.38
1026.3	-1.77
1026.724	-15.98
1027.148	-6.87
1027.572	-5.97
1027.996	-1.57
1028.42	-2.67
1028.843	-5.98
1029.267	-4.77
1029.691	-3.08
1030.115	-7.57
1030.539	-5.88
1030.962	-6.57
1031.386	-11.67
1031.81	-2.67
1032.233	-1.87
1032.657	1.23
1033.08	-0.97
1033.504	-3.17
1033.927	-3.27
1034.351	2.43
1034.774	-2.57
1035.198	-3.38
1035.621	-8.87
1036.045	-3.88
1036.468	-0.88
1036.891	-9.88
1037.315	-6.17
1037.738	-9.17
1038.161	3.12
1038.584	-1.77
1039.008	-4.57
1039.431	-4.17
1039.854	-0.08
1040.277	-11.47
1040.7	-11.67
1041.123	1.12
1041.546	-6.07
1041.969	-5.17
1042.392	-4.98
1042.815	-4.98
1043.238	0.02
1043.661	-0.57
1044.084	-12.17
1044.507	-6.47
1044.93	-5.77
1045.352	-7.07
1045.775	0.42
1046.198	-1.47
1046.621	-0.77
1047.043	-2.07
1047.466	3.03
1047.889	-2.88
1048.311	0.73
1048.734	-0.17
1049.156	-5.77
1049.579	-0.38
1050.001	-4.47
1050.424	1.92
1050.846	-6.98
1051.269	-0.77
1051.691	-7.87
1052.113	-6.27
1052.536	-3.37
1052.958	-6.17
1053.38	-5.17
1053.802	-10.07
1054.225	-3.98
1054.647	-10.97
1055.069	-8.77
1055.491	-0.17
1055.913	-4.07
1056.335	0.73
1056.757	-2.07
1057.179	-4.77
1057.601	-3.57
1058.023	-3.27
1058.445	-5.67
1058.867	-4.38
1059.289	-1.27
1059.711	-11.77
1060.133	-2.27
1060.555	-3.67
1060.976	-5.98
1061.398	-6.88
1061.82	-8.57
1062.241	-9.67
1062.663	-7.88
1063.085	-6.77
1063.506	-1.47
1063.928	-5.77
1064.35	-3.77
1064.771	-11.77
1065.193	-0.38
1065.614	-8.97
1066.035	-3.37
1066.457	-2.47
1066.878	-2.47
1067.3	-4.67
1067.721	-0.67
1068.142	-5.27
1068.564	-3.27
1068.985	-4.57
1069.406	-7.87
1069.827	-6.67
1070.248	-3.17
1070.67	-8.38
1071.091	-6.77
1071.512	-5.38
1071.933	-7.27
1072.354	-6.97
1072.775	-6.37
1073.196	-7.97
1073.617	-2.08
1074.038	-7.47
1074.459	-9.87
1074.88	-10.67
1075.3	2.62
1075.721	-3.08
1076.142	1.33
1076.563	-1.67
1076.983	-13.07
1077.404	-3.97
1077.825	-9.37
1078.246	-3.47
1078.666	-8.58
1079.087	-6.47
1079.507	-6.58
1079.928	-3.17
1080.348	-0.47
1080.769	-3.27
1081.189	-1.47
1081.61	-0.77
1082.03	-11.88
1082.451	-7.88
1082.871	-1.67
1083.291	-11.67
1083.711	-7.57
1084.132	-5.57
1084.552	-3.27
1084.972	0.53
1085.392	-9.77
1085.813	-8.97
1086.233	-16.77
1086.653	-7.47
1087.073	-4.67
1087.493	-5.38
1087.913	-5.98
1088.333	-8.48
1088.753	-2.07
1089.173	3.62
1089.593	1.53
1090.013	-2.88
1090.433	-0.57
1090.852	-3.77
1091.272	-4.57
1091.692	-1.57
1092.112	-1.88
1092.531	-12.98
1092.951	-13.37
1093.371	-2.67
1093.79	1.33
1094.21	-4.97
1094.63	-8.37
1095.049	-3.67
1095.469	0.03
1095.888	-5.17
1096.308	5.73
1096.727	7.43
1097.146	-3.37
1097.566	-2.77
1097.985	-5.77
1098.405	-2.87
1098.824	-2.27
1099.243	-5.67
1099.662	-12.17
1100.082	-3.87
1100.501	2.62
1100.92	-6.07
1101.339	-1.67
1101.758	-1.07
