Data from 20171114-ORNL-Ar_H_NY_Subt18_08-04-38-914.txt Node
Date: Tue Nov 14 08:04:38 EST 2017
User: Ender
Spectrometer: HR+D1039
Trigger mode: 0
Integration Time (sec): 2.730000E-2
Scans to average: 10
Electric dark correction enabled: true
Nonlinearity correction enabled: false
Boxcar width: 0
XAxis mode: Wavelengths
Number of Pixels in Spectrum: 2048
>>>>>Begin Spectral Data<<<<<
187.836	-5.04
188.309	-5.04
188.782	-5.04
189.255	0.36
189.728	-0.54
190.201	6.06
190.674	1.96
191.147	2.96
191.619	-8.64
192.092	2.76
192.565	0.66
193.038	2.46
193.511	5.36
193.984	-5.84
194.456	-0.74
194.929	1.36
195.402	-3.44
195.874	0.36
196.347	0.56
196.82	-8.64
197.292	3.86
197.765	-1.14
198.237	-9.44
198.71	4.26
199.182	-2.84
199.655	1.06
200.127	1.06
200.6	-2.24
201.072	-3.64
201.544	-5.34
202.017	4.66
202.489	2.66
202.961	-2.04
203.433	-0.24
203.906	-4.44
204.378	-6.44
204.85	-4.34
205.322	-10.34
205.794	-5.14
206.266	-6.34
206.739	-5.64
207.211	-2.24
207.683	-10.64
208.155	-3.94
208.627	-5.84
209.099	-7.14
209.57	-6.44
210.042	-7.64
210.514	1.56
210.986	-5.74
211.458	-12.04
211.93	-5.94
212.402	-1.74
212.873	-7.94
213.345	-6.14
213.817	-4.74
214.288	-4.54
214.76	-9.24
215.232	-3.14
215.703	-3.44
216.175	-4.54
216.646	-3.94
217.118	-6.24
217.589	-8.54
218.061	0.56
218.532	0.36
219.004	-0.44
219.475	-5.34
219.946	-7.74
220.418	-4.74
220.889	2.96
221.36	5.06
221.832	-5.64
222.303	-6.94
222.774	-2.94
223.245	-9.94
223.717	-6.84
224.188	-2.34
224.659	-1.34
225.13	-7.74
225.601	-2.44
226.072	0.46
226.543	3.06
227.014	1.26
227.485	-1.64
227.956	-3.54
228.427	-0.74
228.898	0.66
229.369	1.66
229.839	-3.94
230.31	-5.84
230.781	4.46
231.252	1.86
231.722	-2.04
232.193	3.36
232.664	-1.14
233.135	0.36
233.605	7.96
234.076	-7.34
234.546	1.06
235.017	2.46
235.487	-1.54
235.958	0.76
236.428	-2.74
236.899	-0.24
237.369	7.96
237.84	-1.34
238.31	3.46
238.78	7.96
239.251	3.56
239.721	2.46
240.191	-1.24
240.662	-0.64
241.132	5.36
241.602	-1.54
242.072	2.16
242.542	8.06
243.013	6.76
243.483	7.16
243.953	5.96
244.423	5.36
244.893	-2.34
245.363	5.96
245.833	3.76
246.303	0.46
246.773	5.16
247.243	2.06
247.712	2.26
248.182	10.76
248.652	7.76
249.122	0.36
249.592	10.96
250.061	27.76
250.531	33.46
251.001	22.56
251.471	22.86
251.94	16.86
252.41	6.06
252.879	1.36
253.349	14.06
253.818	16.56
254.288	8.76
254.757	4.36
255.227	2.16
255.696	4.66
256.166	9.36
256.635	8.46
257.105	10.86
257.574	9.56
258.043	7.66
258.513	3.96
258.982	22.26
259.451	6.66
259.92	16.16
260.389	13.06
260.859	18.26
261.328	10.86
261.797	16.06
262.266	13.16
262.735	12.76
263.204	11.66
263.673	2.16
264.142	7.56
264.611	-0.34
265.08	6.06
265.549	2.16
266.018	11.46
266.487	5.86
266.955	-0.64
267.424	0.16
267.893	9.66
268.362	6.66
268.83	4.46
269.299	12.46
269.768	12.26
270.236	9.46
270.705	7.06
271.174	7.56
271.642	13.96
272.111	11.86
272.579	13.06
273.048	24.46
273.516	28.66
273.985	28.76
274.453	27.46
274.922	21.86
275.39	11.76
275.858	2.76
276.327	14.56
276.795	23.06
277.263	14.46
277.731	28.66
278.2	59.96
278.668	64.26
279.136	53.56
279.604	19.06
280.072	16.36
280.54	13.76
281.008	8.86
281.477	13.16
281.945	11.86
282.413	14.66
282.881	14.66
283.348	5.76
283.816	13.86
284.284	18.46
284.752	22.16
285.22	13.76
285.688	16.86
286.156	24.46
286.623	42.86
287.091	50.76
287.559	27.26
288.026	18.26
288.494	21.66
288.962	5.36
289.429	11.86
289.897	17.76
290.364	16.86
290.832	17.56
291.3	15.36
291.767	15.36
292.234	18.16
292.702	17.56
293.169	18.56
293.637	22.46
294.104	24.36
294.571	8.76
295.039	8.66
295.506	13.56
295.973	18.26
296.44	16.86
296.908	15.36
297.375	16.86
297.842	25.66
298.309	25.66
298.776	16.86
299.243	26.96
299.71	20.26
300.177	25.26
300.644	22.56
301.111	22.06
301.578	24.86
302.045	20.46
302.512	27.06
302.979	24.46
303.446	20.56
303.913	16.56
304.379	18.56
304.846	26.66
305.313	28.56
305.78	26.36
306.246	27.46
306.713	27.86
307.18	31.76
307.646	27.26
308.113	28.26
308.579	23.76
309.046	22.86
309.512	25.26
309.979	20.56
310.445	31.76
310.912	32.96
311.378	36.86
311.845	35.76
312.311	29.06
312.777	33.06
313.244	34.96
313.71	41.96
314.176	31.16
314.642	30.96
315.109	32.06
315.575	37.46
316.041	43.96
316.507	31.16
316.973	41.86
317.439	34.96
317.905	29.36
318.371	36.66
318.837	35.96
319.303	33.16
319.769	37.36
320.235	36.16
320.701	36.86
321.167	33.76
321.633	33.76
322.099	40.36
322.564	48.06
323.03	39.56
323.496	33.96
323.962	34.36
324.427	34.36
324.893	41.36
325.359	36.76
325.824	35.86
326.29	37.46
326.755	43.36
327.221	43.16
327.686	40.56
328.152	50.46
328.617	38.46
329.083	46.06
329.548	54.26
330.014	52.36
330.479	43.96
330.944	44.86
331.41	44.76
331.875	44.46
332.34	50.76
332.805	41.16
333.271	53.16
333.736	41.36
334.201	45.16
334.666	47.46
335.131	54.96
335.596	55.56
336.061	47.26
336.526	38.56
336.991	48.26
337.456	56.76
337.921	45.96
338.386	49.86
338.851	41.96
339.316	48.46
339.781	47.36
340.246	49.56
340.711	47.66
341.175	47.86
341.64	43.66
342.105	47.16
342.569	53.26
343.034	57.96
343.499	49.26
343.963	51.96
344.428	62.26
344.893	64.06
345.357	67.76
345.822	64.86
346.286	66.16
346.751	73.86
347.215	65.36
347.679	72.56
348.144	87.46
348.608	82.26
349.073	72.76
349.537	67.36
350.001	84.56
350.465	87.66
350.93	79.66
351.394	76.46
351.858	73.06
352.322	82.86
352.786	82.06
353.25	98.86
353.715	101.76
354.179	99.36
354.643	118.46
355.107	115.16
355.571	97.36
356.035	105.66
356.498	109.06
356.962	120.26
357.426	121.96
357.89	111.96
358.354	92.26
358.818	78.96
359.281	81.16
359.745	74.86
360.209	73.16
360.673	73.56
361.136	79.26
361.6	85.06
362.064	81.96
362.527	89.16
362.991	85.16
363.454	78.96
363.918	72.96
364.381	74.86
364.845	84.46
365.308	81.16
365.772	87.66
366.235	84.36
366.698	82.06
367.162	85.16
367.625	81.16
368.088	90.16
368.552	84.06
369.015	87.06
369.478	99.16
369.941	98.96
370.404	91.56
370.867	105.86
371.331	106.06
371.794	110.56
372.257	104.26
372.72	111.66
373.183	100.96
373.646	101.56
374.109	100.16
374.572	104.06
375.035	104.86
375.497	101.76
375.96	100.16
376.423	100.96
376.886	107.46
377.349	108.36
377.811	100.96
378.274	99.86
378.737	108.46
379.199	108.56
379.662	106.66
380.125	115.26
380.587	110.06
381.05	118.46
381.512	125.76
381.975	124.36
382.437	119.86
382.9	119.56
383.362	124.36
383.825	140.96
384.287	142.86
384.75	135.56
385.212	130.96
385.674	133.06
386.136	130.56
386.599	118.76
387.061	123.26
387.523	122.36
387.985	134.66
388.447	135.16
388.91	132.46
389.372	145.06
389.834	147.76
390.296	134.66
390.758	143.16
391.22	157.86
391.682	201.36
392.144	281.16
392.606	221.86
393.068	160.16
393.529	157.46
393.991	143.46
394.453	143.96
394.915	148.16
395.377	178.16
395.838	200.76
396.3	148.36
396.762	128.86
397.224	126.46
397.685	121.76
398.147	126.26
398.608	122.56
399.07	116.56
399.531	133.66
399.993	127.36
400.454	139.86
400.916	135.46
401.377	133.96
401.839	141.96
402.3	136.76
402.762	149.26
403.223	167.66
403.684	166.96
404.145	151.16
404.607	150.36
405.068	154.76
405.529	160.86
405.99	172.46
406.451	164.46
406.913	158.26
407.374	150.46
407.835	154.36
408.296	159.96
408.757	157.66
409.218	175.56
409.679	164.86
410.14	165.26
410.601	166.26
411.062	171.26
411.522	178.86
411.983	174.36
412.444	163.26
412.905	172.96
413.366	170.36
413.826	178.56
414.287	200.46
414.748	241.06
415.208	235.66
415.669	199.56
416.13	200.66
416.59	181.56
417.051	202.66
417.511	202.56
417.972	220.96
418.432	227.26
418.893	263.96
419.353	234.06
419.814	182.96
420.274	174.16
420.734	165.66
421.195	180.26
421.655	182.16
422.115	175.86
422.576	173.56
423.036	184.06
423.496	181.96
423.956	202.06
424.416	210.66
424.876	247.86
425.336	241.16
425.797	246.56
426.257	238.96
426.717	225.86
427.177	209.76
427.637	215.36
428.097	216.16
428.556	226.26
429.016	253.16
429.476	245.36
429.936	256.86
430.396	255.66
430.856	273.16
431.315	288.56
431.775	329.66
432.235	355.86
432.694	323.96
433.154	340.96
433.614	358.46
434.073	314.46
434.533	264.86
434.993	252.66
435.452	259.86
435.912	275.36
436.371	272.46
436.83	265.76
437.29	249.26
437.749	231.56
438.209	228.26
438.668	255.46
439.127	269.76
439.587	245.86
440.046	227.96
440.505	236.16
440.964	258.76
441.424	292.66
441.883	289.86
442.342	238.26
442.801	209.66
443.26	201.36
443.719	201.76
444.178	198.46
444.637	195.16
445.096	201.66
445.555	206.46
446.014	201.76
446.473	211.66
446.932	219.46
447.391	206.26
447.849	213.26
448.308	200.76
448.767	206.16
449.226	213.46
449.685	215.96
450.143	225.36
450.602	215.96
451.061	204.56
451.519	218.16
451.978	215.16
452.436	217.66
452.895	217.16
453.353	235.16
453.812	226.56
454.27	228.06
454.729	222.06
455.187	222.26
455.646	221.46
456.104	228.96
456.562	237.96
457.021	249.16
457.479	232.36
457.937	249.96
458.395	243.36
458.854	232.96
459.312	242.56
459.77	258.76
460.228	242.16
460.686	225.16
461.144	231.16
461.602	223.56
462.06	222.66
462.518	236.86
462.976	238.96
463.434	242.86
463.892	244.56
464.35	256.36
464.808	267.16
465.266	236.36
465.724	245.16
466.181	249.36
466.639	255.66
467.097	267.66
467.555	276.66
468.012	287.26
468.47	287.96
468.928	314.06
469.385	318.16
469.843	330.16
470.3	325.46
470.758	341.66
471.215	353.06
471.673	375.96
472.13	371.66
472.588	383.76
473.045	343.76
473.503	348.96
473.96	360.46
474.417	367.46
474.875	399.26
475.332	437.36
475.789	427.26
476.246	432.76
476.704	442.56
477.161	468.76
477.618	484.96
478.075	527.66
478.532	573.96
478.989	641.96
479.446	752.06
479.903	720.06
480.36	756.26
480.817	813.26
481.274	903.76
481.731	998.86
482.188	1083.56
482.645	1217.96
483.102	1324.26
483.558	1454.36
484.015	1507.26
484.472	1478.46
484.929	1437.86
485.385	1385.46
485.842	1359.66
486.299	1284.26
486.755	1205.96
487.212	1011.26
487.668	862.76
488.125	789.56
488.582	731.26
489.038	704.76
489.494	663.76
489.951	632.06
490.407	622.06
490.864	610.66
491.32	588.36
491.776	603.36
492.233	603.16
492.689	572.66
493.145	559.26
493.602	558.56
494.058	570.86
494.514	572.86
494.97	583.86
495.426	603.66
495.882	586.56
496.338	570.86
496.794	580.86
497.251	573.86
497.707	587.96
498.163	594.96
498.618	593.46
499.074	599.76
499.53	624.36
499.986	629.86
500.442	606.76
500.898	591.96
501.354	573.16
501.809	586.16
502.265	600.36
502.721	615.16
503.177	623.66
503.632	610.96
504.088	623.66
504.543	660.46
504.999	653.06
505.455	604.46
505.91	586.56
506.366	586.26
506.821	579.26
507.277	577.46
507.732	582.06
508.187	576.26
508.643	584.86
509.098	587.06
509.553	612.96
510.009	608.76
510.464	623.06
510.919	640.06
511.375	648.06
511.83	650.46
512.285	664.96
512.74	705.96
513.195	727.56
513.65	717.66
514.105	713.76
514.56	718.96
515.015	738.46
515.47	758.66
515.925	744.86
516.38	734.66
516.835	742.26
517.29	733.56
517.745	719.26
518.2	709.16
518.655	688.86
519.109	681.76
519.564	679.36
520.019	676.76
520.474	671.76
520.928	678.66
521.383	665.96
521.838	657.26
522.292	655.56
522.747	651.86
523.201	649.86
523.656	646.36
524.11	639.76
524.565	640.96
525.019	640.16
525.474	644.76
525.928	638.06
526.382	636.06
526.837	652.66
527.291	636.96
527.745	644.36
528.2	641.16
528.654	642.96
529.108	630.46
529.562	631.26
530.016	634.86
530.47	639.16
530.925	628.66
531.379	631.96
531.833	646.76
532.287	643.66
532.741	646.56
533.195	646.36
533.649	656.66
534.103	674.56
534.556	662.96
535.01	670.06
535.464	654.56
535.918	657.26
536.372	664.16
536.826	653.66
537.279	664.16
537.733	656.86
538.187	660.96
538.64	659.86
539.094	670.96
539.548	673.86
540.001	668.06
540.455	666.76
540.908	664.26
541.362	670.56
541.815	678.46
542.269	688.56
542.722	698.06
543.175	714.56
543.629	702.06
544.082	720.56
544.536	715.06
544.989	722.76
545.442	725.56
545.895	717.66
546.349	722.06
546.802	719.76
547.255	733.16
547.708	744.26
548.161	745.56
548.614	746.66
549.067	757.46
549.52	744.86
549.973	734.76
550.426	739.16
550.879	730.96
551.332	732.06
551.785	737.46
552.238	733.46
552.691	757.66
553.144	755.06
553.596	768.96
554.049	790.86
554.502	816.66
554.955	833.06
555.407	826.16
555.86	819.26
556.313	809.76
556.765	802.66
557.218	802.46
557.67	810.16
558.123	808.96
558.576	796.76
559.028	804.56
559.48	804.26
559.933	794.06
560.385	764.86
560.838	730.96
561.29	710.26
561.742	710.46
562.195	685.86
562.647	690.16
563.099	698.36
563.551	701.66
564.004	717.66
564.456	700.66
564.908	700.66
565.36	684.16
565.812	668.46
566.264	655.76
566.716	651.36
567.168	647.66
567.62	651.66
568.072	632.56
568.524	625.76
568.976	617.56
569.428	601.16
569.88	608.46
570.332	613.06
570.784	613.76
571.235	612.56
571.687	615.76
572.139	623.86
572.59	639.56
573.042	643.86
573.494	634.36
573.945	635.46
574.397	614.26
574.849	614.36
575.3	622.66
575.752	623.66
576.203	606.06
576.655	611.16
577.106	604.26
577.557	597.66
578.009	601.76
578.46	595.36
578.912	591.26
579.363	597.66
579.814	602.86
580.265	597.16
580.717	599.96
581.168	599.46
581.619	612.86
582.07	610.86
582.521	614.36
582.972	606.86
583.423	610.26
583.875	609.46
584.326	630.56
584.777	664.56
585.227	739.46
585.678	816.56
586.129	900.36
586.58	972.36
587.031	1068.96
587.482	1212.06
587.933	1386.66
588.384	1191.66
588.834	881.86
589.285	719.46
589.736	707.16
590.186	676.76
590.637	679.76
591.088	656.56
591.538	648.76
591.989	651.66
592.439	640.76
592.89	635.86
593.34	620.16
593.791	628.56
594.241	629.76
594.692	615.16
595.142	624.96
595.593	619.96
596.043	620.56
596.493	638.66
596.943	632.66
597.394	633.36
597.844	633.16
598.294	645.46
598.744	672.36
599.195	686.46
599.645	720.66
600.095	759.16
600.545	807.66
600.995	853.46
601.445	907.96
601.895	963.56
602.345	995.26
602.795	986.36
603.245	944.46
603.695	891.76
604.145	842.66
604.594	803.36
605.044	768.36
605.494	715.16
605.944	673.26
606.393	654.66
606.843	641.26
607.293	635.26
607.743	646.76
608.192	654.66
608.642	671.96
609.091	666.46
609.541	671.46
609.99	681.26
610.44	672.16
610.889	636.46
611.339	615.06
611.788	598.96
612.238	616.26
612.687	628.66
613.136	630.36
613.586	647.06
614.035	646.16
614.484	662.06
614.933	675.16
615.383	653.16
615.832	638.96
616.281	633.76
616.73	617.46
617.179	586.06
617.628	562.86
618.077	543.16
618.526	543.86
618.975	540.46
619.424	538.56
619.873	531.66
620.322	539.96
620.771	531.56
621.22	531.26
621.669	519.26
622.118	513.26
622.567	504.36
623.015	491.06
623.464	490.46
623.913	485.36
624.361	477.16
624.81	476.56
625.259	476.66
625.707	475.46
626.156	479.76
626.604	487.26
627.053	481.96
627.501	475.96
627.95	486.36
628.398	502.06
628.847	498.66
629.295	491.56
629.744	495.66
630.192	496.26
630.64	490.56
631.089	483.56
631.537	496.16
631.985	509.26
632.433	521.56
632.881	517.36
633.33	568.16
633.778	541.16
634.226	480.16
634.674	491.96
635.122	497.76
635.57	520.26
636.018	538.36
636.466	507.26
636.914	481.26
637.362	499.66
637.81	495.76
638.258	500.06
638.705	493.26
639.153	518.76
639.601	521.96
640.049	547.96
640.497	569.86
640.944	597.46
641.392	556.56
641.84	524.06
642.287	502.76
642.735	485.26
643.182	489.96
643.63	492.16
644.078	497.26
644.525	508.16
644.973	509.66
645.42	517.96
645.867	537.36
646.315	544.76
646.762	563.06
647.21	591.16
647.657	613.66
648.104	641.06
648.551	665.56
648.999	715.96
649.446	776.36
649.893	854.16
650.34	992.86
650.787	1175.76
651.234	1471.66
651.682	1908.86
652.129	2609.66
652.576	3761.56
653.023	5572.86
653.47	7665.26
653.917	9723.46
654.363	11405.86
654.81	12787.66
655.257	12139.76
655.704	7841.46
656.151	4599.16
656.598	2971.16
657.044	2092.56
657.491	1610.06
657.938	1296.86
658.385	1077.86
658.831	941.86
659.278	833.56
659.724	736.16
660.171	674.26
660.618	620.46
661.064	586.16
661.511	567.76
661.957	558.56
662.404	546.36
662.85	561.16
663.296	518.66
663.743	473.36
664.189	468.06
664.635	455.86
665.082	454.56
665.528	444.26
665.974	440.56
666.42	434.06
666.867	433.56
667.313	424.06
667.759	414.16
668.205	402.46
668.651	413.66
669.097	410.16
669.543	431.36
669.989	403.16
670.435	382.86
670.881	375.76
671.327	371.26
671.773	385.86
672.219	403.16
672.665	455.16
673.11	489.26
673.556	533.36
674.002	568.06
674.448	556.16
674.893	466.26
675.339	397.56
675.785	371.96
676.23	356.56
676.676	333.76
677.122	320.36
677.567	313.56
678.013	306.26
678.458	302.86
678.904	300.76
679.349	292.86
679.794	297.96
680.24	293.96
680.685	287.86
681.131	289.46
681.576	296.26
682.021	302.86
682.466	287.06
682.912	294.26
683.357	292.86
683.802	323.16
684.247	346.86
684.692	381.86
685.137	415.06
685.583	448.26
686.028	473.66
686.473	435.66
686.918	376.36
687.363	353.56
687.807	331.36
688.252	305.66
688.697	299.46
689.142	281.56
689.587	280.26
690.032	269.46
690.477	286.26
690.921	295.06
691.366	320.46
691.811	335.76
692.255	360.26
692.7	382.96
693.145	418.26
693.589	567.66
694.034	916.06
694.478	1280.46
694.923	1480.86
695.367	1957.56
695.812	1025.16
696.256	425.76
696.701	313.76
697.145	287.56
697.59	278.36
698.034	259.56
698.478	286.06
698.922	278.06
699.367	277.66
699.811	281.26
700.255	295.86
700.699	321.26
701.143	357.96
701.588	401.36
702.032	443.06
702.476	439.96
702.92	412.96
703.364	401.26
703.808	515.56
704.252	852.96
704.696	1199.46
705.14	1423.16
705.584	1832.86
706.027	903.46
706.471	437.46
706.915	322.16
707.359	292.76
707.803	273.06
708.246	252.66
708.69	259.86
709.134	260.86
709.577	257.36
710.021	260.96
710.465	256.36
710.908	251.16
711.352	249.06
711.795	260.86
712.239	286.66
712.682	318.86
713.126	346.36
713.569	393.36
714.012	310.56
714.456	268.26
714.899	250.96
715.342	231.76
715.786	221.56
716.229	213.46
716.672	211.26
717.115	202.36
717.558	209.56
718.002	216.96
718.445	217.76
718.888	238.56
719.331	244.06
719.774	260.66
720.217	259.76
720.66	236.66
721.103	219.56
721.546	213.96
721.989	201.96
722.432	190.36
722.874	200.66
723.317	192.76
723.76	196.16
724.203	205.86
724.645	258.86
725.088	359.66
725.531	475.16
725.974	545.36
726.416	460.46
726.859	258.86
727.301	204.86
727.744	204.26
728.187	191.26
728.629	201.76
729.071	195.66
729.514	211.56
729.956	218.36
730.399	240.66
730.841	235.36
731.283	223.26
731.726	222.36
732.168	212.46
732.61	224.36
733.053	230.66
733.495	261.46
733.937	288.46
734.379	327.26
734.821	359.86
735.263	441.26
735.705	678.46
736.148	1280.86
736.59	2134.36
737.032	2619.26
737.474	2125.16
737.916	679.96
738.357	352.56
738.799	264.36
739.241	248.36
739.683	237.36
740.125	238.66
740.567	249.36
741.008	260.16
741.45	257.46
741.892	267.06
742.334	289.36
742.775	296.56
743.217	290.76
743.658	226.16
744.1	209.56
744.542	214.76
744.983	255.46
745.425	290.76
745.866	283.56
746.307	232.56
746.749	238.66
747.19	264.46
747.632	368.66
748.073	704.76
748.514	1503.26
748.956	2388.56
749.397	2991.56
749.838	2497.06
750.279	2553.46
750.72	1268.76
751.162	456.06
751.603	269.36
752.044	213.16
752.485	177.16
752.926	172.86
753.367	162.96
753.808	162.36
754.249	157.06
754.69	158.56
755.131	148.76
755.572	145.76
756.013	150.36
756.453	147.16
756.894	164.56
757.335	151.26
757.776	156.96
758.216	162.56
758.657	165.06
759.098	170.66
759.538	185.56
759.979	220.06
760.42	301.66
760.86	554.96
761.301	1455.66
761.741	3626.66
762.182	5560.16
762.622	3917.16
763.063	1111.56
763.503	451.76
763.943	285.76
764.384	280.26
764.824	350.36
765.264	389.06
765.705	259.46
766.145	180.06
766.585	157.16
767.025	148.06
767.465	154.86
767.906	203.26
768.346	270.86
768.786	295.66
769.226	216.56
769.666	250.36
770.106	491.56
770.546	1245.26
770.986	2231.66
771.426	2025.66
771.866	671.56
772.306	269.36
772.745	173.26
773.185	139.66
773.625	140.16
774.065	135.46
774.505	161.16
774.944	249.96
775.384	554.66
775.824	1071.76
776.263	1065.06
776.703	435.06
777.142	185.46
777.582	132.46
778.021	116.36
778.461	118.06
778.9	111.76
779.34	104.36
779.779	95.86
780.219	91.66
780.658	86.96
781.097	99.66
781.537	92.66
781.976	90.96
782.415	79.96
782.855	88.36
783.294	87.26
783.733	89.06
784.172	89.36
784.611	82.56
785.05	85.36
785.489	97.06
785.928	100.16
786.367	99.36
786.806	100.56
787.245	106.86
787.684	114.76
788.123	125.06
788.562	109.56
789.001	111.66
789.44	100.26
789.879	97.46
790.317	93.06
790.756	103.46
791.195	100.76
791.634	118.16
792.072	161.56
792.511	290.46
792.95	797.46
793.388	1812.36
793.827	1689.46
794.265	568.36
794.704	231.66
795.142	149.36
795.581	129.76
796.019	114.76
796.458	108.66
796.896	97.16
797.334	105.56
797.773	126.56
798.211	178.36
798.649	347.46
799.087	836.16
799.526	1321.16
799.964	1684.16
800.402	1741.86
800.84	640.36
801.278	242.76
801.716	153.96
802.154	129.96
802.592	122.56
803.03	112.26
803.468	108.06
803.906	116.86
804.344	125.16
804.782	120.56
805.22	111.66
805.658	105.36
806.096	119.16
806.533	129.16
806.971	146.96
807.409	179.46
807.847	257.86
808.284	529.86
808.722	1516.26
809.16	2775.26
809.597	2572.56
810.035	4565.96
810.472	5087.26
810.91	1795.76
811.347	670.46
811.785	334.56
812.222	213.66
812.66	161.96
813.097	132.46
813.535	117.06
813.972	104.26
814.409	109.96
814.846	89.86
815.284	93.86
815.721	87.36
816.158	85.56
816.595	95.66
817.032	152.76
817.47	163.26
817.907	149.66
818.344	121.86
818.781	99.06
819.218	80.66
819.655	98.86
820.092	156.06
820.529	184.96
820.966	154.66
821.403	113.76
821.839	83.86
822.276	87.66
822.713	104.96
823.15	115.06
823.587	97.06
824.023	122.86
824.46	232.66
824.897	732.56
825.333	1157.06
825.77	493.46
826.206	188.86
826.643	108.86
827.08	85.26
827.516	69.76
827.953	65.76
828.389	64.86
828.825	55.46
829.262	56.26
829.698	52.46
830.135	51.86
830.571	51.36
831.007	51.76
831.443	47.56
831.88	52.06
832.316	53.26
832.752	51.76
833.188	51.96
833.624	52.66
834.06	52.66
834.497	56.96
834.933	63.26
835.369	63.56
835.805	51.56
836.241	61.06
836.677	63.46
837.112	71.16
837.548	78.26
837.984	110.66
838.42	155.26
838.856	402.36
839.292	1240.26
839.727	1977.36
840.163	913.96
840.599	753.46
841.034	1706.06
841.47	1850.56
841.906	668.06
842.341	281.66
842.777	196.56
843.212	265.16
843.648	273.76
844.083	125.86
844.519	80.16
844.954	66.56
845.39	44.06
845.825	50.56
846.261	44.96
846.696	51.56
847.131	41.16
847.566	47.36
848.002	43.16
848.437	44.86
848.872	51.36
849.307	48.16
849.742	69.66
850.177	147.66
850.613	458.56
851.048	747.26
851.483	320.36
851.918	126.06
852.353	73.46
852.788	50.76
853.223	47.56
853.657	48.76
854.092	37.36
854.527	35.16
854.962	33.26
855.397	35.26
855.832	44.26
856.266	31.96
856.701	32.06
857.136	31.66
857.57	33.16
858.005	40.76
858.44	49.66
858.874	39.76
859.309	46.86
859.743	33.76
860.178	41.56
860.612	33.56
861.047	47.76
861.481	52.46
861.915	57.86
862.35	42.86
862.784	22.26
863.218	27.46
863.653	24.76
864.087	44.96
864.521	48.66
864.955	57.26
865.39	126.46
865.824	149.06
866.258	90.76
866.692	134.96
867.126	160.16
867.56	94.16
867.994	44.26
868.428	31.86
868.862	41.76
869.296	51.16
869.73	47.96
870.164	48.56
870.598	41.46
871.031	28.46
871.465	24.56
871.899	27.86
872.333	18.56
872.766	18.46
873.2	19.76
873.634	23.96
874.067	18.96
874.501	21.16
874.935	27.86
875.368	29.46
875.802	22.26
876.235	19.36
876.669	21.56
877.102	19.96
877.535	22.86
877.969	16.76
878.402	21.76
878.836	13.86
879.269	22.06
879.702	21.36
880.135	18.96
880.569	18.76
881.002	20.76
881.435	14.86
881.868	11.16
882.301	15.86
882.734	12.06
883.167	14.46
883.601	15.76
884.034	16.66
884.467	9.76
884.899	20.96
885.332	15.86
885.765	13.96
886.198	15.06
886.631	16.66
887.064	14.46
887.497	21.26
887.929	19.76
888.362	12.26
888.795	12.86
889.228	11.26
889.66	14.06
890.093	12.26
890.526	11.76
890.958	12.46
891.391	11.86
891.823	12.86
892.256	14.26
892.688	15.16
893.121	15.26
893.553	13.26
893.985	20.76
894.418	20.06
894.85	9.16
895.282	8.56
895.715	9.86
896.147	13.56
896.579	14.66
897.011	12.46
897.444	17.36
897.876	10.76
898.308	14.76
898.74	13.46
899.172	7.56
899.604	22.96
900.036	13.26
900.468	8.56
900.9	7.06
901.332	12.66
901.764	6.66
902.196	12.66
902.628	18.26
903.06	14.76
903.491	23.96
903.923	19.76
904.355	12.36
904.787	14.26
905.218	21.26
905.65	19.36
906.082	8.86
906.513	6.16
906.945	7.96
907.376	12.36
907.808	16.96
908.239	18.86
908.671	18.56
909.102	17.26
909.534	14.36
909.965	41.86
910.397	78.86
910.828	261.26
911.259	410.86
911.691	184.96
912.122	90.96
912.553	49.56
912.984	28.56
913.415	18.36
913.847	19.36
914.278	10.96
914.709	6.06
915.14	17.06
915.571	18.76
916.002	11.56
916.433	15.46
916.864	13.06
917.295	14.56
917.726	16.36
918.157	12.46
918.587	30.66
919.018	21.96
919.449	15.56
919.88	21.96
920.311	20.76
920.741	39.66
921.172	134.66
921.603	121.16
922.033	65.26
922.464	40.76
922.895	15.36
923.325	17.26
923.756	11.96
924.186	6.26
924.617	15.76
925.047	35.16
925.478	42.76
925.908	38.66
926.338	22.86
926.769	17.96
927.199	20.86
927.629	6.16
928.06	16.46
928.49	9.16
928.92	11.46
929.35	12.36
929.78	12.26
930.21	10.56
930.641	6.46
931.071	4.66
931.501	3.16
931.931	5.46
932.361	7.96
932.791	0.66
933.221	7.86
933.651	7.86
934.08	13.46
934.51	23.16
934.94	7.76
935.37	5.46
935.8	10.36
936.229	5.26
936.659	8.36
937.089	6.66
937.519	8.86
937.948	26.56
938.378	14.66
938.807	2.56
939.237	0.86
939.666	3.66
940.096	-2.14
940.525	8.36
940.955	1.06
941.384	2.26
941.814	-7.24
942.243	-0.44
942.672	-0.04
943.102	3.86
943.531	-1.14
943.96	4.36
944.39	3.16
944.819	-4.04
945.248	2.96
945.677	-0.54
946.106	5.36
946.535	8.16
946.964	7.06
947.393	3.26
947.822	1.26
948.251	-5.94
948.68	7.16
949.109	4.16
949.538	1.06
949.967	1.46
950.396	-3.84
950.825	-6.74
951.254	0.56
951.682	-8.14
952.111	4.36
952.54	1.66
952.969	-3.94
953.397	-3.04
953.826	1.56
954.254	-5.34
954.683	2.96
955.112	-1.34
955.54	6.46
955.969	2.96
956.397	0.76
956.826	-6.24
957.254	-0.14
957.682	-1.44
958.111	3.86
958.539	2.86
958.967	0.16
959.396	-7.74
959.824	1.66
960.252	-5.94
960.68	-12.34
961.109	-0.94
961.537	-11.14
961.965	-1.14
962.393	2.06
962.821	0.56
963.249	-0.34
963.677	0.76
964.105	3.46
964.533	37.36
964.961	38.36
965.389	19.66
965.817	5.86
966.245	-1.54
966.672	-2.64
967.1	-6.54
967.528	-1.64
967.956	-2.24
968.383	-4.24
968.811	-2.84
969.239	-1.44
969.666	0.06
970.094	-0.64
970.522	4.66
970.949	-1.84
971.377	-6.44
971.804	-3.84
972.232	-0.84
972.659	-0.34
973.087	-3.34
973.514	-1.44
973.941	-9.84
974.369	0.66
974.796	-0.44
975.223	-1.24
975.651	-2.34
976.078	4.76
976.505	-2.44
976.932	3.66
977.359	15.16
977.786	10.56
978.214	-3.94
978.641	-3.54
979.068	-3.44
979.495	-6.54
979.922	0.26
980.349	-5.44
980.776	7.76
981.202	1.56
981.629	1.36
982.056	1.96
982.483	-1.84
982.91	1.66
983.337	-11.24
983.763	-0.04
984.19	-3.64
984.617	-1.74
985.043	-7.84
985.47	-6.44
985.897	-5.34
986.323	-10.34
986.75	-0.44
987.176	-3.64
987.603	-5.44
988.029	-2.04
988.456	-4.94
988.882	2.06
989.308	-12.94
989.735	-6.34
990.161	-0.64
990.587	-2.24
991.014	-2.64
991.44	5.46
991.866	2.16
992.292	-6.34
992.719	-2.24
993.145	0.56
993.571	-8.64
993.997	-9.64
994.423	-5.04
994.849	-5.94
995.275	0.86
995.701	-1.94
996.127	-6.14
996.553	-4.44
996.979	-4.54
997.405	-5.54
997.83	-5.94
998.256	-5.74
998.682	-3.84
999.108	-5.74
999.534	-2.54
999.959	-1.94
1000.385	-7.74
1000.811	-0.64
1001.236	-11.54
1001.662	-10.64
1002.087	-7.34
1002.513	3.76
1002.938	0.66
1003.364	0.36
1003.789	-2.34
1004.215	1.36
1004.64	-0.34
1005.066	-0.34
1005.491	2.96
1005.916	1.36
1006.342	-2.14
1006.767	-7.94
1007.192	1.96
1007.617	-5.34
1008.042	-3.54
1008.468	-8.54
1008.893	-6.74
1009.318	-3.84
1009.743	-4.04
1010.168	-3.04
1010.593	-2.64
1011.018	-8.54
1011.443	-0.24
1011.868	3.76
1012.293	-1.94
1012.718	-8.64
1013.143	5.06
1013.567	9.06
1013.992	-1.24
1014.417	-14.34
1014.842	3.56
1015.267	-5.64
1015.691	-3.14
1016.116	2.86
1016.541	-2.54
1016.965	-0.74
1017.39	3.86
1017.814	-3.74
1018.239	-0.44
1018.663	-4.14
1019.088	-5.74
1019.512	0.46
1019.937	-1.94
1020.361	-9.54
1020.785	-14.24
1021.21	-3.74
1021.634	1.06
1022.058	-3.34
1022.483	1.16
1022.907	-4.64
1023.331	-4.44
1023.755	-6.54
1024.179	1.46
1024.604	-8.24
1025.028	-3.24
1025.452	-2.24
1025.876	-6.94
1026.3	1.66
1026.724	-5.24
1027.148	-5.44
1027.572	-7.14
1027.996	-5.24
1028.42	-3.64
1028.843	-8.44
1029.267	-1.54
1029.691	-4.44
1030.115	-7.54
1030.539	-10.34
1030.962	-4.14
1031.386	-9.64
1031.81	1.66
1032.233	-3.04
1032.657	-7.44
1033.08	-8.04
1033.504	-2.54
1033.927	-7.34
1034.351	-8.84
1034.774	-1.14
1035.198	-2.74
1035.621	-9.84
1036.045	-10.14
1036.468	-2.14
1036.891	-10.14
1037.315	-8.14
1037.738	-7.34
1038.161	0.26
1038.584	-3.44
1039.008	-9.74
1039.431	-6.34
1039.854	-2.14
1040.277	-16.84
1040.7	-3.44
1041.123	2.76
1041.546	-7.54
1041.969	-4.04
1042.392	-4.94
1042.815	-3.34
1043.238	-2.04
1043.661	-3.34
1044.084	-3.74
1044.507	-5.24
1044.93	-6.14
1045.352	-10.84
1045.775	-4.24
1046.198	-0.24
1046.621	-3.64
1047.043	-0.14
1047.466	3.26
1047.889	-2.64
1048.311	-9.44
1048.734	-3.04
1049.156	-2.44
1049.579	-6.74
1050.001	-6.74
1050.424	-1.54
1050.846	-3.94
1051.269	-8.24
1051.691	-12.94
1052.113	-9.34
1052.536	0.66
1052.958	-2.34
1053.38	-5.54
1053.802	-10.84
1054.225	-3.44
1054.647	-12.84
1055.069	-9.54
1055.491	-0.54
1055.913	-7.94
1056.335	-4.94
1056.757	-4.84
1057.179	-9.74
1057.601	-3.94
1058.023	-5.44
1058.445	-5.84
1058.867	-5.54
1059.289	-5.14
1059.711	-2.04
1060.133	-6.64
1060.555	-4.74
1060.976	-8.84
1061.398	-6.94
1061.82	-15.34
1062.241	-9.04
1062.663	-10.94
1063.085	-7.44
1063.506	4.86
1063.928	-2.74
1064.35	2.46
1064.771	-13.74
1065.193	-9.44
1065.614	-8.74
1066.035	-5.94
1066.457	1.16
1066.878	0.16
1067.3	-5.64
1067.721	2.06
1068.142	-7.74
1068.564	-4.54
1068.985	-2.24
1069.406	-6.84
1069.827	-4.54
1070.248	-3.64
1070.67	-9.04
1071.091	-9.54
1071.512	-5.94
1071.933	-7.34
1072.354	-7.74
1072.775	-11.24
1073.196	-9.04
1073.617	2.06
1074.038	-5.84
1074.459	1.26
1074.88	-8.24
1075.3	4.66
1075.721	-6.74
1076.142	2.66
1076.563	3.86
1076.983	-10.44
1077.404	-8.04
1077.825	-11.64
1078.246	-5.94
1078.666	-10.14
1079.087	-4.24
1079.507	-7.54
1079.928	2.76
1080.348	3.46
1080.769	-11.64
1081.189	-5.54
1081.61	-4.14
1082.03	-6.74
1082.451	-13.34
1082.871	-6.44
1083.291	-6.74
1083.711	-2.94
1084.132	-5.54
1084.552	-8.04
1084.972	-1.54
1085.392	-12.24
1085.813	-11.84
1086.233	-3.84
1086.653	-2.94
1087.073	-6.24
1087.493	-7.64
1087.913	-9.54
1088.333	-8.24
1088.753	-6.04
1089.173	-2.04
1089.593	-1.24
1090.013	-7.54
1090.433	1.76
1090.852	-1.44
1091.272	1.56
1091.692	-5.54
1092.112	-0.14
1092.531	-8.04
1092.951	-9.04
1093.371	-7.04
1093.79	-0.04
1094.21	-7.44
1094.63	-5.34
1095.049	-2.74
1095.469	-4.34
1095.888	-4.14
1096.308	-7.54
1096.727	6.16
1097.146	-0.64
1097.566	-5.44
1097.985	-7.14
1098.405	1.96
1098.824	-6.74
1099.243	-5.04
1099.662	-6.84
1100.082	-4.04
1100.501	-0.54
1100.92	-13.64
1101.339	-5.64
1101.758	-7.14
