Data from 20171114-ORNL-Ar_H_NY_Subt18_08-03-41-316.txt Node
Date: Tue Nov 14 08:03:41 EST 2017
User: Ender
Spectrometer: HR+D1039
Trigger mode: 0
Integration Time (sec): 2.730000E-2
Scans to average: 10
Electric dark correction enabled: true
Nonlinearity correction enabled: false
Boxcar width: 0
XAxis mode: Wavelengths
Number of Pixels in Spectrum: 2048
>>>>>Begin Spectral Data<<<<<
187.836	-3.01
188.309	-3.01
188.782	-3.01
189.255	2.99
189.728	-1.21
190.201	3.29
190.674	5.59
191.147	2.19
191.619	-6.71
192.092	3.09
192.565	6.19
193.038	-0.71
193.511	-3.51
193.984	0.29
194.456	-6.91
194.929	3.49
195.402	-3.11
195.874	-1.91
196.347	-0.01
196.82	-5.51
197.292	3.89
197.765	-2.51
198.237	-1.61
198.71	1.19
199.182	-4.71
199.655	4.79
200.127	0.09
200.6	0.19
201.072	-1.01
201.544	-5.51
202.017	-2.61
202.489	0.19
202.961	-0.81
203.433	-5.21
203.906	-5.91
204.378	-0.71
204.85	-3.21
205.322	-8.51
205.794	-2.91
206.266	4.79
206.739	-2.01
207.211	3.79
207.683	-6.81
208.155	-3.71
208.627	-1.41
209.099	-2.41
209.57	-3.91
210.042	0.99
210.514	-4.81
210.986	-3.91
211.458	-0.51
211.93	5.49
212.402	1.99
212.873	-2.61
213.345	-8.61
213.817	-6.51
214.288	1.39
214.76	-8.21
215.232	-3.71
215.703	-1.91
216.175	-1.31
216.646	-1.71
217.118	-0.81
217.589	-4.31
218.061	-1.81
218.532	-2.21
219.004	-0.61
219.475	-0.31
219.946	-2.91
220.418	-5.91
220.889	8.29
221.36	4.69
221.832	-2.41
222.303	-7.91
222.774	-0.41
223.245	-9.81
223.717	2.59
224.188	2.79
224.659	-9.91
225.13	-0.61
225.601	1.09
226.072	6.89
226.543	1.29
227.014	0.29
227.485	-4.11
227.956	-4.11
228.427	-2.01
228.898	1.39
229.369	2.19
229.839	-6.91
230.31	-7.61
230.781	-1.11
231.252	-5.21
231.722	-9.81
232.193	-2.61
232.664	-4.31
233.135	2.19
233.605	0.99
234.076	-1.91
234.546	1.29
235.017	5.49
235.487	6.19
235.958	-0.91
236.428	-5.01
236.899	-3.51
237.369	0.09
237.84	-3.71
238.31	3.09
238.78	-7.31
239.251	-8.31
239.721	-2.41
240.191	-4.91
240.662	-0.61
241.132	-2.01
241.602	-5.41
242.072	-1.81
242.542	-0.31
243.013	-4.51
243.483	1.39
243.953	2.29
244.423	-0.61
244.893	-4.11
245.363	1.09
245.833	-4.31
246.303	0.79
246.773	0.69
247.243	2.09
247.712	2.29
248.182	6.39
248.652	2.49
249.122	-1.71
249.592	1.39
250.061	-0.21
250.531	11.29
251.001	-3.31
251.471	6.59
251.94	4.49
252.41	-3.61
252.879	-9.01
253.349	6.59
253.818	8.09
254.288	7.89
254.757	6.99
255.227	-3.21
255.696	4.49
256.166	3.39
256.635	4.59
257.105	1.39
257.574	-1.71
258.043	3.99
258.513	-3.11
258.982	1.29
259.451	-3.81
259.92	5.39
260.389	-2.21
260.859	2.19
261.328	0.59
261.797	1.49
262.266	3.39
262.735	4.89
263.204	1.99
263.673	-3.11
264.142	3.89
264.611	-6.41
265.08	-2.41
265.549	1.39
266.018	3.49
266.487	-7.91
266.955	-5.11
267.424	1.69
267.893	3.99
268.362	-4.21
268.83	-2.91
269.299	8.59
269.768	4.29
270.236	8.19
270.705	-1.71
271.174	3.39
271.642	-1.71
272.111	-1.11
272.579	7.09
273.048	-0.81
273.516	-0.11
273.985	7.59
274.453	3.29
274.922	12.49
275.39	9.39
275.858	0.69
276.327	4.19
276.795	13.09
277.263	-0.21
277.731	12.99
278.2	2.89
278.668	1.49
279.136	8.89
279.604	-1.61
280.072	7.39
280.54	12.99
281.008	11.89
281.477	9.09
281.945	5.79
282.413	8.69
282.881	11.29
283.348	-1.21
283.816	14.29
284.284	10.49
284.752	17.49
285.22	12.49
285.688	13.39
286.156	10.19
286.623	11.19
287.091	6.59
287.559	4.19
288.026	7.59
288.494	8.09
288.962	-0.91
289.429	5.29
289.897	11.39
290.364	10.09
290.832	10.19
291.3	6.79
291.767	12.59
292.234	13.29
292.702	9.99
293.169	10.79
293.637	12.69
294.104	16.99
294.571	4.49
295.039	3.29
295.506	8.29
295.973	13.29
296.44	11.89
296.908	14.79
297.375	10.69
297.842	9.79
298.309	13.09
298.776	7.09
299.243	17.49
299.71	9.79
300.177	18.39
300.644	18.59
301.111	18.89
301.578	10.19
302.045	9.89
302.512	15.29
302.979	13.19
303.446	14.79
303.913	15.99
304.379	13.09
304.846	15.09
305.313	18.99
305.78	17.99
306.246	19.29
306.713	19.99
307.18	21.29
307.646	24.39
308.113	21.29
308.579	14.09
309.046	18.59
309.512	21.29
309.979	15.89
310.445	16.89
310.912	18.69
311.378	24.19
311.845	23.89
312.311	23.29
312.777	22.19
313.244	27.59
313.71	31.19
314.176	27.69
314.642	26.09
315.109	23.19
315.575	27.79
316.041	31.99
316.507	25.99
316.973	30.29
317.439	31.99
317.905	29.09
318.371	30.99
318.837	30.49
319.303	30.09
319.769	29.79
320.235	23.09
320.701	26.59
321.167	30.99
321.633	26.09
322.099	35.49
322.564	37.49
323.03	35.09
323.496	30.49
323.962	34.69
324.427	32.39
324.893	42.79
325.359	30.39
325.824	29.79
326.29	31.99
326.755	30.19
327.221	33.09
327.686	33.19
328.152	41.69
328.617	40.99
329.083	41.29
329.548	46.09
330.014	44.59
330.479	30.29
330.944	41.49
331.41	39.89
331.875	45.09
332.34	38.39
332.805	40.19
333.271	39.19
333.736	35.09
334.201	53.99
334.666	46.99
335.131	52.09
335.596	54.49
336.061	36.59
336.526	38.89
336.991	49.99
337.456	55.59
337.921	44.49
338.386	41.49
338.851	41.29
339.316	48.29
339.781	35.89
340.246	51.59
340.711	45.19
341.175	55.49
341.64	47.99
342.105	44.99
342.569	52.79
343.034	52.59
343.499	57.19
343.963	54.69
344.428	62.99
344.893	61.89
345.357	62.69
345.822	58.89
346.286	66.69
346.751	72.99
347.215	65.89
347.679	64.79
348.144	85.99
348.608	80.89
349.073	70.99
349.537	75.79
350.001	75.39
350.465	81.79
350.93	81.09
351.394	79.19
351.858	73.89
352.322	82.39
352.786	80.09
353.25	97.59
353.715	108.29
354.179	96.59
354.643	110.99
355.107	107.59
355.571	98.29
356.035	101.69
356.498	107.99
356.962	108.89
357.426	114.19
357.89	110.29
358.354	92.29
358.818	87.29
359.281	85.89
359.745	71.39
360.209	76.69
360.673	84.69
361.136	84.09
361.6	89.69
362.064	88.19
362.527	85.69
362.991	98.49
363.454	84.49
363.918	82.79
364.381	88.49
364.845	93.29
365.308	92.09
365.772	99.39
366.235	96.29
366.698	94.19
367.162	90.09
367.625	91.59
368.088	93.99
368.552	101.09
369.015	95.09
369.478	105.89
369.941	109.89
370.404	101.29
370.867	114.29
371.331	107.39
371.794	117.39
372.257	106.29
372.72	115.09
373.183	111.39
373.646	112.69
374.109	103.69
374.572	115.19
375.035	108.19
375.497	112.79
375.96	112.59
376.423	113.79
376.886	122.99
377.349	124.09
377.811	119.59
378.274	117.59
378.737	114.69
379.199	121.29
379.662	117.29
380.125	125.19
380.587	119.39
381.05	123.39
381.512	121.19
381.975	138.59
382.437	130.39
382.9	124.69
383.362	135.89
383.825	146.99
384.287	141.39
384.75	132.49
385.212	135.59
385.674	148.29
386.136	145.59
386.599	135.59
387.061	135.69
387.523	141.29
387.985	150.09
388.447	155.19
388.91	141.99
389.372	140.79
389.834	149.69
390.296	142.59
390.758	153.09
391.22	148.19
391.682	157.69
392.144	158.99
392.606	155.19
393.068	153.99
393.529	174.99
393.991	162.69
394.453	153.19
394.915	157.29
395.377	156.29
395.838	154.89
396.3	155.99
396.762	160.29
397.224	158.39
397.685	160.09
398.147	149.09
398.608	159.49
399.07	155.69
399.531	157.19
399.993	168.79
400.454	175.49
400.916	177.39
401.377	170.99
401.839	178.19
402.3	169.19
402.762	189.09
403.223	213.59
403.684	197.29
404.145	184.99
404.607	185.39
405.068	195.49
405.529	188.89
405.99	202.79
406.451	197.79
406.913	194.49
407.374	190.49
407.835	188.49
408.296	194.89
408.757	197.39
409.218	221.59
409.679	211.19
410.14	202.29
410.601	206.29
411.062	208.79
411.522	209.59
411.983	216.89
412.444	207.49
412.905	210.19
413.366	218.89
413.826	233.19
414.287	256.29
414.748	321.39
415.208	300.19
415.669	255.49
416.13	247.19
416.59	246.19
417.051	250.39
417.511	261.89
417.972	297.09
418.432	299.69
418.893	354.29
419.353	313.69
419.814	242.49
420.274	226.59
420.734	216.39
421.195	237.69
421.655	217.29
422.115	225.49
422.576	227.69
423.036	242.79
423.496	246.19
423.956	260.59
424.416	273.19
424.876	311.89
425.336	298.09
425.797	298.29
426.257	303.09
426.717	282.79
427.177	267.69
427.637	262.19
428.097	275.09
428.556	277.19
429.016	309.89
429.476	298.09
429.936	307.69
430.396	311.29
430.856	320.49
431.315	344.99
431.775	381.19
432.235	411.49
432.694	391.99
433.154	393.29
433.614	410.29
434.073	374.69
434.533	318.99
434.993	305.29
435.452	308.29
435.912	312.89
436.371	315.19
436.83	303.39
437.29	288.19
437.749	274.79
438.209	280.19
438.668	302.89
439.127	309.59
439.587	287.59
440.046	264.49
440.505	281.29
440.964	287.39
441.424	328.49
441.883	325.29
442.342	287.19
442.801	263.69
443.26	258.79
443.719	259.09
444.178	253.79
444.637	246.89
445.096	256.59
445.555	261.39
446.014	260.19
446.473	265.19
446.932	271.09
447.391	268.49
447.849	267.69
448.308	255.29
448.767	259.19
449.226	272.49
449.685	268.89
450.143	292.79
450.602	271.59
451.061	258.39
451.519	262.09
451.978	270.09
452.436	258.49
452.895	272.49
453.353	278.99
453.812	266.59
454.27	266.59
454.729	275.49
455.187	271.69
455.646	273.99
456.104	275.49
456.562	283.19
457.021	288.69
457.479	279.19
457.937	294.29
458.395	295.59
458.854	281.69
459.312	279.99
459.77	292.89
460.228	288.79
460.686	277.29
461.144	292.99
461.602	277.49
462.06	284.69
462.518	287.89
462.976	286.39
463.434	293.29
463.892	293.59
464.35	298.19
464.808	317.29
465.266	304.39
465.724	306.49
466.181	304.99
466.639	304.39
467.097	318.89
467.555	332.59
468.012	332.49
468.47	338.69
468.928	351.69
469.385	369.79
469.843	379.29
470.3	378.59
470.758	392.29
471.215	400.29
471.673	424.09
472.13	424.59
472.588	448.79
473.045	415.09
473.503	416.89
473.96	421.99
474.417	442.09
474.875	459.39
475.332	488.79
475.789	486.79
476.246	491.99
476.704	516.59
477.161	525.19
477.618	532.49
478.075	578.19
478.532	633.19
478.989	691.29
479.446	776.49
479.903	758.89
480.36	803.89
480.817	836.99
481.274	934.99
481.731	1024.89
482.188	1095.29
482.645	1207.29
483.102	1300.09
483.558	1411.49
484.015	1446.29
484.472	1431.19
484.929	1392.89
485.385	1364.39
485.842	1337.49
486.299	1298.49
486.755	1244.19
487.212	1076.19
487.668	940.89
488.125	869.59
488.582	792.39
489.038	774.19
489.494	734.19
489.951	716.29
490.407	691.49
490.864	672.89
491.32	666.19
491.776	662.89
492.233	668.39
492.689	643.99
493.145	638.99
493.602	627.59
494.058	631.39
494.514	639.29
494.97	653.39
495.426	652.69
495.882	641.99
496.338	626.99
496.794	637.59
497.251	620.69
497.707	643.39
498.163	632.89
498.618	634.09
499.074	640.79
499.53	665.19
499.986	657.49
500.442	650.89
500.898	633.29
501.354	630.99
501.809	628.49
502.265	639.09
502.721	644.79
503.177	643.69
503.632	651.49
504.088	642.89
504.543	669.19
504.999	686.69
505.455	655.79
505.91	654.09
506.366	655.99
506.821	644.99
507.277	652.79
507.732	646.09
508.187	638.99
508.643	655.39
509.098	650.09
509.553	663.59
510.009	676.39
510.464	662.19
510.919	693.09
511.375	701.29
511.83	699.59
512.285	716.19
512.74	744.29
513.195	757.09
513.65	750.19
514.105	743.59
514.56	750.79
515.015	768.99
515.47	778.99
515.925	770.09
516.38	774.19
516.835	775.29
517.29	762.79
517.745	774.09
518.2	756.09
518.655	736.49
519.109	730.19
519.564	721.49
520.019	712.39
520.474	703.39
520.928	701.99
521.383	695.19
521.838	681.89
522.292	695.69
522.747	696.99
523.201	695.29
523.656	686.29
524.11	678.49
524.565	682.69
525.019	671.59
525.474	681.19
525.928	679.49
526.382	672.19
526.837	687.39
527.291	676.49
527.745	668.19
528.2	665.99
528.654	667.89
529.108	667.49
529.562	664.19
530.016	664.89
530.47	659.99
530.925	665.69
531.379	662.19
531.833	674.09
532.287	657.99
532.741	664.69
533.195	664.59
533.649	661.69
534.103	680.09
534.556	654.69
535.01	663.29
535.464	659.99
535.918	670.89
536.372	670.79
536.826	672.49
537.279	650.99
537.733	660.89
538.187	665.39
538.64	662.19
539.094	671.79
539.548	678.99
540.001	670.99
540.455	681.59
540.908	674.89
541.362	689.29
541.815	688.89
542.269	708.09
542.722	707.29
543.175	714.29
543.629	714.89
544.082	729.29
544.536	730.19
544.989	734.89
545.442	722.89
545.895	730.09
546.349	738.19
546.802	736.39
547.255	735.09
547.708	748.99
548.161	741.59
548.614	753.29
549.067	754.49
549.52	741.49
549.973	740.99
550.426	731.99
550.879	727.09
551.332	734.89
551.785	735.19
552.238	725.29
552.691	738.39
553.144	749.79
553.596	757.69
554.049	788.29
554.502	789.89
554.955	809.99
555.407	807.79
555.86	803.29
556.313	792.19
556.765	777.89
557.218	779.59
557.67	782.89
558.123	780.29
558.576	775.69
559.028	784.09
559.48	776.89
559.933	782.89
560.385	747.89
560.838	725.69
561.29	702.89
561.742	696.69
562.195	682.19
562.647	691.89
563.099	696.99
563.551	688.19
564.004	697.69
564.456	682.39
564.908	668.39
565.36	660.79
565.812	645.99
566.264	632.19
566.716	628.69
567.168	624.39
567.62	613.69
568.072	615.69
568.524	611.69
568.976	613.79
569.428	591.19
569.88	596.79
570.332	602.29
570.784	591.79
571.235	605.29
571.687	602.19
572.139	610.29
572.59	618.59
573.042	617.29
573.494	614.89
573.945	618.69
574.397	591.39
574.849	605.79
575.3	590.49
575.752	582.39
576.203	577.29
576.655	589.49
577.106	580.69
577.557	579.19
578.009	574.99
578.46	560.19
578.912	570.99
579.363	569.29
579.814	568.49
580.265	563.79
580.717	564.59
581.168	568.49
581.619	573.09
582.07	576.79
582.521	570.69
582.972	558.69
583.423	575.49
583.875	578.79
584.326	581.39
584.777	588.49
585.227	598.59
585.678	616.59
586.129	627.19
586.58	650.49
587.031	657.69
587.482	692.99
587.933	717.19
588.384	693.09
588.834	656.79
589.285	654.69
589.736	659.69
590.186	646.09
590.637	645.69
591.088	625.99
591.538	622.69
591.989	612.69
592.439	597.09
592.89	593.29
593.34	581.19
593.791	581.29
594.241	568.39
594.692	574.09
595.142	569.49
595.593	564.09
596.043	577.79
596.493	585.19
596.943	583.69
597.394	585.49
597.844	577.59
598.294	611.89
598.744	626.89
599.195	637.59
599.645	670.19
600.095	698.89
600.545	729.39
600.995	768.09
601.445	810.59
601.895	858.79
602.345	899.59
602.795	892.59
603.245	861.19
603.695	832.19
604.145	782.29
604.594	737.99
605.044	705.09
605.494	640.99
605.944	616.39
606.393	608.89
606.843	593.19
607.293	583.89
607.743	578.49
608.192	584.09
608.642	597.99
609.091	597.89
609.541	609.99
609.99	602.79
610.44	596.89
610.889	572.69
611.339	556.09
611.788	550.29
612.238	555.39
612.687	561.29
613.136	553.09
613.586	568.29
614.035	556.49
614.484	572.69
614.933	572.19
615.383	561.29
615.832	554.39
616.281	554.39
616.73	539.59
617.179	529.49
617.628	516.59
618.077	500.89
618.526	490.39
618.975	486.49
619.424	478.39
619.873	478.29
620.322	490.89
620.771	478.09
621.22	473.79
621.669	461.59
622.118	457.89
622.567	453.59
623.015	445.19
623.464	445.29
623.913	439.69
624.361	430.99
624.81	430.99
625.259	439.29
625.707	437.59
626.156	434.79
626.604	441.39
627.053	438.79
627.501	438.59
627.95	447.59
628.398	455.59
628.847	443.79
629.295	435.29
629.744	439.29
630.192	436.59
630.64	440.19
631.089	422.69
631.537	420.59
631.985	411.39
632.433	413.79
632.881	407.29
633.33	411.19
633.778	400.39
634.226	403.99
634.674	408.39
635.122	411.29
635.57	420.79
636.018	426.39
636.466	436.59
636.914	426.09
637.362	442.89
637.81	445.79
638.258	447.79
638.705	438.59
639.153	468.49
639.601	472.89
640.049	487.79
640.497	513.89
640.944	537.79
641.392	494.09
641.84	473.49
642.287	443.09
642.735	436.79
643.182	440.39
643.63	429.99
644.078	433.09
644.525	441.39
644.973	444.69
645.42	456.79
645.867	464.29
646.315	486.79
646.762	503.69
647.21	518.79
647.657	531.19
648.104	558.89
648.551	574.29
648.999	610.79
649.446	651.39
649.893	714.59
650.34	805.79
650.787	939.29
651.234	1142.99
651.682	1461.09
652.129	1947.79
652.576	2733.59
653.023	3968.79
653.47	5474.09
653.917	6889.49
654.363	8031.89
654.81	9099.19
655.257	8625.89
655.704	5814.59
656.151	3480.79
656.598	2290.69
657.044	1644.59
657.491	1270.29
657.938	1034.19
658.385	871.59
658.831	758.99
659.278	689.39
659.724	610.99
660.171	576.29
660.618	515.99
661.064	483.19
661.511	469.79
661.957	463.69
662.404	454.59
662.85	466.59
663.296	441.89
663.743	412.09
664.189	406.39
664.635	397.59
665.082	386.79
665.528	396.79
665.974	392.39
666.42	384.09
666.867	375.59
667.313	354.59
667.759	349.09
668.205	345.39
668.651	338.09
669.097	348.39
669.543	332.79
669.989	336.69
670.435	340.19
670.881	333.99
671.327	339.49
671.773	345.79
672.219	375.49
672.665	411.99
673.11	436.59
673.556	468.49
674.002	501.59
674.448	494.59
674.893	420.39
675.339	364.49
675.785	330.29
676.23	313.99
676.676	298.89
677.122	295.09
677.567	287.49
678.013	274.99
678.458	269.29
678.904	267.49
679.349	260.79
679.794	270.19
680.24	251.89
680.685	262.39
681.131	261.99
681.576	264.79
682.021	265.99
682.466	257.09
682.912	259.09
683.357	253.79
683.802	282.99
684.247	303.19
684.692	331.69
685.137	366.59
685.583	400.99
686.028	417.69
686.473	387.79
686.918	334.99
687.363	314.89
687.807	293.99
688.252	276.69
688.697	263.09
689.142	262.69
689.587	254.09
690.032	240.79
690.477	252.29
690.921	262.09
691.366	281.99
691.811	295.59
692.255	319.39
692.7	335.59
693.145	364.19
693.589	483.69
694.034	783.89
694.478	1098.69
694.923	1305.19
695.367	1734.19
695.812	918.99
696.256	374.59
696.701	280.09
697.145	258.79
697.59	242.69
698.034	237.29
698.478	244.79
698.922	239.59
699.367	229.79
699.811	246.39
700.255	263.09
700.699	282.89
701.143	302.49
701.588	339.89
702.032	378.39
702.476	378.29
702.92	368.49
703.364	357.29
703.808	448.29
704.252	738.59
704.696	1036.19
705.14	1247.59
705.584	1640.69
706.027	812.99
706.471	388.29
706.915	299.79
707.359	261.09
707.803	237.69
708.246	228.29
708.69	234.99
709.134	231.99
709.577	226.09
710.021	230.89
710.465	227.39
710.908	220.29
711.352	217.39
711.795	224.09
712.239	254.19
712.682	281.59
713.126	300.09
713.569	341.69
714.012	265.69
714.456	231.19
714.899	213.09
715.342	201.79
715.786	196.39
716.229	193.69
716.672	189.49
717.115	181.39
717.558	181.69
718.002	182.39
718.445	190.49
718.888	211.89
719.331	209.39
719.774	225.19
720.217	229.59
720.66	209.09
721.103	198.99
721.546	187.59
721.989	188.99
722.432	172.59
722.874	177.39
723.317	167.49
723.76	169.29
724.203	187.09
724.645	228.19
725.088	318.99
725.531	406.39
725.974	474.39
726.416	401.59
726.859	226.79
727.301	184.69
727.744	172.79
728.187	164.49
728.629	175.49
729.071	184.49
729.514	190.19
729.956	199.79
730.399	199.99
730.841	212.19
731.283	193.19
731.726	195.79
732.168	195.79
732.61	197.59
733.053	208.69
733.495	221.59
733.937	249.09
734.379	287.19
734.821	313.59
735.263	389.69
735.705	585.79
736.148	1089.89
736.59	1838.99
737.032	2326.39
737.474	1915.99
737.916	613.59
738.357	321.79
738.799	240.49
739.241	220.19
739.683	209.89
740.125	221.09
740.567	225.09
741.008	237.09
741.45	240.99
741.892	240.99
742.334	270.19
742.775	288.79
743.217	281.59
743.658	211.59
744.1	189.99
744.542	200.79
744.983	257.19
745.425	299.99
745.866	290.79
746.307	212.69
746.749	203.39
747.19	239.39
747.632	321.99
748.073	596.49
748.514	1283.19
748.956	2070.99
749.397	2616.99
749.838	2201.09
750.279	2272.89
750.72	1152.99
751.162	416.39
751.603	241.99
752.044	191.79
752.485	153.19
752.926	147.09
753.367	150.79
753.808	142.59
754.249	133.99
754.69	138.19
755.131	132.99
755.572	129.69
756.013	128.89
756.453	132.79
756.894	139.59
757.335	139.39
757.776	140.29
758.216	143.39
758.657	138.89
759.098	143.49
759.538	162.79
759.979	197.59
760.42	270.59
760.86	490.19
761.301	1254.09
761.741	3167.79
762.182	5006.49
762.622	3587.09
763.063	1008.89
763.503	414.89
763.943	247.09
764.384	207.09
764.824	190.79
765.264	185.59
765.705	156.29
766.145	135.69
766.585	122.79
767.025	127.69
767.465	119.89
767.906	130.19
768.346	142.09
768.786	149.29
769.226	157.09
769.666	214.39
770.106	415.39
770.546	1058.29
770.986	1965.99
771.426	1832.49
771.866	605.49
772.306	237.69
772.745	147.99
773.185	129.29
773.625	120.79
774.065	106.59
774.505	126.09
774.944	158.39
775.384	296.49
775.824	533.79
776.263	537.59
776.703	246.19
777.142	115.89
777.582	105.69
778.021	83.89
778.461	91.09
778.9	87.49
779.34	92.19
779.779	79.99
780.219	77.79
780.658	77.69
781.097	79.09
781.537	82.39
781.976	78.99
782.415	74.79
782.855	68.99
783.294	71.19
783.733	77.89
784.172	82.19
784.611	72.29
785.05	76.99
785.489	82.49
785.928	86.69
786.367	88.69
786.806	89.19
787.245	101.79
787.684	104.99
788.123	107.09
788.562	97.59
789.001	92.39
789.44	92.49
789.879	90.89
790.317	89.49
790.756	98.99
791.195	94.59
791.634	105.39
792.072	150.19
792.511	248.59
792.95	681.39
793.388	1552.99
793.827	1494.49
794.265	505.29
794.704	206.09
795.142	138.49
795.581	115.09
796.019	102.49
796.458	88.49
796.896	84.49
797.334	98.29
797.773	114.09
798.211	158.99
798.649	300.89
799.087	719.79
799.526	1162.99
799.964	1464.89
800.402	1564.69
800.84	585.29
801.278	220.69
801.716	134.09
802.154	118.59
802.592	110.29
803.03	100.79
803.468	96.89
803.906	104.59
804.344	107.69
804.782	103.59
805.22	98.69
805.658	95.99
806.096	115.69
806.533	122.69
806.971	130.19
807.409	162.49
807.847	223.29
808.284	450.29
808.722	1320.19
809.16	2484.69
809.597	2298.79
810.035	4077.29
810.472	4658.69
810.91	1667.49
811.347	620.09
811.785	311.39
812.222	194.79
812.66	146.69
813.097	127.69
813.535	106.59
813.972	98.19
814.409	93.99
814.846	85.69
815.284	82.69
815.721	74.49
816.158	82.99
816.595	82.29
817.032	129.09
817.47	159.29
817.907	116.09
818.344	82.79
818.781	78.49
819.218	77.69
819.655	103.29
820.092	163.89
820.529	209.29
820.966	152.99
821.403	106.39
821.839	66.69
822.276	72.99
822.713	100.99
823.15	115.09
823.587	89.69
824.023	108.09
824.46	206.59
824.897	632.89
825.333	1026.09
825.77	452.09
826.206	171.19
826.643	107.39
827.08	79.29
827.516	61.09
827.953	54.69
828.389	61.99
828.825	52.79
829.262	55.69
829.698	51.49
830.135	50.59
830.571	43.59
831.007	47.89
831.443	47.79
831.88	41.89
832.316	42.99
832.752	46.49
833.188	46.19
833.624	49.89
834.06	46.49
834.497	49.69
834.933	51.59
835.369	59.09
835.805	43.59
836.241	64.29
836.677	58.19
837.112	67.39
837.548	73.49
837.984	96.89
838.42	146.69
838.856	348.09
839.292	1102.79
839.727	1781.89
840.163	833.09
840.599	670.89
841.034	1523.99
841.47	1697.29
841.906	618.99
842.341	255.49
842.777	147.19
843.212	165.89
843.648	162.79
844.083	92.69
844.519	63.89
844.954	58.19
845.39	47.79
845.825	45.89
846.261	44.59
846.696	40.49
847.131	38.39
847.566	42.79
848.002	37.19
848.437	38.19
848.872	48.89
849.307	49.39
849.742	56.99
850.177	124.79
850.613	395.09
851.048	655.69
851.483	294.29
851.918	118.99
852.353	62.49
852.788	39.69
853.223	36.89
853.657	39.59
854.092	32.39
854.527	34.99
854.962	32.79
855.397	36.39
855.832	41.29
856.266	31.89
856.701	32.09
857.136	33.09
857.57	31.39
858.005	41.39
858.44	51.09
858.874	33.09
859.309	41.09
859.743	24.59
860.178	39.69
860.612	29.09
861.047	45.09
861.481	53.59
861.915	66.89
862.35	43.29
862.784	24.49
863.218	26.09
863.653	27.39
864.087	38.19
864.521	43.89
864.955	50.39
865.39	111.89
865.824	137.59
866.258	100.49
866.692	162.19
867.126	175.09
867.56	103.19
867.994	46.19
868.428	31.29
868.862	35.99
869.296	47.79
869.73	49.99
870.164	50.59
870.598	45.69
871.031	35.79
871.465	27.39
871.899	30.59
872.333	17.29
872.766	20.99
873.2	18.79
873.634	26.99
874.067	23.69
874.501	17.59
874.935	27.09
875.368	24.39
875.802	18.89
876.235	19.59
876.669	13.79
877.102	22.49
877.535	18.09
877.969	17.29
878.402	18.59
878.836	14.09
879.269	20.69
879.702	20.19
880.135	16.49
880.569	15.99
881.002	15.99
881.435	15.89
881.868	13.99
882.301	14.79
882.734	14.19
883.167	11.09
883.601	14.19
884.034	19.69
884.467	13.69
884.899	16.29
885.332	14.09
885.765	14.79
886.198	10.99
886.631	11.99
887.064	21.79
887.497	19.99
887.929	19.89
888.362	7.69
888.795	9.89
889.228	16.89
889.66	18.69
890.093	11.09
890.526	12.39
890.958	9.09
891.391	18.09
891.823	17.39
892.256	9.89
892.688	10.49
893.121	9.49
893.553	13.59
893.985	17.19
894.418	18.39
894.85	8.39
895.282	10.19
895.715	13.59
896.147	19.69
896.579	16.29
897.011	16.79
897.444	15.49
897.876	9.79
898.308	11.29
898.74	13.79
899.172	11.69
899.604	16.99
900.036	18.59
900.468	18.09
900.9	11.79
901.332	17.19
901.764	11.69
902.196	17.89
902.628	12.89
903.06	11.89
903.491	23.19
903.923	24.99
904.355	16.79
904.787	20.69
905.218	24.09
905.65	12.09
906.082	8.29
906.513	10.69
906.945	9.19
907.376	7.59
907.808	10.09
908.239	15.39
908.671	17.29
909.102	16.99
909.534	19.19
909.965	35.99
910.397	62.79
910.828	235.79
911.259	371.09
911.691	168.59
912.122	79.39
912.553	42.09
912.984	23.29
913.415	21.89
913.847	18.69
914.278	12.89
914.709	17.49
915.14	15.99
915.571	12.59
916.002	7.69
916.433	13.89
916.864	13.29
917.295	7.19
917.726	17.59
918.157	11.29
918.587	25.69
919.018	14.59
919.449	20.29
919.88	14.59
920.311	19.79
920.741	34.39
921.172	114.19
921.603	114.69
922.033	51.39
922.464	35.49
922.895	17.69
923.325	14.09
923.756	11.99
924.186	10.29
924.617	15.39
925.047	17.99
925.478	22.59
925.908	14.39
926.338	9.69
926.769	10.59
927.199	13.79
927.629	5.59
928.06	19.09
928.49	13.59
928.92	12.39
929.35	10.39
929.78	9.29
930.21	3.09
930.641	2.79
931.071	5.99
931.501	3.09
931.931	7.49
932.361	10.09
932.791	1.79
933.221	5.69
933.651	2.39
934.08	14.39
934.51	22.69
934.94	4.89
935.37	5.29
935.8	10.79
936.229	6.89
936.659	10.99
937.089	1.99
937.519	14.09
937.948	17.49
938.378	19.29
938.807	3.69
939.237	1.99
939.666	13.69
940.096	0.09
940.525	2.39
940.955	5.59
941.384	6.79
941.814	-6.31
942.243	-3.51
942.672	4.99
943.102	-4.81
943.531	3.59
943.96	5.59
944.39	3.49
944.819	6.19
945.248	4.89
945.677	5.09
946.106	-0.21
946.535	7.09
946.964	5.19
947.393	7.29
947.822	0.59
948.251	5.39
948.68	5.59
949.109	5.99
949.538	4.69
949.967	-5.31
950.396	0.49
950.825	0.09
951.254	5.29
951.682	-5.21
952.111	0.29
952.54	7.99
952.969	-1.61
953.397	-1.71
953.826	-6.31
954.254	-5.81
954.683	6.49
955.112	2.69
955.54	-2.11
955.969	-0.21
956.397	1.59
956.826	-5.81
957.254	0.49
957.682	5.99
958.111	9.49
958.539	10.59
958.967	-4.51
959.396	-2.91
959.824	1.69
960.252	1.29
960.68	-3.61
961.109	-5.91
961.537	-8.41
961.965	0.19
962.393	2.79
962.821	-6.71
963.249	-0.21
963.677	5.19
964.105	-1.71
964.533	31.89
964.961	34.49
965.389	15.69
965.817	9.19
966.245	0.89
966.672	-1.51
967.1	1.29
967.528	3.99
967.956	-0.11
968.383	1.99
968.811	-2.11
969.239	-4.31
969.666	0.09
970.094	-0.91
970.522	1.89
970.949	2.69
971.377	-4.41
971.804	-5.81
972.232	-4.01
972.659	-0.91
973.087	-2.51
973.514	-7.31
973.941	-7.91
974.369	4.99
974.796	4.79
975.223	3.99
975.651	3.09
976.078	3.69
976.505	1.19
976.932	-0.51
977.359	8.89
977.786	13.09
978.214	-0.31
978.641	0.09
979.068	0.09
979.495	-0.31
979.922	1.79
980.349	-2.91
980.776	-1.71
981.202	-2.91
981.629	8.39
982.056	7.19
982.483	-0.51
982.91	0.29
983.337	-6.81
983.763	2.39
984.19	-5.81
984.617	-0.61
985.043	-6.01
985.47	5.49
985.897	-5.21
986.323	-5.91
986.75	7.29
987.176	-5.71
987.603	-1.21
988.029	-1.11
988.456	-2.51
988.882	3.59
989.308	-3.31
989.735	-0.81
990.161	-0.11
990.587	-5.51
991.014	-0.41
991.44	3.79
991.866	-2.61
992.292	-2.81
992.719	-1.71
993.145	8.89
993.571	-7.01
993.997	-3.21
994.423	0.49
994.849	-4.21
995.275	0.89
995.701	2.99
996.127	-2.21
996.553	-1.71
996.979	0.59
997.405	-3.51
997.83	-2.51
998.256	-2.91
998.682	-5.01
999.108	-12.41
999.534	1.29
999.959	3.79
1000.385	3.79
1000.811	-3.81
1001.236	-10.91
1001.662	-9.11
1002.087	-7.51
1002.513	5.79
1002.938	-0.51
1003.364	-0.21
1003.789	2.29
1004.215	3.59
1004.64	3.99
1005.066	-1.61
1005.491	0.99
1005.916	0.49
1006.342	-0.31
1006.767	-4.41
1007.192	3.59
1007.617	-2.21
1008.042	-6.41
1008.468	-4.91
1008.893	-1.71
1009.318	-3.21
1009.743	-1.81
1010.168	3.29
1010.593	8.29
1011.018	-2.91
1011.443	-4.21
1011.868	0.39
1012.293	-4.61
1012.718	-1.01
1013.143	7.79
1013.567	2.19
1013.992	-0.01
1014.417	-10.01
1014.842	-1.91
1015.267	-12.01
1015.691	-1.41
1016.116	9.19
1016.541	-2.11
1016.965	10.39
1017.39	-3.11
1017.814	-0.61
1018.239	4.19
1018.663	-6.81
1019.088	-8.51
1019.512	-3.01
1019.937	-0.21
1020.361	-4.51
1020.785	-11.31
1021.21	-6.01
1021.634	-0.11
1022.058	0.39
1022.483	1.89
1022.907	-2.41
1023.331	0.09
1023.755	5.99
1024.179	-6.71
1024.604	-7.31
1025.028	-3.91
1025.452	-9.11
1025.876	-6.11
1026.3	-0.51
1026.724	-9.51
1027.148	-4.81
1027.572	-3.41
1027.996	1.59
1028.42	0.59
1028.843	-7.11
1029.267	-1.31
1029.691	0.59
1030.115	-3.41
1030.539	-4.41
1030.962	-4.11
1031.386	-3.01
1031.81	-0.21
1032.233	-1.11
1032.657	0.39
1033.08	-3.61
1033.504	-1.21
1033.927	-1.01
1034.351	-1.81
1034.774	-5.11
1035.198	0.29
1035.621	-3.81
1036.045	-5.81
1036.468	-1.41
1036.891	-6.01
1037.315	-8.21
1037.738	-5.71
1038.161	4.69
1038.584	0.59
1039.008	6.19
1039.431	-0.21
1039.854	1.59
1040.277	-8.71
1040.7	-11.81
1041.123	4.49
1041.546	-9.61
1041.969	-7.51
1042.392	-3.01
1042.815	-0.81
1043.238	3.09
1043.661	4.99
1044.084	-3.61
1044.507	-2.51
1044.93	-3.01
1045.352	-5.91
1045.775	1.59
1046.198	-2.01
1046.621	-2.71
1047.043	2.79
1047.466	8.29
1047.889	0.09
1048.311	-7.81
1048.734	-2.01
1049.156	5.39
1049.579	1.09
1050.001	-1.91
1050.424	2.89
1050.846	-5.21
1051.269	-1.21
1051.691	-0.11
1052.113	-0.91
1052.536	-0.11
1052.958	0.29
1053.38	-7.71
1053.802	-6.21
1054.225	6.89
1054.647	-4.91
1055.069	-0.61
1055.491	3.99
1055.913	-5.61
1056.335	1.59
1056.757	-3.01
1057.179	-5.61
1057.601	-3.21
1058.023	-2.81
1058.445	-6.31
1058.867	-1.51
1059.289	-1.51
1059.711	-7.21
1060.133	-2.01
1060.555	-5.81
1060.976	-3.21
1061.398	-3.31
1061.82	-3.01
1062.241	1.99
1062.663	-4.01
1063.085	-0.31
1063.506	2.69
1063.928	-8.21
1064.35	-2.81
1064.771	-9.81
1065.193	-2.51
1065.614	-3.71
1066.035	-4.61
1066.457	-1.51
1066.878	5.89
1067.3	-6.01
1067.721	-4.31
1068.142	-3.61
1068.564	-2.51
1068.985	-0.21
1069.406	-1.01
1069.827	-1.01
1070.248	2.59
1070.67	-8.61
1071.091	-3.41
1071.512	-0.01
1071.933	-1.01
1072.354	-6.31
1072.775	1.19
1073.196	-4.51
1073.617	0.49
1074.038	-0.51
1074.459	-4.91
1074.88	-5.51
1075.3	3.69
1075.721	-7.71
1076.142	1.79
1076.563	2.09
1076.983	-10.31
1077.404	-0.91
1077.825	-5.81
1078.246	-1.81
1078.666	-9.81
1079.087	1.99
1079.507	-4.51
1079.928	-0.41
1080.348	-1.41
1080.769	-5.41
1081.189	4.59
1081.61	-0.51
1082.03	-2.51
1082.451	-3.51
1082.871	-4.81
1083.291	-9.01
1083.711	-4.31
1084.132	0.39
1084.552	-5.51
1084.972	-1.91
1085.392	-10.91
1085.813	-8.21
1086.233	0.59
1086.653	-1.61
1087.073	1.49
1087.493	-8.01
1087.913	-6.51
1088.333	-2.21
1088.753	-0.61
1089.173	0.89
1089.593	-6.41
1090.013	2.19
1090.433	2.19
1090.852	2.09
1091.272	2.19
1091.692	-0.61
1092.112	-7.71
1092.531	-8.81
1092.951	-15.81
1093.371	0.99
1093.79	5.39
1094.21	-8.81
1094.63	-1.81
1095.049	-0.11
1095.469	-2.31
1095.888	-1.71
1096.308	1.29
1096.727	6.39
1097.146	-4.21
1097.566	3.59
1097.985	-3.11
1098.405	-6.71
1098.824	-4.01
1099.243	0.09
1099.662	-3.81
1100.082	-8.11
1100.501	-2.31
1100.92	-8.11
1101.339	-5.11
1101.758	-2.51
