Data from 20171114-ORNL-Ar_H_NY_Subt18_08-06-31-107.txt Node
Date: Tue Nov 14 08:06:31 EST 2017
User: Ender
Spectrometer: HR+D1039
Trigger mode: 0
Integration Time (sec): 2.730000E-2
Scans to average: 10
Electric dark correction enabled: true
Nonlinearity correction enabled: false
Boxcar width: 0
XAxis mode: Wavelengths
Number of Pixels in Spectrum: 2048
>>>>>Begin Spectral Data<<<<<
187.836	-4.09
188.309	-4.09
188.782	-4.09
189.255	-0.19
189.728	-0.99
190.201	8.51
190.674	-1.39
191.147	-0.79
191.619	-7.09
192.092	2.31
192.565	7.81
193.038	3.21
193.511	1.81
193.984	-3.19
194.456	-1.29
194.929	-3.49
195.402	-4.89
195.874	3.81
196.347	-4.59
196.82	-10.89
197.292	6.71
197.765	-3.79
198.237	-15.29
198.71	3.51
199.182	-2.49
199.655	-0.59
200.127	1.51
200.6	-2.59
201.072	-0.49
201.544	-4.99
202.017	-2.59
202.489	2.01
202.961	1.21
203.433	-3.39
203.906	-12.59
204.378	-7.99
204.85	-6.69
205.322	-6.39
205.794	-2.09
206.266	-5.29
206.739	-9.59
207.211	0.61
207.683	-7.29
208.155	-8.69
208.627	-10.09
209.099	-2.09
209.57	-8.69
210.042	-7.19
210.514	-2.49
210.986	-5.29
211.458	-11.99
211.93	-3.99
212.402	0.41
212.873	-6.49
213.345	-10.09
213.817	-13.39
214.288	-4.29
214.76	-12.69
215.232	-1.59
215.703	-3.19
216.175	0.11
216.646	-9.49
217.118	-7.29
217.589	-1.79
218.061	-1.99
218.532	-13.99
219.004	-5.29
219.475	-2.29
219.946	2.61
220.418	-6.39
220.889	8.11
221.36	-0.99
221.832	-8.09
222.303	-5.59
222.774	3.01
223.245	-3.19
223.717	-4.19
224.188	-0.69
224.659	-9.39
225.13	-1.89
225.601	-5.29
226.072	-0.19
226.543	2.21
227.014	-1.49
227.485	1.51
227.956	-4.79
228.427	-0.09
228.898	-4.29
229.369	3.41
229.839	-0.69
230.31	-3.09
230.781	4.51
231.252	-6.79
231.722	-4.69
232.193	-6.89
232.664	-4.19
233.135	-4.29
233.605	0.71
234.076	0.01
234.546	-2.99
235.017	3.81
235.487	-1.89
235.958	-4.59
236.428	-2.39
236.899	5.31
237.369	3.11
237.84	-9.59
238.31	3.61
238.78	-3.69
239.251	1.11
239.721	-2.69
240.191	-0.09
240.662	-5.19
241.132	-1.49
241.602	-3.09
242.072	-1.99
242.542	9.51
243.013	-3.99
243.483	4.81
243.953	-1.59
244.423	-3.49
244.893	1.61
245.363	5.21
245.833	-0.89
246.303	-0.29
246.773	4.31
247.243	3.21
247.712	7.61
248.182	5.91
248.652	4.31
249.122	-4.29
249.592	12.61
250.061	13.91
250.531	25.71
251.001	12.51
251.471	18.41
251.94	20.61
252.41	4.31
252.879	4.31
253.349	11.91
253.818	5.81
254.288	1.81
254.757	3.41
255.227	-3.59
255.696	-1.19
256.166	4.81
256.635	3.41
257.105	14.81
257.574	8.11
258.043	8.21
258.513	15.81
258.982	13.01
259.451	2.01
259.92	12.91
260.389	17.11
260.859	13.41
261.328	14.91
261.797	15.91
262.266	10.31
262.735	14.61
263.204	3.61
263.673	-1.49
264.142	9.01
264.611	-4.89
265.08	-1.09
265.549	-4.59
266.018	4.51
266.487	-3.19
266.955	-4.79
267.424	-0.49
267.893	6.71
268.362	-0.49
268.83	3.41
269.299	5.51
269.768	3.31
270.236	10.71
270.705	3.31
271.174	4.91
271.642	5.31
272.111	5.81
272.579	18.21
273.048	21.01
273.516	30.11
273.985	26.41
274.453	18.41
274.922	18.91
275.39	9.61
275.858	0.91
276.327	18.11
276.795	17.21
277.263	8.61
277.731	25.01
278.2	52.01
278.668	52.51
279.136	48.61
279.604	21.71
280.072	19.11
280.54	11.61
281.008	4.71
281.477	13.81
281.945	15.91
282.413	13.51
282.881	16.01
283.348	7.01
283.816	11.71
284.284	17.41
284.752	25.81
285.22	13.81
285.688	9.21
286.156	15.81
286.623	43.41
287.091	53.11
287.559	26.61
288.026	19.11
288.494	15.01
288.962	10.41
289.429	10.51
289.897	17.81
290.364	12.71
290.832	16.91
291.3	12.31
291.767	18.61
292.234	19.71
292.702	15.81
293.169	15.11
293.637	24.41
294.104	17.01
294.571	11.21
295.039	11.21
295.506	13.01
295.973	22.61
296.44	14.41
296.908	19.11
297.375	18.91
297.842	15.51
298.309	16.31
298.776	12.71
299.243	21.71
299.71	12.61
300.177	23.91
300.644	19.91
301.111	22.51
301.578	24.41
302.045	21.81
302.512	28.21
302.979	27.01
303.446	23.31
303.913	17.01
304.379	17.41
304.846	33.11
305.313	33.71
305.78	22.11
306.246	27.31
306.713	23.51
307.18	29.01
307.646	23.71
308.113	29.11
308.579	23.71
309.046	23.11
309.512	25.81
309.979	15.71
310.445	30.31
310.912	20.01
311.378	32.81
311.845	33.51
312.311	34.21
312.777	31.81
313.244	25.81
313.71	38.51
314.176	33.51
314.642	30.71
315.109	35.11
315.575	38.21
316.041	34.01
316.507	30.91
316.973	39.81
317.439	36.51
317.905	33.71
318.371	35.11
318.837	38.81
319.303	40.21
319.769	37.01
320.235	37.21
320.701	40.81
321.167	43.71
321.633	29.41
322.099	35.71
322.564	46.41
323.03	39.11
323.496	35.91
323.962	40.81
324.427	37.61
324.893	44.31
325.359	39.21
325.824	36.11
326.29	35.81
326.755	35.71
327.221	35.91
327.686	43.41
328.152	51.21
328.617	42.11
329.083	46.51
329.548	52.11
330.014	45.51
330.479	39.81
330.944	51.21
331.41	38.41
331.875	45.91
332.34	46.21
332.805	48.91
333.271	49.11
333.736	41.11
334.201	50.31
334.666	54.31
335.131	54.91
335.596	52.21
336.061	50.61
336.526	44.51
336.991	47.91
337.456	56.21
337.921	43.11
338.386	51.51
338.851	45.01
339.316	43.01
339.781	50.31
340.246	56.01
340.711	42.81
341.175	53.11
341.64	46.51
342.105	46.51
342.569	61.01
343.034	59.51
343.499	57.11
343.963	55.31
344.428	56.91
344.893	65.61
345.357	61.81
345.822	65.61
346.286	65.61
346.751	76.01
347.215	66.31
347.679	75.71
348.144	96.31
348.608	78.01
349.073	71.61
349.537	77.71
350.001	79.11
350.465	89.91
350.93	88.11
351.394	83.41
351.858	67.81
352.322	86.81
352.786	84.21
353.25	99.11
353.715	110.91
354.179	102.01
354.643	123.81
355.107	128.51
355.571	108.11
356.035	104.91
356.498	123.11
356.962	128.91
357.426	133.41
357.89	116.81
358.354	88.11
358.818	80.41
359.281	80.81
359.745	79.41
360.209	79.31
360.673	75.21
361.136	82.81
361.6	84.11
362.064	84.81
362.527	90.11
362.991	92.01
363.454	90.61
363.918	81.51
364.381	83.31
364.845	81.11
365.308	93.31
365.772	88.21
366.235	92.71
366.698	86.91
367.162	90.51
367.625	90.21
368.088	86.01
368.552	96.11
369.015	91.11
369.478	93.91
369.941	99.21
370.404	100.61
370.867	106.31
371.331	111.81
371.794	113.31
372.257	112.21
372.72	123.11
373.183	115.01
373.646	108.31
374.109	107.91
374.572	118.21
375.035	113.81
375.497	113.11
375.96	108.81
376.423	106.91
376.886	115.81
377.349	112.71
377.811	104.81
378.274	101.71
378.737	109.81
379.199	115.01
379.662	113.61
380.125	122.11
380.587	118.21
381.05	122.71
381.512	132.81
381.975	136.51
382.437	135.31
382.9	130.51
383.362	135.01
383.825	140.91
384.287	152.71
384.75	143.01
385.212	142.91
385.674	138.01
386.136	140.11
386.599	127.31
387.061	128.21
387.523	132.81
387.985	146.81
388.447	156.21
388.91	154.91
389.372	158.31
389.834	158.01
390.296	145.71
390.758	163.01
391.22	176.91
391.682	212.01
392.144	300.21
392.606	236.31
393.068	174.51
393.529	172.81
393.991	159.21
394.453	145.81
394.915	160.41
395.377	197.61
395.838	221.31
396.3	161.21
396.762	147.81
397.224	137.81
397.685	131.61
398.147	136.01
398.608	133.61
399.07	133.61
399.531	136.21
399.993	151.01
400.454	150.31
400.916	150.01
401.377	155.51
401.839	158.31
402.3	157.71
402.762	176.61
403.223	193.51
403.684	179.51
404.145	170.51
404.607	159.21
405.068	170.41
405.529	179.61
405.99	195.41
406.451	175.61
406.913	175.21
407.374	172.11
407.835	164.81
408.296	170.91
408.757	175.91
409.218	191.61
409.679	182.01
410.14	190.11
410.601	184.71
411.062	190.11
411.522	196.81
411.983	195.91
412.444	182.21
412.905	189.51
413.366	189.71
413.826	202.41
414.287	220.91
414.748	274.11
415.208	255.51
415.669	217.51
416.13	211.61
416.59	210.01
417.051	218.81
417.511	231.91
417.972	246.01
418.432	255.61
418.893	300.21
419.353	258.51
419.814	205.51
420.274	191.91
420.734	190.61
421.195	209.41
421.655	199.71
422.115	194.41
422.576	195.71
423.036	207.01
423.496	214.61
423.956	229.21
424.416	241.01
424.876	271.31
425.336	271.21
425.797	272.51
426.257	269.71
426.717	258.31
427.177	245.61
427.637	230.91
428.097	253.01
428.556	260.31
429.016	274.31
429.476	271.81
429.936	289.81
430.396	285.01
430.856	299.31
431.315	328.31
431.775	361.41
432.235	395.91
432.694	356.21
433.154	375.71
433.614	406.01
434.073	351.41
434.533	292.81
434.993	282.51
435.452	297.61
435.912	310.11
436.371	298.91
436.83	294.01
437.29	277.01
437.749	258.41
438.209	261.51
438.668	285.41
439.127	300.21
439.587	275.61
440.046	256.01
440.505	274.01
440.964	289.01
441.424	338.11
441.883	321.51
442.342	276.11
442.801	236.51
443.26	229.21
443.719	229.61
444.178	231.41
444.637	221.11
445.096	229.41
445.555	238.11
446.014	228.91
446.473	233.81
446.932	244.91
447.391	237.31
447.849	235.71
448.308	228.21
448.767	240.41
449.226	244.41
449.685	245.11
450.143	253.41
450.602	248.71
451.061	236.11
451.519	240.91
451.978	240.91
452.436	250.41
452.895	247.21
453.353	268.01
453.812	249.11
454.27	244.41
454.729	242.71
455.187	254.81
455.646	252.81
456.104	259.01
456.562	272.51
457.021	279.71
457.479	274.11
457.937	281.81
458.395	270.91
458.854	260.31
459.312	267.91
459.77	288.81
460.228	260.71
460.686	254.21
461.144	255.91
461.602	250.01
462.06	252.71
462.518	261.21
462.976	267.01
463.434	274.61
463.892	273.71
464.35	288.31
464.808	301.71
465.266	275.21
465.724	283.31
466.181	288.31
466.639	285.61
467.097	293.51
467.555	310.11
468.012	315.51
468.47	321.41
468.928	345.51
469.385	358.91
469.843	356.51
470.3	359.11
470.758	375.71
471.215	404.31
471.673	427.21
472.13	424.61
472.588	437.61
473.045	384.91
473.503	403.61
473.96	413.71
474.417	420.21
474.875	449.11
475.332	498.91
475.789	483.31
476.246	478.41
476.704	507.21
477.161	529.81
477.618	553.81
478.075	574.31
478.532	646.71
478.989	718.31
479.446	841.51
479.903	798.71
480.36	838.41
480.817	893.61
481.274	988.81
481.731	1104.11
482.188	1199.21
482.645	1338.31
483.102	1451.61
483.558	1591.71
484.015	1653.01
484.472	1623.11
484.929	1570.91
485.385	1523.31
485.842	1471.21
486.299	1410.21
486.755	1339.51
487.212	1129.21
487.668	955.61
488.125	887.11
488.582	815.21
489.038	768.01
489.494	744.71
489.951	712.91
490.407	688.61
490.864	673.71
491.32	665.61
491.776	668.51
492.233	664.71
492.689	636.91
493.145	629.71
493.602	623.61
494.058	635.51
494.514	647.11
494.97	660.41
495.426	668.91
495.882	643.71
496.338	627.31
496.794	652.11
497.251	643.21
497.707	657.21
498.163	657.91
498.618	661.21
499.074	670.61
499.53	702.21
499.986	708.01
500.442	688.91
500.898	659.31
501.354	648.71
501.809	660.11
502.265	670.71
502.721	687.01
503.177	693.31
503.632	690.51
504.088	712.71
504.543	732.51
504.999	734.61
505.455	683.41
505.91	657.11
506.366	648.61
506.821	653.21
507.277	658.01
507.732	654.71
508.187	652.41
508.643	657.91
509.098	659.51
509.553	675.11
510.009	689.01
510.464	692.01
510.919	711.11
511.375	727.31
511.83	735.41
512.285	757.11
512.74	782.51
513.195	815.91
513.65	800.81
514.105	799.01
514.56	800.91
515.015	826.41
515.47	836.71
515.925	814.01
516.38	827.41
516.835	824.71
517.29	806.51
517.745	803.01
518.2	792.91
518.655	783.01
519.109	769.51
519.564	767.01
520.019	751.01
520.474	757.71
520.928	753.31
521.383	745.01
521.838	738.71
522.292	737.01
522.747	733.61
523.201	731.91
523.656	718.21
524.11	724.51
524.565	719.11
525.019	711.81
525.474	716.21
525.928	732.31
526.382	732.31
526.837	721.71
527.291	732.01
527.745	721.91
528.2	721.61
528.654	712.61
529.108	705.51
529.562	717.41
530.016	715.01
530.47	718.91
530.925	719.81
531.379	720.11
531.833	731.01
532.287	722.71
532.741	727.41
533.195	732.31
533.649	741.01
534.103	746.21
534.556	739.61
535.01	744.41
535.464	743.01
535.918	733.81
536.372	739.11
536.826	741.91
537.279	723.91
537.733	745.71
538.187	739.51
538.64	740.61
539.094	746.81
539.548	761.01
540.001	750.71
540.455	754.31
540.908	760.51
541.362	761.21
541.815	773.51
542.269	791.11
542.722	769.61
543.175	796.61
543.629	801.31
544.082	810.41
544.536	813.71
544.989	820.81
545.442	822.21
545.895	814.31
546.349	818.81
546.802	825.71
547.255	818.41
547.708	835.61
548.161	844.11
548.614	850.41
549.067	857.61
549.52	854.51
549.973	839.01
550.426	842.91
550.879	819.51
551.332	831.81
551.785	833.91
552.238	837.11
552.691	842.81
553.144	862.41
553.596	878.61
554.049	888.11
554.502	924.51
554.955	939.11
555.407	937.01
555.86	935.11
556.313	924.81
556.765	916.71
557.218	922.11
557.67	901.91
558.123	904.81
558.576	908.01
559.028	907.51
559.48	915.61
559.933	906.31
560.385	873.41
560.838	847.31
561.29	811.21
561.742	811.51
562.195	795.21
562.647	797.21
563.099	811.91
563.551	795.41
564.004	809.91
564.456	803.91
564.908	798.81
565.36	772.11
565.812	763.81
566.264	749.11
566.716	747.71
567.168	747.61
567.62	751.61
568.072	720.21
568.524	721.81
568.976	706.71
569.428	701.01
569.88	706.81
570.332	709.21
570.784	709.61
571.235	717.01
571.687	723.61
572.139	732.31
572.59	740.81
573.042	734.91
573.494	734.31
573.945	721.51
574.397	710.61
574.849	716.41
575.3	725.51
575.752	711.81
576.203	703.91
576.655	716.51
577.106	692.51
577.557	690.31
578.009	695.51
578.46	683.11
578.912	681.31
579.363	694.41
579.814	687.91
580.265	682.71
580.717	691.51
581.168	690.31
581.619	694.31
582.07	707.61
582.521	703.41
582.972	701.41
583.423	693.11
583.875	702.81
584.326	715.71
584.777	768.21
585.227	839.11
585.678	940.81
586.129	1025.11
586.58	1094.41
587.031	1174.41
587.482	1324.91
587.933	1509.41
588.384	1322.31
588.834	991.71
589.285	831.71
589.736	813.01
590.186	800.71
590.637	786.61
591.088	764.71
591.538	758.61
591.989	752.11
592.439	747.21
592.89	742.21
593.34	736.11
593.791	730.41
594.241	724.71
594.692	734.51
595.142	729.31
595.593	723.81
596.043	730.51
596.493	743.51
596.943	748.21
597.394	745.41
597.844	738.61
598.294	757.21
598.744	777.91
599.195	797.51
599.645	843.91
600.095	883.81
600.545	938.31
600.995	998.21
601.445	1055.71
601.895	1124.81
602.345	1167.61
602.795	1142.01
603.245	1106.51
603.695	1034.41
604.145	982.61
604.594	944.21
605.044	887.91
605.494	828.51
605.944	787.31
606.393	763.81
606.843	752.21
607.293	754.51
607.743	752.41
608.192	770.41
608.642	777.61
609.091	787.41
609.541	791.51
609.99	793.91
610.44	787.11
610.889	737.01
611.339	720.11
611.788	704.11
612.238	726.31
612.687	741.61
613.136	744.41
613.586	753.71
614.035	764.71
614.484	773.11
614.933	781.11
615.383	771.71
615.832	757.31
616.281	745.91
616.73	707.01
617.179	678.61
617.628	671.81
618.077	649.41
618.526	637.81
618.975	627.41
619.424	629.91
619.873	628.91
620.322	643.01
620.771	638.51
621.22	624.51
621.669	611.01
622.118	613.31
622.567	593.01
623.015	592.11
623.464	585.31
623.913	579.61
624.361	574.11
624.81	568.01
625.259	576.51
625.707	573.71
626.156	575.91
626.604	576.11
627.053	585.21
627.501	585.11
627.95	584.21
628.398	593.11
628.847	585.51
629.295	587.11
629.744	591.01
630.192	588.51
630.64	584.61
631.089	586.11
631.537	593.61
631.985	600.11
632.433	619.21
632.881	629.41
633.33	670.31
633.778	656.01
634.226	581.41
634.674	592.71
635.122	601.31
635.57	599.51
636.018	647.21
636.466	604.51
636.914	585.11
637.362	585.11
637.81	592.31
638.258	597.11
638.705	598.21
639.153	618.91
639.601	637.31
640.049	662.21
640.497	700.11
640.944	713.01
641.392	649.91
641.84	626.71
642.287	604.01
642.735	592.01
643.182	579.91
643.63	592.21
644.078	595.21
644.525	610.51
644.973	613.51
645.42	628.61
645.867	653.61
646.315	650.51
646.762	675.41
647.21	706.31
647.657	733.81
648.104	771.41
648.551	790.21
648.999	861.51
649.446	937.01
649.893	1027.11
650.34	1192.61
650.787	1422.11
651.234	1761.21
651.682	2301.01
652.129	3155.31
652.576	4537.21
653.023	6706.41
653.47	9174.51
653.917	11459.01
654.363	13214.31
654.81	14545.21
655.257	13872.11
655.704	9100.61
656.151	5392.11
656.598	3481.21
657.044	2473.71
657.491	1906.51
657.938	1512.41
658.385	1266.31
658.831	1106.51
659.278	990.61
659.724	877.81
660.171	812.81
660.618	738.41
661.064	705.81
661.511	688.81
661.957	670.61
662.404	662.11
662.85	668.41
663.296	636.41
663.743	572.01
664.189	558.61
664.635	545.21
665.082	540.21
665.528	535.91
665.974	529.91
666.42	524.61
666.867	521.51
667.313	498.31
667.759	490.41
668.205	488.81
668.651	491.81
669.097	493.71
669.543	512.51
669.989	476.81
670.435	464.81
670.881	465.31
671.327	451.71
671.773	475.31
672.219	501.31
672.665	552.31
673.11	602.81
673.556	649.31
674.002	679.11
674.448	677.91
674.893	556.81
675.339	485.31
675.785	451.41
676.23	425.31
676.676	402.91
677.122	391.11
677.567	381.21
678.013	376.81
678.458	369.41
678.904	372.91
679.349	357.91
679.794	367.71
680.24	361.91
680.685	360.71
681.131	354.31
681.576	366.21
682.021	361.21
682.466	356.01
682.912	356.51
683.357	354.81
683.802	392.91
684.247	415.01
684.692	465.01
685.137	496.61
685.583	546.41
686.028	567.91
686.473	523.91
686.918	455.31
687.363	423.81
687.807	402.21
688.252	376.51
688.697	366.61
689.142	342.31
689.587	339.11
690.032	335.91
690.477	351.51
690.921	364.31
691.366	386.51
691.811	412.91
692.255	439.81
692.7	477.71
693.145	512.01
693.589	711.41
694.034	1141.81
694.478	1560.01
694.923	1772.91
695.367	2305.21
695.812	1217.71
696.256	509.61
696.701	384.51
697.145	353.11
697.59	343.81
698.034	329.71
698.478	333.51
698.922	330.51
699.367	331.91
699.811	342.01
700.255	361.01
700.699	396.91
701.143	438.81
701.588	484.61
702.032	527.71
702.476	528.61
702.92	494.41
703.364	500.91
703.808	651.41
704.252	1043.31
704.696	1481.01
705.14	1692.61
705.584	2174.31
706.027	1084.41
706.471	527.61
706.915	394.61
707.359	358.61
707.803	315.91
708.246	318.81
708.69	323.91
709.134	315.41
709.577	311.01
710.021	316.91
710.465	317.41
710.908	306.11
711.352	302.51
711.795	317.01
712.239	360.71
712.682	394.61
713.126	417.21
713.569	477.01
714.012	369.61
714.456	332.51
714.899	306.51
715.342	284.31
715.786	274.41
716.229	267.01
716.672	256.31
717.115	248.91
717.558	258.41
718.002	251.61
718.445	261.71
718.888	288.21
719.331	297.61
719.774	313.31
720.217	320.71
720.66	295.41
721.103	270.61
721.546	258.61
721.989	258.01
722.432	243.81
722.874	248.71
723.317	233.91
723.76	240.51
724.203	265.41
724.645	320.71
725.088	455.11
725.531	581.21
725.974	661.21
726.416	559.61
726.859	314.81
727.301	254.11
727.744	249.71
728.187	239.01
728.629	245.91
729.071	237.51
729.514	258.01
729.956	275.31
730.399	293.81
730.841	291.81
731.283	279.61
731.726	265.61
732.168	268.71
732.61	275.21
733.053	293.21
733.495	319.51
733.937	354.91
734.379	406.91
734.821	443.01
735.263	549.71
735.705	843.41
736.148	1605.81
736.59	2629.71
737.032	3115.61
737.474	2512.91
737.916	814.51
738.357	438.51
738.799	325.91
739.241	311.41
739.683	289.41
740.125	294.91
740.567	301.41
741.008	325.31
741.45	318.01
741.892	322.61
742.334	349.91
742.775	362.91
743.217	345.91
743.658	280.71
744.1	259.21
744.542	268.31
744.983	318.71
745.425	347.71
745.866	349.11
746.307	295.91
746.749	291.31
747.19	335.91
747.632	466.81
748.073	889.71
748.514	1889.61
748.956	2906.91
749.397	3649.21
749.838	3028.81
750.279	3008.51
750.72	1527.81
751.162	564.31
751.603	334.01
752.044	256.61
752.485	219.51
752.926	214.51
753.367	208.81
753.808	204.41
754.249	201.41
754.69	185.51
755.131	192.31
755.572	188.21
756.013	180.11
756.453	182.91
756.894	196.01
757.335	195.51
757.776	195.71
758.216	202.91
758.657	197.71
759.098	204.01
759.538	228.11
759.979	266.11
760.42	384.01
760.86	715.01
761.301	1844.61
761.741	4479.01
762.182	6524.21
762.622	4607.61
763.063	1316.91
763.503	544.51
763.943	358.21
764.384	347.41
764.824	401.11
765.264	430.61
765.705	310.31
766.145	215.11
766.585	187.91
767.025	178.61
767.465	189.21
767.906	246.91
768.346	319.71
768.786	349.41
769.226	264.61
769.666	329.11
770.106	632.71
770.546	1568.81
770.986	2678.11
771.426	2415.71
771.866	803.61
772.306	330.91
772.745	211.71
773.185	177.21
773.625	165.81
774.065	164.31
774.505	203.21
774.944	308.11
775.384	662.51
775.824	1191.41
776.263	1160.01
776.703	498.41
777.142	221.01
777.582	156.71
778.021	141.71
778.461	139.71
778.9	138.11
779.34	138.91
779.779	120.61
780.219	117.71
780.658	108.91
781.097	111.21
781.537	123.01
781.976	112.81
782.415	109.11
782.855	107.71
783.294	108.11
783.733	107.11
784.172	112.71
784.611	102.61
785.05	115.71
785.489	111.71
785.928	122.41
786.367	119.11
786.806	114.21
787.245	135.61
787.684	142.41
788.123	147.91
788.562	132.61
789.001	123.41
789.44	121.91
789.879	120.11
790.317	119.71
790.756	134.21
791.195	127.21
791.634	148.41
792.072	206.61
792.511	361.11
792.95	1020.01
793.388	2158.91
793.827	1957.61
794.265	692.61
794.704	287.81
795.142	185.81
795.581	155.21
796.019	141.11
796.458	131.61
796.896	122.01
797.334	135.31
797.773	154.61
798.211	224.71
798.649	450.81
799.087	1030.91
799.526	1607.41
799.964	2032.51
800.402	2039.41
800.84	762.61
801.278	301.21
801.716	190.01
802.154	157.01
802.592	152.01
803.03	137.91
803.468	141.31
803.906	144.31
804.344	144.71
804.782	140.61
805.22	137.71
805.658	125.21
806.096	144.41
806.533	158.91
806.971	172.71
807.409	221.41
807.847	325.81
808.284	674.91
808.722	1884.11
809.16	3343.61
809.597	3154.51
810.035	5500.91
810.472	5832.61
810.91	2104.81
811.347	808.21
811.785	402.61
812.222	254.41
812.66	196.61
813.097	163.31
813.535	138.21
813.972	132.51
814.409	130.51
814.846	113.01
815.284	114.91
815.721	102.91
816.158	102.41
816.595	120.41
817.032	175.51
817.47	207.01
817.907	179.51
818.344	153.31
818.781	121.11
819.218	101.21
819.655	125.31
820.092	191.51
820.529	217.41
820.966	175.91
821.403	137.51
821.839	105.91
822.276	101.21
822.713	123.01
823.15	132.11
823.587	116.21
824.023	150.81
824.46	305.31
824.897	913.51
825.333	1367.21
825.77	585.51
826.206	232.21
826.643	138.51
827.08	104.31
827.516	77.61
827.953	80.91
828.389	78.61
828.825	74.21
829.262	67.91
829.698	63.61
830.135	68.61
830.571	64.61
831.007	58.21
831.443	63.41
831.88	55.51
832.316	62.61
832.752	61.31
833.188	61.21
833.624	62.91
834.06	73.01
834.497	73.91
834.933	71.31
835.369	73.01
835.805	71.11
836.241	76.01
836.677	76.71
837.112	83.51
837.548	104.71
837.984	141.61
838.42	205.61
838.856	498.81
839.292	1537.31
839.727	2354.21
840.163	1092.21
840.599	938.71
841.034	2038.71
841.47	2145.91
841.906	777.01
842.341	336.41
842.777	228.51
843.212	315.01
843.648	304.31
844.083	150.11
844.519	96.41
844.954	80.31
845.39	62.31
845.825	58.51
846.261	62.91
846.696	53.71
847.131	50.31
847.566	56.71
848.002	47.91
848.437	58.51
848.872	58.61
849.307	56.81
849.742	96.21
850.177	182.81
850.613	568.31
851.048	883.61
851.483	389.21
851.918	152.81
852.353	86.71
852.788	64.71
853.223	57.71
853.657	51.31
854.092	52.21
854.527	43.91
854.962	37.41
855.397	44.81
855.832	50.31
856.266	43.21
856.701	38.41
857.136	38.51
857.57	42.01
858.005	52.61
858.44	61.61
858.874	44.41
859.309	54.51
859.743	45.41
860.178	48.61
860.612	37.71
861.047	49.91
861.481	69.71
861.915	68.81
862.35	41.81
862.784	32.41
863.218	36.01
863.653	35.31
864.087	39.01
864.521	55.51
864.955	70.91
865.39	158.81
865.824	179.61
866.258	112.71
866.692	167.61
867.126	178.21
867.56	102.51
867.994	52.21
868.428	32.31
868.862	45.91
869.296	56.91
869.73	60.21
870.164	49.51
870.598	50.31
871.031	35.81
871.465	30.81
871.899	30.91
872.333	29.71
872.766	27.91
873.2	23.61
873.634	28.31
874.067	25.31
874.501	26.41
874.935	34.11
875.368	28.91
875.802	27.81
876.235	28.71
876.669	21.61
877.102	18.91
877.535	30.21
877.969	19.71
878.402	19.41
878.836	19.21
879.269	19.21
879.702	26.71
880.135	22.41
880.569	20.91
881.002	25.91
881.435	22.81
881.868	17.51
882.301	22.61
882.734	20.11
883.167	20.61
883.601	23.91
884.034	18.91
884.467	19.01
884.899	16.91
885.332	17.71
885.765	14.81
886.198	16.71
886.631	15.21
887.064	14.51
887.497	22.01
887.929	29.41
888.362	17.21
888.795	13.81
889.228	19.41
889.66	20.71
890.093	15.01
890.526	18.11
890.958	21.11
891.391	18.01
891.823	17.21
892.256	13.11
892.688	14.41
893.121	16.61
893.553	16.91
893.985	20.71
894.418	15.81
894.85	17.11
895.282	17.01
895.715	16.31
896.147	18.91
896.579	17.31
897.011	8.81
897.444	15.31
897.876	14.21
898.308	16.31
898.74	13.61
899.172	14.71
899.604	23.11
900.036	18.81
900.468	16.81
900.9	17.71
901.332	18.41
901.764	16.71
902.196	16.71
902.628	13.81
903.06	11.01
903.491	24.01
903.923	26.61
904.355	19.01
904.787	21.31
905.218	24.51
905.65	22.71
906.082	7.31
906.513	14.41
906.945	15.71
907.376	15.11
907.808	21.01
908.239	16.81
908.671	17.81
909.102	22.91
909.534	24.41
909.965	44.71
910.397	91.31
910.828	315.01
911.259	477.71
911.691	217.31
912.122	104.91
912.553	54.31
912.984	32.31
913.415	20.91
913.847	23.11
914.278	16.11
914.709	21.81
915.14	22.41
915.571	19.81
916.002	8.41
916.433	21.51
916.864	18.61
917.295	12.81
917.726	23.31
918.157	14.61
918.587	24.91
919.018	22.41
919.449	19.91
919.88	28.11
920.311	33.21
920.741	51.11
921.172	169.01
921.603	153.41
922.033	71.01
922.464	45.31
922.895	17.71
923.325	16.61
923.756	18.51
924.186	17.21
924.617	24.81
925.047	32.21
925.478	47.11
925.908	44.41
926.338	22.31
926.769	20.01
927.199	20.81
927.629	10.41
928.06	14.11
928.49	12.51
928.92	10.61
929.35	10.21
929.78	10.61
930.21	4.41
930.641	5.81
931.071	11.51
931.501	2.61
931.931	7.71
932.361	11.81
932.791	1.31
933.221	5.21
933.651	4.31
934.08	16.31
934.51	31.81
934.94	15.01
935.37	9.31
935.8	6.41
936.229	0.91
936.659	9.71
937.089	5.91
937.519	13.91
937.948	25.71
938.378	13.91
938.807	8.91
939.237	5.61
939.666	10.51
940.096	-0.19
940.525	3.61
940.955	2.71
941.384	4.01
941.814	-5.59
942.243	-0.69
942.672	2.61
943.102	-0.89
943.531	-2.99
943.96	3.51
944.39	6.31
944.819	6.51
945.248	2.21
945.677	1.81
946.106	7.81
946.535	3.01
946.964	4.11
947.393	9.31
947.822	5.41
948.251	-6.39
948.68	7.51
949.109	3.61
949.538	5.81
949.967	-1.29
950.396	-1.99
950.825	-0.19
951.254	-0.29
951.682	-0.69
952.111	10.21
952.54	5.51
952.969	2.31
953.397	-1.89
953.826	-0.19
954.254	-4.09
954.683	5.41
955.112	-3.99
955.54	-0.89
955.969	6.21
956.397	0.21
956.826	-4.49
957.254	-1.69
957.682	-0.99
958.111	4.81
958.539	-7.99
958.967	5.41
959.396	-4.19
959.824	-0.99
960.252	-0.19
960.68	-9.69
961.109	1.81
961.537	-5.59
961.965	2.51
962.393	0.01
962.821	-1.89
963.249	1.01
963.677	3.41
964.105	3.01
964.533	42.71
964.961	36.91
965.389	18.51
965.817	8.11
966.245	2.11
966.672	-1.69
967.1	-8.39
967.528	1.91
967.956	-1.19
968.383	-8.29
968.811	-4.69
969.239	-9.39
969.666	-1.59
970.094	-0.59
970.522	-0.69
970.949	-0.49
971.377	-5.89
971.804	-0.89
972.232	-1.59
972.659	-5.39
973.087	-8.99
973.514	-2.09
973.941	-3.19
974.369	-0.79
974.796	-1.19
975.223	6.01
975.651	-7.59
976.078	1.71
976.505	1.41
976.932	2.01
977.359	8.51
977.786	11.61
978.214	-0.59
978.641	-3.39
979.068	-2.69
979.495	-2.39
979.922	1.71
980.349	-2.29
980.776	2.01
981.202	-6.79
981.629	6.11
982.056	7.31
982.483	-1.89
982.91	0.31
983.337	-4.19
983.763	3.71
984.19	-4.29
984.617	-6.59
985.043	-6.19
985.47	-2.69
985.897	-2.89
986.323	-6.59
986.75	5.01
987.176	3.51
987.603	-3.19
988.029	-2.89
988.456	1.71
988.882	2.41
989.308	-6.79
989.735	-3.99
990.161	-0.69
990.587	-5.89
991.014	2.71
991.44	8.51
991.866	-1.59
992.292	-1.39
992.719	-1.89
993.145	1.51
993.571	-6.39
993.997	-0.89
994.423	-2.59
994.849	-6.09
995.275	0.31
995.701	-0.49
996.127	-1.69
996.553	-1.09
996.979	-5.79
997.405	-0.09
997.83	-8.69
998.256	-4.29
998.682	-6.59
999.108	-5.99
999.534	-2.19
999.959	-0.29
1000.385	-3.89
1000.811	5.31
1001.236	-0.79
1001.662	-7.39
1002.087	-10.59
1002.513	-5.29
1002.938	1.81
1003.364	-2.89
1003.789	-0.59
1004.215	-0.29
1004.64	-3.49
1005.066	3.31
1005.491	-3.49
1005.916	1.41
1006.342	-4.19
1006.767	-12.99
1007.192	1.51
1007.617	-6.29
1008.042	-6.39
1008.468	-8.99
1008.893	-7.39
1009.318	-4.59
1009.743	-3.89
1010.168	-1.59
1010.593	-0.49
1011.018	-2.79
1011.443	-2.99
1011.868	0.81
1012.293	-7.69
1012.718	-7.59
1013.143	-5.19
1013.567	-5.39
1013.992	-5.99
1014.417	-13.59
1014.842	-2.09
1015.267	-0.39
1015.691	-1.79
1016.116	4.71
1016.541	-0.79
1016.965	-0.29
1017.39	1.41
1017.814	-2.19
1018.239	-2.69
1018.663	-7.39
1019.088	-11.59
1019.512	-6.59
1019.937	-2.59
1020.361	-5.59
1020.785	-10.99
1021.21	-4.89
1021.634	-3.69
1022.058	-6.79
1022.483	4.91
1022.907	-2.69
1023.331	-6.09
1023.755	-0.29
1024.179	-3.29
1024.604	-1.79
1025.028	-6.69
1025.452	-9.89
1025.876	-4.29
1026.3	-3.09
1026.724	-13.29
1027.148	-3.49
1027.572	-10.29
1027.996	-7.69
1028.42	-1.79
1028.843	-5.69
1029.267	-4.19
1029.691	1.01
1030.115	-8.09
1030.539	-0.69
1030.962	-5.79
1031.386	-12.99
1031.81	1.41
1032.233	3.91
1032.657	-4.39
1033.08	-6.89
1033.504	-3.89
1033.927	-8.59
1034.351	0.11
1034.774	-3.29
1035.198	-4.79
1035.621	-5.69
1036.045	-10.59
1036.468	-1.09
1036.891	-14.09
1037.315	-8.59
1037.738	-7.09
1038.161	0.91
1038.584	-2.49
1039.008	-7.49
1039.431	-8.29
1039.854	-4.19
1040.277	-7.99
1040.7	-9.99
1041.123	-2.29
1041.546	-12.99
1041.969	-4.89
1042.392	-6.89
1042.815	-1.39
1043.238	-3.19
1043.661	-1.29
1044.084	-3.39
1044.507	-1.89
1044.93	-4.69
1045.352	-5.19
1045.775	-1.69
1046.198	-3.79
1046.621	-0.39
1047.043	-0.79
1047.466	11.21
1047.889	-5.09
1048.311	-6.99
1048.734	-7.29
1049.156	-3.19
1049.579	-2.99
1050.001	0.41
1050.424	3.51
1050.846	-7.39
1051.269	-2.29
1051.691	-3.69
1052.113	-4.09
1052.536	0.91
1052.958	-8.49
1053.38	-12.49
1053.802	-9.19
1054.225	-0.39
1054.647	-9.59
1055.069	-7.59
1055.491	3.71
1055.913	-8.99
1056.335	-5.99
1056.757	-2.59
1057.179	-3.89
1057.601	-4.49
1058.023	-2.39
1058.445	-9.69
1058.867	-8.49
1059.289	1.01
1059.711	-9.99
1060.133	-4.69
1060.555	-3.59
1060.976	-10.29
1061.398	-5.69
1061.82	-5.39
1062.241	-8.09
1062.663	-10.59
1063.085	-3.49
1063.506	-0.19
1063.928	-7.59
1064.35	-2.29
1064.771	-10.39
1065.193	-1.29
1065.614	-10.99
1066.035	-2.89
1066.457	-7.09
1066.878	-0.59
1067.3	-8.79
1067.721	-5.09
1068.142	-2.09
1068.564	-2.19
1068.985	-6.39
1069.406	-7.89
1069.827	-12.19
1070.248	1.81
1070.67	-11.79
1071.091	-10.89
1071.512	-7.79
1071.933	-12.49
1072.354	-5.99
1072.775	-4.49
1073.196	-13.89
1073.617	1.01
1074.038	-9.19
1074.459	-1.89
1074.88	-11.39
1075.3	-4.19
1075.721	-2.29
1076.142	-2.79
1076.563	1.31
1076.983	-7.99
1077.404	-8.99
1077.825	-7.19
1078.246	-2.79
1078.666	-14.49
1079.087	-9.89
1079.507	-4.79
1079.928	2.21
1080.348	-4.29
1080.769	-3.49
1081.189	-0.59
1081.61	-4.79
1082.03	-8.69
1082.451	-8.99
1082.871	-7.89
1083.291	-11.49
1083.711	-8.19
1084.132	-9.29
1084.552	-1.09
1084.972	-1.19
1085.392	-11.49
1085.813	-9.99
1086.233	-12.79
1086.653	-5.99
1087.073	-3.99
1087.493	-5.69
1087.913	-6.19
1088.333	-2.29
1088.753	-5.19
1089.173	2.51
1089.593	-0.49
1090.013	-3.39
1090.433	-2.69
1090.852	-10.69
1091.272	-4.19
1091.692	-5.49
1092.112	-4.69
1092.531	-8.89
1092.951	-14.69
1093.371	0.21
1093.79	9.41
1094.21	-9.59
1094.63	-10.39
1095.049	-6.29
1095.469	0.61
1095.888	-3.99
1096.308	7.41
1096.727	3.11
1097.146	-10.49
1097.566	-0.59
1097.985	-11.09
1098.405	-0.09
1098.824	-11.29
1099.243	-5.49
1099.662	-7.69
1100.082	-11.49
1100.501	-5.79
1100.92	-6.69
1101.339	-6.89
1101.758	-10.89
