Data from 20171114-ORNL-Ar_H_NY_Subt18_08-09-14-406.txt Node
Date: Tue Nov 14 08:09:14 EST 2017
User: Ender
Spectrometer: HR+D1039
Trigger mode: 0
Integration Time (sec): 2.730000E-2
Scans to average: 10
Electric dark correction enabled: true
Nonlinearity correction enabled: false
Boxcar width: 0
XAxis mode: Wavelengths
Number of Pixels in Spectrum: 2048
>>>>>Begin Spectral Data<<<<<
187.836	-3.94
188.309	-3.94
188.782	-3.94
189.255	-0.04
189.728	-0.94
190.201	2.66
190.674	-2.74
191.147	-1.24
191.619	-5.04
192.092	1.16
192.565	3.46
193.038	0.46
193.511	4.76
193.984	3.46
194.456	-2.94
194.929	-0.64
195.402	-1.44
195.874	3.06
196.347	-0.64
196.82	-6.34
197.292	3.16
197.765	-3.04
198.237	-6.54
198.71	0.86
199.182	-2.34
199.655	0.36
200.127	0.26
200.6	-9.44
201.072	-5.54
201.544	-9.44
202.017	-5.14
202.489	-0.54
202.961	-9.14
203.433	-4.04
203.906	-6.94
204.378	-6.84
204.85	-3.84
205.322	-9.74
205.794	0.26
206.266	-3.04
206.739	-7.04
207.211	0.86
207.683	-11.84
208.155	-5.24
208.627	-7.34
209.099	-0.74
209.57	-8.04
210.042	-2.04
210.514	-4.64
210.986	-7.14
211.458	-13.74
211.93	-6.64
212.402	0.26
212.873	-8.84
213.345	-5.34
213.817	-9.94
214.288	-7.44
214.76	-11.84
215.232	-6.44
215.703	-1.74
216.175	-5.24
216.646	-6.54
217.118	-11.04
217.589	-6.94
218.061	0.96
218.532	-7.14
219.004	1.96
219.475	-3.44
219.946	-2.94
220.418	-8.34
220.889	-0.04
221.36	-5.64
221.832	-3.54
222.303	-10.74
222.774	-1.44
223.245	-13.64
223.717	-8.24
224.188	-2.64
224.659	-9.94
225.13	-14.24
225.601	-3.34
226.072	-4.34
226.543	0.16
227.014	1.16
227.485	-12.94
227.956	-9.14
228.427	-5.54
228.898	1.76
229.369	-1.74
229.839	-7.14
230.31	-5.14
230.781	-2.74
231.252	-6.84
231.722	-13.24
232.193	-5.34
232.664	-6.94
233.135	-4.14
233.605	-4.94
234.076	-9.34
234.546	-3.04
235.017	2.76
235.487	-3.24
235.958	-5.24
236.428	-8.94
236.899	-3.24
237.369	-7.94
237.84	-9.04
238.31	-5.04
238.78	-7.34
239.251	-9.04
239.721	-6.24
240.191	-3.54
240.662	-6.24
241.132	-4.34
241.602	-5.94
242.072	-8.24
242.542	1.56
243.013	-9.24
243.483	-0.74
243.953	-3.04
244.423	-6.74
244.893	-7.04
245.363	2.46
245.833	-2.14
246.303	-7.14
246.773	0.96
247.243	-3.54
247.712	-8.54
248.182	-1.24
248.652	-2.54
249.122	-10.74
249.592	-7.04
250.061	3.06
250.531	7.96
251.001	-1.94
251.471	-0.04
251.94	6.46
252.41	-4.94
252.879	-10.04
253.349	7.36
253.818	3.66
254.288	-7.34
254.757	-4.24
255.227	-11.04
255.696	-5.34
256.166	2.36
256.635	3.66
257.105	-1.94
257.574	-2.34
258.043	1.96
258.513	-5.54
258.982	3.26
259.451	-4.24
259.92	-4.04
260.389	-4.04
260.859	5.96
261.328	1.46
261.797	-1.54
262.266	-5.24
262.735	6.06
263.204	2.36
263.673	-0.34
264.142	2.36
264.611	-9.74
265.08	-2.94
265.549	-5.84
266.018	-5.44
266.487	-5.64
266.955	-6.14
267.424	-6.64
267.893	2.26
268.362	-3.84
268.83	-4.14
269.299	8.46
269.768	-3.04
270.236	2.36
270.705	-5.64
271.174	-0.44
271.642	0.26
272.111	0.86
272.579	3.46
273.048	-0.54
273.516	-6.74
273.985	0.56
274.453	4.16
274.922	8.36
275.39	3.46
275.858	-5.24
276.327	1.46
276.795	10.16
277.263	-0.64
277.731	10.26
278.2	7.66
278.668	2.36
279.136	3.66
279.604	-2.04
280.072	3.36
280.54	6.66
281.008	3.76
281.477	10.46
281.945	3.06
282.413	8.86
282.881	0.66
283.348	5.76
283.816	11.56
284.284	5.46
284.752	13.06
285.22	4.96
285.688	7.86
286.156	6.06
286.623	12.06
287.091	5.66
287.559	7.46
288.026	8.26
288.494	10.66
288.962	-2.94
289.429	2.26
289.897	10.86
290.364	4.56
290.832	8.56
291.3	7.26
291.767	6.66
292.234	10.86
292.702	0.46
293.169	6.26
293.637	14.06
294.104	10.16
294.571	-4.24
295.039	6.56
295.506	8.26
295.973	9.46
296.44	7.46
296.908	7.16
297.375	6.46
297.842	3.36
298.309	6.96
298.776	7.56
299.243	14.96
299.71	8.06
300.177	18.56
300.644	8.96
301.111	7.56
301.578	16.26
302.045	10.96
302.512	17.56
302.979	18.66
303.446	12.76
303.913	8.06
304.379	11.26
304.846	17.96
305.313	13.36
305.78	11.56
306.246	14.16
306.713	8.06
307.18	14.76
307.646	19.06
308.113	18.06
308.579	9.36
309.046	18.76
309.512	17.06
309.979	7.56
310.445	13.76
310.912	17.86
311.378	19.96
311.845	16.86
312.311	20.56
312.777	22.06
313.244	21.26
313.71	26.16
314.176	21.16
314.642	14.86
315.109	16.26
315.575	25.96
316.041	28.16
316.507	20.06
316.973	19.16
317.439	20.16
317.905	24.06
318.371	29.26
318.837	22.96
319.303	19.96
319.769	20.46
320.235	23.46
320.701	20.66
321.167	23.46
321.633	21.06
322.099	24.76
322.564	28.76
323.03	25.06
323.496	27.56
323.962	29.56
324.427	25.86
324.893	30.66
325.359	23.06
325.824	28.56
326.29	24.86
326.755	26.66
327.221	27.36
327.686	25.46
328.152	30.06
328.617	32.36
329.083	33.96
329.548	40.66
330.014	33.56
330.479	26.46
330.944	33.86
331.41	32.26
331.875	32.16
332.34	31.76
332.805	32.86
333.271	35.06
333.736	32.26
334.201	32.56
334.666	35.76
335.131	41.76
335.596	36.26
336.061	32.36
336.526	32.86
336.991	38.46
337.456	38.76
337.921	35.36
338.386	31.56
338.851	36.56
339.316	35.26
339.781	38.06
340.246	40.46
340.711	38.96
341.175	43.16
341.64	29.16
342.105	42.26
342.569	43.56
343.034	44.66
343.499	43.56
343.963	37.16
344.428	55.36
344.893	48.06
345.357	50.76
345.822	51.36
346.286	53.46
346.751	53.36
347.215	55.16
347.679	55.76
348.144	75.26
348.608	65.16
349.073	52.46
349.537	59.66
350.001	59.56
350.465	60.56
350.93	63.56
351.394	66.66
351.858	57.56
352.322	68.26
352.786	59.56
353.25	74.36
353.715	89.76
354.179	80.16
354.643	92.36
355.107	91.36
355.571	77.36
356.035	78.86
356.498	87.76
356.962	86.76
357.426	96.86
357.89	85.96
358.354	66.56
358.818	62.16
359.281	68.76
359.745	64.06
360.209	64.66
360.673	59.86
361.136	69.36
361.6	67.06
362.064	71.46
362.527	64.26
362.991	72.66
363.454	65.46
363.918	63.56
364.381	66.36
364.845	70.76
365.308	72.66
365.772	72.16
366.235	68.16
366.698	67.26
367.162	69.76
367.625	67.26
368.088	74.26
368.552	71.06
369.015	74.16
369.478	76.56
369.941	78.26
370.404	77.56
370.867	84.96
371.331	90.26
371.794	92.86
372.257	79.06
372.72	92.66
373.183	91.76
373.646	79.36
374.109	79.16
374.572	84.76
375.035	83.16
375.497	88.96
375.96	87.96
376.423	92.26
376.886	93.16
377.349	88.86
377.811	88.56
378.274	89.26
378.737	87.76
379.199	93.26
379.662	96.26
380.125	102.46
380.587	92.86
381.05	100.16
381.512	95.36
381.975	103.46
382.437	102.46
382.9	102.66
383.362	104.66
383.825	110.06
384.287	114.76
384.75	101.66
385.212	105.26
385.674	119.36
386.136	116.46
386.599	112.26
387.061	114.06
387.523	109.46
387.985	109.06
388.447	120.56
388.91	117.56
389.372	122.46
389.834	117.46
390.296	107.56
390.758	119.86
391.22	129.46
391.682	133.06
392.144	149.66
392.606	139.76
393.068	132.86
393.529	142.26
393.991	124.46
394.453	120.66
394.915	121.86
395.377	130.06
395.838	126.36
396.3	127.76
396.762	134.36
397.224	125.36
397.685	117.76
398.147	124.96
398.608	118.66
399.07	116.46
399.531	127.96
399.993	128.46
400.454	143.26
400.916	134.16
401.377	134.06
401.839	135.96
402.3	138.46
402.762	154.26
403.223	162.86
403.684	154.66
404.145	145.46
404.607	156.16
405.068	154.56
405.529	151.56
405.99	168.16
406.451	161.66
406.913	156.86
407.374	145.56
407.835	152.06
408.296	161.56
408.757	165.26
409.218	173.56
409.679	169.16
410.14	165.16
410.601	160.56
411.062	173.26
411.522	167.16
411.983	160.66
412.444	162.26
412.905	171.06
413.366	179.86
413.826	188.66
414.287	210.16
414.748	255.36
415.208	243.36
415.669	210.96
416.13	204.46
416.59	207.66
417.051	209.76
417.511	214.06
417.972	234.86
418.432	239.56
418.893	283.76
419.353	242.56
419.814	198.76
420.274	174.56
420.734	177.16
421.195	191.46
421.655	185.16
422.115	188.96
422.576	196.46
423.036	197.66
423.496	207.56
423.956	209.76
424.416	222.06
424.876	259.66
425.336	250.46
425.797	253.36
426.257	242.26
426.717	226.76
427.177	222.46
427.637	220.46
428.097	225.46
428.556	234.46
429.016	257.36
429.476	250.26
429.936	263.56
430.396	263.96
430.856	274.06
431.315	296.26
431.775	324.96
432.235	365.16
432.694	340.96
433.154	332.96
433.614	376.26
434.073	314.56
434.533	269.96
434.993	251.66
435.452	274.76
435.912	276.16
436.371	276.66
436.83	267.96
437.29	256.36
437.749	242.96
438.209	242.36
438.668	265.96
439.127	270.26
439.587	254.06
440.046	245.86
440.505	245.66
440.964	271.66
441.424	314.66
441.883	302.06
442.342	253.46
442.801	223.16
443.26	222.76
443.719	223.86
444.178	216.96
444.637	208.76
445.096	220.46
445.555	218.76
446.014	218.26
446.473	220.56
446.932	236.36
447.391	229.16
447.849	229.36
448.308	220.46
448.767	229.66
449.226	240.16
449.685	247.86
450.143	250.46
450.602	242.46
451.061	229.06
451.519	232.46
451.978	230.06
452.436	235.46
452.895	230.56
453.353	252.46
453.812	241.06
454.27	246.26
454.729	239.36
455.187	241.56
455.646	247.96
456.104	243.16
456.562	259.36
457.021	272.46
457.479	262.46
457.937	263.26
458.395	259.86
458.854	247.16
459.312	260.76
459.77	275.86
460.228	255.16
460.686	249.36
461.144	251.46
461.602	253.26
462.06	248.26
462.518	259.36
462.976	253.86
463.434	260.46
463.892	261.76
464.35	278.96
464.808	292.76
465.266	272.56
465.724	267.26
466.181	273.76
466.639	269.76
467.097	288.26
467.555	301.86
468.012	302.26
468.47	313.36
468.928	332.06
469.385	340.56
469.843	349.46
470.3	348.86
470.758	359.76
471.215	377.86
471.673	400.56
472.13	405.46
472.588	417.96
473.045	377.06
473.503	375.76
473.96	400.96
474.417	406.46
474.875	431.96
475.332	475.16
475.789	464.76
476.246	471.56
476.704	487.76
477.161	493.66
477.618	514.86
478.075	556.66
478.532	612.56
478.989	663.36
479.446	766.76
479.903	745.86
480.36	773.16
480.817	820.16
481.274	922.46
481.731	1003.76
482.188	1076.16
482.645	1196.86
483.102	1284.56
483.558	1390.96
484.015	1436.86
484.472	1419.86
484.929	1385.06
485.385	1331.56
485.842	1306.66
486.299	1246.36
486.755	1211.36
487.212	1043.16
487.668	884.06
488.125	813.16
488.582	755.86
489.038	739.06
489.494	692.56
489.951	672.46
490.407	652.96
490.864	646.26
491.32	634.86
491.776	630.86
492.233	639.26
492.689	609.46
493.145	612.96
493.602	608.26
494.058	615.96
494.514	610.96
494.97	624.96
495.426	652.56
495.882	612.86
496.338	612.96
496.794	615.16
497.251	617.26
497.707	620.86
498.163	631.06
498.618	636.76
499.074	631.86
499.53	668.86
499.986	665.06
500.442	632.76
500.898	612.66
501.354	611.96
501.809	621.36
502.265	621.66
502.721	634.26
503.177	637.06
503.632	650.36
504.088	648.36
504.543	664.56
504.999	694.66
505.455	653.06
505.91	644.46
506.366	649.56
506.821	640.06
507.277	635.66
507.732	632.16
508.187	638.26
508.643	646.36
509.098	654.96
509.553	665.76
510.009	682.46
510.464	674.66
510.919	696.96
511.375	703.86
511.83	713.26
512.285	729.86
512.74	766.66
513.195	782.06
513.65	770.26
514.105	780.96
514.56	780.16
515.015	784.76
515.47	795.36
515.925	786.36
516.38	780.46
516.835	791.26
517.29	788.76
517.745	776.96
518.2	770.26
518.655	762.66
519.109	755.86
519.564	747.06
520.019	730.06
520.474	722.76
520.928	730.16
521.383	720.16
521.838	714.46
522.292	722.36
522.747	722.56
523.201	722.16
523.656	711.46
524.11	709.36
524.565	709.56
525.019	701.76
525.474	702.56
525.928	706.46
526.382	697.26
526.837	707.16
527.291	712.06
527.745	708.36
528.2	712.36
528.654	695.06
529.108	694.96
529.562	702.36
530.016	705.46
530.47	691.96
530.925	696.76
531.379	707.06
531.833	697.66
532.287	706.76
532.741	708.66
533.195	717.16
533.649	707.06
534.103	725.46
534.556	714.86
535.01	705.26
535.464	709.76
535.918	727.86
536.372	719.06
536.826	726.36
537.279	712.76
537.733	722.86
538.187	719.76
538.64	715.06
539.094	732.46
539.548	732.96
540.001	738.16
540.455	736.16
540.908	738.06
541.362	753.76
541.815	756.66
542.269	768.56
542.722	775.76
543.175	791.26
543.629	791.16
544.082	799.16
544.536	804.36
544.989	802.16
545.442	806.96
545.895	808.66
546.349	805.76
546.802	807.86
547.255	813.36
547.708	822.36
548.161	828.76
548.614	832.16
549.067	840.66
549.52	839.76
549.973	822.26
550.426	822.06
550.879	812.36
551.332	817.16
551.785	828.86
552.238	839.06
552.691	841.46
553.144	857.96
553.596	859.76
554.049	881.66
554.502	902.46
554.955	928.06
555.407	923.76
555.86	914.56
556.313	904.96
556.765	893.76
557.218	900.76
557.67	905.36
558.123	888.06
558.576	886.56
559.028	894.36
559.48	896.76
559.933	891.06
560.385	860.26
560.838	827.56
561.29	808.06
561.742	809.16
562.195	784.76
562.647	773.16
563.099	795.06
563.551	793.06
564.004	794.26
564.456	786.36
564.908	778.56
565.36	759.16
565.812	742.36
566.264	737.16
566.716	734.26
567.168	708.76
567.62	730.46
568.072	708.86
568.524	717.46
568.976	705.16
569.428	691.16
569.88	693.86
570.332	701.76
570.784	697.96
571.235	705.16
571.687	707.96
572.139	728.86
572.59	734.06
573.042	738.36
573.494	729.06
573.945	728.86
574.397	704.56
574.849	700.36
575.3	705.86
575.752	694.36
576.203	676.46
576.655	705.86
577.106	691.46
577.557	676.26
578.009	685.36
578.46	676.86
578.912	676.76
579.363	678.16
579.814	676.06
580.265	674.16
580.717	683.66
581.168	689.26
581.619	694.36
582.07	694.76
582.521	693.96
582.972	693.96
583.423	683.26
583.875	692.46
584.326	703.76
584.777	712.36
585.227	733.16
585.678	755.56
586.129	777.56
586.58	803.76
587.031	825.56
587.482	864.46
587.933	903.26
588.384	864.66
588.834	815.26
589.285	792.96
589.736	799.66
590.186	787.36
590.637	782.16
591.088	765.76
591.538	762.16
591.989	746.46
592.439	737.16
592.89	727.26
593.34	727.86
593.791	721.76
594.241	715.06
594.692	715.96
595.142	718.06
595.593	720.16
596.043	725.86
596.493	723.26
596.943	718.26
597.394	743.56
597.844	734.86
598.294	755.56
598.744	786.76
599.195	815.16
599.645	849.36
600.095	895.96
600.545	943.36
600.995	996.66
601.445	1065.86
601.895	1124.76
602.345	1169.96
602.795	1145.76
603.245	1097.56
603.695	1041.26
604.145	991.36
604.594	930.56
605.044	883.76
605.494	831.06
605.944	772.56
606.393	768.86
606.843	741.26
607.293	754.56
607.743	752.66
608.192	753.06
608.642	764.96
609.091	778.56
609.541	778.96
609.99	776.56
610.44	780.66
610.889	732.36
611.339	709.96
611.788	698.96
612.238	711.46
612.687	722.66
613.136	715.26
613.586	724.56
614.035	727.96
614.484	724.96
614.933	729.56
615.383	722.26
615.832	718.36
616.281	734.26
616.73	690.96
617.179	680.36
617.628	672.06
618.077	650.36
618.526	638.46
618.975	629.76
619.424	633.16
619.873	631.86
620.322	634.36
620.771	618.46
621.22	621.86
621.669	610.06
622.118	602.86
622.567	595.66
623.015	590.36
623.464	589.86
623.913	567.36
624.361	562.26
624.81	558.46
625.259	570.16
625.707	568.86
626.156	564.56
626.604	586.06
627.053	587.86
627.501	587.66
627.95	577.16
628.398	586.26
628.847	590.56
629.295	586.16
629.744	589.56
630.192	577.06
630.64	570.06
631.089	562.76
631.537	555.96
631.985	545.26
632.433	552.06
632.881	537.46
633.33	555.16
633.778	555.46
634.226	546.36
634.674	554.86
635.122	554.76
635.57	560.26
636.018	582.16
636.466	584.16
636.914	564.86
637.362	586.96
637.81	589.56
638.258	594.16
638.705	592.36
639.153	632.66
639.601	646.96
640.049	655.36
640.497	687.46
640.944	708.76
641.392	664.26
641.84	632.76
642.287	605.46
642.735	583.16
643.182	581.46
643.63	574.16
644.078	579.86
644.525	588.26
644.973	598.36
645.42	610.26
645.867	631.06
646.315	656.26
646.762	669.16
647.21	694.36
647.657	719.66
648.104	744.46
648.551	774.06
648.999	827.46
649.446	906.66
649.893	998.16
650.34	1140.76
650.787	1350.26
651.234	1664.96
651.682	2164.66
652.129	2972.26
652.576	4203.86
653.023	6122.36
653.47	8290.46
653.917	10185.16
654.363	11644.56
654.81	12769.06
655.257	12121.26
655.704	8008.06
656.151	4833.56
656.598	3156.36
657.044	2266.46
657.491	1770.56
657.938	1413.26
658.385	1208.66
658.831	1049.96
659.278	958.16
659.724	837.76
660.171	776.86
660.618	716.56
661.064	694.96
661.511	669.86
661.957	659.86
662.404	652.56
662.85	654.46
663.296	635.76
663.743	576.76
664.189	549.66
664.635	543.86
665.082	543.66
665.528	541.56
665.974	530.46
666.42	531.16
666.867	521.86
667.313	493.26
667.759	483.96
668.205	459.86
668.651	465.26
669.097	458.06
669.543	460.36
669.989	465.46
670.435	462.56
670.881	466.26
671.327	467.06
671.773	487.86
672.219	509.66
672.665	576.46
673.11	617.76
673.556	658.66
674.002	688.46
674.448	683.96
674.893	571.76
675.339	497.46
675.785	462.26
676.23	432.36
676.676	411.46
677.122	395.46
677.567	377.56
678.013	386.46
678.458	374.46
678.904	381.96
679.349	361.26
679.794	372.36
680.24	360.96
680.685	364.16
681.131	364.26
681.576	366.86
682.021	369.46
682.466	359.86
682.912	366.46
683.357	371.96
683.802	399.36
684.247	433.96
684.692	475.06
685.137	520.96
685.583	567.46
686.028	586.46
686.473	540.56
686.918	462.66
687.363	434.16
687.807	410.56
688.252	385.36
688.697	366.56
689.142	354.06
689.587	349.36
690.032	342.06
690.477	363.66
690.921	369.56
691.366	393.86
691.811	423.26
692.255	447.56
692.7	477.16
693.145	540.56
693.589	760.16
694.034	1248.66
694.478	1641.86
694.923	1820.06
695.367	2350.16
695.812	1256.86
696.256	523.36
696.701	386.16
697.145	360.66
697.59	338.66
698.034	340.36
698.478	337.16
698.922	334.26
699.367	341.56
699.811	350.46
700.255	375.36
700.699	399.26
701.143	442.56
701.588	494.26
702.032	539.46
702.476	543.36
702.92	520.46
703.364	523.76
703.808	697.26
704.252	1131.96
704.696	1565.76
705.14	1746.56
705.584	2226.66
706.027	1124.76
706.471	560.86
706.915	414.86
707.359	367.76
707.803	332.66
708.246	332.26
708.69	319.96
709.134	329.96
709.577	323.36
710.021	328.56
710.465	317.46
710.908	318.86
711.352	311.46
711.795	329.06
712.239	376.46
712.682	402.36
713.126	432.76
713.569	476.26
714.012	373.76
714.456	319.46
714.899	295.26
715.342	278.36
715.786	274.66
716.229	276.66
716.672	267.46
717.115	254.36
717.558	261.06
718.002	262.16
718.445	275.86
718.888	300.86
719.331	308.66
719.774	326.36
720.217	315.56
720.66	297.46
721.103	279.66
721.546	268.86
721.989	256.46
722.432	234.66
722.874	244.06
723.317	232.66
723.76	249.66
724.203	270.26
724.645	335.66
725.088	479.06
725.531	607.96
725.974	663.86
726.416	570.66
726.859	325.76
727.301	256.06
727.744	257.86
728.187	249.46
728.629	247.36
729.071	251.56
729.514	270.66
729.956	287.36
730.399	294.06
730.841	295.16
731.283	282.96
731.726	277.86
732.168	274.16
732.61	277.16
733.053	306.46
733.495	336.76
733.937	373.46
734.379	426.06
734.821	463.66
735.263	586.06
735.705	932.76
736.148	1765.96
736.59	2789.56
737.032	3204.76
737.474	2621.26
737.916	860.96
738.357	463.76
738.799	352.56
739.241	314.36
739.683	299.66
740.125	306.76
740.567	312.56
741.008	331.56
741.45	330.96
741.892	331.66
742.334	370.36
742.775	375.96
743.217	357.66
743.658	286.36
744.1	273.16
744.542	285.06
744.983	336.26
745.425	357.76
745.866	355.56
746.307	302.36
746.749	290.26
747.19	345.76
747.632	507.76
748.073	996.66
748.514	2060.66
748.956	3040.86
749.397	3866.66
749.838	3191.16
750.279	3101.26
750.72	1584.76
751.162	589.76
751.603	338.86
752.044	271.76
752.485	229.26
752.926	216.86
753.367	214.96
753.808	202.46
754.249	204.66
754.69	200.86
755.131	192.66
755.572	181.26
756.013	185.76
756.453	196.16
756.894	192.56
757.335	197.86
757.776	199.36
758.216	205.46
758.657	204.66
759.098	214.06
759.538	242.16
759.979	285.06
760.42	411.06
760.86	798.56
761.301	2085.46
761.741	4909.06
762.182	6718.06
762.622	4747.96
763.063	1398.06
763.503	568.26
763.943	352.06
764.384	292.46
764.824	276.36
765.264	259.36
765.705	226.56
766.145	195.16
766.585	191.86
767.025	179.56
767.465	176.26
767.906	193.16
768.346	213.46
768.786	221.26
769.226	228.36
769.666	334.46
770.106	708.26
770.546	1742.06
770.986	2780.76
771.426	2469.36
771.866	846.26
772.306	349.56
772.745	225.06
773.185	179.66
773.625	171.96
774.065	155.26
774.505	171.16
774.944	223.06
775.384	401.16
775.824	642.46
776.263	609.46
776.703	300.46
777.142	175.86
777.582	144.26
778.021	128.66
778.461	136.96
778.9	134.26
779.34	137.96
779.779	120.36
780.219	110.06
780.658	105.46
781.097	115.16
781.537	118.26
781.976	117.26
782.415	102.76
782.855	107.86
783.294	112.46
783.733	107.76
784.172	113.56
784.611	110.26
785.05	115.66
785.489	113.76
785.928	121.36
786.367	122.96
786.806	121.36
787.245	132.76
787.684	140.96
788.123	154.06
788.562	140.86
789.001	133.56
789.44	131.86
789.879	128.46
790.317	124.56
790.756	132.66
791.195	130.36
791.634	165.66
792.072	222.96
792.511	409.76
792.95	1117.46
793.388	2262.26
793.827	1983.56
794.265	706.96
794.704	298.96
795.142	194.86
795.581	161.56
796.019	139.96
796.458	127.56
796.896	130.46
797.334	145.66
797.773	170.66
798.211	241.76
798.649	493.06
799.087	1124.86
799.526	1728.46
799.964	2194.56
800.402	2084.76
800.84	806.86
801.278	323.96
801.716	193.06
802.154	163.76
802.592	155.06
803.03	150.96
803.468	147.26
803.906	148.26
804.344	156.36
804.782	148.36
805.22	141.26
805.658	140.26
806.096	155.26
806.533	165.26
806.971	186.06
807.409	233.66
807.847	355.46
808.284	751.86
808.722	2088.76
809.16	3513.16
809.597	3480.86
810.035	5923.76
810.472	6021.76
810.91	2206.06
811.347	864.96
811.785	434.76
812.222	278.26
812.66	209.46
813.097	183.06
813.535	146.76
813.972	133.06
814.409	130.26
814.846	116.86
815.284	114.56
815.721	105.66
816.158	112.76
816.595	114.66
817.032	164.66
817.47	188.76
817.907	129.66
818.344	110.06
818.781	104.66
819.218	97.66
819.655	135.66
820.092	204.96
820.529	224.06
820.966	179.36
821.403	128.26
821.839	98.86
822.276	103.46
822.713	130.86
823.15	142.96
823.587	122.76
824.023	165.66
824.46	336.96
824.897	988.46
825.333	1410.56
825.77	617.06
826.206	243.76
826.643	143.76
827.08	108.96
827.516	91.06
827.953	82.26
828.389	90.36
828.825	68.66
829.262	73.36
829.698	70.46
830.135	63.66
830.571	70.26
831.007	67.96
831.443	65.76
831.88	65.66
832.316	65.56
832.752	67.46
833.188	70.66
833.624	65.76
834.06	68.36
834.497	69.06
834.933	77.06
835.369	75.96
835.805	75.96
836.241	85.46
836.677	86.46
837.112	86.96
837.548	110.16
837.984	144.16
838.42	220.76
838.856	558.16
839.292	1676.56
839.727	2426.86
840.163	1145.16
840.599	1042.56
841.034	2189.66
841.47	2190.66
841.906	822.36
842.341	344.86
842.777	215.86
843.212	219.36
843.648	200.26
844.083	120.06
844.519	85.46
844.954	69.06
845.39	59.66
845.825	56.16
846.261	56.16
846.696	53.56
847.131	60.46
847.566	63.46
848.002	60.86
848.437	55.16
848.872	59.76
849.307	62.46
849.742	92.66
850.177	201.56
850.613	621.86
851.048	917.56
851.483	399.66
851.918	169.76
852.353	92.66
852.788	58.66
853.223	52.76
853.657	56.96
854.092	50.36
854.527	40.96
854.962	38.36
855.397	45.26
855.832	55.96
856.266	42.76
856.701	45.06
857.136	40.76
857.57	45.36
858.005	52.76
858.44	65.86
858.874	51.46
859.309	57.96
859.743	43.86
860.178	51.26
860.612	38.16
861.047	54.86
861.481	76.96
861.915	73.26
862.35	54.66
862.784	40.46
863.218	38.26
863.653	31.16
864.087	47.06
864.521	56.26
864.955	74.96
865.39	173.26
865.824	186.76
866.258	127.06
866.692	183.16
867.126	189.86
867.56	116.06
867.994	62.26
868.428	39.36
868.862	44.56
869.296	57.96
869.73	63.86
870.164	55.56
870.598	51.86
871.031	33.86
871.465	36.96
871.899	32.16
872.333	25.86
872.766	29.36
873.2	23.76
873.634	26.06
874.067	31.26
874.501	27.96
874.935	32.96
875.368	29.96
875.802	31.76
876.235	26.96
876.669	24.56
877.102	21.66
877.535	27.16
877.969	21.66
878.402	24.56
878.836	19.66
879.269	30.26
879.702	29.26
880.135	22.86
880.569	20.96
881.002	26.26
881.435	20.46
881.868	21.16
882.301	20.76
882.734	19.26
883.167	20.36
883.601	21.16
884.034	20.06
884.467	18.26
884.899	18.56
885.332	19.56
885.765	13.26
886.198	16.06
886.631	18.36
887.064	21.86
887.497	20.36
887.929	24.86
888.362	13.16
888.795	10.36
889.228	23.06
889.66	20.46
890.093	19.56
890.526	21.56
890.958	15.06
891.391	16.96
891.823	23.46
892.256	12.96
892.688	10.36
893.121	10.76
893.553	12.96
893.985	24.66
894.418	18.56
894.85	14.46
895.282	10.96
895.715	16.56
896.147	16.36
896.579	16.16
897.011	10.16
897.444	16.46
897.876	15.26
898.308	16.96
898.74	10.96
899.172	7.26
899.604	22.76
900.036	11.26
900.468	18.26
900.9	11.96
901.332	16.76
901.764	13.06
902.196	14.16
902.628	13.36
903.06	21.76
903.491	32.96
903.923	19.16
904.355	18.96
904.787	22.16
905.218	21.46
905.65	20.76
906.082	11.66
906.513	15.16
906.945	12.56
907.376	14.86
907.808	23.36
908.239	19.36
908.671	15.66
909.102	19.76
909.534	21.46
909.965	50.06
910.397	95.36
910.828	348.26
911.259	504.16
911.691	233.56
912.122	114.46
912.553	51.16
912.984	26.16
913.415	28.16
913.847	18.46
914.278	12.16
914.709	13.06
915.14	16.26
915.571	14.26
916.002	16.76
916.433	20.46
916.864	15.96
917.295	16.06
917.726	24.76
918.157	20.36
918.587	28.36
919.018	23.36
919.449	22.76
919.88	24.06
920.311	32.46
920.741	55.56
921.172	172.46
921.603	161.96
922.033	70.76
922.464	48.06
922.895	26.86
923.325	20.96
923.756	11.26
924.186	10.46
924.617	14.36
925.047	21.86
925.478	25.46
925.908	25.66
926.338	20.56
926.769	8.46
927.199	9.46
927.629	5.26
928.06	12.76
928.49	17.66
928.92	11.06
929.35	7.86
929.78	8.26
930.21	6.46
930.641	1.96
931.071	7.66
931.501	2.26
931.931	6.66
932.361	4.36
932.791	7.26
933.221	2.46
933.651	7.06
934.08	20.76
934.51	32.46
934.94	10.76
935.37	6.56
935.8	5.26
936.229	8.26
936.659	9.06
937.089	7.86
937.519	14.66
937.948	26.26
938.378	15.46
938.807	8.06
939.237	5.36
939.666	5.66
940.096	-5.54
940.525	-1.34
940.955	4.46
941.384	3.66
941.814	-9.24
942.243	-1.54
942.672	7.16
943.102	-3.94
943.531	1.16
943.96	3.36
944.39	-1.64
944.819	-2.94
945.248	4.06
945.677	-1.54
946.106	5.76
946.535	9.26
946.964	3.86
947.393	1.16
947.822	-1.84
948.251	-8.04
948.68	6.06
949.109	5.76
949.538	5.26
949.967	0.76
950.396	5.26
950.825	-0.64
951.254	-4.94
951.682	-12.74
952.111	4.26
952.54	2.76
952.969	-6.94
953.397	-7.74
953.826	-7.14
954.254	-4.44
954.683	0.36
955.112	2.36
955.54	0.36
955.969	-5.44
956.397	-0.04
956.826	-4.84
957.254	3.86
957.682	0.36
958.111	2.56
958.539	-1.54
958.967	-3.54
959.396	-4.74
959.824	4.16
960.252	0.36
960.68	-7.34
961.109	-2.04
961.537	-3.74
961.965	-6.94
962.393	0.66
962.821	0.56
963.249	1.56
963.677	9.46
964.105	10.36
964.533	42.76
964.961	42.56
965.389	17.76
965.817	8.06
966.245	0.66
966.672	-5.14
967.1	-3.54
967.528	4.56
967.956	1.76
968.383	-2.84
968.811	-0.74
969.239	-3.14
969.666	-7.44
970.094	-0.24
970.522	-0.54
970.949	0.06
971.377	-1.14
971.804	-0.74
972.232	-9.14
972.659	-2.34
973.087	-0.34
973.514	-3.64
973.941	-6.54
974.369	4.96
974.796	1.06
975.223	-0.64
975.651	-0.64
976.078	0.86
976.505	-0.24
976.932	1.76
977.359	14.06
977.786	9.56
978.214	1.26
978.641	-3.34
979.068	-7.54
979.495	-1.94
979.922	-5.14
980.349	-5.04
980.776	-1.24
981.202	1.06
981.629	7.16
982.056	-1.74
982.483	1.46
982.91	0.16
983.337	-5.44
983.763	1.66
984.19	-3.54
984.617	1.06
985.043	-7.04
985.47	-3.84
985.897	-3.84
986.323	-12.74
986.75	3.66
987.176	1.26
987.603	-0.94
988.029	-0.44
988.456	0.16
988.882	2.26
989.308	-7.74
989.735	-9.94
990.161	1.16
990.587	-5.14
991.014	-0.14
991.44	4.26
991.866	-3.34
992.292	-9.74
992.719	-0.94
993.145	4.46
993.571	-8.04
993.997	-1.54
994.423	-8.54
994.849	-5.74
995.275	-1.44
995.701	-7.14
996.127	-0.84
996.553	-4.64
996.979	-0.94
997.405	-1.94
997.83	-6.44
998.256	-10.24
998.682	-5.84
999.108	-6.44
999.534	-7.74
999.959	-6.44
1000.385	-7.94
1000.811	-4.84
1001.236	-8.64
1001.662	-5.54
1002.087	-10.64
1002.513	0.56
1002.938	1.16
1003.364	-4.14
1003.789	-5.44
1004.215	-4.64
1004.64	-3.34
1005.066	6.26
1005.491	1.86
1005.916	-6.44
1006.342	-2.74
1006.767	-7.54
1007.192	1.76
1007.617	-10.24
1008.042	-3.64
1008.468	-6.94
1008.893	-5.14
1009.318	-0.74
1009.743	-1.34
1010.168	7.96
1010.593	-2.04
1011.018	-6.54
1011.443	-6.94
1011.868	-2.94
1012.293	-3.84
1012.718	-9.04
1013.143	-1.14
1013.567	0.26
1013.992	-4.04
1014.417	-13.04
1014.842	0.56
1015.267	-11.14
1015.691	-9.64
1016.116	0.76
1016.541	-0.04
1016.965	1.86
1017.39	-2.14
1017.814	-2.04
1018.239	-6.24
1018.663	-13.34
1019.088	-8.44
1019.512	-6.14
1019.937	-0.64
1020.361	-7.74
1020.785	-13.64
1021.21	-3.14
1021.634	-0.54
1022.058	-0.64
1022.483	2.16
1022.907	-10.24
1023.331	-5.14
1023.755	-3.54
1024.179	-7.04
1024.604	-5.24
1025.028	-3.64
1025.452	-4.14
1025.876	-3.94
1026.3	-3.24
1026.724	-13.74
1027.148	-4.74
1027.572	-10.84
1027.996	-2.64
1028.42	-5.34
1028.843	-3.54
1029.267	-8.74
1029.691	-5.84
1030.115	-6.04
1030.539	-0.24
1030.962	-5.54
1031.386	-10.14
1031.81	-5.44
1032.233	-10.44
1032.657	-11.54
1033.08	-6.34
1033.504	-5.84
1033.927	-8.34
1034.351	-3.64
1034.774	-6.94
1035.198	-5.54
1035.621	-8.54
1036.045	-10.34
1036.468	-4.04
1036.891	-12.24
1037.315	-7.44
1037.738	-7.34
1038.161	-5.24
1038.584	-8.14
1039.008	-4.44
1039.431	-8.04
1039.854	-0.84
1040.277	-7.24
1040.7	-12.84
1041.123	-3.14
1041.546	-11.44
1041.969	-11.24
1042.392	-5.04
1042.815	-4.94
1043.238	0.06
1043.661	1.86
1044.084	-12.14
1044.507	-8.04
1044.93	-14.44
1045.352	-6.34
1045.775	-2.84
1046.198	-6.14
1046.621	-0.94
1047.043	-1.34
1047.466	5.86
1047.889	-3.54
1048.311	-5.24
1048.734	0.66
1049.156	-9.54
1049.579	-8.14
1050.001	-4.84
1050.424	-3.14
1050.846	-10.24
1051.269	-7.64
1051.691	-6.04
1052.113	-12.74
1052.536	-1.04
1052.958	-5.54
1053.38	-3.84
1053.802	-8.54
1054.225	2.46
1054.647	-6.04
1055.069	-6.14
1055.491	-8.24
1055.913	-9.54
1056.335	-5.54
1056.757	-6.04
1057.179	-10.14
1057.601	-3.34
1058.023	-2.94
1058.445	-10.74
1058.867	-6.44
1059.289	-5.64
1059.711	-4.34
1060.133	-7.64
1060.555	-4.24
1060.976	-11.34
1061.398	-6.04
1061.82	-10.14
1062.241	-5.64
1062.663	-12.34
1063.085	-6.94
1063.506	1.66
1063.928	-8.34
1064.35	-6.14
1064.771	-9.04
1065.193	-9.24
1065.614	-8.04
1066.035	-5.54
1066.457	-5.24
1066.878	4.86
1067.3	-0.84
1067.721	-3.34
1068.142	-8.14
1068.564	-7.94
1068.985	-8.34
1069.406	-6.34
1069.827	-3.74
1070.248	-0.74
1070.67	-10.24
1071.091	-7.14
1071.512	-4.54
1071.933	-3.54
1072.354	-9.24
1072.775	-8.14
1073.196	-7.84
1073.617	-3.44
1074.038	-6.84
1074.459	-5.54
1074.88	-9.74
1075.3	-1.34
1075.721	-6.74
1076.142	-2.64
1076.563	-4.14
1076.983	-12.14
1077.404	-9.24
1077.825	-8.94
1078.246	-10.84
1078.666	-17.24
1079.087	-10.64
1079.507	-6.44
1079.928	-7.14
1080.348	-2.94
1080.769	-8.54
1081.189	0.16
1081.61	-9.14
1082.03	-8.64
1082.451	-9.34
1082.871	-7.44
1083.291	-8.44
1083.711	-11.84
1084.132	-5.04
1084.552	-6.54
1084.972	-4.54
1085.392	-8.04
1085.813	-17.34
1086.233	-8.24
1086.653	-7.04
1087.073	-6.64
1087.493	-6.84
1087.913	-7.64
1088.333	-3.94
1088.753	-8.94
1089.173	-2.54
1089.593	-6.74
1090.013	-3.24
1090.433	1.46
1090.852	-10.44
1091.272	-7.74
1091.692	-9.44
1092.112	-4.84
1092.531	-1.94
1092.951	-10.94
1093.371	-5.94
1093.79	-3.84
1094.21	-4.94
1094.63	-7.94
1095.049	-10.74
1095.469	-6.14
1095.888	-7.64
1096.308	1.56
1096.727	6.36
1097.146	-6.34
1097.566	0.06
1097.985	-6.14
1098.405	-6.54
1098.824	-7.74
1099.243	-9.74
1099.662	-7.54
1100.082	-6.94
1100.501	-2.04
1100.92	-2.54
1101.339	-7.04
1101.758	-13.94
