Data from 20171114-ORNL-Ar_H_NY_Subt18_08-05-28-050.txt Node
Date: Tue Nov 14 08:05:28 EST 2017
User: Ender
Spectrometer: HR+D1039
Trigger mode: 0
Integration Time (sec): 2.730000E-2
Scans to average: 10
Electric dark correction enabled: true
Nonlinearity correction enabled: false
Boxcar width: 0
XAxis mode: Wavelengths
Number of Pixels in Spectrum: 2048
>>>>>Begin Spectral Data<<<<<
187.836	-4.12
188.309	-4.12
188.782	-4.12
189.255	2.08
189.728	-1.12
190.201	1.88
190.674	0.18
191.147	-5.12
191.619	-4.42
192.092	4.18
192.565	7.08
193.038	-0.82
193.511	-0.92
193.984	3.08
194.456	-1.12
194.929	1.98
195.402	-2.92
195.874	0.08
196.347	0.28
196.82	-6.32
197.292	-0.02
197.765	-1.32
198.237	-7.52
198.71	1.48
199.182	-2.82
199.655	2.58
200.127	2.58
200.6	0.38
201.072	-2.32
201.544	-4.42
202.017	-4.12
202.489	3.88
202.961	-0.62
203.433	0.88
203.906	-8.62
204.378	-3.62
204.85	-8.72
205.322	-10.02
205.794	-1.22
206.266	-4.82
206.739	-8.92
207.211	1.88
207.683	-3.02
208.155	-4.92
208.627	-3.92
209.099	1.08
209.57	-12.22
210.042	-7.92
210.514	-4.42
210.986	-0.62
211.458	-3.92
211.93	-3.62
212.402	-3.02
212.873	-1.62
213.345	-9.52
213.817	-11.52
214.288	-2.92
214.76	-7.12
215.232	2.08
215.703	-4.52
216.175	2.38
216.646	-8.12
217.118	-3.02
217.589	-4.32
218.061	-1.92
218.532	-1.72
219.004	-3.22
219.475	-1.42
219.946	-2.82
220.418	-2.12
220.889	-0.32
221.36	-0.42
221.832	-10.62
222.303	-5.12
222.774	2.48
223.245	-11.32
223.717	-10.92
224.188	-8.32
224.659	-6.32
225.13	-6.62
225.601	4.58
226.072	3.88
226.543	-0.82
227.014	-4.92
227.485	-2.52
227.956	-6.42
228.427	1.28
228.898	0.28
229.369	0.48
229.839	-2.62
230.31	-13.82
230.781	6.38
231.252	-2.02
231.722	-1.72
232.193	-5.52
232.664	-1.22
233.135	-0.12
233.605	3.38
234.076	-0.82
234.546	-0.32
235.017	2.58
235.487	1.18
235.958	0.28
236.428	-0.82
236.899	2.58
237.369	8.18
237.84	-6.92
238.31	9.38
238.78	-0.02
239.251	4.68
239.721	0.78
240.191	0.08
240.662	0.38
241.132	5.68
241.602	-3.62
242.072	4.78
242.542	7.28
243.013	-2.82
243.483	5.48
243.953	1.88
244.423	7.48
244.893	-5.02
245.363	7.58
245.833	5.98
246.303	1.78
246.773	11.88
247.243	5.38
247.712	7.58
248.182	6.08
248.652	5.58
249.122	0.58
249.592	14.58
250.061	20.38
250.531	30.48
251.001	15.18
251.471	19.28
251.94	19.98
252.41	10.78
252.879	6.48
253.349	12.68
253.818	7.08
254.288	6.18
254.757	6.68
255.227	7.68
255.696	4.48
256.166	6.98
256.635	8.28
257.105	12.98
257.574	7.08
258.043	9.88
258.513	17.78
258.982	21.98
259.451	12.28
259.92	12.18
260.389	14.68
260.859	13.08
261.328	16.38
261.797	21.98
262.266	15.88
262.735	10.58
263.204	5.88
263.673	5.98
264.142	5.48
264.611	-1.62
265.08	-0.42
265.549	11.08
266.018	9.58
266.487	1.48
266.955	0.28
267.424	-2.92
267.893	9.18
268.362	2.98
268.83	11.08
269.299	12.78
269.768	8.28
270.236	9.38
270.705	2.68
271.174	7.78
271.642	13.08
272.111	9.68
272.579	17.58
273.048	25.98
273.516	31.98
273.985	32.68
274.453	27.88
274.922	27.38
275.39	16.38
275.858	8.28
276.327	17.58
276.795	23.78
277.263	19.58
277.731	30.68
278.2	57.88
278.668	59.58
279.136	54.98
279.604	25.18
280.072	18.68
280.54	11.08
281.008	10.58
281.477	18.28
281.945	10.78
282.413	17.78
282.881	16.78
283.348	13.28
283.816	18.28
284.284	16.68
284.752	22.38
285.22	12.48
285.688	14.38
286.156	18.48
286.623	47.08
287.091	56.68
287.559	34.78
288.026	16.08
288.494	22.58
288.962	8.98
289.429	12.38
289.897	21.58
290.364	14.18
290.832	22.18
291.3	12.18
291.767	21.78
292.234	20.08
292.702	15.98
293.169	20.78
293.637	24.48
294.104	22.78
294.571	8.88
295.039	13.18
295.506	17.48
295.973	18.78
296.44	19.08
296.908	20.38
297.375	21.58
297.842	19.68
298.309	16.88
298.776	13.88
299.243	21.88
299.71	16.48
300.177	17.88
300.644	21.08
301.111	23.48
301.578	26.28
302.045	13.18
302.512	24.08
302.979	24.78
303.446	17.78
303.913	18.88
304.379	20.78
304.846	30.68
305.313	27.38
305.78	21.28
306.246	24.18
306.713	28.08
307.18	24.68
307.646	32.78
308.113	32.18
308.579	35.58
309.046	33.28
309.512	25.48
309.979	21.68
310.445	30.68
310.912	31.28
311.378	38.28
311.845	32.38
312.311	31.08
312.777	34.58
313.244	35.08
313.71	43.08
314.176	36.98
314.642	35.08
315.109	35.38
315.575	36.58
316.041	37.08
316.507	38.58
316.973	37.98
317.439	41.08
317.905	39.68
318.371	34.78
318.837	35.78
319.303	36.18
319.769	37.48
320.235	38.38
320.701	35.18
321.167	43.38
321.633	37.78
322.099	42.48
322.564	50.98
323.03	42.78
323.496	40.08
323.962	37.48
324.427	39.68
324.893	46.88
325.359	36.88
325.824	33.78
326.29	40.08
326.755	41.28
327.221	48.88
327.686	43.08
328.152	54.78
328.617	43.28
329.083	54.08
329.548	53.58
330.014	49.28
330.479	48.28
330.944	49.68
331.41	49.58
331.875	45.48
332.34	49.28
332.805	52.58
333.271	54.08
333.736	48.08
334.201	54.48
334.666	56.18
335.131	54.78
335.596	56.78
336.061	53.48
336.526	43.28
336.991	48.68
337.456	60.38
337.921	53.88
338.386	47.08
338.851	40.78
339.316	46.88
339.781	50.08
340.246	51.78
340.711	45.08
341.175	51.98
341.64	44.48
342.105	52.78
342.569	51.88
343.034	62.18
343.499	54.78
343.963	55.68
344.428	62.38
344.893	65.18
345.357	63.48
345.822	63.88
346.286	72.88
346.751	77.78
347.215	72.48
347.679	77.78
348.144	105.68
348.608	88.88
349.073	71.68
349.537	70.18
350.001	78.38
350.465	96.88
350.93	86.88
351.394	86.78
351.858	72.08
352.322	86.98
352.786	84.48
353.25	103.58
353.715	112.58
354.179	99.48
354.643	126.98
355.107	127.18
355.571	108.78
356.035	102.88
356.498	118.08
356.962	127.38
357.426	124.08
357.89	121.88
358.354	94.28
358.818	87.28
359.281	87.58
359.745	83.78
360.209	78.68
360.673	74.88
361.136	78.38
361.6	89.48
362.064	89.58
362.527	84.18
362.991	94.88
363.454	84.58
363.918	83.08
364.381	81.08
364.845	91.88
365.308	85.98
365.772	88.08
366.235	88.38
366.698	91.68
367.162	87.38
367.625	86.28
368.088	92.68
368.552	87.38
369.015	94.58
369.478	96.68
369.941	100.38
370.404	97.58
370.867	99.48
371.331	105.68
371.794	113.38
372.257	118.48
372.72	115.88
373.183	114.58
373.646	109.18
374.109	101.48
374.572	106.38
375.035	109.58
375.497	108.38
375.96	109.78
376.423	103.48
376.886	111.08
377.349	113.88
377.811	104.08
378.274	108.48
378.737	105.08
379.199	108.48
379.662	116.98
380.125	115.28
380.587	118.48
381.05	119.78
381.512	131.28
381.975	136.88
382.437	132.58
382.9	125.38
383.362	133.58
383.825	142.88
384.287	142.78
384.75	144.68
385.212	134.98
385.674	139.68
386.136	128.38
386.599	131.88
387.061	129.38
387.523	126.48
387.985	130.98
388.447	144.28
388.91	145.68
389.372	154.58
389.834	151.08
390.296	144.78
390.758	154.48
391.22	165.78
391.682	210.18
392.144	300.38
392.606	222.18
393.068	169.88
393.529	167.18
393.991	158.48
394.453	147.78
394.915	158.08
395.377	189.98
395.838	215.78
396.3	156.88
396.762	137.08
397.224	128.38
397.685	130.38
398.147	127.68
398.608	127.08
399.07	129.38
399.531	137.78
399.993	139.68
400.454	155.08
400.916	151.18
401.377	142.88
401.839	147.28
402.3	160.08
402.762	153.38
403.223	180.68
403.684	173.78
404.145	162.78
404.607	159.08
405.068	161.88
405.529	164.38
405.99	186.98
406.451	177.58
406.913	173.98
407.374	161.08
407.835	152.58
408.296	166.88
408.757	165.08
409.218	190.28
409.679	177.48
410.14	173.88
410.601	167.28
411.062	183.98
411.522	185.18
411.983	191.58
412.444	177.48
412.905	183.88
413.366	177.18
413.826	196.48
414.287	216.28
414.748	259.68
415.208	243.48
415.669	218.08
416.13	201.28
416.59	204.18
417.051	210.28
417.511	217.58
417.972	234.78
418.432	238.38
418.893	277.08
419.353	249.48
419.814	196.78
420.274	182.28
420.734	180.08
421.195	196.08
421.655	195.18
422.115	190.88
422.576	189.88
423.036	197.28
423.496	204.98
423.956	214.98
424.416	222.78
424.876	269.38
425.336	252.18
425.797	266.38
426.257	254.98
426.717	234.38
427.177	229.68
427.637	227.28
428.097	238.38
428.556	244.78
429.016	262.88
429.476	258.98
429.936	271.28
430.396	276.18
430.856	293.38
431.315	317.68
431.775	351.18
432.235	385.28
432.694	346.38
433.154	369.68
433.614	386.98
434.073	338.98
434.533	284.18
434.993	276.18
435.452	281.68
435.912	288.88
436.371	284.08
436.83	284.88
437.29	265.18
437.749	248.18
438.209	242.98
438.668	265.48
439.127	288.78
439.587	264.08
440.046	244.58
440.505	258.98
440.964	271.68
441.424	329.28
441.883	307.48
442.342	260.38
442.801	218.88
443.26	221.28
443.719	219.88
444.178	211.48
444.637	208.88
445.096	213.68
445.555	224.98
446.014	217.28
446.473	220.78
446.932	225.88
447.391	224.28
447.849	226.18
448.308	216.68
448.767	221.28
449.226	235.58
449.685	236.98
450.143	242.88
450.602	236.48
451.061	225.58
451.519	230.88
451.978	223.78
452.436	230.98
452.895	234.38
453.353	251.58
453.812	237.28
454.27	240.88
454.729	238.28
455.187	236.78
455.646	243.08
456.104	238.18
456.562	261.68
457.021	263.28
457.479	257.18
457.937	270.78
458.395	259.58
458.854	252.78
459.312	255.08
459.77	270.78
460.228	251.48
460.686	245.58
461.144	246.68
461.602	240.58
462.06	242.88
462.518	251.08
462.976	256.18
463.434	256.38
463.892	260.68
464.35	279.38
464.808	289.68
465.266	261.68
465.724	264.98
466.181	271.08
466.639	267.78
467.097	292.68
467.555	299.08
468.012	302.18
468.47	304.28
468.928	329.48
469.385	344.38
469.843	346.18
470.3	342.58
470.758	357.38
471.215	379.38
471.673	404.68
472.13	402.78
472.588	417.08
473.045	366.38
473.503	378.38
473.96	381.68
474.417	398.88
474.875	434.58
475.332	468.38
475.789	455.38
476.246	466.38
476.704	489.08
477.161	504.08
477.618	520.68
478.075	551.88
478.532	607.98
478.989	694.48
479.446	801.88
479.903	768.68
480.36	806.88
480.817	855.88
481.274	964.48
481.731	1076.38
482.188	1164.08
482.645	1310.38
483.102	1408.98
483.558	1545.68
484.015	1597.18
484.472	1582.38
484.929	1532.08
485.385	1490.48
485.842	1434.38
486.299	1378.68
486.755	1298.58
487.212	1083.68
487.668	913.68
488.125	845.68
488.582	781.58
489.038	745.48
489.494	719.18
489.951	682.38
490.407	672.18
490.864	643.58
491.32	633.98
491.776	650.08
492.233	633.78
492.689	605.38
493.145	595.88
493.602	593.58
494.058	615.18
494.514	608.88
494.97	628.08
495.426	642.98
495.882	625.88
496.338	615.48
496.794	629.48
497.251	619.28
497.707	625.38
498.163	638.78
498.618	639.98
499.074	636.48
499.53	674.98
499.986	673.68
500.442	648.48
500.898	634.58
501.354	614.68
501.809	637.58
502.265	638.98
502.721	659.08
503.177	661.68
503.632	661.88
504.088	678.08
504.543	694.28
504.999	709.88
505.455	652.58
505.91	626.08
506.366	627.28
506.821	626.98
507.277	614.58
507.732	610.68
508.187	612.78
508.643	626.48
509.098	636.58
509.553	649.18
510.009	663.28
510.464	664.08
510.919	690.48
511.375	686.98
511.83	709.88
512.285	723.48
512.74	746.98
513.195	776.68
513.65	770.98
514.105	767.18
514.56	767.48
515.015	785.08
515.47	807.58
515.925	783.48
516.38	787.78
516.835	790.18
517.29	780.38
517.745	770.38
518.2	759.38
518.655	740.48
519.109	738.38
519.564	737.78
520.019	733.68
520.474	717.88
520.928	719.68
521.383	716.28
521.838	708.88
522.292	707.28
522.747	702.88
523.201	692.38
523.656	678.28
524.11	685.48
524.565	686.58
525.019	683.48
525.474	692.18
525.928	697.68
526.382	695.88
526.837	694.88
527.291	702.58
527.745	682.78
528.2	692.98
528.654	684.38
529.108	679.38
529.562	690.38
530.016	691.18
530.47	689.78
530.925	684.88
531.379	694.68
531.833	703.68
532.287	701.98
532.741	702.78
533.195	695.58
533.649	708.18
534.103	713.18
534.556	713.38
535.01	706.08
535.464	697.38
535.918	713.58
536.372	721.68
536.826	714.88
537.279	694.58
537.733	707.78
538.187	701.58
538.64	705.88
539.094	721.68
539.548	719.88
540.001	711.28
540.455	725.58
540.908	718.28
541.362	731.58
541.815	732.68
542.269	755.18
542.722	754.48
543.175	759.68
543.629	760.28
544.082	780.28
544.536	786.28
544.989	769.08
545.442	775.78
545.895	773.48
546.349	774.68
546.802	782.68
547.255	788.98
547.708	792.08
548.161	803.58
548.614	808.38
549.067	820.08
549.52	815.38
549.973	788.88
550.426	792.58
550.879	771.38
551.332	789.18
551.785	803.48
552.238	793.28
552.691	809.38
553.144	820.28
553.596	835.88
554.049	858.48
554.502	884.08
554.955	905.78
555.407	894.88
555.86	884.68
556.313	879.48
556.765	875.08
557.218	872.58
557.67	871.08
558.123	863.28
558.576	859.48
559.028	856.68
559.48	859.98
559.933	861.48
560.385	828.88
560.838	785.78
561.29	773.08
561.742	758.48
562.195	751.78
562.647	753.68
563.099	760.08
563.551	764.28
564.004	771.78
564.456	760.78
564.908	753.68
565.36	740.18
565.812	725.18
566.264	714.88
566.716	716.68
567.168	707.38
567.62	719.78
568.072	695.98
568.524	672.08
568.976	671.68
569.428	650.38
569.88	657.38
570.332	680.88
570.784	674.68
571.235	662.78
571.687	680.38
572.139	686.98
572.59	684.28
573.042	698.08
573.494	703.38
573.945	700.28
574.397	679.48
574.849	678.58
575.3	669.98
575.752	670.78
576.203	664.88
576.655	674.68
577.106	672.08
577.557	648.68
578.009	656.58
578.46	649.38
578.912	657.18
579.363	647.68
579.814	644.08
580.265	639.58
580.717	658.48
581.168	668.58
581.619	664.98
582.07	675.18
582.521	661.88
582.972	653.78
583.423	666.18
583.875	655.38
584.326	686.98
584.777	725.28
585.227	803.48
585.678	890.68
586.129	992.38
586.58	1059.88
587.031	1139.28
587.482	1303.48
587.933	1475.98
588.384	1292.68
588.834	955.28
589.285	784.38
589.736	760.18
590.186	753.48
590.637	743.78
591.088	720.98
591.538	726.88
591.989	710.28
592.439	704.58
592.89	698.98
593.34	696.18
593.791	696.28
594.241	681.88
594.692	690.18
595.142	687.58
595.593	680.68
596.043	700.18
596.493	701.48
596.943	688.88
597.394	704.58
597.844	699.08
598.294	707.78
598.744	733.98
599.195	753.58
599.645	783.98
600.095	841.58
600.545	875.78
600.995	933.08
601.445	984.68
601.895	1055.78
602.345	1111.48
602.795	1080.18
603.245	1031.58
603.695	982.88
604.145	922.88
604.594	877.68
605.044	845.78
605.494	770.98
605.944	726.48
606.393	729.08
606.843	705.48
607.293	721.38
607.743	701.68
608.192	731.58
608.642	733.18
609.091	741.78
609.541	747.18
609.99	741.98
610.44	738.28
610.889	696.98
611.339	685.48
611.788	665.98
612.238	686.18
612.687	695.28
613.136	703.38
613.586	714.18
614.035	723.48
614.484	739.88
614.933	737.58
615.383	727.08
615.832	717.88
616.281	702.18
616.73	663.98
617.179	635.58
617.628	631.28
618.077	609.58
618.526	610.08
618.975	584.28
619.424	591.28
619.873	589.08
620.322	595.08
620.771	599.88
621.22	584.48
621.669	571.98
622.118	570.88
622.567	564.08
623.015	547.68
623.464	552.58
623.913	537.28
624.361	530.18
624.81	537.08
625.259	527.48
625.707	544.18
626.156	538.78
626.604	550.58
627.053	529.08
627.501	535.78
627.95	540.48
628.398	557.38
628.847	551.88
629.295	550.68
629.744	549.58
630.192	546.68
630.64	537.58
631.089	541.98
631.537	551.28
631.985	563.68
632.433	578.38
632.881	579.18
633.33	633.18
633.778	613.58
634.226	543.58
634.674	550.28
635.122	555.18
635.57	576.18
636.018	595.28
636.466	558.08
636.914	528.48
637.362	545.38
637.81	547.88
638.258	552.88
638.705	547.08
639.153	573.48
639.601	592.58
640.049	618.38
640.497	645.28
640.944	660.88
641.392	612.68
641.84	579.98
642.287	561.68
642.735	540.98
643.182	554.68
643.63	546.08
644.078	546.18
644.525	571.28
644.973	570.58
645.42	573.78
645.867	591.58
646.315	614.48
646.762	638.28
647.21	661.78
647.657	677.98
648.104	713.28
648.551	736.18
648.999	794.28
649.446	881.78
649.893	958.18
650.34	1112.08
650.787	1323.68
651.234	1663.58
651.682	2144.98
652.129	2950.68
652.576	4246.28
653.023	6256.08
653.47	8627.38
653.917	10857.98
654.363	12637.88
654.81	14014.18
655.257	13326.48
655.704	8690.08
656.151	5149.68
656.598	3310.58
657.044	2337.98
657.491	1811.38
657.938	1428.08
658.385	1205.48
658.831	1034.28
659.278	928.18
659.724	818.28
660.171	757.98
660.618	695.28
661.064	651.58
661.511	633.88
661.957	624.98
662.404	612.58
662.85	624.28
663.296	603.98
663.743	543.98
664.189	502.78
664.635	510.58
665.082	500.28
665.528	502.68
665.974	497.98
666.42	489.98
666.867	487.48
667.313	464.88
667.759	454.78
668.205	449.08
668.651	461.98
669.097	465.78
669.543	470.78
669.989	440.68
670.435	426.08
670.881	419.78
671.327	422.88
671.773	447.78
672.219	459.68
672.665	520.28
673.11	545.18
673.556	600.08
674.002	630.98
674.448	612.48
674.893	518.88
675.339	451.48
675.785	408.08
676.23	396.28
676.676	367.38
677.122	368.68
677.567	347.68
678.013	344.28
678.458	339.78
678.904	344.48
679.349	335.18
679.794	339.58
680.24	332.18
680.685	329.08
681.131	330.48
681.576	335.58
682.021	334.88
682.466	334.38
682.912	324.08
683.357	328.58
683.802	358.08
684.247	383.68
684.692	430.68
685.137	466.18
685.583	501.08
686.028	526.18
686.473	487.78
686.918	420.98
687.363	390.98
687.807	378.38
688.252	340.08
688.697	339.38
689.142	322.58
689.587	319.68
690.032	303.48
690.477	327.68
690.921	327.18
691.366	361.58
691.811	375.78
692.255	405.28
692.7	438.88
693.145	463.68
693.589	643.78
694.034	1029.48
694.478	1428.78
694.923	1631.68
695.367	2141.18
695.812	1136.68
696.256	465.78
696.701	354.18
697.145	322.28
697.59	317.08
698.034	307.48
698.478	312.58
698.922	305.38
699.367	311.48
699.811	316.68
700.255	333.58
700.699	357.68
701.143	393.88
701.588	445.88
702.032	485.18
702.476	482.78
702.92	456.08
703.364	452.38
703.808	574.48
704.252	946.78
704.696	1347.48
705.14	1573.88
705.584	2040.68
706.027	987.98
706.471	488.78
706.915	365.78
707.359	327.08
707.803	301.88
708.246	290.18
708.69	290.78
709.134	295.78
709.577	291.78
710.021	298.08
710.465	292.28
710.908	285.98
711.352	270.68
711.795	289.58
712.239	328.38
712.682	359.28
713.126	389.98
713.569	447.68
714.012	352.08
714.456	301.38
714.899	280.18
715.342	257.28
715.786	245.78
716.229	245.48
716.672	232.98
717.115	234.88
717.558	233.88
718.002	230.98
718.445	245.18
718.888	269.78
719.331	284.78
719.774	290.48
720.217	287.48
720.66	262.08
721.103	246.18
721.546	239.08
721.989	234.38
722.432	215.18
722.874	220.58
723.317	219.48
723.76	217.08
724.203	239.58
724.645	286.88
725.088	417.88
725.531	531.88
725.974	604.38
726.416	514.88
726.859	280.48
727.301	230.68
727.744	222.58
728.187	218.28
728.629	217.28
729.071	228.48
729.514	241.38
729.956	253.98
730.399	264.18
730.841	278.58
731.283	255.28
731.726	235.58
732.168	240.48
732.61	247.18
733.053	255.88
733.495	293.98
733.937	326.58
734.379	372.08
734.821	404.88
735.263	499.58
735.705	772.48
736.148	1439.78
736.59	2384.18
737.032	2882.98
737.474	2339.68
737.916	751.48
738.357	392.88
738.799	300.28
739.241	277.08
739.683	261.18
740.125	273.78
740.567	280.08
741.008	298.78
741.45	297.08
741.892	295.58
742.334	324.18
742.775	335.88
743.217	323.78
743.658	249.78
744.1	238.18
744.542	242.18
744.983	296.88
745.425	322.58
745.866	327.18
746.307	264.68
746.749	264.98
747.19	302.48
747.632	418.08
748.073	794.78
748.514	1682.18
748.956	2648.68
749.397	3313.18
749.838	2764.88
750.279	2795.88
750.72	1402.78
751.162	513.28
751.603	292.68
752.044	237.08
752.485	197.98
752.926	199.28
753.367	184.98
753.808	175.78
754.249	185.78
754.69	178.28
755.131	172.48
755.572	172.28
756.013	166.48
756.453	173.48
756.894	183.98
757.335	177.78
757.776	177.88
758.216	180.28
758.657	181.68
759.098	183.68
759.538	208.98
759.979	249.98
760.42	346.88
760.86	641.18
761.301	1647.28
761.741	4032.08
762.182	6077.48
762.622	4269.88
763.063	1225.68
763.503	502.08
763.943	321.18
764.384	313.78
764.824	391.98
765.264	417.08
765.705	285.28
766.145	195.18
766.585	169.68
767.025	174.08
767.465	178.38
767.906	231.98
768.346	309.88
768.786	330.38
769.226	251.68
769.666	296.88
770.106	559.68
770.546	1416.18
770.986	2467.18
771.426	2245.68
771.866	742.08
772.306	299.38
772.745	195.68
773.185	161.28
773.625	162.48
774.065	149.18
774.505	179.58
774.944	286.58
775.384	626.58
775.824	1167.18
776.263	1156.38
776.703	489.78
777.142	208.18
777.582	147.68
778.021	133.78
778.461	138.18
778.9	128.08
779.34	123.18
779.779	114.88
780.219	98.38
780.658	99.18
781.097	102.98
781.537	104.28
781.976	108.28
782.415	103.78
782.855	99.38
783.294	97.58
783.733	96.78
784.172	97.68
784.611	95.18
785.05	109.18
785.489	109.28
785.928	112.98
786.367	120.88
786.806	117.88
787.245	126.98
787.684	128.28
788.123	141.58
788.562	119.58
789.001	115.28
789.44	117.88
789.879	110.28
790.317	112.18
790.756	117.38
791.195	122.08
791.634	135.48
792.072	182.48
792.511	329.18
792.95	909.68
793.388	1993.38
793.827	1843.38
794.265	634.98
794.704	255.88
795.142	167.98
795.581	142.18
796.019	125.98
796.458	119.48
796.896	114.98
797.334	123.88
797.773	140.18
798.211	199.68
798.649	400.28
799.087	933.48
799.526	1464.18
799.964	1859.88
800.402	1916.08
800.84	699.58
801.278	276.18
801.716	178.68
802.154	142.28
802.592	140.68
803.03	128.08
803.468	122.58
803.906	131.58
804.344	144.88
804.782	127.28
805.22	125.48
805.658	118.28
806.096	144.18
806.533	145.78
806.971	166.08
807.409	199.58
807.847	285.48
808.284	594.28
808.722	1702.28
809.16	3064.48
809.597	2872.18
810.035	5020.98
810.472	5505.28
810.91	1964.08
811.347	731.68
811.785	371.78
812.222	242.38
812.66	181.18
813.097	157.18
813.535	132.18
813.972	123.98
814.409	113.88
814.846	103.68
815.284	102.58
815.721	92.08
816.158	95.98
816.595	99.88
817.032	172.18
817.47	183.68
817.907	167.38
818.344	142.88
818.781	113.88
819.218	88.58
819.655	113.58
820.092	176.48
820.529	202.68
820.966	168.68
821.403	126.58
821.839	104.38
822.276	94.18
822.713	111.78
823.15	120.38
823.587	106.28
824.023	130.78
824.46	267.78
824.897	815.58
825.333	1274.08
825.77	551.78
826.206	210.08
826.643	127.48
827.08	92.28
827.516	85.28
827.953	69.88
828.389	79.98
828.825	62.08
829.262	54.88
829.698	62.78
830.135	61.88
830.571	52.98
831.007	56.38
831.443	60.08
831.88	57.68
832.316	55.68
832.752	64.18
833.188	61.18
833.624	62.78
834.06	60.38
834.497	64.98
834.933	63.58
835.369	72.28
835.805	67.08
836.241	66.18
836.677	71.98
837.112	81.48
837.548	99.08
837.984	124.88
838.42	184.98
838.856	443.58
839.292	1381.58
839.727	2178.38
840.163	1005.18
840.599	847.68
841.034	1871.38
841.47	2018.48
841.906	731.28
842.341	319.98
842.777	209.38
843.212	296.38
843.648	299.48
844.083	147.08
844.519	91.98
844.954	71.48
845.39	59.28
845.825	52.58
846.261	55.18
846.696	51.88
847.131	47.48
847.566	56.48
848.002	47.28
848.437	50.08
848.872	56.08
849.307	57.88
849.742	70.08
850.177	164.28
850.613	508.08
851.048	823.58
851.483	356.98
851.918	145.18
852.353	89.48
852.788	52.58
853.223	56.48
853.657	50.98
854.092	45.18
854.527	32.58
854.962	42.28
855.397	43.08
855.832	48.38
856.266	37.28
856.701	36.58
857.136	42.18
857.57	36.98
858.005	47.68
858.44	50.78
858.874	38.88
859.309	45.68
859.743	37.58
860.178	44.98
860.612	43.68
861.047	43.78
861.481	55.68
861.915	63.08
862.35	43.88
862.784	29.68
863.218	34.08
863.653	34.98
864.087	38.18
864.521	48.68
864.955	63.88
865.39	142.38
865.824	164.98
866.258	107.18
866.692	148.78
867.126	166.98
867.56	104.58
867.994	50.38
868.428	38.68
868.862	47.98
869.296	47.68
869.73	50.58
870.164	48.78
870.598	41.98
871.031	36.48
871.465	31.68
871.899	30.98
872.333	21.98
872.766	25.68
873.2	21.68
873.634	26.98
874.067	27.18
874.501	26.88
874.935	31.28
875.368	30.08
875.802	22.68
876.235	23.28
876.669	19.08
877.102	23.08
877.535	26.78
877.969	22.88
878.402	22.68
878.836	21.88
879.269	15.18
879.702	20.08
880.135	18.08
880.569	21.58
881.002	30.38
881.435	20.58
881.868	15.38
882.301	23.18
882.734	17.28
883.167	17.38
883.601	17.28
884.034	30.18
884.467	11.08
884.899	20.48
885.332	20.48
885.765	10.78
886.198	18.28
886.631	17.88
887.064	13.38
887.497	16.98
887.929	22.48
888.362	14.08
888.795	14.38
889.228	17.98
889.66	17.88
890.093	14.48
890.526	12.38
890.958	17.48
891.391	12.58
891.823	22.98
892.256	17.58
892.688	10.78
893.121	14.68
893.553	11.08
893.985	25.58
894.418	19.08
894.85	12.68
895.282	14.38
895.715	11.78
896.147	11.08
896.579	11.88
897.011	12.88
897.444	13.48
897.876	18.88
898.308	17.38
898.74	14.38
899.172	14.28
899.604	24.58
900.036	21.58
900.468	10.68
900.9	9.88
901.332	19.58
901.764	14.78
902.196	20.58
902.628	17.58
903.06	9.98
903.491	29.28
903.923	22.98
904.355	24.48
904.787	22.38
905.218	22.48
905.65	20.28
906.082	9.58
906.513	17.28
906.945	17.88
907.376	12.28
907.808	16.98
908.239	23.18
908.671	19.48
909.102	22.18
909.534	27.78
909.965	40.68
910.397	85.68
910.828	282.78
911.259	447.58
911.691	199.78
912.122	100.08
912.553	49.28
912.984	36.58
913.415	28.88
913.847	18.98
914.278	12.98
914.709	17.08
915.14	19.18
915.571	17.08
916.002	10.78
916.433	15.28
916.864	13.08
917.295	13.48
917.726	14.68
918.157	17.28
918.587	21.28
919.018	18.78
919.449	20.08
919.88	24.28
920.311	34.98
920.741	45.18
921.172	152.08
921.603	143.08
922.033	63.68
922.464	41.98
922.895	24.78
923.325	18.68
923.756	17.78
924.186	16.98
924.617	26.78
925.047	37.08
925.478	49.78
925.908	47.28
926.338	20.98
926.769	17.98
927.199	18.48
927.629	10.18
928.06	12.68
928.49	13.58
928.92	18.38
929.35	10.98
929.78	14.68
930.21	7.68
930.641	10.78
931.071	6.58
931.501	3.98
931.931	11.18
932.361	9.88
932.791	0.78
933.221	3.48
933.651	0.38
934.08	9.38
934.51	33.38
934.94	11.18
935.37	10.18
935.8	8.48
936.229	8.08
936.659	9.28
937.089	4.58
937.519	12.78
937.948	15.78
938.378	14.98
938.807	7.18
939.237	4.88
939.666	4.48
940.096	-0.02
940.525	2.88
940.955	1.48
941.384	6.58
941.814	-6.52
942.243	-0.82
942.672	0.18
943.102	4.38
943.531	-2.92
943.96	-1.12
944.39	4.28
944.819	2.08
945.248	6.28
945.677	3.18
946.106	3.88
946.535	9.68
946.964	5.58
947.393	0.38
947.822	3.88
948.251	-1.92
948.68	8.88
949.109	4.48
949.538	3.48
949.967	-2.22
950.396	-1.22
950.825	-1.32
951.254	0.08
951.682	-1.32
952.111	0.08
952.54	10.88
952.969	-5.42
953.397	-5.32
953.826	-4.52
954.254	-9.62
954.683	1.98
955.112	0.78
955.54	-3.72
955.969	1.78
956.397	3.08
956.826	-0.72
957.254	1.38
957.682	2.08
958.111	3.58
958.539	0.78
958.967	1.58
959.396	-0.62
959.824	0.88
960.252	5.38
960.68	-1.72
961.109	-1.32
961.537	-0.72
961.965	0.78
962.393	1.98
962.821	-1.32
963.249	3.78
963.677	7.28
964.105	4.98
964.533	38.28
964.961	35.18
965.389	21.28
965.817	6.88
966.245	4.18
966.672	-0.82
967.1	-5.72
967.528	3.58
967.956	1.48
968.383	-2.02
968.811	-7.72
969.239	-3.02
969.666	-6.82
970.094	1.98
970.522	2.68
970.949	-0.42
971.377	-5.62
971.804	0.68
972.232	1.38
972.659	-1.92
973.087	-1.12
973.514	-1.62
973.941	-1.22
974.369	6.28
974.796	2.98
975.223	1.18
975.651	-5.42
976.078	2.68
976.505	3.88
976.932	-2.02
977.359	16.08
977.786	19.08
978.214	0.08
978.641	-4.52
979.068	-4.42
979.495	-8.92
979.922	-0.02
980.349	-0.22
980.776	3.28
981.202	-1.62
981.629	5.48
982.056	9.48
982.483	-5.02
982.91	2.48
983.337	-2.92
983.763	2.58
984.19	-4.02
984.617	-3.02
985.043	-9.42
985.47	-0.42
985.897	-3.32
986.323	-5.32
986.75	-0.12
987.176	-3.22
987.603	-2.52
988.029	0.08
988.456	-4.52
988.882	4.08
989.308	-8.62
989.735	-3.02
990.161	3.48
990.587	-3.62
991.014	-0.12
991.44	4.38
991.866	2.48
992.292	-4.32
992.719	-1.32
993.145	4.38
993.571	-9.12
993.997	2.18
994.423	-0.62
994.849	-1.42
995.275	-0.42
995.701	4.28
996.127	1.88
996.553	-0.52
996.979	-3.72
997.405	-2.72
997.83	-6.62
998.256	-8.42
998.682	-0.62
999.108	-9.72
999.534	-1.42
999.959	-1.42
1000.385	-2.02
1000.811	-1.42
1001.236	-4.72
1001.662	-5.62
1002.087	-11.32
1002.513	-2.32
1002.938	-0.92
1003.364	-4.52
1003.789	2.28
1004.215	7.78
1004.64	-2.62
1005.066	-2.92
1005.491	0.58
1005.916	-2.72
1006.342	-2.32
1006.767	-7.92
1007.192	3.78
1007.617	0.68
1008.042	0.48
1008.468	-9.12
1008.893	-3.72
1009.318	-4.82
1009.743	-4.62
1010.168	-0.42
1010.593	-3.82
1011.018	-1.22
1011.443	-1.02
1011.868	1.98
1012.293	-2.32
1012.718	-5.12
1013.143	1.68
1013.567	-4.12
1013.992	-1.82
1014.417	-12.52
1014.842	8.38
1015.267	-7.32
1015.691	-5.92
1016.116	3.68
1016.541	-4.22
1016.965	3.28
1017.39	5.68
1017.814	-1.72
1018.239	-1.22
1018.663	-4.52
1019.088	-9.92
1019.512	-2.62
1019.937	3.68
1020.361	-4.42
1020.785	-11.32
1021.21	-4.32
1021.634	-7.42
1022.058	0.08
1022.483	5.88
1022.907	-3.02
1023.331	-10.22
1023.755	-1.92
1024.179	-6.62
1024.604	-9.92
1025.028	-7.82
1025.452	-10.02
1025.876	-6.12
1026.3	1.48
1026.724	-9.52
1027.148	-2.52
1027.572	-5.92
1027.996	-2.22
1028.42	-3.82
1028.843	-4.12
1029.267	-7.62
1029.691	-4.02
1030.115	-5.02
1030.539	-8.02
1030.962	-6.42
1031.386	-10.72
1031.81	1.38
1032.233	0.88
1032.657	-1.32
1033.08	-0.32
1033.504	-0.62
1033.927	-4.82
1034.351	-2.72
1034.774	-2.12
1035.198	0.08
1035.621	-4.62
1036.045	-8.62
1036.468	4.48
1036.891	-6.92
1037.315	-10.62
1037.738	-8.42
1038.161	0.98
1038.584	-8.62
1039.008	-5.42
1039.431	-9.32
1039.854	-5.02
1040.277	-1.62
1040.7	-10.12
1041.123	-1.82
1041.546	-4.02
1041.969	2.78
1042.392	-2.32
1042.815	-6.62
1043.238	2.48
1043.661	-1.02
1044.084	-4.62
1044.507	-6.12
1044.93	-7.92
1045.352	-1.12
1045.775	0.48
1046.198	-5.32
1046.621	-3.62
1047.043	-2.32
1047.466	0.08
1047.889	-1.92
1048.311	-1.52
1048.734	1.18
1049.156	-2.42
1049.579	-1.22
1050.001	-5.92
1050.424	0.18
1050.846	-2.52
1051.269	-6.52
1051.691	-10.52
1052.113	-7.82
1052.536	3.78
1052.958	-0.22
1053.38	-0.52
1053.802	-4.42
1054.225	-4.32
1054.647	-8.42
1055.069	1.48
1055.491	-1.22
1055.913	-3.02
1056.335	2.48
1056.757	-4.92
1057.179	-7.52
1057.601	-2.32
1058.023	-1.02
1058.445	-2.12
1058.867	-2.32
1059.289	-5.12
1059.711	-3.72
1060.133	-3.62
1060.555	-1.62
1060.976	-7.92
1061.398	-7.22
1061.82	-5.32
1062.241	-0.62
1062.663	-2.42
1063.085	-8.12
1063.506	-0.12
1063.928	-3.12
1064.35	-5.82
1064.771	-15.62
1065.193	-12.32
1065.614	-5.52
1066.035	-1.82
1066.457	-4.22
1066.878	4.28
1067.3	-4.02
1067.721	1.58
1068.142	0.88
1068.564	-4.62
1068.985	-5.12
1069.406	-10.52
1069.827	-3.02
1070.248	-0.72
1070.67	-2.32
1071.091	-7.02
1071.512	4.58
1071.933	-7.92
1072.354	-8.12
1072.775	-7.02
1073.196	-7.12
1073.617	-0.72
1074.038	-6.62
1074.459	-4.02
1074.88	-10.82
1075.3	-0.22
1075.721	-6.12
1076.142	-2.82
1076.563	-2.62
1076.983	-10.02
1077.404	-0.72
1077.825	-11.42
1078.246	-4.12
1078.666	-10.42
1079.087	-5.12
1079.507	-5.62
1079.928	-1.32
1080.348	-0.82
1080.769	-10.62
1081.189	1.18
1081.61	-6.22
1082.03	-5.22
1082.451	-10.62
1082.871	-1.72
1083.291	-7.32
1083.711	-10.12
1084.132	-7.32
1084.552	-7.72
1084.972	2.68
1085.392	-9.22
1085.813	-12.72
1086.233	-8.82
1086.653	-4.02
1087.073	-1.22
1087.493	-5.72
1087.913	-6.02
1088.333	-8.12
1088.753	-0.72
1089.173	1.78
1089.593	1.88
1090.013	-1.02
1090.433	3.28
1090.852	-4.22
1091.272	-6.82
1091.692	-4.22
1092.112	-3.62
1092.531	-10.02
1092.951	-10.62
1093.371	-7.22
1093.79	-5.12
1094.21	-5.32
1094.63	-10.02
1095.049	-3.92
1095.469	-1.82
1095.888	-0.82
1096.308	5.38
1096.727	4.48
1097.146	-10.72
1097.566	0.18
1097.985	-6.92
1098.405	-4.52
1098.824	-1.42
1099.243	-3.22
1099.662	-10.52
1100.082	-4.02
1100.501	-3.42
1100.92	-5.52
1101.339	-1.42
1101.758	-6.52
