Data from 20171114-ORNL-Ar_H_NY_Subt18_08-08-37-495.txt Node
Date: Tue Nov 14 08:08:37 EST 2017
User: Ender
Spectrometer: HR+D1039
Trigger mode: 0
Integration Time (sec): 2.730000E-2
Scans to average: 10
Electric dark correction enabled: true
Nonlinearity correction enabled: false
Boxcar width: 0
XAxis mode: Wavelengths
Number of Pixels in Spectrum: 2048
>>>>>Begin Spectral Data<<<<<
187.836	-3.82
188.309	-3.82
188.782	-3.82
189.255	2.88
189.728	-2.32
190.201	9.38
190.674	-3.82
191.147	-1.42
191.619	-9.12
192.092	4.78
192.565	0.88
193.038	2.88
193.511	-0.62
193.984	-1.82
194.456	0.88
194.929	0.78
195.402	-0.42
195.874	0.88
196.347	-0.82
196.82	-5.32
197.292	10.18
197.765	2.18
198.237	-2.82
198.71	-0.42
199.182	-3.52
199.655	5.88
200.127	3.98
200.6	-0.72
201.072	0.38
201.544	-6.82
202.017	-4.02
202.489	2.58
202.961	-2.92
203.433	2.88
203.906	-5.52
204.378	-8.62
204.85	-3.72
205.322	-12.82
205.794	-3.72
206.266	-3.52
206.739	-5.22
207.211	-1.72
207.683	-6.12
208.155	-1.72
208.627	-6.12
209.099	-1.92
209.57	-5.82
210.042	0.48
210.514	-5.52
210.986	0.48
211.458	-12.32
211.93	1.18
212.402	1.38
212.873	-7.12
213.345	-8.12
213.817	-14.42
214.288	-7.32
214.76	-11.22
215.232	-2.22
215.703	-1.12
216.175	-3.52
216.646	-6.92
217.118	-4.72
217.589	-3.72
218.061	2.98
218.532	-3.22
219.004	3.48
219.475	-3.92
219.946	-6.92
220.418	-4.02
220.889	2.68
221.36	-1.82
221.832	-1.02
222.303	-5.42
222.774	3.58
223.245	-9.42
223.717	-4.42
224.188	-4.62
224.659	-4.12
225.13	-5.02
225.601	2.08
226.072	5.88
226.543	-3.62
227.014	2.88
227.485	-2.22
227.956	-9.12
228.427	-5.72
228.898	1.78
229.369	2.08
229.839	-5.62
230.31	-7.12
230.781	4.38
231.252	-1.72
231.722	-5.02
232.193	-3.92
232.664	-2.42
233.135	0.48
233.605	-2.52
234.076	-8.02
234.546	-3.12
235.017	1.98
235.487	-2.12
235.958	-0.02
236.428	-5.62
236.899	1.28
237.369	7.28
237.84	-0.42
238.31	8.18
238.78	7.68
239.251	-6.12
239.721	0.38
240.191	0.78
240.662	-9.62
241.132	-1.02
241.602	-4.52
242.072	-4.82
242.542	2.38
243.013	-2.92
243.483	2.38
243.953	4.18
244.423	-1.32
244.893	-4.52
245.363	2.88
245.833	1.98
246.303	-3.42
246.773	5.98
247.243	-2.72
247.712	6.78
248.182	7.08
248.652	1.68
249.122	-2.12
249.592	9.68
250.061	10.68
250.531	22.28
251.001	5.18
251.471	9.38
251.94	15.08
252.41	2.68
252.879	-6.92
253.349	13.08
253.818	4.98
254.288	3.48
254.757	1.58
255.227	-3.42
255.696	5.18
256.166	4.28
256.635	4.18
257.105	4.48
257.574	1.18
258.043	8.28
258.513	2.48
258.982	4.68
259.451	4.98
259.92	7.58
260.389	2.98
260.859	13.08
261.328	7.48
261.797	9.58
262.266	4.78
262.735	4.88
263.204	4.38
263.673	0.38
264.142	5.28
264.611	-3.72
265.08	3.38
265.549	-1.92
266.018	5.48
266.487	-3.62
266.955	-2.32
267.424	-1.72
267.893	4.38
268.362	0.18
268.83	0.88
269.299	12.58
269.768	9.68
270.236	8.78
270.705	2.38
271.174	7.28
271.642	6.28
272.111	2.98
272.579	3.78
273.048	16.88
273.516	17.28
273.985	17.68
274.453	12.88
274.922	14.68
275.39	7.48
275.858	-4.52
276.327	14.18
276.795	17.48
277.263	9.68
277.731	21.08
278.2	35.48
278.668	37.08
279.136	31.78
279.604	14.68
280.072	10.18
280.54	5.98
281.008	3.78
281.477	8.88
281.945	12.58
282.413	6.48
282.881	11.78
283.348	7.08
283.816	7.48
284.284	5.58
284.752	13.48
285.22	6.28
285.688	14.38
286.156	10.38
286.623	27.48
287.091	39.48
287.559	17.18
288.026	14.58
288.494	10.38
288.962	3.38
289.429	4.38
289.897	12.88
290.364	9.98
290.832	9.28
291.3	12.78
291.767	15.88
292.234	17.98
292.702	12.68
293.169	14.68
293.637	19.88
294.104	18.98
294.571	4.88
295.039	7.18
295.506	10.98
295.973	15.68
296.44	8.68
296.908	9.68
297.375	20.08
297.842	17.98
298.309	11.28
298.776	8.58
299.243	10.18
299.71	13.48
300.177	16.48
300.644	13.38
301.111	23.38
301.578	24.18
302.045	14.98
302.512	18.88
302.979	21.18
303.446	18.38
303.913	15.08
304.379	17.98
304.846	24.98
305.313	19.58
305.78	19.18
306.246	18.18
306.713	26.28
307.18	17.18
307.646	22.18
308.113	20.28
308.579	13.38
309.046	27.18
309.512	22.88
309.979	14.88
310.445	19.78
310.912	21.58
311.378	27.18
311.845	24.58
312.311	28.98
312.777	27.58
313.244	24.78
313.71	40.08
314.176	25.78
314.642	27.38
315.109	26.98
315.575	29.28
316.041	35.58
316.507	29.18
316.973	30.18
317.439	23.58
317.905	30.88
318.371	37.08
318.837	31.28
319.303	30.98
319.769	25.68
320.235	24.88
320.701	28.78
321.167	31.58
321.633	30.18
322.099	29.78
322.564	35.78
323.03	30.18
323.496	34.88
323.962	30.18
324.427	27.08
324.893	40.18
325.359	34.98
325.824	34.28
326.29	31.18
326.755	33.08
327.221	33.08
327.686	28.88
328.152	38.18
328.617	33.08
329.083	41.08
329.548	45.08
330.014	37.08
330.479	33.08
330.944	36.08
331.41	37.58
331.875	41.18
332.34	35.38
332.805	33.98
333.271	42.98
333.736	34.08
334.201	44.78
334.666	40.78
335.131	42.88
335.596	42.88
336.061	45.08
336.526	37.38
336.991	39.38
337.456	50.48
337.921	40.58
338.386	39.18
338.851	36.68
339.316	43.38
339.781	39.88
340.246	44.18
340.711	44.68
341.175	42.98
341.64	45.48
342.105	47.38
342.569	48.88
343.034	50.58
343.499	47.98
343.963	45.18
344.428	56.98
344.893	46.48
345.357	54.48
345.822	54.48
346.286	58.48
346.751	61.68
347.215	59.58
347.679	64.08
348.144	85.48
348.608	74.88
349.073	59.68
349.537	63.38
350.001	70.98
350.465	81.08
350.93	67.78
351.394	77.08
351.858	56.78
352.322	72.88
352.786	76.28
353.25	87.28
353.715	93.58
354.179	92.28
354.643	111.98
355.107	108.28
355.571	95.28
356.035	91.18
356.498	100.38
356.962	104.98
357.426	114.98
357.89	105.48
358.354	83.48
358.818	72.38
359.281	74.98
359.745	63.48
360.209	65.68
360.673	63.78
361.136	74.18
361.6	75.88
362.064	76.38
362.527	78.88
362.991	85.38
363.454	70.88
363.918	65.38
364.381	74.98
364.845	72.38
365.308	74.88
365.772	77.98
366.235	80.28
366.698	71.18
367.162	75.88
367.625	75.48
368.088	84.78
368.552	79.58
369.015	78.88
369.478	83.08
369.941	90.78
370.404	86.88
370.867	93.28
371.331	96.18
371.794	109.18
372.257	97.68
372.72	98.98
373.183	97.78
373.646	93.08
374.109	91.98
374.572	94.08
375.035	99.38
375.497	100.88
375.96	94.98
376.423	98.28
376.886	103.68
377.349	102.38
377.811	101.28
378.274	88.18
378.737	101.28
379.199	99.28
379.662	105.98
380.125	103.98
380.587	105.68
381.05	107.58
381.512	110.68
381.975	119.78
382.437	111.38
382.9	117.28
383.362	121.38
383.825	122.38
384.287	137.18
384.75	120.78
385.212	127.68
385.674	131.88
386.136	126.38
386.599	112.98
387.061	113.88
387.523	116.08
387.985	133.18
388.447	133.18
388.91	131.28
389.372	143.08
389.834	142.78
390.296	128.28
390.758	143.78
391.22	155.58
391.682	183.88
392.144	248.48
392.606	200.78
393.068	146.38
393.529	154.78
393.991	138.78
394.453	142.08
394.915	140.48
395.377	160.78
395.838	185.78
396.3	141.18
396.762	135.28
397.224	127.08
397.685	123.88
398.147	118.58
398.608	112.48
399.07	122.88
399.531	129.08
399.993	130.58
400.454	143.78
400.916	137.28
401.377	140.88
401.839	145.88
402.3	147.68
402.762	160.38
403.223	169.98
403.684	164.98
404.145	155.78
404.607	150.08
405.068	153.68
405.529	159.78
405.99	172.98
406.451	164.48
406.913	165.18
407.374	149.98
407.835	153.78
408.296	154.88
408.757	158.28
409.218	170.78
409.679	170.08
410.14	169.98
410.601	168.58
411.062	179.28
411.522	183.08
411.983	178.58
412.444	166.98
412.905	171.18
413.366	176.18
413.826	187.78
414.287	203.98
414.748	249.98
415.208	232.88
415.669	197.18
416.13	198.18
416.59	189.48
417.051	207.58
417.511	209.78
417.972	224.08
418.432	234.88
418.893	273.28
419.353	241.88
419.814	188.68
420.274	176.98
420.734	176.58
421.195	185.38
421.655	188.78
422.115	187.08
422.576	181.68
423.036	185.68
423.496	194.28
423.956	209.68
424.416	217.18
424.876	250.38
425.336	241.58
425.797	248.88
426.257	251.88
426.717	230.38
427.177	226.98
427.637	214.28
428.097	222.88
428.556	233.68
429.016	250.98
429.476	257.28
429.936	266.28
430.396	269.98
430.856	278.18
431.315	297.48
431.775	339.08
432.235	358.18
432.694	336.38
433.154	347.28
433.614	381.38
434.073	318.38
434.533	278.98
434.993	253.58
435.452	268.98
435.912	277.58
436.371	284.88
436.83	273.78
437.29	263.28
437.749	239.78
438.209	234.78
438.668	261.68
439.127	273.48
439.587	254.88
440.046	241.28
440.505	240.68
440.964	258.68
441.424	310.48
441.883	303.18
442.342	252.68
442.801	211.18
443.26	216.08
443.719	213.88
444.178	212.38
444.637	200.68
445.096	207.68
445.555	205.18
446.014	215.28
446.473	224.58
446.932	228.68
447.391	219.28
447.849	221.88
448.308	214.18
448.767	219.08
449.226	229.98
449.685	230.78
450.143	239.78
450.602	229.08
451.061	223.28
451.519	227.48
451.978	224.18
452.436	223.58
452.895	229.58
453.353	241.08
453.812	234.28
454.27	229.28
454.729	234.18
455.187	234.28
455.646	244.88
456.104	237.88
456.562	252.18
457.021	253.98
457.479	247.78
457.937	264.38
458.395	257.68
458.854	245.18
459.312	252.48
459.77	273.08
460.228	250.98
460.686	236.38
461.144	239.48
461.602	240.68
462.06	234.98
462.518	244.98
462.976	250.48
463.434	256.88
463.892	252.38
464.35	261.68
464.808	279.18
465.266	263.08
465.724	265.58
466.181	263.98
466.639	270.58
467.097	268.78
467.555	284.98
468.012	289.78
468.47	302.08
468.928	316.48
469.385	333.68
469.843	332.88
470.3	338.58
470.758	358.08
471.215	377.28
471.673	392.78
472.13	406.28
472.588	410.58
473.045	370.08
473.503	365.38
473.96	385.58
474.417	387.78
474.875	414.98
475.332	458.48
475.789	450.58
476.246	451.28
476.704	470.78
477.161	495.28
477.618	498.58
478.075	547.18
478.532	590.18
478.989	663.58
479.446	763.98
479.903	737.08
480.36	774.58
480.817	827.38
481.274	920.88
481.731	1014.58
482.188	1098.18
482.645	1214.38
483.102	1318.78
483.558	1433.18
484.015	1474.38
484.472	1471.18
484.929	1418.18
485.385	1369.68
485.842	1336.08
486.299	1279.48
486.755	1216.28
487.212	1038.98
487.668	876.48
488.125	810.88
488.582	746.58
489.038	721.18
489.494	690.88
489.951	663.18
490.407	646.28
490.864	627.78
491.32	622.68
491.776	625.48
492.233	623.78
492.689	592.98
493.145	596.88
493.602	586.68
494.058	586.28
494.514	585.18
494.97	612.28
495.426	620.28
495.882	598.58
496.338	586.28
496.794	606.78
497.251	592.78
497.707	614.18
498.163	610.88
498.618	618.38
499.074	615.38
499.53	653.28
499.986	654.68
500.442	627.18
500.898	609.18
501.354	608.78
501.809	610.48
502.265	612.08
502.721	632.08
503.177	646.78
503.632	625.28
504.088	650.28
504.543	680.28
504.999	680.48
505.455	634.58
505.91	603.98
506.366	608.68
506.821	610.78
507.277	615.38
507.732	606.48
508.187	605.08
508.643	618.88
509.098	609.58
509.553	631.08
510.009	640.58
510.464	638.38
510.919	670.68
511.375	680.68
511.83	685.48
512.285	694.58
512.74	729.98
513.195	761.18
513.65	739.08
514.105	743.18
514.56	746.58
515.015	763.38
515.47	783.18
515.925	756.58
516.38	761.38
516.835	758.38
517.29	754.98
517.745	757.48
518.2	736.28
518.655	717.48
519.109	718.18
519.564	720.08
520.019	699.28
520.474	697.48
520.928	709.78
521.383	689.38
521.838	688.18
522.292	689.08
522.747	685.78
523.201	689.68
523.656	672.58
524.11	675.78
524.565	688.98
525.019	679.18
525.474	683.48
525.928	674.58
526.382	665.88
526.837	677.48
527.291	675.98
527.745	676.48
528.2	678.58
528.654	667.38
529.108	661.88
529.562	660.08
530.016	658.08
530.47	666.78
530.925	666.08
531.379	677.28
531.833	681.18
532.287	684.18
532.741	682.38
533.195	675.48
533.649	682.08
534.103	698.88
534.556	685.38
535.01	689.18
535.464	682.78
535.918	694.28
536.372	697.88
536.826	694.78
537.279	680.18
537.733	688.48
538.187	699.78
538.64	693.28
539.094	703.58
539.548	704.08
540.001	699.38
540.455	703.88
540.908	703.28
541.362	718.98
541.815	727.28
542.269	740.38
542.722	740.68
543.175	742.18
543.629	746.98
544.082	764.98
544.536	762.28
544.989	750.58
545.442	757.98
545.895	767.08
546.349	764.98
546.802	759.78
547.255	772.28
547.708	783.28
548.161	792.28
548.614	792.68
549.067	802.28
549.52	795.58
549.973	783.98
550.426	788.38
550.879	783.68
551.332	774.48
551.785	781.88
552.238	784.28
552.691	793.58
553.144	801.88
553.596	826.08
554.049	834.98
554.502	871.08
554.955	886.78
555.407	896.88
555.86	868.68
556.313	861.88
556.765	857.18
557.218	866.18
557.67	851.78
558.123	851.88
558.576	845.68
559.028	851.78
559.48	845.68
559.933	842.18
560.385	802.08
560.838	788.68
561.29	770.68
561.742	757.48
562.195	746.78
562.647	740.58
563.099	761.18
563.551	753.58
564.004	776.08
564.456	748.48
564.908	738.48
565.36	720.18
565.812	714.18
566.264	703.28
566.716	701.38
567.168	695.28
567.62	705.98
568.072	689.88
568.524	674.18
568.976	670.98
569.428	656.58
569.88	654.38
570.332	671.48
570.784	668.38
571.235	664.98
571.687	681.88
572.139	688.58
572.59	693.58
573.042	687.58
573.494	694.48
573.945	688.88
574.397	669.48
574.849	672.68
575.3	671.18
575.752	659.88
576.203	654.48
576.655	671.88
577.106	656.78
577.557	647.48
578.009	654.98
578.46	641.28
578.912	638.38
579.363	660.68
579.814	654.98
580.265	650.08
580.717	656.18
581.168	656.68
581.619	659.18
582.07	668.48
582.521	657.58
582.972	652.88
583.423	668.88
583.875	671.98
584.326	683.68
584.777	724.68
585.227	778.28
585.678	849.28
586.129	922.18
586.58	985.38
587.031	1046.78
587.482	1162.88
587.933	1320.58
588.384	1166.58
588.834	910.78
589.285	776.18
589.736	763.68
590.186	763.48
590.637	754.38
591.088	724.38
591.538	716.78
591.989	716.58
592.439	711.08
592.89	712.08
593.34	687.08
593.791	689.08
594.241	691.38
594.692	690.48
595.142	684.18
595.593	687.98
596.043	690.28
596.493	688.28
596.943	695.08
597.394	703.68
597.844	704.88
598.294	717.28
598.744	747.08
599.195	753.08
599.645	809.58
600.095	840.18
600.545	892.88
600.995	958.08
601.445	1006.78
601.895	1081.58
602.345	1116.48
602.795	1078.58
603.245	1043.38
603.695	979.88
604.145	934.78
604.594	894.08
605.044	836.88
605.494	782.18
605.944	741.48
606.393	724.88
606.843	717.88
607.293	722.28
607.743	717.48
608.192	730.78
608.642	741.28
609.091	752.88
609.541	747.28
609.99	753.88
610.44	756.68
610.889	709.78
611.339	692.78
611.788	680.78
612.238	681.68
612.687	696.68
613.136	695.98
613.586	721.58
614.035	715.28
614.484	726.78
614.933	731.48
615.383	728.78
615.832	722.68
616.281	711.68
616.73	676.38
617.179	656.48
617.628	640.58
618.077	623.98
618.526	609.38
618.975	614.38
619.424	612.58
619.873	601.88
620.322	611.98
620.771	593.18
621.22	590.38
621.669	582.78
622.118	582.38
622.567	565.38
623.015	557.48
623.464	562.28
623.913	558.08
624.361	553.38
624.81	547.58
625.259	535.08
625.707	543.28
626.156	551.28
626.604	555.18
627.053	547.08
627.501	551.38
627.95	559.18
628.398	569.78
628.847	550.08
629.295	557.48
629.744	568.78
630.192	559.68
630.64	557.28
631.089	549.68
631.537	571.58
631.985	564.98
632.433	582.88
632.881	587.28
633.33	631.08
633.778	604.98
634.226	544.68
634.674	557.08
635.122	568.68
635.57	575.78
636.018	605.18
636.466	574.68
636.914	552.78
637.362	564.58
637.81	567.58
638.258	579.58
638.705	583.88
639.153	598.68
639.601	602.48
640.049	637.88
640.497	667.38
640.944	688.28
641.392	627.98
641.84	602.08
642.287	577.38
642.735	559.98
643.182	559.98
643.63	565.38
644.078	567.88
644.525	577.88
644.973	580.08
645.42	589.08
645.867	618.58
646.315	629.98
646.762	653.98
647.21	676.88
647.657	692.28
648.104	742.78
648.551	759.08
648.999	814.18
649.446	902.18
649.893	979.38
650.34	1144.98
650.787	1360.08
651.234	1691.78
651.682	2191.08
652.129	3016.08
652.576	4355.48
653.023	6376.48
653.47	8629.38
653.917	10718.88
654.363	12293.18
654.81	13479.18
655.257	12813.88
655.704	8372.68
656.151	4992.48
656.598	3251.98
657.044	2317.08
657.491	1781.68
657.938	1434.08
658.385	1204.48
658.831	1053.78
659.278	936.18
659.724	823.18
660.171	774.28
660.618	707.98
661.064	669.88
661.511	657.68
661.957	645.68
662.404	632.88
662.85	635.58
663.296	609.58
663.743	555.08
664.189	526.28
664.635	532.38
665.082	521.08
665.528	524.98
665.974	513.18
666.42	503.48
666.867	496.48
667.313	484.28
667.759	473.98
668.205	463.38
668.651	464.98
669.097	463.38
669.543	468.18
669.989	453.68
670.435	448.68
670.881	434.08
671.327	452.98
671.773	468.48
672.219	491.48
672.665	546.38
673.11	580.68
673.556	628.98
674.002	659.88
674.448	651.28
674.893	537.08
675.339	472.68
675.785	435.58
676.23	417.58
676.676	396.18
677.122	379.48
677.567	369.38
678.013	366.88
678.458	353.18
678.904	361.08
679.349	344.88
679.794	349.88
680.24	352.18
680.685	347.68
681.131	333.98
681.576	341.88
682.021	351.48
682.466	343.78
682.912	343.98
683.357	357.48
683.802	382.88
684.247	407.98
684.692	455.28
685.137	494.38
685.583	529.38
686.028	559.88
686.473	519.48
686.918	449.28
687.363	409.18
687.807	385.58
688.252	360.18
688.697	348.28
689.142	333.38
689.587	337.88
690.032	329.38
690.477	340.08
690.921	346.68
691.366	379.58
691.811	400.48
692.255	427.68
692.7	455.48
693.145	512.78
693.589	710.78
694.034	1153.58
694.478	1551.18
694.923	1707.18
695.367	2211.98
695.812	1195.38
696.256	496.98
696.701	363.08
697.145	340.88
697.59	327.68
698.034	317.28
698.478	322.78
698.922	322.68
699.367	326.68
699.811	339.88
700.255	346.78
700.699	392.18
701.143	429.38
701.588	477.18
702.032	509.28
702.476	509.38
702.92	484.38
703.364	490.68
703.808	644.38
704.252	1053.28
704.696	1478.28
705.14	1642.28
705.584	2085.08
706.027	1060.28
706.471	509.68
706.915	396.88
707.359	350.08
707.803	311.78
708.246	314.78
708.69	309.48
709.134	317.88
709.577	305.78
710.021	313.98
710.465	308.48
710.908	294.28
711.352	292.08
711.795	308.38
712.239	353.18
712.682	383.98
713.126	414.28
713.569	455.38
714.012	366.88
714.456	315.38
714.899	295.48
715.342	275.88
715.786	259.08
716.229	248.28
716.672	251.08
717.115	250.58
717.558	249.58
718.002	255.18
718.445	259.88
718.888	286.78
719.331	291.98
719.774	302.18
720.217	298.88
720.66	289.28
721.103	262.58
721.546	251.38
721.989	246.28
722.432	233.28
722.874	238.88
723.317	235.98
723.76	231.98
724.203	258.38
724.645	321.08
725.088	455.28
725.531	556.48
725.974	626.98
726.416	533.78
726.859	307.68
727.301	245.18
727.744	245.18
728.187	236.58
728.629	237.78
729.071	242.18
729.514	261.78
729.956	270.18
730.399	279.18
730.841	292.68
731.283	271.18
731.726	275.18
732.168	265.18
732.61	264.48
733.053	277.48
733.495	318.28
733.937	357.18
734.379	398.98
734.821	437.28
735.263	546.08
735.705	857.68
736.148	1617.08
736.59	2590.98
737.032	2973.78
737.474	2421.28
737.916	809.78
738.357	426.88
738.799	328.38
739.241	301.78
739.683	276.88
740.125	296.48
740.567	296.78
741.008	320.78
741.45	312.78
741.892	323.08
742.334	351.08
742.775	360.78
743.217	342.48
743.658	265.88
744.1	256.98
744.542	267.68
744.983	315.08
745.425	340.48
745.866	340.38
746.307	285.18
746.749	282.68
747.19	330.78
747.632	469.68
748.073	928.38
748.514	1913.88
748.956	2828.68
749.397	3582.78
749.838	2956.98
750.279	2888.68
750.72	1473.18
751.162	539.68
751.603	313.58
752.044	250.88
752.485	212.28
752.926	213.88
753.367	196.88
753.808	196.08
754.249	195.78
754.69	187.18
755.131	183.68
755.572	182.28
756.013	174.58
756.453	188.28
756.894	190.78
757.335	196.28
757.776	200.18
758.216	195.68
758.657	199.08
759.098	205.88
759.538	236.98
759.979	264.78
760.42	380.08
760.86	732.48
761.301	1918.58
761.741	4497.78
762.182	6272.68
762.622	4420.98
763.063	1310.28
763.503	541.88
763.943	335.08
764.384	327.88
764.824	362.58
765.264	389.68
765.705	283.08
766.145	198.58
766.585	188.28
767.025	172.08
767.465	182.68
767.906	232.58
768.346	279.38
768.786	298.88
769.226	257.78
769.666	322.68
770.106	643.88
770.546	1611.08
770.986	2607.08
771.426	2305.28
771.866	791.08
772.306	330.18
772.745	208.28
773.185	171.68
773.625	167.78
774.065	156.98
774.505	191.88
774.944	287.78
775.384	603.08
775.824	1026.58
776.263	984.98
776.703	434.98
777.142	200.38
777.582	152.38
778.021	133.98
778.461	130.68
778.9	136.28
779.34	129.48
779.779	118.38
780.219	111.58
780.658	113.38
781.097	119.68
781.537	114.08
781.976	107.08
782.415	104.08
782.855	101.38
783.294	104.88
783.733	111.68
784.172	108.58
784.611	105.68
785.05	110.58
785.489	114.28
785.928	119.08
786.367	122.38
786.806	120.98
787.245	133.28
787.684	138.88
788.123	150.98
788.562	137.38
789.001	122.98
789.44	124.38
789.879	122.98
790.317	122.88
790.756	122.78
791.195	126.98
791.634	153.28
792.072	205.48
792.511	380.78
792.95	1053.18
793.388	2133.08
793.827	1874.38
794.265	675.18
794.704	282.48
795.142	181.18
795.581	150.58
796.019	136.58
796.458	129.48
796.896	122.98
797.334	133.38
797.773	158.48
798.211	219.48
798.649	465.78
799.087	1039.38
799.526	1600.88
799.964	2020.08
800.402	1968.68
800.84	750.08
801.278	301.38
801.716	187.58
802.154	151.58
802.592	143.68
803.03	139.28
803.468	141.38
803.906	144.08
804.344	152.78
804.782	138.28
805.22	139.28
805.658	126.38
806.096	144.88
806.533	161.18
806.971	174.78
807.409	221.08
807.847	322.28
808.284	681.48
808.722	1896.78
809.16	3245.08
809.597	3198.38
810.035	5450.98
810.472	5613.58
810.91	2057.28
811.347	791.78
811.785	406.08
812.222	258.78
812.66	194.78
813.097	163.58
813.535	143.18
813.972	131.38
814.409	120.88
814.846	108.98
815.284	111.68
815.721	105.18
816.158	106.88
816.595	111.28
817.032	171.48
817.47	191.18
817.907	158.68
818.344	138.18
818.781	110.28
819.218	95.58
819.655	118.48
820.092	184.58
820.529	206.38
820.966	179.68
821.403	126.48
821.839	105.68
822.276	103.88
822.713	126.38
823.15	137.98
823.587	114.28
824.023	147.78
824.46	320.48
824.897	905.28
825.333	1316.28
825.77	569.98
826.206	226.98
826.643	129.48
827.08	102.78
827.516	83.98
827.953	76.68
828.389	85.38
828.825	73.38
829.262	68.28
829.698	65.78
830.135	61.28
830.571	59.98
831.007	61.48
831.443	65.18
831.88	54.68
832.316	64.28
832.752	68.08
833.188	70.38
833.624	63.88
834.06	68.38
834.497	68.18
834.933	65.48
835.369	71.08
835.805	65.58
836.241	78.88
836.677	83.98
837.112	95.88
837.548	97.78
837.984	134.88
838.42	201.68
838.856	519.18
839.292	1537.08
839.727	2248.68
840.163	1067.28
840.599	954.18
841.034	2047.88
841.47	2067.58
841.906	762.78
842.341	334.88
842.777	223.88
843.212	281.08
843.648	272.18
844.083	143.78
844.519	92.28
844.954	76.18
845.39	57.88
845.825	58.38
846.261	59.98
846.696	54.28
847.131	54.58
847.566	62.98
848.002	52.08
848.437	58.98
848.872	61.88
849.307	60.18
849.742	88.98
850.177	191.18
850.613	572.78
851.048	860.58
851.483	377.08
851.918	153.38
852.353	89.88
852.788	60.98
853.223	57.98
853.657	50.58
854.092	47.88
854.527	43.08
854.962	45.98
855.397	44.88
855.832	46.88
856.266	37.38
856.701	40.88
857.136	35.68
857.57	46.78
858.005	48.18
858.44	61.28
858.874	49.68
859.309	56.08
859.743	42.58
860.178	49.28
860.612	41.58
861.047	55.58
861.481	69.88
861.915	73.78
862.35	48.98
862.784	34.78
863.218	38.98
863.653	37.98
864.087	48.08
864.521	59.08
864.955	72.88
865.39	159.68
865.824	169.58
866.258	120.18
866.692	169.48
867.126	175.18
867.56	100.18
867.994	54.88
868.428	36.58
868.862	43.08
869.296	54.98
869.73	60.98
870.164	49.78
870.598	47.38
871.031	38.78
871.465	26.18
871.899	31.08
872.333	30.28
872.766	28.28
873.2	24.08
873.634	30.68
874.067	28.28
874.501	30.88
874.935	35.18
875.368	30.18
875.802	29.68
876.235	28.98
876.669	24.78
877.102	23.88
877.535	28.48
877.969	24.68
878.402	24.48
878.836	15.48
879.269	25.28
879.702	26.08
880.135	21.28
880.569	26.38
881.002	28.88
881.435	25.48
881.868	20.98
882.301	22.58
882.734	17.38
883.167	24.08
883.601	22.08
884.034	23.18
884.467	15.68
884.899	18.08
885.332	22.48
885.765	10.08
886.198	16.48
886.631	21.78
887.064	21.38
887.497	21.08
887.929	18.78
888.362	15.68
888.795	17.28
889.228	21.68
889.66	22.78
890.093	14.68
890.526	15.48
890.958	8.38
891.391	19.28
891.823	24.58
892.256	16.18
892.688	13.38
893.121	12.08
893.553	12.58
893.985	21.58
894.418	16.98
894.85	16.18
895.282	13.08
895.715	16.18
896.147	20.88
896.579	22.38
897.011	16.18
897.444	15.58
897.876	14.28
898.308	18.78
898.74	13.98
899.172	13.38
899.604	17.98
900.036	18.48
900.468	17.08
900.9	9.88
901.332	16.08
901.764	13.08
902.196	17.18
902.628	15.28
903.06	16.08
903.491	30.78
903.923	23.68
904.355	16.08
904.787	25.08
905.218	27.08
905.65	21.78
906.082	16.48
906.513	14.38
906.945	13.18
907.376	8.28
907.808	16.08
908.239	18.38
908.671	20.58
909.102	18.38
909.534	24.58
909.965	43.68
910.397	87.18
910.828	316.68
911.259	463.18
911.691	219.78
912.122	105.88
912.553	50.28
912.984	33.08
913.415	23.38
913.847	22.28
914.278	18.78
914.709	16.78
915.14	15.98
915.571	16.68
916.002	10.08
916.433	17.88
916.864	15.18
917.295	14.68
917.726	19.48
918.157	14.58
918.587	32.38
919.018	24.78
919.449	25.88
919.88	23.58
920.311	33.18
920.741	44.18
921.172	166.08
921.603	152.98
922.033	77.68
922.464	41.08
922.895	22.38
923.325	24.18
923.756	13.38
924.186	10.98
924.617	23.48
925.047	40.78
925.478	41.98
925.908	40.88
926.338	20.68
926.769	11.88
927.199	22.18
927.629	11.28
928.06	15.28
928.49	14.68
928.92	13.78
929.35	10.18
929.78	5.68
930.21	4.58
930.641	7.48
931.071	5.98
931.501	-1.32
931.931	10.58
932.361	11.08
932.791	-0.32
933.221	5.68
933.651	1.58
934.08	18.38
934.51	26.78
934.94	9.58
935.37	4.18
935.8	16.08
936.229	7.18
936.659	11.58
937.089	3.48
937.519	13.08
937.948	24.88
938.378	16.08
938.807	8.38
939.237	8.18
939.666	5.68
940.096	-2.72
940.525	7.88
940.955	4.98
941.384	2.78
941.814	-9.22
942.243	-2.12
942.672	6.58
943.102	-4.22
943.531	-1.52
943.96	7.08
944.39	6.58
944.819	4.28
945.248	2.38
945.677	1.28
946.106	3.68
946.535	7.68
946.964	0.18
947.393	10.18
947.822	5.08
948.251	1.38
948.68	1.18
949.109	0.78
949.538	7.08
949.967	0.58
950.396	1.98
950.825	2.78
951.254	4.38
951.682	0.38
952.111	1.88
952.54	7.68
952.969	-4.82
953.397	-7.62
953.826	5.58
954.254	-7.82
954.683	4.58
955.112	-4.02
955.54	-1.52
955.969	-0.12
956.397	-3.42
956.826	-3.22
957.254	3.58
957.682	0.78
958.111	7.88
958.539	-3.92
958.967	3.28
959.396	-2.02
959.824	-2.22
960.252	-0.82
960.68	-5.12
961.109	-2.92
961.537	-3.02
961.965	1.08
962.393	-1.02
962.821	-2.92
963.249	-0.22
963.677	3.58
964.105	0.98
964.533	41.08
964.961	38.28
965.389	21.18
965.817	8.18
966.245	1.08
966.672	-4.72
967.1	-7.52
967.528	0.08
967.956	-1.22
968.383	2.38
968.811	-1.02
969.239	-1.72
969.666	-5.02
970.094	6.08
970.522	1.78
970.949	-4.72
971.377	-5.22
971.804	-1.92
972.232	-1.12
972.659	0.88
973.087	-5.42
973.514	-5.22
973.941	-8.42
974.369	10.58
974.796	-1.22
975.223	3.88
975.651	0.18
976.078	3.48
976.505	-3.42
976.932	2.48
977.359	17.98
977.786	16.08
978.214	1.28
978.641	-5.72
979.068	-1.22
979.495	-4.42
979.922	-0.72
980.349	-6.52
980.776	4.18
981.202	0.28
981.629	3.48
982.056	3.28
982.483	-3.92
982.91	5.48
983.337	-6.32
983.763	3.58
984.19	-3.82
984.617	-1.12
985.043	-8.42
985.47	-1.42
985.897	-5.92
986.323	-7.62
986.75	-0.02
987.176	-2.52
987.603	-4.52
988.029	-2.92
988.456	-1.52
988.882	9.58
989.308	-3.82
989.735	-0.52
990.161	0.68
990.587	-1.72
991.014	-2.72
991.44	4.38
991.866	2.08
992.292	-5.82
992.719	-9.52
993.145	2.78
993.571	-6.92
993.997	-2.52
994.423	-2.82
994.849	-4.12
995.275	-0.82
995.701	0.98
996.127	-12.12
996.553	3.18
996.979	-1.62
997.405	-2.42
997.83	-6.82
998.256	-6.82
998.682	-7.22
999.108	-11.92
999.534	-1.12
999.959	-5.52
1000.385	-5.52
1000.811	-4.22
1001.236	-10.92
1001.662	-7.02
1002.087	-9.32
1002.513	0.28
1002.938	0.68
1003.364	-5.12
1003.789	1.28
1004.215	2.48
1004.64	-3.32
1005.066	0.68
1005.491	-1.72
1005.916	1.18
1006.342	-4.92
1006.767	-4.12
1007.192	5.18
1007.617	-6.62
1008.042	-6.72
1008.468	-11.62
1008.893	-4.12
1009.318	1.18
1009.743	0.08
1010.168	4.68
1010.593	5.38
1011.018	-9.02
1011.443	1.28
1011.868	-0.72
1012.293	-10.62
1012.718	-5.42
1013.143	1.28
1013.567	-1.62
1013.992	-3.82
1014.417	-9.12
1014.842	-7.22
1015.267	-7.82
1015.691	-5.52
1016.116	3.98
1016.541	-5.92
1016.965	0.18
1017.39	2.38
1017.814	1.08
1018.239	-3.12
1018.663	-4.52
1019.088	-8.92
1019.512	-1.92
1019.937	-1.32
1020.361	-3.92
1020.785	-12.72
1021.21	-5.22
1021.634	-3.12
1022.058	-1.92
1022.483	3.48
1022.907	-3.72
1023.331	-6.02
1023.755	-3.82
1024.179	-1.22
1024.604	-10.92
1025.028	-6.12
1025.452	-9.82
1025.876	-0.02
1026.3	-5.02
1026.724	-9.22
1027.148	-10.02
1027.572	-14.52
1027.996	-6.22
1028.42	-6.82
1028.843	-4.62
1029.267	-6.32
1029.691	-7.22
1030.115	-5.72
1030.539	-6.52
1030.962	-5.82
1031.386	-11.12
1031.81	-1.82
1032.233	-5.82
1032.657	-3.12
1033.08	-6.82
1033.504	-3.82
1033.927	-1.02
1034.351	0.08
1034.774	-8.32
1035.198	-5.72
1035.621	-8.82
1036.045	-3.92
1036.468	-0.42
1036.891	-18.42
1037.315	-9.62
1037.738	-9.52
1038.161	0.48
1038.584	-2.92
1039.008	-3.22
1039.431	-1.62
1039.854	-2.22
1040.277	-7.12
1040.7	-9.22
1041.123	-2.12
1041.546	-2.12
1041.969	-3.42
1042.392	-3.42
1042.815	-5.72
1043.238	-4.72
1043.661	3.18
1044.084	-2.62
1044.507	-2.52
1044.93	-4.32
1045.352	-2.92
1045.775	1.48
1046.198	-1.72
1046.621	-6.12
1047.043	-2.12
1047.466	8.08
1047.889	1.98
1048.311	-4.02
1048.734	-0.82
1049.156	-2.02
1049.579	2.38
1050.001	-1.72
1050.424	-4.72
1050.846	-2.02
1051.269	0.08
1051.691	-7.52
1052.113	-8.62
1052.536	3.08
1052.958	-1.82
1053.38	-6.12
1053.802	-10.72
1054.225	5.88
1054.647	-6.92
1055.069	-4.62
1055.491	8.58
1055.913	-8.32
1056.335	-1.72
1056.757	-4.02
1057.179	-5.72
1057.601	-5.92
1058.023	-1.82
1058.445	-7.32
1058.867	-8.02
1059.289	-1.22
1059.711	-7.82
1060.133	-6.42
1060.555	-7.52
1060.976	-9.22
1061.398	-3.22
1061.82	-6.22
1062.241	-4.72
1062.663	-6.02
1063.085	-6.12
1063.506	1.98
1063.928	-4.92
1064.35	-1.82
1064.771	-6.82
1065.193	-0.82
1065.614	-11.22
1066.035	-7.92
1066.457	-2.52
1066.878	2.88
1067.3	-7.52
1067.721	-3.02
1068.142	-7.52
1068.564	-4.12
1068.985	-3.72
1069.406	-4.92
1069.827	-7.32
1070.248	1.38
1070.67	-9.92
1071.091	-6.52
1071.512	-4.12
1071.933	-3.42
1072.354	-14.02
1072.775	-6.72
1073.196	-12.22
1073.617	-4.92
1074.038	-9.52
1074.459	-6.22
1074.88	-5.92
1075.3	-0.82
1075.721	-9.62
1076.142	0.18
1076.563	-3.72
1076.983	-9.82
1077.404	-5.52
1077.825	-10.02
1078.246	-4.12
1078.666	-16.22
1079.087	-7.72
1079.507	-7.52
1079.928	0.28
1080.348	-1.72
1080.769	-3.62
1081.189	0.08
1081.61	-4.72
1082.03	-5.22
1082.451	-3.92
1082.871	-5.92
1083.291	-7.52
1083.711	-8.12
1084.132	-6.72
1084.552	-3.92
1084.972	0.88
1085.392	-10.62
1085.813	-7.52
1086.233	-9.52
1086.653	-2.92
1087.073	-4.52
1087.493	-5.32
1087.913	-8.02
1088.333	-8.62
1088.753	-7.12
1089.173	6.88
1089.593	2.68
1090.013	-1.62
1090.433	-1.12
1090.852	-5.92
1091.272	-2.92
1091.692	-3.52
1092.112	-3.02
1092.531	-9.42
1092.951	-16.92
1093.371	-2.92
1093.79	-2.22
1094.21	-7.02
1094.63	-1.62
1095.049	-8.92
1095.469	-1.12
1095.888	2.18
1096.308	-2.92
1096.727	-6.42
1097.146	-5.82
1097.566	2.08
1097.985	-0.52
1098.405	-8.02
1098.824	-5.02
1099.243	-6.32
1099.662	-8.72
1100.082	-3.92
1100.501	0.98
1100.92	-7.42
1101.339	-4.52
1101.758	-6.42
