Data from 20171114-ORNL-Ar_H_NY_Subt18_08-06-23-191.txt Node
Date: Tue Nov 14 08:06:23 EST 2017
User: Ender
Spectrometer: HR+D1039
Trigger mode: 0
Integration Time (sec): 2.730000E-2
Scans to average: 10
Electric dark correction enabled: true
Nonlinearity correction enabled: false
Boxcar width: 0
XAxis mode: Wavelengths
Number of Pixels in Spectrum: 2048
>>>>>Begin Spectral Data<<<<<
187.836	-3.01
188.309	-3.01
188.782	-3.01
189.255	-1.61
189.728	-2.81
190.201	5.89
190.674	0.99
191.147	6.29
191.619	-9.81
192.092	4.89
192.565	5.59
193.038	3.29
193.511	0.29
193.984	3.09
194.456	-3.31
194.929	-5.91
195.402	0.39
195.874	-4.21
196.347	2.99
196.82	-5.61
197.292	5.39
197.765	1.79
198.237	-8.11
198.71	-1.31
199.182	-3.31
199.655	8.99
200.127	1.29
200.6	-5.51
201.072	1.79
201.544	-2.01
202.017	-0.81
202.489	-1.31
202.961	-0.01
203.433	-1.91
203.906	-9.41
204.378	-4.31
204.85	1.79
205.322	-6.91
205.794	-8.01
206.266	2.59
206.739	-4.91
207.211	7.29
207.683	-4.11
208.155	-3.51
208.627	-5.11
209.099	-0.21
209.57	-2.81
210.042	-3.11
210.514	1.59
210.986	-0.21
211.458	-10.91
211.93	-6.01
212.402	6.29
212.873	-3.71
213.345	-2.41
213.817	-10.71
214.288	-4.01
214.76	-11.51
215.232	0.59
215.703	-3.81
216.175	-3.61
216.646	-0.61
217.118	-7.21
217.589	-1.61
218.061	-3.61
218.532	-8.61
219.004	2.59
219.475	-3.41
219.946	-4.81
220.418	-7.81
220.889	3.39
221.36	-2.41
221.832	-10.81
222.303	-3.61
222.774	4.29
223.245	-8.91
223.717	-4.21
224.188	-3.41
224.659	-4.71
225.13	-5.31
225.601	-6.41
226.072	4.99
226.543	0.29
227.014	1.99
227.485	-2.31
227.956	-5.01
228.427	0.89
228.898	6.59
229.369	2.49
229.839	-5.11
230.31	-8.41
230.781	3.69
231.252	-3.91
231.722	-3.51
232.193	-0.41
232.664	-3.81
233.135	-1.81
233.605	-0.61
234.076	-5.91
234.546	1.19
235.017	7.39
235.487	4.79
235.958	1.19
236.428	-1.31
236.899	5.09
237.369	2.89
237.84	-3.11
238.31	5.19
238.78	9.09
239.251	0.19
239.721	4.19
240.191	3.99
240.662	-1.71
241.132	-0.01
241.602	-3.41
242.072	2.19
242.542	4.89
243.013	-3.41
243.483	6.09
243.953	8.39
244.423	-1.11
244.893	-3.71
245.363	1.69
245.833	4.39
246.303	1.29
246.773	8.09
247.243	6.29
247.712	7.19
248.182	9.99
248.652	7.89
249.122	3.09
249.592	17.39
250.061	19.59
250.531	32.59
251.001	12.59
251.471	20.99
251.94	19.09
252.41	9.29
252.879	-0.11
253.349	14.29
253.818	11.19
254.288	2.39
254.757	6.59
255.227	4.79
255.696	11.69
256.166	7.79
256.635	5.29
257.105	7.69
257.574	6.39
258.043	12.39
258.513	12.59
258.982	23.79
259.451	4.59
259.92	15.09
260.389	11.89
260.859	15.29
261.328	10.59
261.797	18.29
262.266	12.19
262.735	10.19
263.204	10.19
263.673	-2.11
264.142	8.19
264.611	-3.71
265.08	4.49
265.549	0.79
266.018	6.19
266.487	0.09
266.955	-3.61
267.424	2.19
267.893	9.99
268.362	3.29
268.83	5.19
269.299	12.79
269.768	6.69
270.236	5.99
270.705	7.89
271.174	2.19
271.642	9.49
272.111	6.49
272.579	21.19
273.048	22.99
273.516	31.79
273.985	25.99
274.453	25.79
274.922	23.19
275.39	16.39
275.858	0.49
276.327	2.99
276.795	20.19
277.263	10.49
277.731	36.09
278.2	53.69
278.668	57.19
279.136	46.39
279.604	22.49
280.072	9.69
280.54	13.59
281.008	18.89
281.477	16.39
281.945	18.89
282.413	13.79
282.881	17.79
283.348	9.79
283.816	14.89
284.284	21.79
284.752	23.29
285.22	18.59
285.688	18.99
286.156	24.99
286.623	46.09
287.091	52.69
287.559	35.09
288.026	21.99
288.494	14.39
288.962	7.59
289.429	8.09
289.897	22.99
290.364	19.89
290.832	15.09
291.3	18.29
291.767	21.59
292.234	25.59
292.702	16.29
293.169	23.19
293.637	26.69
294.104	23.29
294.571	18.69
295.039	12.09
295.506	15.79
295.973	15.59
296.44	19.79
296.908	23.89
297.375	24.49
297.842	26.59
298.309	13.19
298.776	16.79
299.243	23.09
299.71	14.69
300.177	21.29
300.644	24.99
301.111	22.19
301.578	30.59
302.045	17.39
302.512	24.79
302.979	26.69
303.446	24.99
303.913	20.89
304.379	16.49
304.846	28.39
305.313	31.09
305.78	28.19
306.246	31.29
306.713	28.49
307.18	31.59
307.646	28.19
308.113	29.09
308.579	22.29
309.046	29.49
309.512	26.79
309.979	21.29
310.445	27.09
310.912	31.79
311.378	31.59
311.845	33.09
312.311	32.29
312.777	35.79
313.244	37.39
313.71	34.19
314.176	32.39
314.642	34.29
315.109	38.09
315.575	40.69
316.041	41.69
316.507	35.79
316.973	38.99
317.439	38.89
317.905	32.89
318.371	32.99
318.837	32.09
319.303	34.29
319.769	33.49
320.235	39.39
320.701	31.69
321.167	41.29
321.633	43.39
322.099	42.99
322.564	47.79
323.03	41.39
323.496	41.39
323.962	41.09
324.427	40.09
324.893	49.29
325.359	41.09
325.824	39.19
326.29	35.69
326.755	40.49
327.221	44.89
327.686	37.19
328.152	51.09
328.617	40.09
329.083	46.49
329.548	53.59
330.014	45.89
330.479	40.19
330.944	42.49
331.41	51.19
331.875	46.79
332.34	48.29
332.805	45.49
333.271	53.29
333.736	37.59
334.201	55.09
334.666	56.09
335.131	58.99
335.596	52.29
336.061	50.99
336.526	45.19
336.991	50.59
337.456	56.89
337.921	51.39
338.386	44.39
338.851	47.69
339.316	56.69
339.781	52.89
340.246	47.89
340.711	47.89
341.175	50.99
341.64	49.09
342.105	56.99
342.569	61.09
343.034	63.59
343.499	59.79
343.963	53.79
344.428	70.49
344.893	66.59
345.357	71.49
345.822	70.89
346.286	69.29
346.751	76.89
347.215	72.59
347.679	75.09
348.144	108.09
348.608	86.59
349.073	73.89
349.537	75.09
350.001	83.89
350.465	87.29
350.93	90.89
351.394	87.69
351.858	80.59
352.322	86.09
352.786	92.89
353.25	104.29
353.715	119.49
354.179	108.79
354.643	127.69
355.107	134.39
355.571	116.29
356.035	111.49
356.498	118.09
356.962	128.69
357.426	135.09
357.89	116.69
358.354	99.09
358.818	86.49
359.281	83.59
359.745	77.99
360.209	79.79
360.673	70.79
361.136	84.49
361.6	88.29
362.064	90.79
362.527	87.49
362.991	92.49
363.454	87.49
363.918	83.69
364.381	83.89
364.845	89.59
365.308	95.49
365.772	91.29
366.235	92.09
366.698	93.69
367.162	87.99
367.625	88.49
368.088	90.39
368.552	98.39
369.015	92.99
369.478	99.59
369.941	102.69
370.404	90.59
370.867	107.89
371.331	114.89
371.794	114.79
372.257	112.99
372.72	126.99
373.183	113.79
373.646	112.49
374.109	108.49
374.572	109.69
375.035	113.49
375.497	108.69
375.96	113.69
376.423	110.19
376.886	118.49
377.349	108.99
377.811	113.69
378.274	112.29
378.737	113.19
379.199	116.49
379.662	116.09
380.125	125.29
380.587	122.39
381.05	135.99
381.512	133.69
381.975	141.79
382.437	132.19
382.9	132.99
383.362	142.09
383.825	146.99
384.287	151.19
384.75	146.69
385.212	144.59
385.674	143.39
386.136	146.59
386.599	131.19
387.061	136.29
387.523	129.39
387.985	140.49
388.447	155.09
388.91	147.19
389.372	162.09
389.834	156.99
390.296	150.29
390.758	158.09
391.22	176.99
391.682	212.19
392.144	300.99
392.606	235.49
393.068	163.99
393.529	174.29
393.991	153.59
394.453	152.39
394.915	157.09
395.377	196.49
395.838	222.59
396.3	165.29
396.762	148.29
397.224	138.99
397.685	133.49
398.147	135.89
398.608	135.79
399.07	135.19
399.531	138.79
399.993	145.29
400.454	161.09
400.916	148.29
401.377	154.59
401.839	160.19
402.3	161.49
402.762	173.19
403.223	182.89
403.684	177.99
404.145	163.29
404.607	165.49
405.068	173.49
405.529	182.79
405.99	198.59
406.451	181.19
406.913	179.69
407.374	167.99
407.835	161.19
408.296	170.99
408.757	181.59
409.218	185.79
409.679	190.19
410.14	183.59
410.601	184.49
411.062	195.09
411.522	195.69
411.983	189.49
412.444	181.79
412.905	189.69
413.366	191.79
413.826	198.39
414.287	226.79
414.748	271.59
415.208	264.39
415.669	214.39
416.13	217.99
416.59	207.19
417.051	229.29
417.511	220.09
417.972	241.09
418.432	252.99
418.893	291.99
419.353	256.99
419.814	210.69
420.274	189.99
420.734	186.79
421.195	203.49
421.655	202.89
422.115	202.49
422.576	203.69
423.036	208.29
423.496	219.59
423.956	224.09
424.416	244.39
424.876	271.39
425.336	270.69
425.797	276.19
426.257	261.89
426.717	251.39
427.177	242.79
427.637	229.39
428.097	240.09
428.556	253.59
429.016	276.99
429.476	276.89
429.936	284.29
430.396	291.49
430.856	306.09
431.315	320.89
431.775	355.69
432.235	399.49
432.694	364.29
433.154	366.39
433.614	401.79
434.073	348.59
434.533	291.49
434.993	279.99
435.452	289.79
435.912	304.29
436.371	300.39
436.83	294.49
437.29	281.19
437.749	256.49
438.209	253.19
438.668	289.59
439.127	300.49
439.587	276.99
440.046	260.59
440.505	266.09
440.964	285.19
441.424	338.79
441.883	324.69
442.342	277.29
442.801	237.89
443.26	234.19
443.719	235.59
444.178	223.39
444.637	218.89
445.096	225.29
445.555	233.89
446.014	235.19
446.473	233.39
446.932	245.49
447.391	231.29
447.849	236.39
448.308	224.49
448.767	231.29
449.226	245.79
449.685	242.79
450.143	252.09
450.602	237.89
451.061	232.09
451.519	243.29
451.978	237.59
452.436	234.99
452.895	250.09
453.353	261.29
453.812	254.89
454.27	249.19
454.729	248.69
455.187	255.49
455.646	261.29
456.104	265.19
456.562	274.89
457.021	283.09
457.479	272.79
457.937	288.29
458.395	276.59
458.854	258.79
459.312	267.09
459.77	285.99
460.228	271.79
460.686	249.79
461.144	257.99
461.602	256.39
462.06	253.89
462.518	264.49
462.976	265.69
463.434	263.49
463.892	270.49
464.35	279.89
464.808	294.39
465.266	278.19
465.724	268.59
466.181	283.79
466.639	283.19
467.097	291.29
467.555	305.89
468.012	318.79
468.47	327.59
468.928	338.79
469.385	358.39
469.843	358.99
470.3	367.39
470.758	376.59
471.215	396.69
471.673	425.59
472.13	428.99
472.588	433.69
473.045	390.69
473.503	393.79
473.96	411.49
474.417	416.99
474.875	456.99
475.332	502.39
475.789	482.29
476.246	488.79
476.704	505.09
477.161	521.89
477.618	545.19
478.075	572.49
478.532	645.59
478.989	720.29
479.446	846.49
479.903	806.99
480.36	845.09
480.817	896.89
481.274	1001.79
481.731	1107.09
482.188	1218.39
482.645	1341.69
483.102	1464.09
483.558	1588.89
484.015	1644.59
484.472	1621.79
484.929	1559.49
485.385	1511.59
485.842	1476.89
486.299	1406.89
486.755	1344.59
487.212	1134.09
487.668	960.39
488.125	878.19
488.582	811.19
489.038	776.19
489.494	743.09
489.951	714.49
490.407	702.49
490.864	669.89
491.32	663.49
491.776	665.39
492.233	679.09
492.689	641.59
493.145	629.49
493.602	630.79
494.058	628.59
494.514	645.69
494.97	669.29
495.426	680.59
495.882	656.29
496.338	634.79
496.794	654.09
497.251	644.99
497.707	657.19
498.163	657.69
498.618	663.89
499.074	675.09
499.53	697.59
499.986	707.29
500.442	676.39
500.898	646.79
501.354	648.89
501.809	665.19
502.265	668.79
502.721	683.59
503.177	695.29
503.632	691.99
504.088	713.79
504.543	740.99
504.999	738.89
505.455	675.89
505.91	645.89
506.366	654.19
506.821	652.59
507.277	654.79
507.732	646.99
508.187	646.29
508.643	660.79
509.098	654.59
509.553	683.29
510.009	695.09
510.464	695.89
510.919	717.79
511.375	708.09
511.83	735.19
512.285	750.39
512.74	794.19
513.195	806.39
513.65	804.89
514.105	804.19
514.56	793.79
515.015	819.19
515.47	835.79
515.925	826.89
516.38	821.59
516.835	823.29
517.29	812.79
517.745	819.49
518.2	781.29
518.655	782.39
519.109	771.79
519.564	771.39
520.019	763.09
520.474	756.89
520.928	754.09
521.383	749.49
521.838	733.49
522.292	741.29
522.747	739.19
523.201	728.29
523.656	728.69
524.11	718.29
524.565	720.09
525.019	715.49
525.474	726.69
525.928	727.69
526.382	725.29
526.837	722.19
527.291	725.49
527.745	719.09
528.2	727.19
528.654	719.39
529.108	709.59
529.562	730.89
530.016	718.29
530.47	717.99
530.925	728.79
531.379	722.89
531.833	739.59
532.287	727.19
532.741	727.09
533.195	733.49
533.649	743.09
534.103	748.09
534.556	737.79
535.01	740.99
535.464	729.89
535.918	752.19
536.372	749.69
536.826	741.19
537.279	733.59
537.733	736.59
538.187	753.79
538.64	744.69
539.094	760.09
539.548	760.49
540.001	754.39
540.455	748.89
540.908	751.99
541.362	763.89
541.815	778.69
542.269	797.99
542.722	789.19
543.175	813.59
543.629	802.79
544.082	827.49
544.536	812.79
544.989	815.39
545.442	828.09
545.895	825.29
546.349	818.19
546.802	822.49
547.255	829.39
547.708	840.59
548.161	854.69
548.614	864.29
549.067	853.19
549.52	846.99
549.973	856.59
550.426	836.49
550.879	820.79
551.332	828.79
551.785	838.99
552.238	845.29
552.691	841.79
553.144	876.79
553.596	896.69
554.049	900.49
554.502	927.29
554.955	949.59
555.407	949.19
555.86	935.89
556.313	934.49
556.765	919.89
557.218	921.89
557.67	921.09
558.123	918.29
558.576	908.49
559.028	916.79
559.48	925.19
559.933	911.29
560.385	873.49
560.838	845.19
561.29	821.59
561.742	812.49
562.195	808.69
562.647	795.69
563.099	807.09
563.551	802.59
564.004	799.69
564.456	811.79
564.908	795.99
565.36	781.29
565.812	762.89
566.264	761.79
566.716	760.19
567.168	750.89
567.62	751.49
568.072	739.19
568.524	726.39
568.976	724.59
569.428	711.69
569.88	698.59
570.332	709.99
570.784	698.79
571.235	705.09
571.687	730.49
572.139	730.59
572.59	744.89
573.042	742.69
573.494	735.99
573.945	737.99
574.397	722.89
574.849	720.59
575.3	717.89
575.752	700.29
576.203	704.79
576.655	712.29
577.106	701.49
577.557	700.89
578.009	695.49
578.46	694.99
578.912	688.19
579.363	690.89
579.814	700.79
580.265	692.09
580.717	691.39
581.168	699.09
581.619	705.29
582.07	708.99
582.521	698.09
582.972	701.19
583.423	709.29
583.875	716.39
584.326	729.69
584.777	763.29
585.227	853.79
585.678	940.79
586.129	1018.39
586.58	1091.49
587.031	1179.19
587.482	1338.49
587.933	1513.89
588.384	1311.39
588.834	999.09
589.285	838.39
589.736	809.89
590.186	804.29
590.637	796.89
591.088	771.09
591.538	765.89
591.989	759.09
592.439	744.99
592.89	744.29
593.34	738.19
593.791	739.19
594.241	734.69
594.692	740.79
595.142	728.99
595.593	726.69
596.043	735.99
596.493	729.89
596.943	740.09
597.394	740.29
597.844	752.99
598.294	768.89
598.744	783.49
599.195	801.99
599.645	847.09
600.095	892.49
600.545	946.69
600.995	1005.39
601.445	1054.79
601.895	1135.89
602.345	1182.59
602.795	1160.19
603.245	1111.69
603.695	1038.39
604.145	994.29
604.594	931.99
605.044	891.19
605.494	830.59
605.944	786.29
606.393	780.59
606.843	752.19
607.293	758.29
607.743	756.29
608.192	774.99
608.642	795.39
609.091	791.89
609.541	798.29
609.99	796.39
610.44	797.09
610.889	744.89
611.339	735.69
611.788	716.39
612.238	717.99
612.687	751.19
613.136	740.69
613.586	759.99
614.035	762.29
614.484	778.59
614.933	780.99
615.383	789.69
615.832	767.49
616.281	751.89
616.73	713.39
617.179	689.59
617.628	673.49
618.077	656.79
618.526	644.09
618.975	634.09
619.424	633.89
619.873	633.99
620.322	635.09
620.771	632.19
621.22	636.59
621.669	610.59
622.118	609.39
622.567	606.39
623.015	596.39
623.464	589.89
623.913	581.39
624.361	567.29
624.81	568.59
625.259	574.29
625.707	575.19
626.156	582.69
626.604	581.99
627.053	579.99
627.501	588.19
627.95	586.99
628.398	606.39
628.847	591.89
629.295	596.79
629.744	596.19
630.192	585.99
630.64	581.79
631.089	580.49
631.537	602.89
631.985	615.49
632.433	617.99
632.881	624.89
633.33	675.59
633.778	660.49
634.226	596.09
634.674	585.99
635.122	601.69
635.57	616.29
636.018	645.19
636.466	600.89
636.914	580.49
637.362	587.89
637.81	595.09
638.258	602.89
638.705	599.59
639.153	629.59
639.601	634.69
640.049	672.19
640.497	693.49
640.944	706.49
641.392	659.49
641.84	622.69
642.287	598.19
642.735	577.49
643.182	590.19
643.63	589.69
644.078	593.79
644.525	604.89
644.973	614.39
645.42	612.79
645.867	648.79
646.315	659.59
646.762	688.89
647.21	714.79
647.657	732.89
648.104	776.49
648.551	802.59
648.999	858.19
649.446	927.39
649.893	1029.69
650.34	1191.09
650.787	1434.59
651.234	1775.99
651.682	2294.59
652.129	3162.69
652.576	4558.49
653.023	6728.39
653.47	9214.39
653.917	11452.89
654.363	13187.69
654.81	14609.79
655.257	13927.89
655.704	9146.99
656.151	5428.19
656.598	3524.39
657.044	2491.29
657.491	1904.39
657.938	1536.09
658.385	1264.59
658.831	1099.09
659.278	988.89
659.724	886.19
660.171	814.29
660.618	741.99
661.064	706.19
661.511	690.09
661.957	672.09
662.404	671.19
662.85	673.19
663.296	650.59
663.743	582.99
664.189	559.89
664.635	549.49
665.082	547.59
665.528	544.39
665.974	529.39
666.42	532.59
666.867	517.79
667.313	502.99
667.759	492.59
668.205	491.79
668.651	498.79
669.097	489.49
669.543	509.29
669.989	483.79
670.435	456.39
670.881	455.19
671.327	462.79
671.773	476.79
672.219	494.09
672.665	563.99
673.11	608.39
673.556	639.69
674.002	683.69
674.448	669.09
674.893	565.99
675.339	489.79
675.785	448.09
676.23	434.19
676.676	405.09
677.122	398.89
677.567	385.19
678.013	380.49
678.458	363.89
678.904	374.29
679.349	361.19
679.794	365.29
680.24	355.29
680.685	358.49
681.131	354.99
681.576	356.89
682.021	358.99
682.466	357.99
682.912	359.29
683.357	361.49
683.802	393.99
684.247	422.99
684.692	465.69
685.137	511.19
685.583	544.39
686.028	575.19
686.473	531.29
686.918	462.09
687.363	431.09
687.807	405.89
688.252	377.89
688.697	364.89
689.142	341.19
689.587	339.39
690.032	341.99
690.477	356.69
690.921	367.89
691.366	390.39
691.811	414.19
692.255	442.59
692.7	470.09
693.145	515.49
693.589	705.89
694.034	1151.49
694.478	1575.99
694.923	1779.59
695.367	2316.99
695.812	1219.69
696.256	507.99
696.701	382.69
697.145	363.19
697.59	336.39
698.034	332.89
698.478	338.79
698.922	340.49
699.367	331.69
699.811	354.69
700.255	375.19
700.699	401.39
701.143	439.39
701.588	480.29
702.032	532.59
702.476	527.19
702.92	498.29
703.364	495.09
703.808	653.49
704.252	1058.69
704.696	1488.09
705.14	1720.89
705.584	2196.39
706.027	1078.89
706.471	534.49
706.915	410.69
707.359	358.89
707.803	328.49
708.246	321.49
708.69	323.59
709.134	332.39
709.577	315.29
710.021	326.69
710.465	309.29
710.908	311.89
711.352	301.79
711.795	317.89
712.239	368.39
712.682	397.19
713.126	432.59
713.569	481.09
714.012	377.09
714.456	335.09
714.899	308.89
715.342	283.19
715.786	272.19
716.229	265.09
716.672	258.39
717.115	255.09
717.558	255.49
718.002	259.79
718.445	265.49
718.888	295.49
719.331	298.99
719.774	316.59
720.217	306.19
720.66	289.89
721.103	268.89
721.546	260.49
721.989	254.59
722.432	237.59
722.874	251.69
723.317	233.29
723.76	250.49
724.203	261.09
724.645	320.09
725.088	464.59
725.531	587.49
725.974	659.79
726.416	556.39
726.859	316.79
727.301	254.49
727.744	245.19
728.187	240.19
728.629	247.49
729.071	256.19
729.514	270.59
729.956	281.79
730.399	292.89
730.841	294.49
731.283	277.49
731.726	276.19
732.168	262.99
732.61	266.29
733.053	296.19
733.495	314.69
733.937	355.89
734.379	410.89
734.821	443.49
735.263	548.39
735.705	836.49
736.148	1596.39
736.59	2634.59
737.032	3108.69
737.474	2513.39
737.916	826.19
738.357	438.19
738.799	335.69
739.241	301.19
739.683	295.39
740.125	307.09
740.567	310.19
741.008	323.39
741.45	324.29
741.892	329.59
742.334	359.59
742.775	370.79
743.217	344.59
743.658	284.59
744.1	259.09
744.542	262.89
744.983	324.49
745.425	350.79
745.866	354.59
746.307	297.69
746.749	289.79
747.19	334.69
747.632	458.59
748.073	892.09
748.514	1894.89
748.956	2921.89
749.397	3639.49
749.838	3021.89
750.279	3027.89
750.72	1509.79
751.162	557.99
751.603	333.29
752.044	254.59
752.485	221.29
752.926	211.39
753.367	205.99
753.808	202.39
754.249	191.19
754.69	192.79
755.131	190.39
755.572	191.09
756.013	186.49
756.453	197.39
756.894	194.09
757.335	199.49
757.776	202.29
758.216	201.59
758.657	200.59
759.098	209.99
759.538	227.89
759.979	272.99
760.42	385.79
760.86	723.09
761.301	1848.79
761.741	4482.19
762.182	6544.59
762.622	4595.99
763.063	1328.79
763.503	542.59
763.943	355.49
764.384	343.49
764.824	414.79
765.264	447.89
765.705	317.59
766.145	216.89
766.585	195.89
767.025	190.19
767.465	188.49
767.906	247.39
768.346	330.99
768.786	346.09
769.226	275.49
769.666	328.39
770.106	631.19
770.546	1579.89
770.986	2706.69
771.426	2408.69
771.866	797.09
772.306	336.39
772.745	218.49
773.185	184.49
773.625	182.59
774.065	164.89
774.505	198.39
774.944	307.29
775.384	661.89
775.824	1189.89
776.263	1166.39
776.703	499.39
777.142	214.89
777.582	158.09
778.021	141.59
778.461	141.39
778.9	136.89
779.34	140.89
779.779	121.69
780.219	117.59
780.658	114.59
781.097	115.69
781.537	117.99
781.976	110.69
782.415	105.29
782.855	107.79
783.294	102.29
783.733	111.39
784.172	110.89
784.611	110.99
785.05	110.69
785.489	115.99
785.928	119.99
786.367	130.59
786.806	117.59
787.245	134.99
787.684	139.89
788.123	148.89
788.562	134.99
789.001	126.09
789.44	121.99
789.879	119.29
790.317	122.29
790.756	134.49
791.195	133.09
791.634	151.19
792.072	213.99
792.511	365.59
792.95	1020.69
793.388	2175.29
793.827	1967.69
794.265	691.79
794.704	289.69
795.142	191.69
795.581	157.39
796.019	146.09
796.458	131.39
796.896	133.79
797.334	136.59
797.773	161.09
798.211	223.79
798.649	447.79
799.087	1030.39
799.526	1620.19
799.964	2053.79
800.402	2043.39
800.84	763.79
801.278	305.19
801.716	184.09
802.154	160.69
802.592	146.59
803.03	147.09
803.468	143.59
803.906	148.89
804.344	158.59
804.782	146.39
805.22	137.89
805.658	138.09
806.096	148.69
806.533	162.69
806.971	181.89
807.409	215.59
807.847	325.99
808.284	673.39
808.722	1885.39
809.16	3351.39
809.597	3167.49
810.035	5466.19
810.472	5864.09
810.91	2112.19
811.347	804.99
811.785	409.69
812.222	266.59
812.66	205.79
813.097	167.89
813.535	149.99
813.972	136.09
814.409	121.29
814.846	113.59
815.284	115.89
815.721	112.29
816.158	114.39
816.595	119.89
817.032	170.19
817.47	202.49
817.907	173.59
818.344	154.69
818.781	118.29
819.218	107.19
819.655	132.09
820.092	187.39
820.529	217.09
820.966	185.69
821.403	139.89
821.839	103.49
822.276	103.19
822.713	122.59
823.15	142.59
823.587	125.69
824.023	146.59
824.46	303.39
824.897	897.49
825.333	1379.89
825.77	594.09
826.206	237.39
826.643	138.89
827.08	105.89
827.516	87.09
827.953	73.59
828.389	82.39
828.825	72.89
829.262	74.89
829.698	67.59
830.135	66.99
830.571	62.89
831.007	71.39
831.443	63.59
831.88	68.29
832.316	61.39
832.752	61.89
833.188	72.89
833.624	67.09
834.06	72.29
834.497	68.59
834.933	75.59
835.369	77.09
835.805	62.49
836.241	80.49
836.677	81.19
837.112	90.99
837.548	106.19
837.984	137.59
838.42	205.39
838.856	499.19
839.292	1532.39
839.727	2323.69
840.163	1093.69
840.599	940.29
841.034	2043.89
841.47	2154.29
841.906	790.19
842.341	335.79
842.777	228.29
843.212	317.59
843.648	299.09
844.083	154.59
844.519	97.19
844.954	80.59
845.39	59.39
845.825	61.19
846.261	58.19
846.696	56.89
847.131	51.39
847.566	59.09
848.002	52.39
848.437	55.79
848.872	56.99
849.307	60.49
849.742	88.89
850.177	187.29
850.613	568.39
851.048	892.99
851.483	388.29
851.918	157.09
852.353	91.19
852.788	62.89
853.223	58.09
853.657	56.99
854.092	48.39
854.527	47.89
854.962	42.99
855.397	48.09
855.832	47.39
856.266	43.49
856.701	48.89
857.136	40.89
857.57	48.09
858.005	52.39
858.44	63.59
858.874	45.79
859.309	56.49
859.743	39.49
860.178	49.89
860.612	44.49
861.047	54.09
861.481	65.99
861.915	68.69
862.35	53.69
862.784	37.49
863.218	41.09
863.653	35.39
864.087	50.19
864.521	58.19
864.955	72.99
865.39	159.89
865.824	173.49
866.258	112.39
866.692	161.29
867.126	171.79
867.56	109.19
867.994	55.49
868.428	43.89
868.862	45.59
869.296	54.19
869.73	63.49
870.164	52.29
870.598	43.69
871.031	41.89
871.465	35.29
871.899	33.79
872.333	25.79
872.766	26.19
873.2	26.39
873.634	30.29
874.067	27.89
874.501	21.69
874.935	37.09
875.368	31.09
875.802	32.79
876.235	27.19
876.669	29.39
877.102	31.09
877.535	26.49
877.969	29.49
878.402	20.89
878.836	19.19
879.269	23.29
879.702	24.79
880.135	27.69
880.569	28.69
881.002	32.19
881.435	24.49
881.868	15.29
882.301	23.89
882.734	17.39
883.167	29.89
883.601	18.69
884.034	26.19
884.467	16.39
884.899	24.99
885.332	13.29
885.765	24.19
886.198	17.69
886.631	18.39
887.064	16.19
887.497	19.09
887.929	23.79
888.362	13.79
888.795	14.79
889.228	21.09
889.66	25.29
890.093	21.69
890.526	15.59
890.958	16.79
891.391	21.09
891.823	25.89
892.256	18.29
892.688	14.09
893.121	16.79
893.553	22.39
893.985	19.49
894.418	21.59
894.85	15.39
895.282	18.59
895.715	22.09
896.147	21.89
896.579	20.99
897.011	12.59
897.444	20.19
897.876	11.09
898.308	20.09
898.74	16.69
899.172	17.29
899.604	28.79
900.036	23.79
900.468	18.19
900.9	17.99
901.332	22.89
901.764	14.49
902.196	15.79
902.628	19.79
903.06	17.69
903.491	28.69
903.923	28.19
904.355	23.09
904.787	29.59
905.218	28.99
905.65	19.29
906.082	14.29
906.513	12.89
906.945	22.99
907.376	19.09
907.808	21.29
908.239	24.99
908.671	15.69
909.102	25.09
909.534	24.49
909.965	57.29
910.397	96.39
910.828	317.19
911.259	483.89
911.691	220.19
912.122	112.19
912.553	51.09
912.984	38.49
913.415	29.79
913.847	29.69
914.278	16.69
914.709	17.59
915.14	23.09
915.571	19.39
916.002	17.79
916.433	19.89
916.864	16.09
917.295	15.49
917.726	21.89
918.157	19.19
918.587	35.89
919.018	28.29
919.449	23.29
919.88	28.19
920.311	31.49
920.741	51.09
921.172	173.89
921.603	159.19
922.033	71.19
922.464	48.29
922.895	25.59
923.325	19.09
923.756	21.09
924.186	13.49
924.617	26.69
925.047	44.19
925.478	54.29
925.908	42.49
926.338	27.39
926.769	23.69
927.199	22.79
927.629	13.29
928.06	22.09
928.49	21.09
928.92	9.79
929.35	14.59
929.78	9.99
930.21	11.89
930.641	5.19
931.071	11.49
931.501	7.49
931.931	8.29
932.361	10.79
932.791	3.69
933.221	6.49
933.651	3.79
934.08	16.19
934.51	27.89
934.94	11.79
935.37	7.39
935.8	12.39
936.229	4.09
936.659	11.99
937.089	6.69
937.519	16.49
937.948	22.29
938.378	17.39
938.807	12.69
939.237	4.39
939.666	4.59
940.096	-0.21
940.525	0.99
940.955	1.39
941.384	6.89
941.814	-0.11
942.243	-3.61
942.672	0.99
943.102	2.19
943.531	4.19
943.96	5.29
944.39	1.89
944.819	2.19
945.248	4.79
945.677	6.69
946.106	9.69
946.535	14.29
946.964	3.19
947.393	1.39
947.822	1.39
948.251	-1.21
948.68	5.39
949.109	7.99
949.538	10.09
949.967	1.69
950.396	2.79
950.825	2.19
951.254	7.99
951.682	-4.21
952.111	5.59
952.54	6.39
952.969	0.09
953.397	-1.71
953.826	-1.91
954.254	-2.61
954.683	1.99
955.112	-1.81
955.54	-3.51
955.969	1.09
956.397	4.89
956.826	-1.91
957.254	1.59
957.682	1.99
958.111	8.99
958.539	4.79
958.967	5.59
959.396	1.69
959.824	4.79
960.252	1.19
960.68	-7.21
961.109	2.99
961.537	-5.91
961.965	0.49
962.393	-0.61
962.821	-4.31
963.249	-0.11
963.677	6.59
964.105	4.29
964.533	47.49
964.961	37.39
965.389	19.79
965.817	7.49
966.245	2.39
966.672	-0.61
967.1	-1.81
967.528	0.19
967.956	-0.21
968.383	-2.21
968.811	-3.21
969.239	-3.71
969.666	0.89
970.094	-4.21
970.522	2.09
970.949	5.09
971.377	-0.51
971.804	-0.81
972.232	-3.51
972.659	-1.61
973.087	-0.31
973.514	-5.51
973.941	-4.31
974.369	6.59
974.796	-1.61
975.223	4.29
975.651	0.99
976.078	3.79
976.505	0.69
976.932	2.89
977.359	16.39
977.786	13.99
978.214	3.69
978.641	-3.71
979.068	-0.61
979.495	-5.51
979.922	-4.81
980.349	0.49
980.776	6.09
981.202	-4.41
981.629	7.29
982.056	6.19
982.483	-6.01
982.91	-0.11
983.337	-8.11
983.763	2.99
984.19	-7.71
984.617	-9.81
985.043	-7.31
985.47	1.39
985.897	-3.81
986.323	-6.51
986.75	1.89
987.176	-3.11
987.603	0.89
988.029	2.39
988.456	0.59
988.882	4.99
989.308	-5.81
989.735	0.09
990.161	-0.91
990.587	-5.91
991.014	-0.01
991.44	6.49
991.866	-2.11
992.292	-1.31
992.719	3.19
993.145	-0.51
993.571	-4.31
993.997	-7.21
994.423	-3.71
994.849	-4.41
995.275	0.59
995.701	6.29
996.127	-5.11
996.553	1.59
996.979	-1.81
997.405	1.99
997.83	-3.71
998.256	-9.51
998.682	-3.51
999.108	-10.11
999.534	2.89
999.959	-0.01
1000.385	1.79
1000.811	1.59
1001.236	-6.61
1001.662	-4.21
1002.087	-8.41
1002.513	-0.81
1002.938	4.79
1003.364	-4.91
1003.789	1.99
1004.215	7.89
1004.64	-0.01
1005.066	5.89
1005.491	-0.31
1005.916	-3.31
1006.342	-2.31
1006.767	-9.21
1007.192	5.79
1007.617	-0.81
1008.042	3.29
1008.468	-6.11
1008.893	-2.11
1009.318	-5.71
1009.743	0.69
1010.168	-1.81
1010.593	2.09
1011.018	-7.21
1011.443	-3.41
1011.868	5.19
1012.293	1.99
1012.718	-2.71
1013.143	3.09
1013.567	-5.01
1013.992	-3.51
1014.417	-12.21
1014.842	5.69
1015.267	-5.71
1015.691	-2.71
1016.116	2.99
1016.541	-0.41
1016.965	5.49
1017.39	2.89
1017.814	3.29
1018.239	2.19
1018.663	3.79
1019.088	-5.61
1019.512	-3.21
1019.937	1.19
1020.361	3.29
1020.785	-12.31
1021.21	-4.61
1021.634	-6.71
1022.058	-2.51
1022.483	5.69
1022.907	-3.11
1023.331	-2.81
1023.755	-9.91
1024.179	2.49
1024.604	-9.41
1025.028	-4.91
1025.452	-2.51
1025.876	0.99
1026.3	4.59
1026.724	-14.51
1027.148	-2.31
1027.572	-10.51
1027.996	-1.61
1028.42	-0.61
1028.843	0.79
1029.267	-5.31
1029.691	-2.81
1030.115	-6.81
1030.539	-8.11
1030.962	-8.31
1031.386	-8.41
1031.81	6.29
1032.233	-1.61
1032.657	0.69
1033.08	-3.91
1033.504	0.79
1033.927	-1.31
1034.351	0.59
1034.774	2.09
1035.198	4.29
1035.621	-2.71
1036.045	-4.01
1036.468	1.39
1036.891	-13.21
1037.315	-7.31
1037.738	-9.71
1038.161	1.69
1038.584	-6.71
1039.008	-5.21
1039.431	4.19
1039.854	-1.91
1040.277	-5.31
1040.7	-8.81
1041.123	4.99
1041.546	-4.61
1041.969	-4.41
1042.392	-4.91
1042.815	-3.11
1043.238	5.29
1043.661	1.39
1044.084	-4.91
1044.507	0.29
1044.93	-8.51
1045.352	-7.81
1045.775	0.29
1046.198	-2.21
1046.621	-4.51
1047.043	6.49
1047.466	5.49
1047.889	-4.01
1048.311	-10.01
1048.734	-5.31
1049.156	-1.41
1049.579	-4.01
1050.001	0.39
1050.424	1.89
1050.846	-4.31
1051.269	0.19
1051.691	-4.01
1052.113	-5.41
1052.536	6.29
1052.958	3.09
1053.38	-2.91
1053.802	-11.51
1054.225	1.99
1054.647	-10.01
1055.069	-6.41
1055.491	-0.31
1055.913	-9.21
1056.335	3.39
1056.757	-2.61
1057.179	-9.01
1057.601	-3.91
1058.023	-2.31
1058.445	-6.91
1058.867	-0.71
1059.289	-2.01
1059.711	-6.61
1060.133	-1.81
1060.555	-8.61
1060.976	-9.31
1061.398	-1.31
1061.82	-3.21
1062.241	0.69
1062.663	-8.61
1063.085	-5.01
1063.506	1.49
1063.928	0.29
1064.35	-0.41
1064.771	-9.41
1065.193	-4.61
1065.614	-9.91
1066.035	-4.01
1066.457	-6.31
1066.878	4.69
1067.3	-2.11
1067.721	-0.91
1068.142	-4.11
1068.564	-2.91
1068.985	-5.81
1069.406	-1.41
1069.827	-9.71
1070.248	0.59
1070.67	-9.41
1071.091	-8.21
1071.512	-2.61
1071.933	-9.91
1072.354	-6.21
1072.775	-9.41
1073.196	-9.61
1073.617	-2.01
1074.038	-7.51
1074.459	-0.11
1074.88	-5.51
1075.3	3.69
1075.721	-8.61
1076.142	-2.91
1076.563	-3.71
1076.983	-7.31
1077.404	-5.21
1077.825	-6.51
1078.246	-6.21
1078.666	-6.01
1079.087	-5.61
1079.507	-6.71
1079.928	-3.11
1080.348	0.29
1080.769	-3.21
1081.189	0.19
1081.61	-0.41
1082.03	-7.51
1082.451	-5.11
1082.871	0.39
1083.291	-4.51
1083.711	-12.11
1084.132	-2.91
1084.552	-1.61
1084.972	-4.01
1085.392	-2.21
1085.813	-8.71
1086.233	-6.01
1086.653	-2.01
1087.073	-4.91
1087.493	-6.91
1087.913	-6.31
1088.333	-1.91
1088.753	1.49
1089.173	3.19
1089.593	-1.91
1090.013	3.09
1090.433	-0.31
1090.852	-6.11
1091.272	-1.21
1091.692	-3.31
1092.112	2.19
1092.531	-10.31
1092.951	-14.51
1093.371	-3.61
1093.79	-0.91
1094.21	-2.11
1094.63	-6.71
1095.049	-7.81
1095.469	0.29
1095.888	-0.71
1096.308	-3.71
1096.727	5.19
1097.146	-4.91
1097.566	0.89
1097.985	-4.41
1098.405	3.29
1098.824	-0.91
1099.243	-9.81
1099.662	-6.81
1100.082	-4.81
1100.501	3.59
1100.92	-4.61
1101.339	-3.41
1101.758	-2.11
