Data from 20171114-ORNL-Ar_H_NY_Subt18_08-07-19-970.txt Node
Date: Tue Nov 14 08:07:19 EST 2017
User: Ender
Spectrometer: HR+D1039
Trigger mode: 0
Integration Time (sec): 2.730000E-2
Scans to average: 10
Electric dark correction enabled: true
Nonlinearity correction enabled: false
Boxcar width: 0
XAxis mode: Wavelengths
Number of Pixels in Spectrum: 2048
>>>>>Begin Spectral Data<<<<<
187.836	1.52
188.309	1.52
188.782	1.52
189.255	2.22
189.728	-2.07
190.201	10.23
190.674	1.12
191.147	2.42
191.619	-7.48
192.092	0.33
192.565	1.12
193.038	-2.08
193.511	-0.18
193.984	-0.27
194.456	-2.77
194.929	0.52
195.402	-4.68
195.874	0.02
196.347	-0.38
196.82	-0.27
197.292	5.82
197.765	-5.67
198.237	-6.67
198.71	-0.98
199.182	-2.58
199.655	1.82
200.127	-0.38
200.6	-9.77
201.072	-7.18
201.544	-11.27
202.017	-1.48
202.489	0.92
202.961	-2.07
203.433	-2.98
203.906	-8.67
204.378	-7.48
204.85	0.92
205.322	-5.28
205.794	-4.08
206.266	-9.18
206.739	-13.38
207.211	0.33
207.683	-5.48
208.155	-8.58
208.627	-10.58
209.099	-7.08
209.57	-4.48
210.042	-6.68
210.514	-6.07
210.986	-10.38
211.458	-13.88
211.93	-8.18
212.402	-2.28
212.873	-8.38
213.345	-11.48
213.817	-11.18
214.288	-11.08
214.76	-14.78
215.232	-6.48
215.703	-7.58
216.175	-9.18
216.646	-7.77
217.118	-5.18
217.589	-6.98
218.061	-4.28
218.532	-3.67
219.004	-0.38
219.475	-5.58
219.946	-2.98
220.418	-3.27
220.889	8.23
221.36	-2.57
221.832	-6.48
222.303	-10.17
222.774	0.62
223.245	-11.07
223.717	-7.48
224.188	-5.38
224.659	-10.88
225.13	-8.98
225.601	-6.48
226.072	-0.58
226.543	-6.68
227.014	-6.38
227.485	-0.58
227.956	-4.77
228.427	-5.38
228.898	-7.17
229.369	-1.78
229.839	-8.18
230.31	-7.68
230.781	1.42
231.252	-1.48
231.722	-3.88
232.193	-4.57
232.664	-6.48
233.135	-2.78
233.605	0.12
234.076	-7.28
234.546	-3.68
235.017	0.83
235.487	-3.98
235.958	-0.08
236.428	-2.27
236.899	-0.48
237.369	-4.07
237.84	-2.88
238.31	-4.58
238.78	-6.77
239.251	-5.67
239.721	-7.98
240.191	-1.27
240.662	-2.67
241.132	-4.68
241.602	-9.38
242.072	-5.77
242.542	2.02
243.013	-2.68
243.483	0.83
243.953	-7.67
244.423	-1.77
244.893	-7.18
245.363	0.12
245.833	-2.08
246.303	-7.18
246.773	0.52
247.243	-4.58
247.712	-1.78
248.182	-1.98
248.652	1.22
249.122	-9.98
249.592	0.23
250.061	2.82
250.531	13.43
251.001	-4.07
251.471	-5.98
251.94	9.02
252.41	-1.38
252.879	-11.77
253.349	4.22
253.818	-0.27
254.288	-1.27
254.757	2.02
255.227	-6.98
255.696	0.82
256.166	-3.27
256.635	3.52
257.105	6.43
257.574	-4.88
258.043	4.02
258.513	-4.78
258.982	1.33
259.451	-6.88
259.92	-0.08
260.389	0.23
260.859	2.73
261.328	1.73
261.797	-3.67
262.266	-0.18
262.735	1.12
263.204	1.72
263.673	-0.58
264.142	0.23
264.611	-3.48
265.08	-3.38
265.549	-4.38
266.018	-7.77
266.487	-8.08
266.955	-5.98
267.424	-4.48
267.893	2.62
268.362	-4.27
268.83	0.23
269.299	6.43
269.768	0.32
270.236	3.23
270.705	-3.48
271.174	1.83
271.642	2.72
272.111	-8.88
272.579	-1.78
273.048	1.12
273.516	-4.08
273.985	-0.48
274.453	8.02
274.922	4.72
275.39	-2.88
275.858	0.82
276.327	10.82
276.795	8.33
277.263	1.32
277.731	8.82
278.2	1.52
278.668	2.02
279.136	9.02
279.604	2.12
280.072	11.23
280.54	4.62
281.008	4.62
281.477	9.52
281.945	5.52
282.413	4.02
282.881	2.73
283.348	3.52
283.816	7.02
284.284	4.82
284.752	14.12
285.22	7.23
285.688	8.32
286.156	9.02
286.623	14.42
287.091	4.83
287.559	12.12
288.026	8.73
288.494	10.52
288.962	-0.88
289.429	4.22
289.897	11.93
290.364	13.32
290.832	8.62
291.3	7.12
291.767	12.02
292.234	9.42
292.702	2.33
293.169	10.33
293.637	16.92
294.104	15.52
294.571	1.42
295.039	1.32
295.506	1.23
295.973	13.42
296.44	7.33
296.908	8.62
297.375	5.82
297.842	13.52
298.309	7.92
298.776	3.23
299.243	12.62
299.71	8.42
300.177	10.33
300.644	7.62
301.111	11.33
301.578	11.32
302.045	15.73
302.512	13.83
302.979	18.02
303.446	11.62
303.913	14.83
304.379	8.52
304.846	15.73
305.313	14.52
305.78	14.92
306.246	18.82
306.713	17.62
307.18	16.02
307.646	14.12
308.113	21.52
308.579	9.12
309.046	19.43
309.512	17.02
309.979	10.42
310.445	21.02
310.912	20.52
311.378	21.73
311.845	19.12
312.311	16.73
312.777	20.52
313.244	20.12
313.71	28.42
314.176	20.23
314.642	20.52
315.109	19.82
315.575	20.62
316.041	29.92
316.507	21.12
316.973	26.22
317.439	23.23
317.905	25.12
318.371	24.23
318.837	27.02
319.303	26.52
319.769	21.73
320.235	27.42
320.701	26.62
321.167	23.82
321.633	21.23
322.099	27.52
322.564	29.52
323.03	28.42
323.496	25.73
323.962	28.02
324.427	30.23
324.893	32.12
325.359	26.52
325.824	25.72
326.29	30.92
326.755	29.42
327.221	35.42
327.686	30.92
328.152	31.23
328.617	34.52
329.083	38.22
329.548	44.32
330.014	37.02
330.479	24.12
330.944	27.42
331.41	37.62
331.875	29.43
332.34	29.83
332.805	38.02
333.271	35.12
333.736	25.92
334.201	40.83
334.666	35.62
335.131	35.52
335.596	44.72
336.061	39.32
336.526	30.02
336.991	37.73
337.456	46.02
337.921	36.62
338.386	35.92
338.851	31.42
339.316	34.62
339.781	43.42
340.246	47.23
340.711	35.62
341.175	40.92
341.64	31.23
342.105	47.33
342.569	44.32
343.034	47.52
343.499	45.92
343.963	41.73
344.428	52.33
344.893	58.22
345.357	49.52
345.822	49.92
346.286	55.42
346.751	56.12
347.215	55.12
347.679	58.23
348.144	79.32
348.608	67.62
349.073	56.62
349.537	61.92
350.001	68.73
350.465	77.42
350.93	62.23
351.394	67.33
351.858	57.23
352.322	74.33
352.786	61.93
353.25	78.52
353.715	89.02
354.179	79.02
354.643	92.52
355.107	97.73
355.571	82.23
356.035	79.02
356.498	95.12
356.962	94.92
357.426	107.82
357.89	94.42
358.354	77.42
358.818	68.52
359.281	68.83
359.745	67.02
360.209	60.92
360.673	63.52
361.136	68.93
361.6	68.92
362.064	69.62
362.527	77.22
362.991	75.42
363.454	69.32
363.918	66.23
364.381	69.22
364.845	74.62
365.308	76.92
365.772	76.42
366.235	74.62
366.698	77.82
367.162	74.92
367.625	74.92
368.088	70.82
368.552	77.52
369.015	75.42
369.478	79.33
369.941	88.62
370.404	79.42
370.867	85.72
371.331	88.92
371.794	100.02
372.257	85.23
372.72	90.62
373.183	94.83
373.646	77.62
374.109	88.93
374.572	92.92
375.035	90.12
375.497	98.12
375.96	98.52
376.423	89.32
376.886	93.93
377.349	101.72
377.811	87.02
378.274	96.83
378.737	99.02
379.199	92.52
379.662	94.42
380.125	97.73
380.587	97.92
381.05	103.33
381.512	105.92
381.975	104.42
382.437	104.52
382.9	103.02
383.362	116.73
383.825	116.52
384.287	112.23
384.75	110.72
385.212	113.82
385.674	124.12
386.136	124.23
386.599	109.72
387.061	113.23
387.523	112.23
387.985	118.42
388.447	119.62
388.91	118.33
389.372	122.12
389.834	125.72
390.296	114.32
390.758	114.42
391.22	128.42
391.682	140.42
392.144	140.23
392.606	137.22
393.068	133.33
393.529	139.72
393.991	130.62
394.453	131.52
394.915	130.62
395.377	122.52
395.838	126.32
396.3	131.52
396.762	138.02
397.224	131.82
397.685	131.72
398.147	120.73
398.608	122.02
399.07	125.62
399.531	131.42
399.993	138.02
400.454	148.72
400.916	144.62
401.377	142.93
401.839	146.22
402.3	144.12
402.762	163.23
403.223	172.42
403.684	156.52
404.145	158.12
404.607	151.62
405.068	161.82
405.529	164.62
405.99	181.33
406.451	169.02
406.913	170.12
407.374	164.23
407.835	158.92
408.296	165.52
408.757	170.52
409.218	178.62
409.679	174.83
410.14	176.52
410.601	173.62
411.062	171.83
411.522	173.83
411.983	173.82
412.444	175.42
412.905	176.33
413.366	182.02
413.826	201.23
414.287	221.22
414.748	262.42
415.208	251.42
415.669	210.82
416.13	205.02
416.59	205.52
417.051	220.32
417.511	227.42
417.972	240.63
418.432	249.53
418.893	292.12
419.353	258.13
419.814	204.33
420.274	186.92
420.734	182.12
421.195	198.92
421.655	188.52
422.115	192.12
422.576	191.82
423.036	201.32
423.496	213.12
423.956	220.43
424.416	227.52
424.876	266.93
425.336	261.02
425.797	263.73
426.257	260.32
426.717	236.43
427.177	233.22
427.637	224.82
428.097	238.32
428.556	246.22
429.016	260.72
429.476	263.02
429.936	276.93
430.396	276.83
430.856	293.52
431.315	305.42
431.775	337.42
432.235	371.33
432.694	346.62
433.154	351.92
433.614	379.02
434.073	322.73
434.533	276.23
434.993	267.12
435.452	279.92
435.912	289.32
436.371	281.52
436.83	276.23
437.29	261.52
437.749	248.03
438.209	248.52
438.668	269.72
439.127	284.92
439.587	257.82
440.046	249.62
440.505	260.63
440.964	276.32
441.424	317.82
441.883	306.93
442.342	264.73
442.801	229.22
443.26	229.12
443.719	227.92
444.178	226.33
444.637	219.93
445.096	234.93
445.555	230.83
446.014	228.62
446.473	233.33
446.932	239.02
447.391	230.83
447.849	238.12
448.308	231.22
448.767	234.62
449.226	244.93
449.685	249.42
450.143	257.42
450.602	249.32
451.061	237.42
451.519	243.93
451.978	239.52
452.436	242.42
452.895	241.52
453.353	259.62
453.812	247.52
454.27	247.62
454.729	247.32
455.187	248.92
455.646	260.93
456.104	261.72
456.562	272.32
457.021	278.33
457.479	271.72
457.937	288.02
458.395	272.32
458.854	262.12
459.312	266.83
459.77	280.03
460.228	261.52
460.686	256.92
461.144	266.33
461.602	258.73
462.06	259.32
462.518	270.73
462.976	264.02
463.434	267.42
463.892	280.72
464.35	286.52
464.808	294.62
465.266	279.12
465.724	285.43
466.181	292.33
466.639	291.02
467.097	303.53
467.555	315.12
468.012	317.33
468.47	324.12
468.928	346.92
469.385	351.52
469.843	358.52
470.3	364.13
470.758	380.42
471.215	389.52
471.673	419.33
472.13	417.23
472.588	429.83
473.045	393.63
473.503	396.93
473.96	410.22
474.417	427.52
474.875	446.52
475.332	484.42
475.789	480.43
476.246	483.92
476.704	507.12
477.161	529.72
477.618	532.52
478.075	573.13
478.532	626.33
478.989	692.03
479.446	799.32
479.903	769.63
480.36	805.62
480.817	842.42
481.274	949.52
481.731	1025.43
482.188	1114.82
482.645	1231.93
483.102	1333.73
483.558	1454.33
484.015	1483.43
484.472	1465.03
484.929	1426.83
485.385	1373.42
485.842	1342.12
486.299	1299.33
486.755	1244.42
487.212	1064.93
487.668	911.73
488.125	852.22
488.582	779.63
489.038	750.02
489.494	723.73
489.951	696.42
490.407	683.82
490.864	656.73
491.32	661.12
491.776	657.92
492.233	666.92
492.689	641.22
493.145	632.73
493.602	622.42
494.058	634.62
494.514	642.52
494.97	655.63
495.426	656.83
495.882	644.33
496.338	630.22
496.794	647.83
497.251	638.52
497.707	652.43
498.163	657.22
498.618	657.02
499.074	657.42
499.53	694.52
499.986	693.62
500.442	672.43
500.898	645.93
501.354	639.23
501.809	643.82
502.265	645.83
502.721	651.62
503.177	668.13
503.632	667.22
504.088	666.93
504.543	684.23
504.999	711.72
505.455	677.82
505.91	657.83
506.366	657.83
506.821	656.92
507.277	659.52
507.732	654.23
508.187	659.22
508.643	668.53
509.098	672.42
509.553	688.52
510.009	692.93
510.464	696.83
510.919	720.62
511.375	721.43
511.83	742.92
512.285	745.02
512.74	782.53
513.195	813.33
513.65	797.82
514.105	798.32
514.56	801.73
515.015	818.93
515.47	827.22
515.925	817.23
516.38	818.92
516.835	827.33
517.29	814.23
517.745	816.43
518.2	795.42
518.655	776.73
519.109	773.82
519.564	777.43
520.019	767.42
520.474	755.82
520.928	762.02
521.383	750.52
521.838	736.12
522.292	748.03
522.747	749.12
523.201	743.82
523.656	736.62
524.11	725.02
524.565	727.92
525.019	725.02
525.474	719.83
525.928	727.52
526.382	727.52
526.837	728.92
527.291	735.12
527.745	725.02
528.2	728.73
528.654	712.72
529.108	729.52
529.562	716.72
530.016	714.93
530.47	722.62
530.925	715.72
531.379	721.12
531.833	734.93
532.287	725.82
532.741	733.02
533.195	731.52
533.649	738.02
534.103	748.42
534.556	733.62
535.01	732.73
535.464	730.83
535.918	741.82
536.372	748.73
536.826	748.12
537.279	742.62
537.733	749.03
538.187	744.33
538.64	739.62
539.094	748.42
539.548	753.82
540.001	753.62
540.455	748.32
540.908	753.42
541.362	761.72
541.815	775.22
542.269	785.02
542.722	797.33
543.175	802.72
543.629	799.42
544.082	832.22
544.536	819.72
544.989	814.13
545.442	822.02
545.895	818.82
546.349	824.63
546.802	827.62
547.255	837.62
547.708	834.83
548.161	852.02
548.614	856.23
549.067	877.83
549.52	854.92
549.973	847.92
550.426	839.92
550.879	835.22
551.332	839.32
551.785	845.42
552.238	858.92
552.691	857.73
553.144	870.62
553.596	891.82
554.049	900.62
554.502	936.43
554.955	950.73
555.407	939.52
555.86	933.72
556.313	924.92
556.765	921.52
557.218	919.73
557.67	912.02
558.123	915.52
558.576	914.62
559.028	920.82
559.48	931.93
559.933	917.12
560.385	879.12
560.838	850.52
561.29	827.02
561.742	831.63
562.195	797.12
562.647	805.23
563.099	801.73
563.551	806.92
564.004	811.73
564.456	800.23
564.908	791.82
565.36	771.52
565.812	760.52
566.264	754.73
566.716	756.23
567.168	742.82
567.62	734.32
568.072	735.12
568.524	730.32
568.976	715.62
569.428	705.33
569.88	702.92
570.332	719.52
570.784	725.92
571.235	716.52
571.687	718.22
572.139	734.23
572.59	734.12
573.042	739.52
573.494	745.23
573.945	736.62
574.397	712.92
574.849	717.42
575.3	723.33
575.752	712.83
576.203	716.73
576.655	712.32
577.106	704.53
577.557	693.23
578.009	685.82
578.46	688.73
578.912	693.73
579.363	699.53
579.814	692.73
580.265	693.02
580.717	682.83
581.168	699.12
581.619	703.43
582.07	708.73
582.521	702.52
582.972	694.32
583.423	701.82
583.875	696.72
584.326	713.92
584.777	724.62
585.227	738.62
585.678	757.52
586.129	766.43
586.58	783.43
587.031	799.72
587.482	837.73
587.933	874.22
588.384	854.12
588.834	801.83
589.285	810.73
589.736	801.12
590.186	795.02
590.637	793.33
591.088	781.63
591.538	762.83
591.989	766.72
592.439	759.73
592.89	741.42
593.34	735.33
593.791	726.42
594.241	721.12
594.692	733.03
595.142	721.92
595.593	719.83
596.043	720.02
596.493	732.03
596.943	721.63
597.394	748.33
597.844	748.53
598.294	762.52
598.744	785.12
599.195	801.42
599.645	850.03
600.095	893.23
600.545	957.12
600.995	1006.93
601.445	1064.12
601.895	1132.92
602.345	1179.42
602.795	1155.12
603.245	1110.62
603.695	1045.72
604.145	990.23
604.594	952.63
605.044	895.12
605.494	828.62
605.944	794.22
606.393	771.82
606.843	756.52
607.293	767.02
607.743	749.92
608.192	764.82
608.642	777.53
609.091	776.32
609.541	782.83
609.99	786.23
610.44	784.93
610.889	739.82
611.339	728.52
611.788	711.13
612.238	716.43
612.687	721.52
613.136	720.22
613.586	728.93
614.035	717.82
614.484	722.62
614.933	724.12
615.383	734.53
615.832	733.02
616.281	735.82
616.73	692.72
617.179	664.32
617.628	666.73
618.077	652.12
618.526	632.12
618.975	629.93
619.424	633.12
619.873	632.63
620.322	640.42
620.771	623.22
621.22	622.62
621.669	620.93
622.118	609.32
622.567	590.23
623.015	592.12
623.464	593.52
623.913	575.52
624.361	570.73
624.81	563.22
625.259	572.73
625.707	560.13
626.156	570.83
626.604	585.62
627.053	582.52
627.501	579.12
627.95	592.82
628.398	607.73
628.847	589.63
629.295	585.72
629.744	593.12
630.192	583.82
630.64	578.82
631.089	563.12
631.537	563.03
631.985	539.72
632.433	553.42
632.881	541.73
633.33	544.82
633.778	540.83
634.226	546.13
634.674	550.23
635.122	553.12
635.57	574.12
636.018	580.02
636.466	578.12
636.914	557.83
637.362	592.43
637.81	588.52
638.258	589.82
638.705	593.42
639.153	630.22
639.601	632.92
640.049	661.02
640.497	695.93
640.944	722.93
641.392	661.92
641.84	622.23
642.287	588.03
642.735	570.02
643.182	575.02
643.63	569.62
644.078	573.93
644.525	592.23
644.973	591.72
645.42	591.52
645.867	627.92
646.315	639.02
646.762	668.43
647.21	696.13
647.657	715.82
648.104	741.12
648.551	759.62
648.999	824.53
649.446	899.33
649.893	971.72
650.34	1120.72
650.787	1328.12
651.234	1652.62
651.682	2129.32
652.129	2871.43
652.576	4083.93
653.023	5944.12
653.47	8043.22
653.917	9995.62
654.363	11512.23
654.81	12703.02
655.257	12014.82
655.704	7967.52
656.151	4792.93
656.598	3171.03
657.044	2250.12
657.491	1750.83
657.938	1424.93
658.385	1199.23
658.831	1048.33
659.278	939.12
659.724	844.43
660.171	769.23
660.618	717.12
661.064	682.73
661.511	661.03
661.957	653.52
662.404	640.33
662.85	655.43
663.296	622.22
663.743	563.62
664.189	546.12
664.635	539.12
665.082	532.72
665.528	530.12
665.974	536.83
666.42	526.23
666.867	518.12
667.313	492.12
667.759	476.62
668.205	463.43
668.651	453.43
669.097	450.82
669.543	447.52
669.989	449.42
670.435	460.23
670.881	459.63
671.327	456.62
671.773	480.62
672.219	510.42
672.665	561.02
673.11	605.32
673.556	649.92
674.002	697.03
674.448	680.73
674.893	572.62
675.339	492.43
675.785	458.33
676.23	437.82
676.676	402.72
677.122	394.23
677.567	384.22
678.013	379.12
678.458	371.03
678.904	379.23
679.349	364.42
679.794	362.03
680.24	360.62
680.685	360.22
681.131	361.12
681.576	355.23
682.021	358.22
682.466	360.93
682.912	357.23
683.357	370.62
683.802	401.23
684.247	429.12
684.692	467.62
685.137	516.02
685.583	551.22
686.028	588.92
686.473	538.43
686.918	461.62
687.363	432.62
687.807	408.52
688.252	374.62
688.697	358.82
689.142	343.33
689.587	343.52
690.032	327.32
690.477	348.73
690.921	359.82
691.366	391.02
691.811	413.73
692.255	448.33
692.7	480.62
693.145	522.23
693.589	730.52
694.034	1185.72
694.478	1614.92
694.923	1806.53
695.367	2353.73
695.812	1243.33
696.256	523.92
696.701	389.43
697.145	353.62
697.59	340.73
698.034	333.52
698.478	334.63
698.922	327.32
699.367	331.12
699.811	346.62
700.255	362.73
700.699	394.53
701.143	437.43
701.588	489.02
702.032	528.53
702.476	521.23
702.92	511.82
703.364	510.32
703.808	675.92
704.252	1082.62
704.696	1518.83
705.14	1740.12
705.584	2223.53
706.027	1119.23
706.471	542.62
706.915	412.82
707.359	354.62
707.803	335.82
708.246	323.73
708.69	321.82
709.134	321.33
709.577	318.92
710.021	325.82
710.465	321.82
710.908	307.92
711.352	306.72
711.795	316.92
712.239	359.22
712.682	398.73
713.126	424.23
713.569	474.22
714.012	367.72
714.456	315.52
714.899	290.22
715.342	282.32
715.786	268.62
716.229	270.12
716.672	261.62
717.115	258.12
717.558	254.73
718.002	267.12
718.445	268.33
718.888	296.02
719.331	304.23
719.774	319.22
720.217	317.83
720.66	289.43
721.103	270.12
721.546	265.93
721.989	266.12
722.432	232.62
722.874	245.82
723.317	232.72
723.76	235.72
724.203	270.12
724.645	330.33
725.088	454.02
725.531	592.02
725.974	660.32
726.416	567.73
726.859	325.02
727.301	249.12
727.744	241.93
728.187	234.23
728.629	242.82
729.071	247.83
729.514	266.22
729.956	278.62
730.399	299.52
730.841	300.23
731.283	281.32
731.726	271.32
732.168	268.42
732.61	281.92
733.053	298.32
733.495	326.93
733.937	369.73
734.379	414.92
734.821	463.62
735.263	569.62
735.705	880.92
736.148	1673.73
736.59	2714.32
737.032	3193.73
737.474	2603.93
737.916	845.62
738.357	453.92
738.799	338.72
739.241	310.62
739.683	295.62
740.125	303.62
740.567	302.12
741.008	320.62
741.45	325.72
741.892	327.83
742.334	360.43
742.775	372.23
743.217	360.73
743.658	285.93
744.1	262.93
744.542	274.62
744.983	325.62
745.425	356.02
745.866	354.12
746.307	284.53
746.749	282.33
747.19	341.52
747.632	472.43
748.073	937.43
748.514	1979.13
748.956	3004.03
749.397	3754.03
749.838	3106.53
750.279	3095.62
750.72	1569.63
751.162	569.42
751.603	340.93
752.044	259.23
752.485	231.12
752.926	217.23
753.367	204.82
753.808	204.12
754.249	197.23
754.69	196.62
755.131	187.73
755.572	183.32
756.013	185.92
756.453	190.83
756.894	194.43
757.335	195.63
757.776	198.12
758.216	202.02
758.657	202.43
759.098	210.72
759.538	232.03
759.979	282.42
760.42	399.33
760.86	752.02
761.301	1960.43
761.741	4716.93
762.182	6739.62
762.622	4740.23
763.063	1372.12
763.503	555.73
763.943	334.73
764.384	275.02
764.824	247.43
765.264	234.72
765.705	207.32
766.145	179.02
766.585	180.82
767.025	173.82
767.465	165.12
767.906	183.92
768.346	194.52
768.786	203.23
769.226	218.03
769.666	314.42
770.106	650.12
770.546	1654.12
770.986	2766.32
771.426	2462.82
771.866	825.82
772.306	341.92
772.745	212.52
773.185	169.42
773.625	161.62
774.065	151.82
774.505	169.22
774.944	211.23
775.384	366.43
775.824	597.13
776.263	584.83
776.703	290.32
777.142	162.62
777.582	135.52
778.021	126.92
778.461	125.33
778.9	130.32
779.34	122.83
779.779	115.23
780.219	112.12
780.658	109.83
781.097	115.02
781.537	113.52
781.976	109.22
782.415	105.42
782.855	101.82
783.294	102.02
783.733	106.32
784.172	105.92
784.611	104.52
785.05	110.92
785.489	113.12
785.928	123.23
786.367	125.82
786.806	120.92
787.245	126.92
787.684	132.22
788.123	153.32
788.562	141.82
789.001	131.43
789.44	121.83
789.879	121.42
790.317	119.12
790.756	128.02
791.195	131.33
791.634	147.23
792.072	206.52
792.511	377.52
792.95	1059.32
793.388	2223.43
793.827	1996.83
794.265	702.22
794.704	293.42
795.142	189.12
795.581	157.62
796.019	128.92
796.458	125.02
796.896	127.73
797.334	135.12
797.773	157.32
798.211	232.72
798.649	465.82
799.087	1062.13
799.526	1685.53
799.964	2110.72
800.402	2089.33
800.84	799.02
801.278	308.03
801.716	194.12
802.154	161.82
802.592	143.23
803.03	141.23
803.468	136.52
803.906	151.52
804.344	152.12
804.782	146.02
805.22	134.82
805.658	135.82
806.096	155.52
806.533	166.42
806.971	181.72
807.409	231.12
807.847	329.93
808.284	709.32
808.722	1985.33
809.16	3464.62
809.597	3322.12
810.035	5723.73
810.472	6046.43
810.91	2191.23
811.347	841.63
811.785	428.93
812.222	268.73
812.66	202.63
813.097	168.22
813.535	152.42
813.972	136.42
814.409	119.73
814.846	111.43
815.284	113.82
815.721	99.22
816.158	110.52
816.595	113.52
817.032	156.02
817.47	185.42
817.907	131.02
818.344	102.92
818.781	99.43
819.218	101.83
819.655	123.62
820.092	189.72
820.529	223.42
820.966	176.23
821.403	132.72
821.839	106.73
822.276	96.23
822.713	124.52
823.15	138.33
823.587	117.62
824.023	152.62
824.46	321.93
824.897	946.13
825.333	1404.93
825.77	609.32
826.206	240.02
826.643	145.22
827.08	110.83
827.516	89.23
827.953	78.92
828.389	87.22
828.825	69.62
829.262	71.32
829.698	59.42
830.135	64.12
830.571	58.82
831.007	64.52
831.443	61.52
831.88	64.23
832.316	63.02
832.752	70.23
833.188	69.12
833.624	70.33
834.06	68.73
834.497	72.82
834.933	76.93
835.369	71.82
835.805	71.22
836.241	76.42
836.677	85.73
837.112	96.32
837.548	112.62
837.984	142.23
838.42	215.63
838.856	520.83
839.292	1606.62
839.727	2404.53
840.163	1124.12
840.599	996.63
841.034	2153.93
841.47	2216.03
841.906	810.63
842.341	338.12
842.777	207.52
843.212	211.12
843.648	186.72
844.083	106.52
844.519	85.33
844.954	74.23
845.39	50.92
845.825	59.42
846.261	60.02
846.696	56.02
847.131	51.42
847.566	54.92
848.002	49.92
848.437	53.23
848.872	61.42
849.307	62.83
849.742	90.73
850.177	191.33
850.613	586.13
851.048	902.82
851.483	399.43
851.918	153.42
852.353	83.52
852.788	47.32
853.223	49.22
853.657	49.92
854.092	48.83
854.527	38.52
854.962	31.22
855.397	45.33
855.832	51.92
856.266	36.83
856.701	40.33
857.136	38.23
857.57	40.23
858.005	53.83
858.44	63.92
858.874	41.52
859.309	51.62
859.743	41.52
860.178	48.22
860.612	43.42
861.047	51.92
861.481	70.32
861.915	70.73
862.35	50.02
862.784	38.42
863.218	38.02
863.653	28.22
864.087	46.12
864.521	55.92
864.955	67.33
865.39	158.32
865.824	180.73
866.258	120.23
866.692	178.33
867.126	193.52
867.56	115.02
867.994	59.42
868.428	35.52
868.862	44.12
869.296	51.12
869.73	63.42
870.164	57.32
870.598	50.23
871.031	41.72
871.465	28.72
871.899	26.62
872.333	21.93
872.766	22.23
873.2	26.12
873.634	33.92
874.067	17.82
874.501	20.52
874.935	37.22
875.368	36.32
875.802	24.52
876.235	26.42
876.669	26.52
877.102	21.12
877.535	23.12
877.969	16.33
878.402	25.02
878.836	18.02
879.269	23.23
879.702	20.72
880.135	18.72
880.569	18.92
881.002	19.83
881.435	21.42
881.868	17.73
882.301	19.73
882.734	20.22
883.167	19.42
883.601	14.83
884.034	22.52
884.467	14.52
884.899	19.02
885.332	18.52
885.765	12.23
886.198	17.22
886.631	14.92
887.064	16.52
887.497	21.32
887.929	25.02
888.362	12.92
888.795	12.62
889.228	16.12
889.66	22.72
890.093	15.22
890.526	7.02
890.958	12.02
891.391	14.43
891.823	15.33
892.256	6.73
892.688	13.82
893.121	16.93
893.553	12.42
893.985	21.62
894.418	17.42
894.85	10.42
895.282	13.22
895.715	12.92
896.147	17.43
896.579	13.32
897.011	14.02
897.444	21.62
897.876	11.23
898.308	16.22
898.74	18.83
899.172	12.42
899.604	19.52
900.036	21.12
900.468	17.82
900.9	14.02
901.332	17.22
901.764	13.02
902.196	13.52
902.628	16.42
903.06	15.22
903.491	25.62
903.923	24.73
904.355	19.62
904.787	21.42
905.218	21.02
905.65	20.02
906.082	9.92
906.513	14.12
906.945	15.22
907.376	11.82
907.808	17.73
908.239	18.02
908.671	15.73
909.102	22.42
909.534	21.93
909.965	44.52
910.397	86.12
910.828	322.12
911.259	488.23
911.691	229.83
912.122	111.02
912.553	52.92
912.984	33.73
913.415	22.23
913.847	21.92
914.278	16.92
914.709	11.32
915.14	19.83
915.571	10.32
916.002	9.52
916.433	15.23
916.864	13.32
917.295	14.22
917.726	16.52
918.157	19.52
918.587	26.23
919.018	14.02
919.449	24.12
919.88	17.12
920.311	31.02
920.741	47.32
921.172	170.12
921.603	157.12
922.033	74.62
922.464	48.33
922.895	23.22
923.325	19.23
923.756	15.12
924.186	12.93
924.617	13.12
925.047	19.73
925.478	24.33
925.908	17.23
926.338	16.52
926.769	14.73
927.199	19.33
927.629	2.02
928.06	19.32
928.49	13.93
928.92	12.52
929.35	6.12
929.78	7.22
930.21	6.72
930.641	1.82
931.071	9.73
931.501	1.23
931.931	7.52
932.361	7.33
932.791	3.52
933.221	7.73
933.651	6.33
934.08	18.12
934.51	32.32
934.94	9.83
935.37	5.93
935.8	10.22
936.229	9.72
936.659	18.72
937.089	-2.17
937.519	13.92
937.948	18.02
938.378	15.23
938.807	6.32
939.237	4.73
939.666	3.43
940.096	-4.88
940.525	5.32
940.955	0.02
941.384	6.23
941.814	-5.28
942.243	-5.38
942.672	6.92
943.102	-5.67
943.531	-0.48
943.96	-0.88
944.39	-0.38
944.819	-1.68
945.248	2.32
945.677	1.12
946.106	5.42
946.535	-0.88
946.964	-4.38
947.393	2.73
947.822	1.23
948.251	-9.38
948.68	6.02
949.109	0.82
949.538	-0.67
949.967	-1.38
950.396	-2.18
950.825	-4.38
951.254	-4.27
951.682	-7.88
952.111	4.02
952.54	5.23
952.969	1.92
953.397	-2.68
953.826	-0.38
954.254	-2.88
954.683	-0.78
955.112	-0.17
955.54	-3.07
955.969	0.73
956.397	0.92
956.826	-1.77
957.254	2.43
957.682	-2.78
958.111	2.22
958.539	-2.27
958.967	0.23
959.396	3.32
959.824	0.02
960.252	-0.78
960.68	-13.18
961.109	-1.48
961.537	-1.27
961.965	-4.38
962.393	1.23
962.821	-7.77
963.249	0.92
963.677	5.62
964.105	9.62
964.533	48.83
964.961	43.12
965.389	19.23
965.817	10.42
966.245	1.82
966.672	-1.48
967.1	-15.17
967.528	-1.18
967.956	-5.17
968.383	-3.98
968.811	-5.27
969.239	-7.88
969.666	-5.88
970.094	1.02
970.522	0.52
970.949	-6.58
971.377	-8.57
971.804	-0.48
972.232	-0.08
972.659	-0.88
973.087	-4.08
973.514	-11.58
973.941	-3.88
974.369	4.72
974.796	0.12
975.223	-11.28
975.651	-0.17
976.078	4.42
976.505	-3.28
976.932	2.12
977.359	10.32
977.786	14.82
978.214	-0.08
978.641	-10.48
979.068	-3.08
979.495	-6.88
979.922	-3.28
980.349	-6.68
980.776	4.22
981.202	-3.18
981.629	-0.88
982.056	0.42
982.483	-3.17
982.91	0.73
983.337	-8.77
983.763	3.72
984.19	-7.88
984.617	-10.58
985.043	-7.48
985.47	-2.48
985.897	-2.58
986.323	-5.58
986.75	1.12
987.176	-2.58
987.603	-3.48
988.029	-1.98
988.456	-4.68
988.882	2.43
989.308	-8.78
989.735	-7.58
990.161	-1.48
990.587	-7.18
991.014	-4.98
991.44	2.72
991.866	1.33
992.292	1.43
992.719	-6.18
993.145	5.52
993.571	-10.07
993.997	-5.38
994.423	-12.77
994.849	-4.88
995.275	-2.67
995.701	-3.58
996.127	-3.38
996.553	-7.08
996.979	-2.38
997.405	1.93
997.83	-3.38
998.256	-9.18
998.682	-6.98
999.108	-11.28
999.534	-0.68
999.959	-3.88
1000.385	-3.27
1000.811	-1.38
1001.236	-4.98
1001.662	-9.38
1002.087	-9.88
1002.513	-0.78
1002.938	4.23
1003.364	-3.27
1003.789	0.42
1004.215	0.42
1004.64	0.32
1005.066	2.73
1005.491	-5.27
1005.916	-3.48
1006.342	-4.17
1006.767	-4.67
1007.192	-3.08
1007.617	-5.78
1008.042	-7.08
1008.468	-9.08
1008.893	-7.27
1009.318	-3.38
1009.743	-5.68
1010.168	-0.48
1010.593	1.82
1011.018	-5.27
1011.443	-4.27
1011.868	-4.07
1012.293	-6.67
1012.718	-12.48
1013.143	-9.78
1013.567	-0.88
1013.992	-4.27
1014.417	-14.08
1014.842	2.92
1015.267	-0.98
1015.691	-1.67
1016.116	6.62
1016.541	-2.68
1016.965	1.52
1017.39	4.82
1017.814	-6.57
1018.239	-3.18
1018.663	-10.08
1019.088	-9.08
1019.512	-4.88
1019.937	0.32
1020.361	-5.88
1020.785	-6.78
1021.21	-5.38
1021.634	-5.77
1022.058	-5.68
1022.483	-1.77
1022.907	-0.78
1023.331	-10.57
1023.755	-1.68
1024.179	-2.08
1024.604	-10.08
1025.028	-5.08
1025.452	-8.68
1025.876	-5.48
1026.3	-3.48
1026.724	-9.78
1027.148	-10.98
1027.572	-12.48
1027.996	-6.08
1028.42	-4.18
1028.843	-6.18
1029.267	-6.98
1029.691	-1.08
1030.115	-5.88
1030.539	-10.78
1030.962	-10.18
1031.386	-9.07
1031.81	-3.57
1032.233	0.33
1032.657	3.02
1033.08	-1.48
1033.504	-3.48
1033.927	-4.27
1034.351	-2.77
1034.774	-3.77
1035.198	-4.58
1035.621	-12.67
1036.045	-8.58
1036.468	-2.88
1036.891	-13.98
1037.315	-8.58
1037.738	-9.58
1038.161	-0.88
1038.584	-11.77
1039.008	-12.18
1039.431	-2.08
1039.854	-3.78
1040.277	-7.38
1040.7	-13.48
1041.123	1.92
1041.546	-11.07
1041.969	-11.88
1042.392	-8.98
1042.815	-1.68
1043.238	0.72
1043.661	-1.78
1044.084	-8.88
1044.507	-6.27
1044.93	-7.08
1045.352	-2.28
1045.775	-0.18
1046.198	1.92
1046.621	-1.57
1047.043	-6.17
1047.466	6.73
1047.889	-4.78
1048.311	-4.98
1048.734	-9.98
1049.156	-3.98
1049.579	-1.28
1050.001	-1.17
1050.424	2.02
1050.846	-11.88
1051.269	-7.88
1051.691	-5.48
1052.113	-5.08
1052.536	-6.67
1052.958	-1.68
1053.38	-4.28
1053.802	-15.18
1054.225	1.82
1054.647	-11.98
1055.069	-10.28
1055.491	-0.08
1055.913	-11.68
1056.335	0.52
1056.757	-6.27
1057.179	-7.88
1057.601	-5.58
1058.023	-5.67
1058.445	-3.68
1058.867	-9.38
1059.289	-5.78
1059.711	-10.98
1060.133	-10.28
1060.555	-2.38
1060.976	-0.98
1061.398	-9.58
1061.82	-7.68
1062.241	-12.68
1062.663	-11.98
1063.085	-12.08
1063.506	-6.77
1063.928	-4.98
1064.35	-3.08
1064.771	-16.78
1065.193	-13.78
1065.614	-12.98
1066.035	-9.38
1066.457	-2.98
1066.878	-1.27
1067.3	-9.68
1067.721	-4.58
1068.142	-5.58
1068.564	-6.78
1068.985	-4.78
1069.406	-7.27
1069.827	-2.77
1070.248	1.52
1070.67	-13.58
1071.091	-2.07
1071.512	-3.28
1071.933	-5.58
1072.354	-8.38
1072.775	-10.38
1073.196	-5.48
1073.617	-7.28
1074.038	-9.98
1074.459	-9.67
1074.88	-5.38
1075.3	-1.77
1075.721	-7.38
1076.142	2.73
1076.563	-2.88
1076.983	-12.58
1077.404	-11.77
1077.825	-10.88
1078.246	-0.68
1078.666	-15.18
1079.087	-2.88
1079.507	-7.88
1079.928	-5.18
1080.348	-4.57
1080.769	-5.08
1081.189	-2.48
1081.61	-6.17
1082.03	-10.08
1082.451	-4.27
1082.871	-4.57
1083.291	-7.08
1083.711	-5.58
1084.132	-12.17
1084.552	-9.98
1084.972	-5.17
1085.392	-9.78
1085.813	-12.27
1086.233	-11.88
1086.653	-7.58
1087.073	-1.67
1087.493	-9.98
1087.913	-2.98
1088.333	-6.88
1088.753	-5.58
1089.173	1.72
1089.593	-2.57
1090.013	0.92
1090.433	0.82
1090.852	-5.77
1091.272	0.72
1091.692	-4.18
1092.112	-9.68
1092.531	-17.18
1092.951	-14.67
1093.371	0.62
1093.79	-3.38
1094.21	-6.17
1094.63	-11.08
1095.049	-7.67
1095.469	-7.27
1095.888	-6.18
1096.308	-2.18
1096.727	5.33
1097.146	-5.58
1097.566	-3.27
1097.985	-5.38
1098.405	-5.57
1098.824	-9.27
1099.243	-8.67
1099.662	-6.58
1100.082	-2.98
1100.501	0.92
1100.92	-6.68
1101.339	-3.58
1101.758	-9.98
