Data from 20171114-ORNL-Ar_H_NY_Subt18_08-06-13-637.txt Node
Date: Tue Nov 14 08:06:13 EST 2017
User: Ender
Spectrometer: HR+D1039
Trigger mode: 0
Integration Time (sec): 2.730000E-2
Scans to average: 10
Electric dark correction enabled: true
Nonlinearity correction enabled: false
Boxcar width: 0
XAxis mode: Wavelengths
Number of Pixels in Spectrum: 2048
>>>>>Begin Spectral Data<<<<<
187.836	-4.43
188.309	-4.43
188.782	-4.43
189.255	2.27
189.728	-3.03
190.201	6.57
190.674	0.87
191.147	-1.33
191.619	-9.53
192.092	0.37
192.565	4.47
193.038	3.77
193.511	6.67
193.984	-1.93
194.456	-3.33
194.929	-2.43
195.402	0.77
195.874	0.17
196.347	-2.93
196.82	-5.23
197.292	6.87
197.765	0.38
198.237	-13.13
198.71	1.57
199.182	-3.13
199.655	2.77
200.127	2.27
200.6	-3.93
201.072	1.87
201.544	-8.93
202.017	-1.83
202.489	3.87
202.961	-1.62
203.433	1.07
203.906	-6.03
204.378	-5.43
204.85	-6.93
205.322	-3.73
205.794	-4.03
206.266	-0.53
206.739	-8.73
207.211	0.17
207.683	-10.03
208.155	-0.03
208.627	-6.53
209.099	-4.33
209.57	-5.23
210.042	-6.53
210.514	-6.83
210.986	-2.33
211.458	-9.53
211.93	-7.33
212.402	5.07
212.873	-10.33
213.345	-5.13
213.817	-8.43
214.288	-5.33
214.76	-5.13
215.232	-6.23
215.703	-0.83
216.175	-0.33
216.646	-2.23
217.118	-9.63
217.589	-4.62
218.061	-0.83
218.532	-7.83
219.004	0.47
219.475	-4.03
219.946	-3.43
220.418	-7.43
220.889	2.57
221.36	-4.23
221.832	-3.63
222.303	-1.33
222.774	-3.33
223.245	-7.53
223.717	-11.43
224.188	-4.83
224.659	-7.83
225.13	-2.53
225.601	-3.73
226.072	-0.73
226.543	-0.53
227.014	-2.43
227.485	0.87
227.956	-6.23
228.427	-2.23
228.898	0.97
229.369	5.17
229.839	-5.53
230.31	-2.03
230.781	7.17
231.252	-2.43
231.722	0.27
232.193	-6.62
232.664	5.47
233.135	3.97
233.605	-2.23
234.076	-2.93
234.546	-3.03
235.017	4.67
235.487	2.87
235.958	3.27
236.428	-5.83
236.899	4.27
237.369	4.88
237.84	0.97
238.31	8.17
238.78	7.77
239.251	-1.53
239.721	1.17
240.191	6.77
240.662	-2.03
241.132	-2.03
241.602	-1.93
242.072	-0.03
242.542	9.47
243.013	3.17
243.483	7.77
243.953	3.97
244.423	5.47
244.893	-1.53
245.363	2.87
245.833	3.47
246.303	-0.13
246.773	8.17
247.243	6.07
247.712	8.77
248.182	11.27
248.652	12.87
249.122	-0.23
249.592	13.77
250.061	22.77
250.531	34.07
251.001	15.47
251.471	19.57
251.94	26.97
252.41	4.77
252.879	2.17
253.349	9.67
253.818	9.67
254.288	1.67
254.757	5.17
255.227	-3.53
255.696	3.27
256.166	6.88
256.635	7.37
257.105	7.88
257.574	5.17
258.043	15.27
258.513	7.87
258.982	19.47
259.451	5.17
259.92	17.87
260.389	11.77
260.859	19.27
261.328	13.27
261.797	19.97
262.266	15.27
262.735	9.77
263.204	10.77
263.673	-2.53
264.142	4.97
264.611	-6.43
265.08	-1.13
265.549	3.57
266.018	6.38
266.487	-6.63
266.955	-0.53
267.424	6.37
267.893	12.38
268.362	3.07
268.83	3.37
269.299	16.77
269.768	6.87
270.236	9.47
270.705	6.97
271.174	8.07
271.642	10.57
272.111	7.67
272.579	20.17
273.048	29.47
273.516	27.47
273.985	26.37
274.453	18.27
274.922	22.17
275.39	9.07
275.858	5.57
276.327	17.07
276.795	21.27
277.263	12.27
277.731	31.37
278.2	61.47
278.668	61.67
279.136	43.47
279.604	15.87
280.072	15.17
280.54	11.17
281.008	12.67
281.477	16.87
281.945	20.27
282.413	15.07
282.881	14.67
283.348	14.07
283.816	12.17
284.284	22.07
284.752	20.77
285.22	15.77
285.688	20.57
286.156	20.97
286.623	41.27
287.091	52.27
287.559	29.17
288.026	22.37
288.494	19.57
288.962	9.67
289.429	11.47
289.897	20.57
290.364	20.27
290.832	22.97
291.3	13.47
291.767	17.67
292.234	19.37
292.702	15.27
293.169	15.88
293.637	28.97
294.104	19.57
294.571	13.57
295.039	11.37
295.506	12.17
295.973	21.77
296.44	21.97
296.908	21.17
297.375	22.47
297.842	25.67
298.309	22.77
298.776	21.47
299.243	21.27
299.71	11.87
300.177	25.17
300.644	25.67
301.111	21.57
301.578	27.87
302.045	16.77
302.512	22.47
302.979	33.47
303.446	22.27
303.913	21.77
304.379	21.17
304.846	25.57
305.313	25.47
305.78	22.07
306.246	33.97
306.713	26.57
307.18	23.17
307.646	33.27
308.113	29.77
308.579	22.67
309.046	24.97
309.512	28.67
309.979	22.17
310.445	31.17
310.912	28.57
311.378	27.67
311.845	29.27
312.311	35.77
312.777	35.47
313.244	35.27
313.71	45.27
314.176	30.17
314.642	37.27
315.109	34.27
315.575	38.17
316.041	35.37
316.507	34.77
316.973	42.77
317.439	33.57
317.905	33.17
318.371	30.37
318.837	39.07
319.303	32.37
319.769	36.77
320.235	38.47
320.701	41.67
321.167	42.37
321.633	39.38
322.099	44.47
322.564	48.17
323.03	42.67
323.496	42.77
323.962	45.38
324.427	39.97
324.893	45.37
325.359	38.07
325.824	40.37
326.29	40.87
326.755	40.87
327.221	47.67
327.686	38.87
328.152	48.88
328.617	42.37
329.083	50.87
329.548	53.27
330.014	52.37
330.479	41.47
330.944	44.47
331.41	48.67
331.875	46.57
332.34	44.17
332.805	44.17
333.271	52.17
333.736	45.07
334.201	49.97
334.666	50.57
335.131	51.67
335.596	57.07
336.061	49.07
336.526	52.27
336.991	54.07
337.456	59.07
337.921	49.17
338.386	47.77
338.851	48.27
339.316	48.67
339.781	45.37
340.246	56.77
340.711	51.27
341.175	50.57
341.64	46.67
342.105	52.57
342.569	56.97
343.034	59.47
343.499	60.77
343.963	49.27
344.428	66.07
344.893	63.47
345.357	65.67
345.822	72.07
346.286	68.77
346.751	79.67
347.215	67.27
347.679	81.67
348.144	102.27
348.608	88.27
349.073	79.37
349.537	73.27
350.001	85.17
350.465	89.07
350.93	84.57
351.394	83.97
351.858	73.88
352.322	88.47
352.786	83.88
353.25	109.07
353.715	110.07
354.179	109.27
354.643	121.97
355.107	136.47
355.571	111.17
356.035	109.57
356.498	121.27
356.962	128.27
357.426	141.57
357.89	119.67
358.354	95.27
358.818	83.67
359.281	79.88
359.745	78.77
360.209	84.57
360.673	79.17
361.136	78.27
361.6	93.57
362.064	89.97
362.527	92.07
362.991	93.77
363.454	86.17
363.918	78.17
364.381	86.17
364.845	91.57
365.308	91.37
365.772	91.17
366.235	88.67
366.698	86.37
367.162	88.07
367.625	85.57
368.088	88.77
368.552	87.87
369.015	93.17
369.478	104.47
369.941	109.27
370.404	96.67
370.867	109.77
371.331	111.67
371.794	117.27
372.257	112.97
372.72	121.67
373.183	107.37
373.646	111.47
374.109	109.47
374.572	108.27
375.035	108.67
375.497	117.87
375.96	111.77
376.423	102.57
376.886	117.97
377.349	115.57
377.811	101.67
378.274	109.88
378.737	110.77
379.199	120.97
379.662	117.97
380.125	126.17
380.587	123.77
381.05	132.17
381.512	133.47
381.975	139.17
382.437	138.37
382.9	133.07
383.362	134.37
383.825	151.17
384.287	160.17
384.75	144.47
385.212	148.97
385.674	143.37
386.136	141.77
386.599	128.67
387.061	131.88
387.523	133.87
387.985	138.17
388.447	150.07
388.91	154.47
389.372	168.57
389.834	159.07
390.296	147.97
390.758	159.17
391.22	173.47
391.682	209.17
392.144	303.37
392.606	233.47
393.068	175.57
393.529	184.37
393.991	165.47
394.453	157.47
394.915	165.57
395.377	198.07
395.838	217.27
396.3	165.77
396.762	154.17
397.224	138.17
397.685	136.97
398.147	138.07
398.608	136.67
399.07	129.17
399.531	140.17
399.993	150.57
400.454	158.57
400.916	154.37
401.377	147.38
401.839	160.77
402.3	157.17
402.762	178.97
403.223	185.87
403.684	175.17
404.145	169.27
404.607	159.07
405.068	174.97
405.529	181.97
405.99	197.37
406.451	192.07
406.913	190.77
407.374	170.87
407.835	168.27
408.296	180.38
408.757	169.77
409.218	196.17
409.679	187.97
410.14	191.67
410.601	187.87
411.062	191.77
411.522	199.57
411.983	204.87
412.444	188.67
412.905	184.38
413.366	197.27
413.826	199.47
414.287	227.87
414.748	267.67
415.208	260.47
415.669	215.37
416.13	210.17
416.59	210.77
417.051	227.77
417.511	233.77
417.972	246.38
418.432	266.87
418.893	297.77
419.353	254.27
419.814	206.77
420.274	190.27
420.734	187.37
421.195	207.57
421.655	208.27
422.115	203.67
422.576	204.77
423.036	198.67
423.496	219.27
423.956	229.17
424.416	243.57
424.876	280.07
425.336	273.27
425.797	269.57
426.257	266.17
426.717	253.67
427.177	243.77
427.637	232.17
428.097	246.37
428.556	264.17
429.016	274.27
429.476	272.17
429.936	285.77
430.396	294.87
430.856	308.87
431.315	329.67
431.775	365.27
432.235	394.07
432.694	367.17
433.154	380.27
433.614	405.77
434.073	348.77
434.533	291.27
434.993	286.27
435.452	291.07
435.912	309.87
436.371	303.17
436.83	294.67
437.29	284.67
437.749	266.87
438.209	258.37
438.668	272.97
439.127	296.57
439.587	283.17
440.046	260.17
440.505	270.17
440.964	292.67
441.424	336.27
441.883	325.47
442.342	274.17
442.801	235.27
443.26	230.47
443.719	229.37
444.178	228.17
444.637	214.97
445.096	237.27
445.555	234.97
446.014	239.27
446.473	227.77
446.932	245.17
447.391	238.17
447.849	229.17
448.308	231.57
448.767	228.88
449.226	246.67
449.685	244.67
450.143	257.17
450.602	249.77
451.061	239.57
451.519	250.08
451.978	246.07
452.436	240.67
452.895	249.38
453.353	262.57
453.812	251.27
454.27	248.97
454.729	248.67
455.187	253.07
455.646	262.17
456.104	258.98
456.562	276.27
457.021	278.87
457.479	270.77
457.937	287.38
458.395	278.27
458.854	262.17
459.312	267.98
459.77	290.27
460.228	267.87
460.686	258.17
461.144	257.37
461.602	255.07
462.06	247.27
462.518	267.57
462.976	263.57
463.434	275.27
463.892	273.98
464.35	287.07
464.808	307.27
465.266	271.17
465.724	285.17
466.181	290.67
466.639	282.97
467.097	302.87
467.555	318.48
468.012	311.97
468.47	325.67
468.928	341.07
469.385	350.27
469.843	368.97
470.3	368.88
470.758	388.87
471.215	395.87
471.673	427.67
472.13	425.47
472.588	435.98
473.045	389.27
473.503	402.47
473.96	411.17
474.417	426.97
474.875	454.77
475.332	496.48
475.789	485.88
476.246	484.17
476.704	509.88
477.161	528.17
477.618	543.37
478.075	587.58
478.532	635.27
478.989	716.57
479.446	847.77
479.903	802.17
480.36	842.17
480.817	904.67
481.274	1005.97
481.731	1107.17
482.188	1207.07
482.645	1352.47
483.102	1458.97
483.558	1594.07
484.015	1651.97
484.472	1630.17
484.929	1572.67
485.385	1526.17
485.842	1481.88
486.299	1415.67
486.755	1329.08
487.212	1132.38
487.668	959.07
488.125	881.07
488.582	802.97
489.038	779.17
489.494	749.17
489.951	711.27
490.407	695.08
490.864	674.57
491.32	676.07
491.776	666.37
492.233	676.77
492.689	648.57
493.145	634.07
493.602	619.17
494.058	631.37
494.514	639.47
494.97	661.77
495.426	667.87
495.882	644.67
496.338	634.98
496.794	654.37
497.251	651.57
497.707	667.58
498.163	670.77
498.618	666.07
499.074	665.17
499.53	710.17
499.986	708.07
500.442	682.58
500.898	654.67
501.354	655.07
501.809	666.57
502.265	672.48
502.721	695.67
503.177	694.97
503.632	694.27
504.088	702.38
504.543	743.67
504.999	744.87
505.455	686.07
505.91	662.17
506.366	665.67
506.821	654.67
507.277	650.17
507.732	656.97
508.187	650.87
508.643	656.37
509.098	662.67
509.553	680.37
510.009	675.67
510.464	697.77
510.919	720.37
511.375	728.88
511.83	743.47
512.285	750.07
512.74	801.98
513.195	816.98
513.65	803.38
514.105	806.37
514.56	808.37
515.015	825.08
515.47	840.48
515.925	826.88
516.38	815.17
516.835	827.37
517.29	808.17
517.745	798.77
518.2	803.87
518.655	772.87
519.109	772.38
519.564	769.88
520.019	763.77
520.474	750.77
520.928	754.07
521.383	754.57
521.838	748.17
522.292	740.17
522.747	740.57
523.201	722.27
523.656	727.37
524.11	724.27
524.565	716.67
525.019	724.07
525.474	729.57
525.928	728.38
526.382	723.47
526.837	720.77
527.291	723.77
527.745	728.17
528.2	726.07
528.654	722.98
529.108	716.07
529.562	715.57
530.016	720.08
530.47	718.27
530.925	719.47
531.379	720.98
531.833	724.47
532.287	729.77
532.741	723.38
533.195	736.67
533.649	745.47
534.103	755.27
534.556	742.77
535.01	742.17
535.464	738.57
535.918	749.88
536.372	746.88
536.826	740.67
537.279	741.88
537.733	737.98
538.187	749.07
538.64	742.27
539.094	750.37
539.548	754.88
540.001	743.77
540.455	762.27
540.908	760.57
541.362	773.27
541.815	771.77
542.269	782.67
542.722	786.97
543.175	798.57
543.629	801.47
544.082	810.07
544.536	817.87
544.989	813.17
545.442	822.87
545.895	822.37
546.349	824.47
546.802	813.97
547.255	829.77
547.708	841.07
548.161	847.77
548.614	859.07
549.067	859.77
549.52	851.17
549.973	830.47
550.426	831.27
550.879	825.47
551.332	834.38
551.785	837.47
552.238	837.77
552.691	851.88
553.144	859.87
553.596	871.77
554.049	885.77
554.502	921.77
554.955	943.97
555.407	945.67
555.86	940.47
556.313	921.27
556.765	923.77
557.218	913.27
557.67	921.17
558.123	904.87
558.576	908.37
559.028	905.38
559.48	916.07
559.933	906.48
560.385	864.97
560.838	841.67
561.29	811.57
561.742	809.88
562.195	789.27
562.647	804.38
563.099	788.17
563.551	799.07
564.004	804.37
564.456	808.27
564.908	792.87
565.36	770.97
565.812	755.57
566.264	742.08
566.716	749.77
567.168	732.37
567.62	745.17
568.072	718.17
568.524	722.88
568.976	704.77
569.428	690.48
569.88	693.97
570.332	705.38
570.784	712.17
571.235	706.47
571.687	719.77
572.139	717.47
572.59	735.17
573.042	743.27
573.494	731.07
573.945	721.07
574.397	718.77
574.849	709.67
575.3	715.67
575.752	703.97
576.203	697.77
576.655	702.47
577.106	683.87
577.557	690.27
578.009	700.17
578.46	685.07
578.912	677.97
579.363	686.57
579.814	692.17
580.265	689.67
580.717	688.87
581.168	701.07
581.619	704.58
582.07	709.58
582.521	695.57
582.972	689.88
583.423	696.47
583.875	717.07
584.326	724.97
584.777	774.77
585.227	838.27
585.678	926.57
586.129	1018.57
586.58	1094.77
587.031	1168.47
587.482	1324.08
587.933	1514.07
588.384	1325.78
588.834	996.77
589.285	828.57
589.736	805.27
590.186	798.67
590.637	786.67
591.088	767.97
591.538	754.37
591.989	745.57
592.439	741.88
592.89	747.97
593.34	723.87
593.791	737.37
594.241	724.77
594.692	729.98
595.142	725.77
595.593	723.07
596.043	729.17
596.493	728.27
596.943	737.77
597.394	734.77
597.844	738.37
598.294	752.88
598.744	763.97
599.195	798.87
599.645	826.48
600.095	876.07
600.545	935.67
600.995	983.88
601.445	1047.87
601.895	1102.17
602.345	1164.17
602.795	1140.78
603.245	1097.77
603.695	1047.77
604.145	990.98
604.594	937.17
605.044	882.57
605.494	820.67
605.944	769.57
606.393	765.38
606.843	747.17
607.293	741.88
607.743	755.37
608.192	759.87
608.642	773.48
609.091	796.97
609.541	791.17
609.99	795.77
610.44	785.67
610.889	739.27
611.339	721.67
611.788	706.67
612.238	714.97
612.687	732.37
613.136	734.27
613.586	756.47
614.035	751.97
614.484	770.27
614.933	773.77
615.383	758.57
615.832	754.77
616.281	736.97
616.73	701.57
617.179	681.17
617.628	669.07
618.077	654.77
618.526	638.17
618.975	635.47
619.424	637.07
619.873	619.17
620.322	632.47
620.771	622.27
621.22	624.27
621.669	604.88
622.118	598.88
622.567	594.38
623.015	585.47
623.464	582.37
623.913	570.77
624.361	567.77
624.81	559.97
625.259	565.08
625.707	563.08
626.156	563.67
626.604	580.87
627.053	576.07
627.501	581.07
627.95	582.58
628.398	593.67
628.847	577.88
629.295	583.17
629.744	576.07
630.192	583.67
630.64	580.97
631.089	576.37
631.537	581.87
631.985	594.67
632.433	610.77
632.881	623.38
633.33	667.17
633.778	647.37
634.226	579.58
634.674	583.08
635.122	587.17
635.57	604.57
636.018	637.57
636.466	590.87
636.914	569.57
637.362	581.17
637.81	582.07
638.258	588.97
638.705	587.37
639.153	624.77
639.601	621.87
640.049	652.87
640.497	679.88
640.944	702.88
641.392	658.57
641.84	627.57
642.287	601.57
642.735	588.77
643.182	588.58
643.63	586.57
644.078	585.88
644.525	592.07
644.973	605.47
645.42	624.67
645.867	634.98
646.315	648.97
646.762	665.58
647.21	705.58
647.657	717.27
648.104	766.77
648.551	782.37
648.999	863.48
649.446	943.98
649.893	1025.27
650.34	1177.97
650.787	1406.57
651.234	1752.88
651.682	2272.88
652.129	3140.27
652.576	4495.57
653.023	6618.47
653.47	9092.07
653.917	11359.98
654.363	13130.48
654.81	14506.98
655.257	13836.27
655.704	9043.97
656.151	5346.67
656.598	3467.07
657.044	2451.97
657.491	1886.97
657.938	1509.38
658.385	1250.17
658.831	1094.97
659.278	979.67
659.724	866.38
660.171	810.77
660.618	735.17
661.064	695.97
661.511	679.87
661.957	662.97
662.404	647.27
662.85	662.67
663.296	631.57
663.743	570.87
664.189	550.97
664.635	546.67
665.082	538.87
665.528	538.77
665.974	529.47
666.42	530.47
666.867	521.07
667.313	503.27
667.759	493.67
668.205	486.27
668.651	495.97
669.097	497.57
669.543	505.37
669.989	470.47
670.435	456.77
670.881	450.88
671.327	455.07
671.773	474.87
672.219	497.37
672.665	550.07
673.11	602.77
673.556	637.37
674.002	681.98
674.448	670.77
674.893	551.17
675.339	484.57
675.785	452.07
676.23	432.97
676.676	401.27
677.122	386.97
677.567	372.27
678.013	369.17
678.458	370.48
678.904	376.27
679.349	355.77
679.794	351.07
680.24	355.47
680.685	348.47
681.131	355.37
681.576	349.57
682.021	362.87
682.466	357.27
682.912	352.57
683.357	356.57
683.802	383.88
684.247	423.77
684.692	462.77
685.137	495.87
685.583	537.07
686.028	576.87
686.473	522.07
686.918	447.27
687.363	416.07
687.807	397.27
688.252	374.38
688.697	362.97
689.142	340.77
689.587	340.57
690.032	333.67
690.477	347.67
690.921	357.38
691.366	381.07
691.811	407.77
692.255	436.07
692.7	463.37
693.145	512.17
693.589	699.67
694.034	1136.47
694.478	1546.67
694.923	1766.78
695.367	2279.57
695.812	1198.67
696.256	497.97
696.701	376.47
697.145	348.17
697.59	338.07
698.034	321.57
698.478	335.47
698.922	330.27
699.367	328.57
699.811	348.47
700.255	360.67
700.699	387.98
701.143	429.58
701.588	485.88
702.032	522.98
702.476	512.08
702.92	493.58
703.364	493.47
703.808	639.97
704.252	1037.17
704.696	1447.08
705.14	1692.88
705.584	2137.07
706.027	1074.67
706.471	522.67
706.915	399.38
707.359	355.47
707.803	323.27
708.246	307.88
708.69	314.97
709.134	315.27
709.577	310.07
710.021	322.38
710.465	309.97
710.908	303.17
711.352	303.27
711.795	318.27
712.239	355.27
712.682	383.27
713.126	429.97
713.569	463.47
714.012	386.57
714.456	323.77
714.899	295.87
715.342	278.58
715.786	266.17
716.229	264.67
716.672	259.37
717.115	252.17
717.558	245.27
718.002	261.07
718.445	263.48
718.888	284.57
719.331	299.08
719.774	304.27
720.217	307.37
720.66	289.67
721.103	274.27
721.546	255.67
721.989	249.07
722.432	239.27
722.874	249.27
723.317	225.37
723.76	236.57
724.203	270.37
724.645	313.87
725.088	444.77
725.531	575.97
725.974	648.87
726.416	547.37
726.859	306.97
727.301	238.77
727.744	238.77
728.187	230.38
728.629	238.17
729.071	243.98
729.514	256.67
729.956	283.27
730.399	285.57
730.841	291.97
731.283	277.47
731.726	267.47
732.168	266.37
732.61	277.37
733.053	286.08
733.495	322.97
733.937	357.88
734.379	399.57
734.821	430.07
735.263	543.88
735.705	832.27
736.148	1563.38
736.59	2581.47
737.032	3080.18
737.474	2503.77
737.916	808.48
738.357	429.97
738.799	329.07
739.241	310.67
739.683	280.57
740.125	295.87
740.567	298.57
741.008	321.97
741.45	314.37
741.892	318.57
742.334	347.38
742.775	361.97
743.217	344.47
743.658	269.88
744.1	259.08
744.542	268.67
744.983	322.07
745.425	344.17
745.866	348.27
746.307	284.17
746.749	289.48
747.19	326.88
747.632	457.47
748.073	879.38
748.514	1858.08
748.956	2860.17
749.397	3591.47
749.838	2982.27
750.279	2963.78
750.72	1497.37
751.162	544.37
751.603	322.27
752.044	259.17
752.485	213.37
752.926	208.38
753.367	204.57
753.808	196.57
754.249	191.07
754.69	195.17
755.131	178.67
755.572	191.77
756.013	181.87
756.453	185.77
756.894	192.38
757.335	186.38
757.776	206.97
758.216	198.67
758.657	200.17
759.098	210.17
759.538	233.67
759.979	265.27
760.42	381.57
760.86	704.37
761.301	1795.17
761.741	4399.57
762.182	6472.67
762.622	4546.38
763.063	1304.07
763.503	545.07
763.943	347.07
764.384	341.88
764.824	403.97
765.264	438.57
765.705	306.88
766.145	206.57
766.585	195.97
767.025	186.07
767.465	188.77
767.906	239.87
768.346	322.38
768.786	342.88
769.226	263.57
769.666	322.87
770.106	617.77
770.546	1537.07
770.986	2669.27
771.426	2400.27
771.866	786.58
772.306	331.37
772.745	213.67
773.185	179.77
773.625	170.87
774.065	162.27
774.505	194.87
774.944	298.77
775.384	654.47
775.824	1182.47
776.263	1164.47
776.703	492.88
777.142	218.37
777.582	161.87
778.021	131.87
778.461	145.38
778.9	141.37
779.34	132.97
779.779	112.57
780.219	118.88
780.658	111.77
781.097	109.87
781.537	119.37
781.976	110.67
782.415	111.67
782.855	109.07
783.294	107.17
783.733	106.07
784.172	109.27
784.611	105.67
785.05	110.17
785.489	110.27
785.928	116.57
786.367	119.27
786.806	121.57
787.245	132.47
787.684	133.27
788.123	156.97
788.562	136.77
789.001	129.47
789.44	124.77
789.879	120.97
790.317	120.97
790.756	126.37
791.195	129.77
791.634	143.88
792.072	200.67
792.511	359.08
792.95	1000.77
793.388	2125.67
793.827	1954.28
794.265	677.97
794.704	280.27
795.142	186.38
795.581	153.17
796.019	132.27
796.458	124.87
796.896	120.57
797.334	134.57
797.773	150.67
798.211	221.17
798.649	431.47
799.087	1012.38
799.526	1583.97
799.964	2017.78
800.402	2018.38
800.84	757.87
801.278	306.57
801.716	185.27
802.154	157.27
802.592	151.17
803.03	143.77
803.468	136.67
803.906	144.67
804.344	146.97
804.782	143.67
805.22	135.77
805.658	127.47
806.096	148.17
806.533	156.17
806.971	174.77
807.409	216.07
807.847	315.47
808.284	656.88
808.722	1845.08
809.16	3308.57
809.597	3112.68
810.035	5404.88
810.472	5808.48
810.91	2084.57
811.347	790.08
811.785	406.47
812.222	251.67
812.66	191.57
813.097	168.77
813.535	142.37
813.972	134.27
814.409	120.27
814.846	114.38
815.284	108.57
815.721	110.17
816.158	99.38
816.595	123.17
817.032	171.07
817.47	194.67
817.907	176.67
818.344	150.27
818.781	109.97
819.218	93.87
819.655	124.17
820.092	189.97
820.529	220.17
820.966	172.57
821.403	131.77
821.839	110.87
822.276	99.87
822.713	123.37
823.15	133.88
823.587	118.97
824.023	150.17
824.46	291.97
824.897	885.27
825.333	1351.78
825.77	582.27
826.206	230.47
826.643	133.97
827.08	104.57
827.516	86.38
827.953	79.67
828.389	83.57
828.825	68.07
829.262	70.37
829.698	61.37
830.135	63.97
830.571	58.87
831.007	66.27
831.443	68.27
831.88	59.67
832.316	67.47
832.752	66.67
833.188	69.97
833.624	64.77
834.06	65.47
834.497	74.87
834.933	67.97
835.369	81.27
835.805	70.97
836.241	73.27
836.677	78.77
837.112	96.77
837.548	99.27
837.984	134.97
838.42	207.38
838.856	489.07
839.292	1507.28
839.727	2302.68
840.163	1076.57
840.599	922.48
841.034	2021.88
841.47	2137.67
841.906	785.88
842.341	339.07
842.777	231.58
843.212	307.97
843.648	305.27
844.083	153.37
844.519	96.17
844.954	77.97
845.39	60.97
845.825	56.97
846.261	60.17
846.696	53.87
847.131	59.27
847.566	61.47
848.002	60.17
848.437	52.67
848.872	57.47
849.307	62.88
849.742	84.57
850.177	180.38
850.613	551.97
851.048	880.97
851.483	383.07
851.918	161.27
852.353	88.17
852.788	67.57
853.223	56.57
853.657	55.77
854.092	48.57
854.527	37.77
854.962	44.07
855.397	43.07
855.832	54.37
856.266	42.47
856.701	44.47
857.136	31.77
857.57	42.47
858.005	53.07
858.44	64.97
858.874	47.17
859.309	50.88
859.743	42.27
860.178	42.37
860.612	43.07
861.047	46.67
861.481	63.87
861.915	72.17
862.35	55.87
862.784	30.57
863.218	36.07
863.653	38.87
864.087	43.07
864.521	55.67
864.955	70.57
865.39	158.67
865.824	182.88
866.258	121.27
866.692	168.37
867.126	174.97
867.56	107.67
867.994	56.17
868.428	39.97
868.862	45.57
869.296	52.47
869.73	54.67
870.164	53.87
870.598	52.47
871.031	34.27
871.465	30.67
871.899	38.67
872.333	31.47
872.766	23.77
873.2	26.37
873.634	28.37
874.067	28.57
874.501	29.87
874.935	36.77
875.368	36.87
875.802	29.17
876.235	24.27
876.669	28.87
877.102	26.27
877.535	24.07
877.969	23.67
878.402	21.57
878.836	22.57
879.269	22.38
879.702	23.07
880.135	24.57
880.569	25.97
881.002	29.97
881.435	23.07
881.868	17.17
882.301	28.67
882.734	18.47
883.167	25.77
883.601	19.37
884.034	21.17
884.467	12.88
884.899	16.77
885.332	22.07
885.765	17.38
886.198	20.87
886.631	19.47
887.064	16.67
887.497	21.17
887.929	24.77
888.362	12.67
888.795	16.47
889.228	20.67
889.66	26.87
890.093	18.67
890.526	11.17
890.958	15.27
891.391	21.57
891.823	26.47
892.256	16.97
892.688	15.07
893.121	10.77
893.553	19.37
893.985	18.37
894.418	22.77
894.85	17.57
895.282	15.87
895.715	18.27
896.147	15.97
896.579	16.27
897.011	15.38
897.444	19.77
897.876	10.57
898.308	20.87
898.74	16.17
899.172	17.37
899.604	22.57
900.036	18.27
900.468	15.47
900.9	11.77
901.332	21.67
901.764	18.17
902.196	20.47
902.628	17.97
903.06	23.27
903.491	32.27
903.923	22.97
904.355	22.57
904.787	23.37
905.218	24.07
905.65	12.87
906.082	7.77
906.513	14.57
906.945	17.27
907.376	15.17
907.808	22.97
908.239	19.77
908.671	14.87
909.102	24.17
909.534	19.17
909.965	46.07
910.397	92.07
910.828	310.87
911.259	481.38
911.691	217.37
912.122	108.57
912.553	49.67
912.984	42.38
913.415	31.27
913.847	26.57
914.278	20.47
914.709	20.27
915.14	19.07
915.571	16.97
916.002	16.17
916.433	22.57
916.864	18.17
917.295	9.07
917.726	21.07
918.157	10.57
918.587	22.57
919.018	23.77
919.449	24.47
919.88	29.07
920.311	31.67
920.741	49.07
921.172	165.37
921.603	155.37
922.033	72.67
922.464	49.27
922.895	23.17
923.325	20.47
923.756	20.57
924.186	18.97
924.617	28.77
925.047	41.77
925.478	59.17
925.908	42.57
926.338	23.57
926.769	22.07
927.199	23.67
927.629	11.77
928.06	19.37
928.49	15.88
928.92	11.57
929.35	14.38
929.78	12.47
930.21	5.37
930.641	5.97
931.071	9.27
931.501	4.27
931.931	9.97
932.361	15.27
932.791	8.57
933.221	8.97
933.651	7.57
934.08	15.17
934.51	26.57
934.94	7.67
935.37	8.17
935.8	13.77
936.229	8.17
936.659	10.17
937.089	1.27
937.519	8.57
937.948	25.37
938.378	19.57
938.807	2.47
939.237	3.67
939.666	7.27
940.096	-0.03
940.525	2.07
940.955	6.97
941.384	3.67
941.814	-4.43
942.243	2.77
942.672	5.67
943.102	-4.03
943.531	-0.03
943.96	8.47
944.39	1.47
944.819	0.77
945.248	-0.23
945.677	5.27
946.106	6.87
946.535	6.67
946.964	11.37
947.393	7.77
947.822	7.47
948.251	-6.13
948.68	6.97
949.109	9.47
949.538	10.97
949.967	-0.23
950.396	2.87
950.825	2.27
951.254	-0.73
951.682	-2.93
952.111	-1.13
952.54	8.07
952.969	-4.03
953.397	-9.13
953.826	-3.03
954.254	-1.83
954.683	-1.13
955.112	-1.63
955.54	4.97
955.969	0.67
956.397	1.77
956.826	-6.93
957.254	3.38
957.682	-6.63
958.111	2.17
958.539	-0.93
958.967	-1.63
959.396	0.27
959.824	2.47
960.252	4.77
960.68	-10.73
961.109	-1.23
961.537	-3.33
961.965	-0.73
962.393	-0.33
962.821	1.38
963.249	1.07
963.677	1.27
964.105	9.27
964.533	39.97
964.961	40.87
965.389	20.17
965.817	13.87
966.245	1.47
966.672	0.67
967.1	1.57
967.528	3.17
967.956	3.38
968.383	3.47
968.811	-2.43
969.239	-9.93
969.666	0.87
970.094	-3.53
970.522	2.27
970.949	5.47
971.377	-5.43
971.804	-4.43
972.232	-3.43
972.659	-1.13
973.087	3.47
973.514	5.67
973.941	-8.93
974.369	0.37
974.796	-1.43
975.223	2.97
975.651	-0.83
976.078	3.57
976.505	1.67
976.932	2.17
977.359	18.47
977.786	16.27
978.214	-1.33
978.641	-5.63
979.068	-2.83
979.495	-6.83
979.922	0.17
980.349	-1.63
980.776	-3.73
981.202	-0.03
981.629	4.97
982.056	2.47
982.483	-3.63
982.91	-2.13
983.337	-5.13
983.763	4.47
984.19	1.37
984.617	-5.53
985.043	-4.23
985.47	-0.13
985.897	-4.23
986.323	-5.53
986.75	-0.73
987.176	1.17
987.603	2.97
988.029	1.77
988.456	-2.93
988.882	5.57
989.308	-7.83
989.735	-0.43
990.161	1.27
990.587	-2.13
991.014	1.37
991.44	4.87
991.866	-0.62
992.292	-0.73
992.719	-1.73
993.145	6.17
993.571	-6.33
993.997	-6.93
994.423	0.07
994.849	-2.83
995.275	3.67
995.701	1.07
996.127	-3.83
996.553	9.07
996.979	-2.13
997.405	4.27
997.83	-6.03
998.256	-1.63
998.682	-5.93
999.108	-8.83
999.534	0.97
999.959	-2.23
1000.385	-4.93
1000.811	-2.33
1001.236	-4.53
1001.662	-6.23
1002.087	-10.73
1002.513	-1.43
1002.938	1.88
1003.364	-5.03
1003.789	-4.83
1004.215	4.67
1004.64	-4.93
1005.066	1.97
1005.491	-0.83
1005.916	-1.33
1006.342	-3.73
1006.767	-3.03
1007.192	9.77
1007.617	-10.83
1008.042	-5.23
1008.468	-5.53
1008.893	-6.23
1009.318	-2.83
1009.743	2.67
1010.168	2.67
1010.593	-2.53
1011.018	-7.83
1011.443	-3.83
1011.868	2.67
1012.293	-9.23
1012.718	0.07
1013.143	1.17
1013.567	2.27
1013.992	-3.83
1014.417	-8.73
1014.842	5.87
1015.267	3.17
1015.691	-1.63
1016.116	2.97
1016.541	-1.83
1016.965	3.37
1017.39	6.67
1017.814	-0.93
1018.239	2.87
1018.663	-2.03
1019.088	-4.23
1019.512	-2.43
1019.937	-2.13
1020.361	-2.23
1020.785	-5.93
1021.21	-3.13
1021.634	-5.33
1022.058	-3.83
1022.483	0.37
1022.907	-3.73
1023.331	-2.53
1023.755	-2.73
1024.179	-0.93
1024.604	-3.83
1025.028	-5.73
1025.452	-5.13
1025.876	-0.13
1026.3	-3.23
1026.724	-12.93
1027.148	-11.43
1027.572	-10.63
1027.996	-2.03
1028.42	-3.83
1028.843	0.37
1029.267	-6.53
1029.691	0.47
1030.115	-10.33
1030.539	-2.33
1030.962	-8.53
1031.386	-9.93
1031.81	-1.73
1032.233	-0.13
1032.657	-0.73
1033.08	-0.93
1033.504	-1.43
1033.927	-6.83
1034.351	-0.33
1034.774	3.37
1035.198	-4.33
1035.621	-6.03
1036.045	-8.03
1036.468	-0.63
1036.891	-12.93
1037.315	-8.43
1037.738	-4.23
1038.161	-1.13
1038.584	-6.83
1039.008	-7.83
1039.431	-4.03
1039.854	0.07
1040.277	-11.53
1040.7	-12.43
1041.123	2.97
1041.546	-4.62
1041.969	-1.03
1042.392	-8.23
1042.815	-2.83
1043.238	0.67
1043.661	-0.43
1044.084	-8.83
1044.507	-2.33
1044.93	-3.13
1045.352	-3.43
1045.775	-0.63
1046.198	-0.03
1046.621	-4.62
1047.043	4.27
1047.466	4.17
1047.889	-6.73
1048.311	-6.83
1048.734	-4.03
1049.156	0.87
1049.579	1.07
1050.001	-7.43
1050.424	3.27
1050.846	-4.63
1051.269	-3.73
1051.691	-3.23
1052.113	-9.13
1052.536	-2.33
1052.958	-5.43
1053.38	1.37
1053.802	-10.13
1054.225	5.87
1054.647	-8.03
1055.069	-7.53
1055.491	9.07
1055.913	-6.03
1056.335	2.77
1056.757	-7.53
1057.179	-11.23
1057.601	-4.43
1058.023	-0.12
1058.445	-4.03
1058.867	0.87
1059.289	2.17
1059.711	-3.62
1060.133	3.77
1060.555	-1.13
1060.976	-8.33
1061.398	-1.63
1061.82	-7.43
1062.241	-2.43
1062.663	-6.53
1063.085	-3.23
1063.506	2.88
1063.928	-3.43
1064.35	-3.13
1064.771	-8.43
1065.193	-3.83
1065.614	-7.23
1066.035	-3.62
1066.457	-5.13
1066.878	1.07
1067.3	-5.93
1067.721	2.27
1068.142	-1.73
1068.564	2.07
1068.985	-2.83
1069.406	-5.03
1069.827	-7.13
1070.248	-4.93
1070.67	-6.33
1071.091	-7.62
1071.512	-0.83
1071.933	-7.43
1072.354	-1.23
1072.775	-5.53
1073.196	-11.43
1073.617	0.87
1074.038	-6.33
1074.459	-1.83
1074.88	-8.83
1075.3	-1.13
1075.721	-6.43
1076.142	0.67
1076.563	-4.73
1076.983	-10.33
1077.404	-6.43
1077.825	-4.12
1078.246	-1.73
1078.666	-8.83
1079.087	-8.53
1079.507	-7.63
1079.928	3.57
1080.348	1.47
1080.769	-8.53
1081.189	3.38
1081.61	-8.83
1082.03	-2.23
1082.451	-8.93
1082.871	2.77
1083.291	-13.03
1083.711	-9.33
1084.132	-5.13
1084.552	-4.53
1084.972	-7.43
1085.392	-15.13
1085.813	-5.83
1086.233	-5.23
1086.653	1.47
1087.073	-2.73
1087.493	-9.23
1087.913	-3.03
1088.333	-6.73
1088.753	-3.13
1089.173	3.87
1089.593	-2.43
1090.013	-1.13
1090.433	1.77
1090.852	-7.83
1091.272	-2.53
1091.692	-2.73
1092.112	-5.33
1092.531	-10.33
1092.951	-7.43
1093.371	-2.43
1093.79	2.47
1094.21	-2.23
1094.63	-4.23
1095.049	-0.83
1095.469	-1.03
1095.888	1.37
1096.308	-3.43
1096.727	3.17
1097.146	-11.23
1097.566	-4.73
1097.985	-2.83
1098.405	-3.33
1098.824	-4.73
1099.243	-2.63
1099.662	-2.73
1100.082	-8.62
1100.501	-3.73
1100.92	-7.33
1101.339	-2.93
1101.758	-2.83
