Data from 20171114-ORNL-Ar_H_NY_Subt18_08-05-49-342.txt Node
Date: Tue Nov 14 08:05:49 EST 2017
User: Ender
Spectrometer: HR+D1039
Trigger mode: 0
Integration Time (sec): 2.730000E-2
Scans to average: 10
Electric dark correction enabled: true
Nonlinearity correction enabled: false
Boxcar width: 0
XAxis mode: Wavelengths
Number of Pixels in Spectrum: 2048
>>>>>Begin Spectral Data<<<<<
187.836	-1.61
188.309	-1.61
188.782	-1.61
189.255	-4.41
189.728	-1.01
190.201	-0.51
190.674	2.29
191.147	3.59
191.619	-5.91
192.092	2.09
192.565	6.59
193.038	1.99
193.511	-0.81
193.984	1.69
194.456	-0.41
194.929	1.99
195.402	-5.71
195.874	0.09
196.347	4.99
196.82	-2.81
197.292	4.69
197.765	-5.41
198.237	-8.81
198.71	4.39
199.182	0.29
199.655	3.79
200.127	3.59
200.6	-0.71
201.072	-1.91
201.544	-3.11
202.017	0.29
202.489	4.29
202.961	0.59
203.433	2.49
203.906	-2.61
204.378	-3.51
204.85	-1.61
205.322	-4.01
205.794	4.19
206.266	1.29
206.739	-0.91
207.211	2.59
207.683	-10.31
208.155	0.79
208.627	-3.01
209.099	1.09
209.57	-10.61
210.042	-1.01
210.514	-5.31
210.986	-2.11
211.458	-4.41
211.93	-3.81
212.402	0.59
212.873	1.59
213.345	-6.51
213.817	-5.71
214.288	-2.01
214.76	-8.41
215.232	-4.61
215.703	-0.81
216.175	-4.51
216.646	-3.71
217.118	-3.51
217.589	3.39
218.061	-2.41
218.532	-1.61
219.004	1.29
219.475	-3.71
219.946	-4.31
220.418	-1.41
220.889	4.89
221.36	-0.21
221.832	-2.81
222.303	-6.01
222.774	-0.01
223.245	-8.41
223.717	-5.91
224.188	-1.61
224.659	-8.81
225.13	-5.91
225.601	-5.51
226.072	2.19
226.543	-3.91
227.014	-1.41
227.485	3.59
227.956	-1.91
228.427	0.69
228.898	7.09
229.369	2.99
229.839	-6.31
230.31	2.39
230.781	2.39
231.252	-1.31
231.722	-0.91
232.193	-2.11
232.664	0.59
233.135	-2.61
233.605	-0.61
234.076	-10.11
234.546	0.39
235.017	5.39
235.487	2.99
235.958	-0.71
236.428	-1.91
236.899	0.69
237.369	13.49
237.84	3.99
238.31	9.89
238.78	5.09
239.251	2.59
239.721	6.29
240.191	-1.01
240.662	2.19
241.132	-1.11
241.602	0.49
242.072	5.59
242.542	11.99
243.013	3.29
243.483	6.99
243.953	3.79
244.423	3.29
244.893	-1.61
245.363	3.59
245.833	3.39
246.303	3.49
246.773	10.79
247.243	-0.21
247.712	2.69
248.182	11.19
248.652	11.79
249.122	0.09
249.592	12.09
250.061	20.59
250.531	36.49
251.001	19.49
251.471	17.79
251.94	20.39
252.41	3.19
252.879	5.49
253.349	9.79
253.818	8.49
254.288	5.59
254.757	5.79
255.227	6.89
255.696	4.49
256.166	7.69
256.635	6.09
257.105	6.79
257.574	10.29
258.043	17.69
258.513	17.19
258.982	22.49
259.451	7.49
259.92	20.49
260.389	16.99
260.859	17.79
261.328	13.09
261.797	14.89
262.266	6.99
262.735	10.19
263.204	10.89
263.673	5.99
264.142	7.49
264.611	2.89
265.08	4.69
265.549	3.79
266.018	11.29
266.487	1.69
266.955	2.39
267.424	3.79
267.893	10.99
268.362	4.99
268.83	4.59
269.299	13.09
269.768	12.49
270.236	8.09
270.705	6.79
271.174	9.69
271.642	13.19
272.111	14.19
272.579	20.59
273.048	25.79
273.516	29.89
273.985	26.29
274.453	29.59
274.922	16.39
275.39	14.29
275.858	8.69
276.327	16.59
276.795	20.49
277.263	11.89
277.731	37.59
278.2	57.69
278.668	62.99
279.136	47.69
279.604	21.69
280.072	17.79
280.54	15.79
281.008	8.99
281.477	14.29
281.945	13.29
282.413	15.59
282.881	13.19
283.348	11.09
283.816	19.59
284.284	15.79
284.752	25.39
285.22	14.59
285.688	15.79
286.156	17.89
286.623	44.89
287.091	51.19
287.559	23.19
288.026	21.69
288.494	18.99
288.962	10.99
289.429	9.79
289.897	27.29
290.364	23.99
290.832	16.39
291.3	16.39
291.767	23.39
292.234	20.39
292.702	11.99
293.169	19.49
293.637	22.99
294.104	23.69
294.571	12.19
295.039	18.99
295.506	20.99
295.973	18.49
296.44	12.89
296.908	22.79
297.375	19.79
297.842	17.69
298.309	20.49
298.776	12.59
299.243	22.39
299.71	16.19
300.177	24.59
300.644	28.59
301.111	24.09
301.578	29.89
302.045	22.59
302.512	22.79
302.979	27.79
303.446	31.39
303.913	16.09
304.379	20.19
304.846	29.29
305.313	27.49
305.78	17.39
306.246	28.79
306.713	29.19
307.18	24.79
307.646	32.29
308.113	32.09
308.579	22.79
309.046	26.59
309.512	30.99
309.979	19.19
310.445	30.29
310.912	32.19
311.378	30.99
311.845	33.89
312.311	35.09
312.777	37.49
313.244	32.69
313.71	36.39
314.176	30.39
314.642	38.59
315.109	33.69
315.575	38.69
316.041	36.89
316.507	35.59
316.973	38.19
317.439	34.89
317.905	45.39
318.371	36.99
318.837	39.09
319.303	40.19
319.769	34.99
320.235	42.09
320.701	38.79
321.167	41.19
321.633	35.69
322.099	38.29
322.564	44.89
323.03	45.19
323.496	43.49
323.962	49.59
324.427	39.89
324.893	44.89
325.359	41.49
325.824	38.19
326.29	32.69
326.755	42.59
327.221	43.69
327.686	45.19
328.152	52.39
328.617	45.89
329.083	50.19
329.548	51.39
330.014	52.59
330.479	43.99
330.944	46.79
331.41	43.59
331.875	50.79
332.34	46.29
332.805	41.49
333.271	47.39
333.736	46.59
334.201	58.89
334.666	55.19
335.131	59.89
335.596	58.19
336.061	50.29
336.526	45.99
336.991	50.09
337.456	56.19
337.921	47.39
338.386	43.99
338.851	46.79
339.316	50.19
339.781	51.09
340.246	54.19
340.711	52.59
341.175	51.49
341.64	48.39
342.105	52.89
342.569	61.29
343.034	63.89
343.499	62.09
343.963	53.69
344.428	73.19
344.893	61.49
345.357	61.99
345.822	60.89
346.286	72.79
346.751	76.69
347.215	67.19
347.679	79.59
348.144	103.49
348.608	81.29
349.073	70.79
349.537	75.59
350.001	84.49
350.465	92.59
350.93	83.89
351.394	80.19
351.858	70.39
352.322	88.19
352.786	91.29
353.25	100.49
353.715	120.59
354.179	106.29
354.643	131.59
355.107	129.49
355.571	108.59
356.035	106.39
356.498	117.99
356.962	122.09
357.426	136.89
357.89	120.59
358.354	88.29
358.818	94.19
359.281	87.19
359.745	86.99
360.209	75.89
360.673	77.69
361.136	89.59
361.6	90.39
362.064	81.79
362.527	84.39
362.991	94.69
363.454	85.09
363.918	75.89
364.381	75.09
364.845	85.69
365.308	85.09
365.772	93.79
366.235	85.59
366.698	84.49
367.162	87.29
367.625	85.49
368.088	87.89
368.552	92.29
369.015	94.19
369.478	105.79
369.941	106.39
370.404	95.69
370.867	103.59
371.331	106.69
371.794	121.19
372.257	107.39
372.72	116.69
373.183	113.79
373.646	106.19
374.109	101.69
374.572	110.29
375.035	108.39
375.497	114.99
375.96	106.19
376.423	103.09
376.886	118.89
377.349	114.19
377.811	107.69
378.274	103.09
378.737	105.69
379.199	112.39
379.662	113.09
380.125	120.69
380.587	120.09
381.05	122.99
381.512	132.49
381.975	134.39
382.437	132.49
382.9	123.99
383.362	134.69
383.825	146.09
384.287	147.59
384.75	135.79
385.212	143.99
385.674	140.39
386.136	134.99
386.599	129.59
387.061	128.49
387.523	129.29
387.985	133.99
388.447	145.79
388.91	138.59
389.372	154.79
389.834	150.89
390.296	143.19
390.758	156.79
391.22	170.79
391.682	208.99
392.144	302.79
392.606	228.99
393.068	169.79
393.529	174.19
393.991	147.19
394.453	150.69
394.915	156.89
395.377	188.99
395.838	214.79
396.3	160.09
396.762	145.29
397.224	141.09
397.685	129.99
398.147	130.79
398.608	130.39
399.07	136.89
399.531	140.29
399.993	147.09
400.454	150.69
400.916	148.69
401.377	145.09
401.839	151.49
402.3	156.09
402.762	170.99
403.223	184.79
403.684	174.39
404.145	162.79
404.607	166.49
405.068	173.19
405.529	170.49
405.99	192.29
406.451	180.49
406.913	174.39
407.374	165.49
407.835	162.49
408.296	171.49
408.757	175.29
409.218	184.29
409.679	176.59
410.14	175.99
410.601	181.79
411.062	183.99
411.522	189.99
411.983	186.19
412.444	180.39
412.905	179.49
413.366	181.89
413.826	197.19
414.287	218.09
414.748	259.59
415.208	259.09
415.669	216.79
416.13	207.69
416.59	204.29
417.051	213.69
417.511	226.09
417.972	234.19
418.432	246.69
418.893	287.19
419.353	255.19
419.814	199.69
420.274	182.19
420.734	181.19
421.195	201.69
421.655	202.79
422.115	194.19
422.576	191.29
423.036	198.69
423.496	203.69
423.956	216.99
424.416	228.89
424.876	265.49
425.336	266.09
425.797	265.79
426.257	264.19
426.717	240.69
427.177	226.99
427.637	228.79
428.097	239.79
428.556	248.39
429.016	269.49
429.476	267.09
429.936	278.59
430.396	286.09
430.856	292.49
431.315	313.39
431.775	358.19
432.235	381.89
432.694	351.19
433.154	363.19
433.614	389.79
434.073	341.19
434.533	280.99
434.993	272.39
435.452	282.59
435.912	300.19
436.371	296.29
436.83	287.89
437.29	268.79
437.749	248.89
438.209	248.29
438.668	273.49
439.127	290.19
439.587	272.49
440.046	254.59
440.505	262.79
440.964	280.89
441.424	324.69
441.883	318.49
442.342	269.29
442.801	229.39
443.26	224.29
443.719	228.29
444.178	219.79
444.637	217.69
445.096	217.69
445.555	226.59
446.014	223.89
446.473	228.39
446.932	229.09
447.391	227.89
447.849	228.99
448.308	215.09
448.767	216.69
449.226	239.69
449.685	247.99
450.143	253.19
450.602	232.49
451.061	235.49
451.519	236.29
451.978	237.79
452.436	240.19
452.895	239.69
453.353	266.09
453.812	245.39
454.27	247.89
454.729	243.29
455.187	248.19
455.646	247.09
456.104	246.29
456.562	262.69
457.021	269.79
457.479	261.29
457.937	273.59
458.395	269.09
458.854	251.69
459.312	263.19
459.77	271.59
460.228	254.39
460.686	247.59
461.144	250.59
461.602	254.69
462.06	246.69
462.518	255.29
462.976	257.59
463.434	264.79
463.892	271.09
464.35	278.89
464.808	293.49
465.266	270.09
465.724	267.39
466.181	269.59
466.639	267.09
467.097	297.49
467.555	307.99
468.012	307.89
468.47	316.39
468.928	329.39
469.385	351.09
469.843	346.59
470.3	354.49
470.758	364.49
471.215	388.69
471.673	408.79
472.13	406.99
472.588	420.99
473.045	380.69
473.503	375.19
473.96	395.69
474.417	406.29
474.875	434.29
475.332	477.59
475.789	469.09
476.246	471.49
476.704	496.49
477.161	516.89
477.618	527.19
478.075	560.09
478.532	631.69
478.989	706.89
479.446	822.39
479.903	781.19
480.36	821.19
480.817	872.49
481.274	987.59
481.731	1090.59
482.188	1184.69
482.645	1304.19
483.102	1426.39
483.558	1556.59
484.015	1620.59
484.472	1592.69
484.929	1548.09
485.385	1494.19
485.842	1443.29
486.299	1385.89
486.755	1311.79
487.212	1105.49
487.668	942.39
488.125	866.19
488.582	797.09
489.038	749.89
489.494	719.09
489.951	696.49
490.407	676.09
490.864	659.69
491.32	658.29
491.776	655.49
492.233	650.69
492.689	621.49
493.145	616.39
493.602	608.79
494.058	624.59
494.514	624.69
494.97	651.79
495.426	661.39
495.882	630.09
496.338	629.09
496.794	640.99
497.251	625.99
497.707	643.49
498.163	631.29
498.618	651.79
499.074	658.29
499.53	686.89
499.986	691.69
500.442	659.19
500.898	645.29
501.354	632.29
501.809	650.39
502.265	653.89
502.721	663.89
503.177	678.99
503.632	670.89
504.088	688.19
504.543	725.09
504.999	720.79
505.455	663.79
505.91	644.39
506.366	638.69
506.821	637.39
507.277	631.59
507.732	628.19
508.187	635.99
508.643	646.59
509.098	643.69
509.553	662.79
510.009	670.89
510.464	672.49
510.919	698.69
511.375	704.89
511.83	716.99
512.285	743.89
512.74	779.49
513.195	788.69
513.65	791.79
514.105	777.19
514.56	776.19
515.015	803.39
515.47	826.99
515.925	809.49
516.38	797.69
516.835	785.99
517.29	797.89
517.745	792.49
518.2	770.99
518.655	765.09
519.109	758.19
519.564	748.69
520.019	741.09
520.474	738.09
520.928	736.99
521.383	735.39
521.838	716.49
522.292	718.29
522.747	719.29
523.201	705.49
523.656	698.59
524.11	694.59
524.565	704.99
525.019	694.99
525.474	716.29
525.928	708.39
526.382	699.09
526.837	703.39
527.291	715.19
527.745	709.79
528.2	706.29
528.654	703.99
529.108	696.89
529.562	691.79
530.016	701.09
530.47	697.89
530.925	699.89
531.379	705.29
531.833	716.59
532.287	706.19
532.741	722.19
533.195	714.89
533.649	718.29
534.103	729.19
534.556	714.89
535.01	721.19
535.464	709.79
535.918	737.99
536.372	731.29
536.826	721.29
537.279	712.49
537.733	722.69
538.187	723.09
538.64	721.49
539.094	732.89
539.548	748.89
540.001	731.69
540.455	732.89
540.908	735.79
541.362	750.69
541.815	756.79
542.269	763.09
542.722	769.29
543.175	782.29
543.629	776.39
544.082	795.39
544.536	802.79
544.989	793.99
545.442	810.39
545.895	794.39
546.349	796.09
546.802	803.59
547.255	810.79
547.708	811.19
548.161	827.09
548.614	836.79
549.067	836.09
549.52	839.09
549.973	819.79
550.426	818.39
550.879	801.99
551.332	804.99
551.785	817.89
552.238	822.19
552.691	830.09
553.144	840.19
553.596	851.69
554.049	867.09
554.502	908.09
554.955	923.49
555.407	925.89
555.86	912.69
556.313	906.89
556.765	893.89
557.218	893.19
557.67	901.39
558.123	894.39
558.576	889.69
559.028	889.89
559.48	894.89
559.933	880.59
560.385	853.29
560.838	814.89
561.29	790.59
561.742	787.99
562.195	767.69
562.647	772.59
563.099	778.09
563.551	778.79
564.004	793.99
564.456	787.99
564.908	783.49
565.36	752.79
565.812	732.29
566.264	729.59
566.716	728.19
567.168	717.69
567.62	725.69
568.072	703.99
568.524	702.99
568.976	693.29
569.428	678.49
569.88	682.19
570.332	690.89
570.784	683.29
571.235	690.59
571.687	709.49
572.139	702.49
572.59	720.79
573.042	716.29
573.494	711.69
573.945	707.99
574.397	694.89
574.849	702.39
575.3	695.79
575.752	697.89
576.203	685.59
576.655	689.29
577.106	684.59
577.557	674.29
578.009	670.29
578.46	667.39
578.912	671.89
579.363	668.89
579.814	671.69
580.265	660.39
580.717	673.09
581.168	679.99
581.619	675.39
582.07	694.49
582.521	681.49
582.972	677.69
583.423	680.99
583.875	678.69
584.326	711.59
584.777	752.39
585.227	821.69
585.678	904.29
586.129	986.79
586.58	1050.39
587.031	1140.69
587.482	1296.49
587.933	1460.79
588.384	1274.49
588.834	964.99
589.285	811.29
589.736	786.59
590.186	768.99
590.637	768.79
591.088	750.39
591.538	741.29
591.989	738.39
592.439	730.19
592.89	718.99
593.34	716.19
593.791	706.59
594.241	710.59
594.692	711.29
595.142	704.39
595.593	689.89
596.043	714.99
596.493	717.09
596.943	716.89
597.394	723.79
597.844	711.49
598.294	727.09
598.744	753.79
599.195	772.09
599.645	819.39
600.095	852.89
600.545	912.69
600.995	962.79
601.445	1014.99
601.895	1085.09
602.345	1129.89
602.795	1116.79
603.245	1074.59
603.695	1016.29
604.145	965.49
604.594	899.19
605.044	869.09
605.494	800.39
605.944	757.49
606.393	740.59
606.843	731.99
607.293	726.59
607.743	726.89
608.192	746.69
608.642	752.19
609.091	756.29
609.541	765.89
609.99	766.79
610.44	760.49
610.889	725.89
611.339	705.19
611.788	684.79
612.238	698.59
612.687	723.79
613.136	713.19
613.586	735.39
614.035	732.79
614.484	758.69
614.933	752.89
615.383	744.89
615.832	735.89
616.281	715.89
616.73	688.19
617.179	664.39
617.628	643.39
618.077	624.19
618.526	622.19
618.975	619.29
619.424	615.99
619.873	615.89
620.322	619.39
620.771	602.09
621.22	600.59
621.669	595.29
622.118	594.29
622.567	579.19
623.015	575.29
623.464	561.99
623.913	554.99
624.361	543.49
624.81	552.19
625.259	553.09
625.707	562.29
626.156	555.49
626.604	563.59
627.053	573.79
627.501	560.29
627.95	570.39
628.398	579.99
628.847	572.89
629.295	565.19
629.744	567.29
630.192	561.49
630.64	558.69
631.089	555.49
631.537	572.39
631.985	585.59
632.433	590.69
632.881	606.19
633.33	648.09
633.778	622.79
634.226	555.79
634.674	568.79
635.122	571.19
635.57	598.19
636.018	614.09
636.466	568.19
636.914	554.79
637.362	561.79
637.81	575.39
638.258	578.79
638.705	565.69
639.153	606.89
639.601	617.39
640.049	634.19
640.497	669.49
640.944	690.39
641.392	639.09
641.84	597.99
642.287	585.49
642.735	574.29
643.182	567.89
643.63	560.89
644.078	572.09
644.525	588.39
644.973	594.69
645.42	595.59
645.867	612.89
646.315	627.69
646.762	662.09
647.21	684.29
647.657	702.09
648.104	748.39
648.551	761.49
648.999	838.99
649.446	904.09
649.893	1000.09
650.34	1153.29
650.787	1357.19
651.234	1695.89
651.682	2197.89
652.129	3022.79
652.576	4357.09
653.023	6428.09
653.47	8815.29
653.917	11065.29
654.363	12819.29
654.81	14195.39
655.257	13522.99
655.704	8889.89
656.151	5230.09
656.598	3398.79
657.044	2401.49
657.491	1849.49
657.938	1473.99
658.385	1228.89
658.831	1066.89
659.278	952.69
659.724	849.69
660.171	773.69
660.618	720.89
661.064	676.19
661.511	652.69
661.957	647.29
662.404	636.59
662.85	651.49
663.296	614.99
663.743	559.79
664.189	532.99
664.635	531.99
665.082	515.99
665.528	527.99
665.974	516.99
666.42	501.69
666.867	497.09
667.313	488.29
667.759	467.89
668.205	479.09
668.651	473.99
669.097	484.89
669.543	496.19
669.989	457.59
670.435	441.79
670.881	444.09
671.327	448.99
671.773	457.89
672.219	475.19
672.665	532.09
673.11	567.09
673.556	605.49
674.002	652.89
674.448	647.39
674.893	540.29
675.339	468.19
675.785	433.49
676.23	409.79
676.676	383.79
677.122	373.99
677.567	369.49
678.013	365.29
678.458	354.29
678.904	352.69
679.349	342.99
679.794	352.79
680.24	345.89
680.685	345.69
681.131	344.49
681.576	349.69
682.021	347.29
682.466	343.99
682.912	333.09
683.357	336.79
683.802	374.69
684.247	400.99
684.692	442.89
685.137	484.19
685.583	531.79
686.028	549.09
686.473	499.29
686.918	436.29
687.363	408.79
687.807	389.69
688.252	361.49
688.697	343.39
689.142	325.99
689.587	332.89
690.032	319.39
690.477	335.49
690.921	352.19
691.366	380.59
691.811	396.89
692.255	428.19
692.7	459.99
693.145	486.49
693.589	675.69
694.034	1080.19
694.478	1491.09
694.923	1698.19
695.367	2218.99
695.812	1163.89
696.256	487.59
696.701	368.89
697.145	338.69
697.59	323.69
698.034	313.99
698.478	324.19
698.922	325.49
699.367	324.29
699.811	343.69
700.255	347.99
700.699	377.09
701.143	412.59
701.588	461.49
702.032	501.89
702.476	497.69
702.92	480.89
703.364	476.79
703.808	606.19
704.252	985.49
704.696	1397.29
705.14	1630.49
705.584	2087.19
706.027	1031.69
706.471	505.09
706.915	396.09
707.359	341.29
707.803	319.49
708.246	304.19
708.69	300.99
709.134	308.69
709.577	301.39
710.021	316.79
710.465	302.79
710.908	294.09
711.352	289.79
711.795	302.59
712.239	335.59
712.682	366.29
713.126	406.19
713.569	451.79
714.012	364.49
714.456	318.59
714.899	287.29
715.342	274.79
715.786	257.99
716.229	254.19
716.672	248.69
717.115	242.39
717.558	251.79
718.002	241.39
718.445	262.99
718.888	277.69
719.331	289.09
719.774	303.29
720.217	301.49
720.66	282.59
721.103	258.89
721.546	247.59
721.989	246.99
722.432	233.49
722.874	232.89
723.317	222.59
723.76	228.29
724.203	253.29
724.645	306.29
725.088	431.79
725.531	548.19
725.974	622.99
726.416	541.09
726.859	305.39
727.301	245.99
727.744	234.79
728.187	229.59
728.629	229.79
729.071	229.49
729.514	254.69
729.956	273.89
730.399	274.99
730.841	283.79
731.283	267.39
731.726	258.19
732.168	252.09
732.61	257.09
733.053	283.89
733.495	304.29
733.937	341.69
734.379	384.69
734.821	420.09
735.263	517.29
735.705	798.29
736.148	1506.39
736.59	2497.89
737.032	2984.59
737.474	2431.19
737.916	787.99
738.357	413.09
738.799	319.09
739.241	292.89
739.683	274.69
740.125	283.79
740.567	289.29
741.008	299.89
741.45	308.59
741.892	307.59
742.334	345.49
742.775	354.39
743.217	334.99
743.658	268.79
744.1	251.79
744.542	253.69
744.983	290.99
745.425	331.99
745.866	339.59
746.307	278.19
746.749	272.89
747.19	310.69
747.632	431.69
748.073	843.19
748.514	1773.29
748.956	2746.59
749.397	3438.89
749.838	2874.99
750.279	2891.19
750.72	1460.39
751.162	534.59
751.603	310.49
752.044	243.59
752.485	212.89
752.926	204.29
753.367	199.79
753.808	195.29
754.249	185.09
754.69	180.89
755.131	178.89
755.572	181.49
756.013	174.79
756.453	177.89
756.894	186.49
757.335	182.79
757.776	191.99
758.216	189.99
758.657	196.99
759.098	191.49
759.538	217.09
759.979	255.69
760.42	359.69
760.86	673.39
761.301	1724.39
761.741	4224.99
762.182	6270.79
762.622	4410.79
763.063	1273.29
763.503	525.49
763.943	339.49
764.384	325.69
764.824	385.79
765.264	407.19
765.705	291.19
766.145	204.29
766.585	183.59
767.025	177.89
767.465	173.19
767.906	227.59
768.346	300.99
768.786	321.79
769.226	255.19
769.666	301.59
770.106	588.49
770.546	1478.59
770.986	2563.79
771.426	2311.69
771.866	772.79
772.306	314.29
772.745	204.59
773.185	170.29
773.625	171.29
774.065	161.49
774.505	191.29
774.944	297.29
775.384	633.29
775.824	1160.99
776.263	1141.69
776.703	479.49
777.142	215.49
777.582	155.49
778.021	136.29
778.461	137.89
778.9	138.29
779.34	126.79
779.779	115.09
780.219	109.19
780.658	107.69
781.097	111.79
781.537	111.19
781.976	107.09
782.415	106.29
782.855	103.79
783.294	100.59
783.733	105.29
784.172	109.39
784.611	104.59
785.05	104.89
785.489	115.09
785.928	110.59
786.367	117.19
786.806	113.29
787.245	126.49
787.684	129.89
788.123	147.09
788.562	132.69
789.001	127.89
789.44	118.39
789.879	118.39
790.317	117.99
790.756	126.49
791.195	127.49
791.634	148.79
792.072	197.09
792.511	351.29
792.95	951.99
793.388	2061.59
793.827	1900.99
794.265	663.19
794.704	276.19
795.142	172.39
795.581	147.59
796.019	126.49
796.458	121.59
796.896	118.59
797.334	134.39
797.773	153.09
798.211	205.59
798.649	416.79
799.087	983.09
799.526	1532.89
799.964	1932.09
800.402	1963.49
800.84	739.99
801.278	297.89
801.716	179.69
802.154	148.69
802.592	138.89
803.03	136.39
803.468	131.49
803.906	141.19
804.344	145.39
804.782	136.59
805.22	127.69
805.658	125.99
806.096	144.69
806.533	152.69
806.971	168.89
807.409	203.59
807.847	306.09
808.284	630.29
808.722	1760.89
809.16	3190.39
809.597	2976.39
810.035	5210.69
810.472	5638.19
810.91	2030.39
811.347	773.59
811.785	398.99
812.222	245.39
812.66	193.49
813.097	163.59
813.535	141.99
813.972	128.09
814.409	121.69
814.846	112.09
815.284	111.39
815.721	103.19
816.158	105.09
816.595	120.69
817.032	166.19
817.47	191.89
817.907	169.29
818.344	146.09
818.781	115.59
819.218	104.19
819.655	123.89
820.092	177.19
820.529	206.39
820.966	178.79
821.403	127.89
821.839	102.59
822.276	101.19
822.713	123.59
823.15	130.09
823.587	109.99
824.023	143.29
824.46	284.19
824.897	849.69
825.333	1315.39
825.77	570.39
826.206	224.39
826.643	132.09
827.08	103.09
827.516	83.89
827.953	76.49
828.389	84.99
828.825	66.59
829.262	66.19
829.698	62.49
830.135	59.39
830.571	59.79
831.007	65.59
831.443	57.39
831.88	57.39
832.316	62.99
832.752	73.09
833.188	61.79
833.624	66.59
834.06	67.39
834.497	63.69
834.933	69.59
835.369	74.49
835.805	66.59
836.241	77.69
836.677	72.59
837.112	94.89
837.548	104.79
837.984	127.79
838.42	189.69
838.856	471.59
839.292	1448.79
839.727	2231.89
840.163	1040.29
840.599	876.99
841.034	1936.49
841.47	2079.09
841.906	764.39
842.341	322.09
842.777	226.29
843.212	305.49
843.648	300.89
844.083	147.89
844.519	95.89
844.954	76.79
845.39	53.49
845.825	55.49
846.261	52.29
846.696	57.99
847.131	52.19
847.566	55.99
848.002	50.89
848.437	50.49
848.872	61.19
849.307	55.59
849.742	84.19
850.177	173.09
850.613	535.69
851.048	845.59
851.483	370.69
851.918	154.29
852.353	89.79
852.788	61.99
853.223	52.59
853.657	56.59
854.092	50.99
854.527	46.59
854.962	45.69
855.397	44.89
855.832	54.09
856.266	41.09
856.701	42.79
857.136	33.69
857.57	38.59
858.005	45.99
858.44	56.19
858.874	45.09
859.309	47.59
859.743	44.69
860.178	42.39
860.612	45.99
861.047	56.29
861.481	67.79
861.915	74.69
862.35	47.09
862.784	37.79
863.218	37.19
863.653	32.99
864.087	43.69
864.521	51.79
864.955	64.99
865.39	153.59
865.824	171.39
866.258	118.69
866.692	160.89
867.126	170.49
867.56	105.49
867.994	55.99
868.428	41.39
868.862	38.59
869.296	55.99
869.73	54.89
870.164	55.19
870.598	44.49
871.031	38.79
871.465	32.29
871.899	29.29
872.333	23.39
872.766	29.19
873.2	24.69
873.634	30.59
874.067	29.79
874.501	21.49
874.935	34.79
875.368	31.69
875.802	27.59
876.235	28.29
876.669	25.49
877.102	26.49
877.535	28.49
877.969	20.89
878.402	24.69
878.836	17.59
879.269	24.79
879.702	27.49
880.135	23.69
880.569	22.39
881.002	30.09
881.435	27.69
881.868	17.69
882.301	16.39
882.734	11.09
883.167	26.09
883.601	17.99
884.034	24.99
884.467	14.09
884.899	23.39
885.332	13.59
885.765	10.79
886.198	18.29
886.631	18.39
887.064	20.19
887.497	14.89
887.929	27.59
888.362	14.09
888.795	10.09
889.228	24.19
889.66	17.79
890.093	17.39
890.526	20.69
890.958	16.69
891.391	19.19
891.823	22.09
892.256	21.69
892.688	10.09
893.121	17.49
893.553	14.99
893.985	20.89
894.418	18.39
894.85	16.79
895.282	18.59
895.715	16.89
896.147	18.49
896.579	18.29
897.011	17.19
897.444	19.49
897.876	17.59
898.308	19.99
898.74	12.79
899.172	19.79
899.604	28.09
900.036	21.79
900.468	15.59
900.9	12.89
901.332	17.09
901.764	14.49
902.196	14.09
902.628	14.49
903.06	16.69
903.491	32.89
903.923	28.19
904.355	21.19
904.787	24.49
905.218	22.59
905.65	19.99
906.082	8.99
906.513	9.09
906.945	20.89
907.376	17.49
907.808	25.79
908.239	16.89
908.671	21.89
909.102	25.59
909.534	24.79
909.965	46.29
910.397	92.09
910.828	310.39
911.259	463.69
911.691	208.69
912.122	103.09
912.553	52.69
912.984	34.29
913.415	29.19
913.847	26.79
914.278	15.29
914.709	12.69
915.14	18.49
915.571	15.39
916.002	15.99
916.433	19.99
916.864	17.49
917.295	16.29
917.726	23.39
918.157	21.19
918.587	28.49
919.018	19.69
919.449	20.09
919.88	21.49
920.311	28.69
920.741	52.49
921.172	162.79
921.603	142.19
922.033	64.89
922.464	46.79
922.895	20.69
923.325	25.89
923.756	13.69
924.186	16.69
924.617	28.49
925.047	45.99
925.478	54.19
925.908	45.39
926.338	26.59
926.769	20.59
927.199	27.79
927.629	7.69
928.06	12.79
928.49	15.79
928.92	16.39
929.35	11.19
929.78	5.19
930.21	3.69
930.641	14.29
931.071	15.49
931.501	5.69
931.931	15.69
932.361	8.79
932.791	9.29
933.221	4.49
933.651	8.59
934.08	20.49
934.51	27.09
934.94	10.39
935.37	10.59
935.8	14.09
936.229	9.39
936.659	11.49
937.089	3.29
937.519	17.89
937.948	24.69
938.378	16.59
938.807	6.89
939.237	7.79
939.666	7.09
940.096	-7.91
940.525	0.29
940.955	4.89
941.384	2.39
941.814	-1.51
942.243	6.09
942.672	3.39
943.102	-0.11
943.531	-3.51
943.96	9.99
944.39	3.99
944.819	6.89
945.248	6.29
945.677	1.29
946.106	4.79
946.535	6.19
946.964	-1.31
947.393	8.99
947.822	3.09
948.251	0.49
948.68	4.19
949.109	3.99
949.538	10.29
949.967	9.69
950.396	4.99
950.825	-3.71
951.254	0.39
951.682	-3.81
952.111	4.59
952.54	8.89
952.969	2.19
953.397	-5.31
953.826	2.39
954.254	-6.41
954.683	2.69
955.112	-2.01
955.54	-1.01
955.969	-1.31
956.397	1.09
956.826	-0.01
957.254	3.39
957.682	8.09
958.111	-0.81
958.539	-0.81
958.967	2.79
959.396	-0.41
959.824	1.99
960.252	6.89
960.68	-4.21
961.109	-0.91
961.537	-6.11
961.965	0.39
962.393	4.19
962.821	-4.31
963.249	0.19
963.677	11.29
964.105	7.49
964.533	46.29
964.961	38.89
965.389	19.09
965.817	12.09
966.245	1.39
966.672	3.39
967.1	-7.11
967.528	5.29
967.956	-2.71
968.383	-5.71
968.811	-6.11
969.239	2.89
969.666	-3.61
970.094	1.49
970.522	-1.31
970.949	-0.21
971.377	-4.31
971.804	-4.51
972.232	-2.01
972.659	-3.41
973.087	-1.01
973.514	0.09
973.941	-3.71
974.369	4.29
974.796	0.19
975.223	-3.21
975.651	-3.21
976.078	-3.31
976.505	2.49
976.932	8.09
977.359	12.99
977.786	8.49
978.214	5.79
978.641	-1.41
979.068	1.69
979.495	-8.81
979.922	-0.51
980.349	-4.41
980.776	5.09
981.202	4.29
981.629	1.49
982.056	2.29
982.483	-0.51
982.91	-0.91
983.337	-5.21
983.763	4.89
984.19	4.19
984.617	-0.21
985.043	-5.51
985.47	3.29
985.897	-5.81
986.323	-7.21
986.75	2.79
987.176	-0.11
987.603	-3.11
988.029	0.89
988.456	0.39
988.882	5.59
989.308	-6.31
989.735	2.39
990.161	3.39
990.587	-4.91
991.014	3.39
991.44	4.39
991.866	-0.01
992.292	-5.31
992.719	2.29
993.145	2.39
993.571	-3.41
993.997	3.49
994.423	0.29
994.849	-1.01
995.275	-0.31
995.701	4.69
996.127	1.89
996.553	1.79
996.979	-1.71
997.405	-0.01
997.83	-1.71
998.256	-3.31
998.682	-7.41
999.108	-7.21
999.534	1.39
999.959	-2.71
1000.385	-2.21
1000.811	-0.01
1001.236	-10.11
1001.662	-8.91
1002.087	-7.31
1002.513	3.59
1002.938	2.29
1003.364	-2.01
1003.789	-1.91
1004.215	9.89
1004.64	-3.01
1005.066	-0.31
1005.491	0.49
1005.916	0.29
1006.342	-3.91
1006.767	-9.71
1007.192	5.39
1007.617	-8.21
1008.042	-4.31
1008.468	-5.61
1008.893	-1.71
1009.318	-2.71
1009.743	-1.91
1010.168	3.39
1010.593	3.99
1011.018	-9.71
1011.443	0.89
1011.868	0.49
1012.293	-6.21
1012.718	-5.41
1013.143	1.99
1013.567	-2.41
1013.992	0.39
1014.417	-14.21
1014.842	3.29
1015.267	1.09
1015.691	-2.01
1016.116	3.09
1016.541	2.49
1016.965	-1.21
1017.39	0.39
1017.814	2.39
1018.239	0.39
1018.663	-0.71
1019.088	-7.71
1019.512	-2.81
1019.937	-1.51
1020.361	-4.71
1020.785	-9.41
1021.21	2.79
1021.634	-0.91
1022.058	4.29
1022.483	4.19
1022.907	-0.41
1023.331	0.39
1023.755	-2.01
1024.179	0.59
1024.604	-3.31
1025.028	-1.61
1025.452	-1.21
1025.876	-0.01
1026.3	-0.61
1026.724	-10.01
1027.148	-7.01
1027.572	-7.81
1027.996	-4.11
1028.42	3.49
1028.843	-4.91
1029.267	-3.81
1029.691	1.99
1030.115	-7.21
1030.539	-9.31
1030.962	-11.11
1031.386	-10.21
1031.81	4.29
1032.233	1.79
1032.657	0.99
1033.08	-6.51
1033.504	-1.21
1033.927	-7.41
1034.351	-3.91
1034.774	-3.71
1035.198	-1.11
1035.621	-5.11
1036.045	2.29
1036.468	-1.51
1036.891	-4.61
1037.315	-11.91
1037.738	-4.51
1038.161	0.19
1038.584	0.89
1039.008	-2.41
1039.431	-4.21
1039.854	-3.61
1040.277	-12.61
1040.7	-12.91
1041.123	2.19
1041.546	-14.61
1041.969	-1.81
1042.392	-2.41
1042.815	-0.71
1043.238	0.99
1043.661	3.79
1044.084	-2.41
1044.507	-7.01
1044.93	-5.41
1045.352	-2.91
1045.775	-0.61
1046.198	3.49
1046.621	-4.01
1047.043	2.59
1047.466	11.19
1047.889	-3.11
1048.311	-6.21
1048.734	-0.01
1049.156	-6.91
1049.579	-4.61
1050.001	-2.11
1050.424	7.79
1050.846	-3.51
1051.269	-6.21
1051.691	-3.61
1052.113	-3.71
1052.536	3.19
1052.958	-1.81
1053.38	-2.91
1053.802	-8.41
1054.225	4.99
1054.647	-6.41
1055.069	-3.21
1055.491	6.59
1055.913	-0.21
1056.335	-2.51
1056.757	-2.41
1057.179	-3.01
1057.601	-6.01
1058.023	0.59
1058.445	-3.21
1058.867	-4.01
1059.289	-1.11
1059.711	-1.11
1060.133	-3.01
1060.555	-0.51
1060.976	-12.61
1061.398	-2.21
1061.82	-6.11
1062.241	-1.21
1062.663	-4.31
1063.085	1.09
1063.506	2.29
1063.928	-6.51
1064.35	-1.41
1064.771	-8.01
1065.193	-0.71
1065.614	-9.11
1066.035	-2.91
1066.457	-1.41
1066.878	-1.21
1067.3	-10.81
1067.721	-2.61
1068.142	-2.71
1068.564	0.89
1068.985	-8.61
1069.406	-2.21
1069.827	0.09
1070.248	-5.91
1070.67	-6.31
1071.091	-5.11
1071.512	1.99
1071.933	-9.61
1072.354	-6.01
1072.775	-10.71
1073.196	-7.51
1073.617	-2.71
1074.038	-5.21
1074.459	-1.61
1074.88	-5.91
1075.3	-3.41
1075.721	-7.41
1076.142	-1.71
1076.563	4.69
1076.983	-7.21
1077.404	-9.81
1077.825	-12.11
1078.246	-7.61
1078.666	-9.11
1079.087	-5.31
1079.507	-9.01
1079.928	-0.61
1080.348	-0.01
1080.769	-3.51
1081.189	-4.61
1081.61	-1.31
1082.03	-6.01
1082.451	-10.31
1082.871	-5.01
1083.291	-5.11
1083.711	-9.41
1084.132	-2.41
1084.552	1.09
1084.972	-0.21
1085.392	-6.01
1085.813	-10.61
1086.233	-0.91
1086.653	-2.91
1087.073	-5.41
1087.493	-7.71
1087.913	-5.81
1088.333	-5.11
1088.753	-5.51
1089.173	2.29
1089.593	-0.31
1090.013	-5.61
1090.433	-0.51
1090.852	-2.31
1091.272	-1.71
1091.692	-3.31
1092.112	-0.31
1092.531	-6.61
1092.951	-10.11
1093.371	1.19
1093.79	1.09
1094.21	-4.51
1094.63	-4.01
1095.049	-4.41
1095.469	-3.71
1095.888	-1.31
1096.308	5.19
1096.727	9.59
1097.146	-0.21
1097.566	-1.61
1097.985	-1.71
1098.405	-3.91
1098.824	-3.61
1099.243	-3.11
1099.662	-7.31
1100.082	-2.71
1100.501	5.89
1100.92	-6.81
1101.339	-7.31
1101.758	-1.31
