Data from 20171114-ORNL-Ar_H_NY_Subt18_08-06-02-718.txt Node
Date: Tue Nov 14 08:06:02 EST 2017
User: Ender
Spectrometer: HR+D1039
Trigger mode: 0
Integration Time (sec): 2.730000E-2
Scans to average: 10
Electric dark correction enabled: true
Nonlinearity correction enabled: false
Boxcar width: 0
XAxis mode: Wavelengths
Number of Pixels in Spectrum: 2048
>>>>>Begin Spectral Data<<<<<
187.836	-4.31
188.309	-4.31
188.782	-4.31
189.255	-0.51
189.728	3.49
190.201	3.89
190.674	3.59
191.147	1.79
191.619	-10.31
192.092	2.39
192.565	4.49
193.038	-0.11
193.511	2.39
193.984	-2.51
194.456	-1.21
194.929	3.79
195.402	-4.91
195.874	-2.01
196.347	-2.21
196.82	-8.01
197.292	0.89
197.765	-4.11
198.237	-6.21
198.71	0.19
199.182	0.29
199.655	-0.11
200.127	6.09
200.6	-5.61
201.072	-0.81
201.544	-1.11
202.017	-2.31
202.489	5.79
202.961	-2.21
203.433	0.59
203.906	-4.71
204.378	-4.31
204.85	-1.11
205.322	-4.41
205.794	0.99
206.266	-3.81
206.739	-4.81
207.211	7.89
207.683	-7.91
208.155	-3.51
208.627	-1.21
209.099	-4.11
209.57	-4.01
210.042	-4.51
210.514	-6.21
210.986	-3.91
211.458	-11.91
211.93	-2.91
212.402	4.09
212.873	-3.41
213.345	-11.41
213.817	-16.91
214.288	-10.41
214.76	-14.31
215.232	-3.81
215.703	-5.01
216.175	-1.31
216.646	-3.11
217.118	-5.91
217.589	-1.41
218.061	2.19
218.532	-1.41
219.004	2.69
219.475	-1.41
219.946	-2.91
220.418	-4.81
220.889	0.19
221.36	2.69
221.832	-5.71
222.303	-3.81
222.774	3.29
223.245	-5.31
223.717	-5.91
224.188	-2.81
224.659	-2.71
225.13	-2.91
225.601	-2.01
226.072	-6.01
226.543	4.39
227.014	-2.11
227.485	-3.61
227.956	-8.11
228.427	-1.81
228.898	-1.91
229.369	4.99
229.839	-3.61
230.31	-5.71
230.781	-1.91
231.252	-3.61
231.722	-4.31
232.193	-2.91
232.664	-4.41
233.135	-3.71
233.605	1.29
234.076	-8.71
234.546	5.59
235.017	8.39
235.487	0.19
235.958	-2.21
236.428	-4.91
236.899	0.69
237.369	7.29
237.84	-3.71
238.31	14.19
238.78	4.09
239.251	-3.41
239.721	5.59
240.191	2.09
240.662	3.29
241.132	1.49
241.602	-5.61
242.072	3.09
242.542	6.49
243.013	-1.41
243.483	7.59
243.953	2.09
244.423	-1.61
244.893	-2.71
245.363	4.79
245.833	4.79
246.303	-2.21
246.773	4.99
247.243	4.89
247.712	2.29
248.182	8.79
248.652	3.29
249.122	-1.31
249.592	8.09
250.061	22.79
250.531	35.49
251.001	17.59
251.471	17.79
251.94	17.99
252.41	7.89
252.879	-1.51
253.349	15.89
253.818	13.89
254.288	8.69
254.757	3.09
255.227	3.69
255.696	1.39
256.166	8.19
256.635	7.59
257.105	6.99
257.574	6.59
258.043	8.49
258.513	15.19
258.982	18.69
259.451	8.59
259.92	9.39
260.389	10.59
260.859	14.49
261.328	19.99
261.797	19.49
262.266	12.39
262.735	8.39
263.204	7.19
263.673	1.39
264.142	7.79
264.611	3.09
265.08	3.89
265.549	2.69
266.018	7.29
266.487	3.19
266.955	2.19
267.424	2.39
267.893	0.49
268.362	2.79
268.83	8.69
269.299	10.19
269.768	11.29
270.236	9.69
270.705	5.69
271.174	5.69
271.642	6.19
272.111	14.59
272.579	17.29
273.048	22.19
273.516	29.29
273.985	26.79
274.453	27.29
274.922	25.49
275.39	16.39
275.858	5.19
276.327	16.49
276.795	21.09
277.263	14.59
277.731	32.79
278.2	60.89
278.668	60.99
279.136	50.69
279.604	17.89
280.072	23.99
280.54	13.59
281.008	7.59
281.477	13.89
281.945	8.39
282.413	11.89
282.881	12.29
283.348	9.69
283.816	11.99
284.284	15.79
284.752	23.49
285.22	18.19
285.688	23.59
286.156	26.29
286.623	48.89
287.091	55.89
287.559	30.59
288.026	13.99
288.494	16.79
288.962	11.09
289.429	9.29
289.897	22.39
290.364	13.69
290.832	18.79
291.3	18.89
291.767	17.69
292.234	21.09
292.702	16.19
293.169	18.19
293.637	15.59
294.104	22.99
294.571	4.69
295.039	15.89
295.506	19.19
295.973	24.69
296.44	16.39
296.908	22.29
297.375	19.99
297.842	19.19
298.309	18.39
298.776	19.39
299.243	26.99
299.71	13.19
300.177	23.39
300.644	20.49
301.111	23.19
301.578	23.29
302.045	21.09
302.512	23.69
302.979	28.69
303.446	19.79
303.913	18.69
304.379	21.89
304.846	27.29
305.313	26.69
305.78	24.09
306.246	28.89
306.713	29.09
307.18	31.19
307.646	30.19
308.113	33.39
308.579	24.69
309.046	28.49
309.512	24.69
309.979	23.29
310.445	28.59
310.912	25.89
311.378	32.39
311.845	33.29
312.311	25.89
312.777	32.19
313.244	28.69
313.71	37.79
314.176	31.29
314.642	33.29
315.109	35.49
315.575	39.09
316.041	39.89
316.507	34.19
316.973	40.69
317.439	40.29
317.905	37.39
318.371	32.29
318.837	34.99
319.303	33.99
319.769	35.79
320.235	42.69
320.701	43.89
321.167	35.59
321.633	41.19
322.099	46.39
322.564	49.09
323.03	47.99
323.496	44.19
323.962	43.99
324.427	40.29
324.893	52.09
325.359	35.89
325.824	38.29
326.29	36.19
326.755	40.79
327.221	38.39
327.686	44.39
328.152	46.79
328.617	37.09
329.083	47.19
329.548	50.49
330.014	51.79
330.479	44.09
330.944	44.09
331.41	43.29
331.875	48.19
332.34	44.19
332.805	49.49
333.271	44.69
333.736	45.09
334.201	50.79
334.666	51.79
335.131	56.99
335.596	50.19
336.061	48.59
336.526	42.39
336.991	49.69
337.456	56.49
337.921	58.19
338.386	42.39
338.851	45.89
339.316	45.09
339.781	43.99
340.246	48.49
340.711	47.19
341.175	52.89
341.64	50.69
342.105	53.79
342.569	62.59
343.034	62.69
343.499	63.69
343.963	53.09
344.428	62.89
344.893	64.49
345.357	66.99
345.822	67.09
346.286	80.59
346.751	76.39
347.215	69.49
347.679	79.59
348.144	102.29
348.608	82.69
349.073	73.59
349.537	78.09
350.001	84.19
350.465	102.09
350.93	77.19
351.394	82.29
351.858	74.99
352.322	91.69
352.786	86.99
353.25	105.19
353.715	115.29
354.179	102.79
354.643	126.09
355.107	134.39
355.571	112.49
356.035	99.29
356.498	120.69
356.962	127.39
357.426	139.09
357.89	124.39
358.354	87.99
358.818	85.29
359.281	81.19
359.745	76.69
360.209	77.79
360.673	80.09
361.136	80.59
361.6	89.49
362.064	84.69
362.527	91.29
362.991	89.79
363.454	80.29
363.918	84.09
364.381	88.29
364.845	90.99
365.308	90.79
365.772	88.69
366.235	85.69
366.698	86.99
367.162	85.29
367.625	89.69
368.088	91.69
368.552	92.79
369.015	93.29
369.478	99.39
369.941	102.39
370.404	98.09
370.867	106.59
371.331	114.79
371.794	117.69
372.257	112.29
372.72	121.69
373.183	118.09
373.646	107.99
374.109	106.59
374.572	109.39
375.035	114.29
375.497	109.69
375.96	107.69
376.423	103.89
376.886	118.19
377.349	111.39
377.811	104.49
378.274	110.59
378.737	106.89
379.199	116.39
379.662	114.19
380.125	121.79
380.587	125.89
381.05	121.69
381.512	138.59
381.975	134.09
382.437	133.49
382.9	131.29
383.362	140.29
383.825	146.79
384.287	154.29
384.75	145.59
385.212	140.09
385.674	140.09
386.136	137.39
386.599	131.89
387.061	132.29
387.523	132.79
387.985	132.59
388.447	151.89
388.91	145.69
389.372	164.09
389.834	152.99
390.296	145.59
390.758	159.19
391.22	183.69
391.682	213.49
392.144	309.89
392.606	233.69
393.068	180.09
393.529	174.69
393.991	165.99
394.453	160.89
394.915	161.09
395.377	199.59
395.838	224.79
396.3	163.19
396.762	142.79
397.224	134.19
397.685	129.39
398.147	138.99
398.608	135.09
399.07	138.89
399.531	142.39
399.993	151.09
400.454	158.69
400.916	154.99
401.377	146.79
401.839	156.39
402.3	161.79
402.762	171.29
403.223	187.49
403.684	178.99
404.145	164.59
404.607	161.79
405.068	168.59
405.529	170.99
405.99	195.39
406.451	177.79
406.913	177.39
407.374	167.29
407.835	163.99
408.296	176.69
408.757	175.89
409.218	193.59
409.679	181.59
410.14	176.69
410.601	187.89
411.062	191.39
411.522	196.99
411.983	196.69
412.444	184.19
412.905	182.79
413.366	183.79
413.826	194.79
414.287	217.39
414.748	266.89
415.208	244.89
415.669	215.59
416.13	210.29
416.59	205.79
417.051	222.09
417.511	223.39
417.972	242.59
418.432	246.39
418.893	295.69
419.353	254.39
419.814	206.69
420.274	186.89
420.734	185.89
421.195	201.39
421.655	204.79
422.115	203.29
422.576	202.09
423.036	196.49
423.496	210.49
423.956	224.79
424.416	231.89
424.876	272.09
425.336	266.79
425.797	266.29
426.257	260.19
426.717	247.39
427.177	244.59
427.637	228.29
428.097	242.99
428.556	251.89
429.016	274.29
429.476	269.39
429.936	281.89
430.396	286.49
430.856	304.49
431.315	322.89
431.775	365.19
432.235	395.69
432.694	365.19
433.154	377.39
433.614	406.09
434.073	357.89
434.533	289.79
434.993	278.39
435.452	291.89
435.912	309.39
436.371	299.09
436.83	294.89
437.29	286.09
437.749	257.09
438.209	252.39
438.668	284.09
439.127	301.69
439.587	273.49
440.046	252.09
440.505	259.49
440.964	281.49
441.424	329.39
441.883	316.99
442.342	268.99
442.801	226.49
443.26	223.49
443.719	225.49
444.178	221.69
444.637	215.09
445.096	216.79
445.555	226.19
446.014	222.19
446.473	233.89
446.932	240.49
447.391	234.99
447.849	231.49
448.308	219.49
448.767	218.69
449.226	241.19
449.685	247.09
450.143	253.29
450.602	242.19
451.061	228.19
451.519	233.49
451.978	240.39
452.436	239.49
452.895	242.09
453.353	259.49
453.812	240.89
454.27	242.69
454.729	243.29
455.187	243.89
455.646	248.79
456.104	248.39
456.562	269.19
457.021	274.99
457.479	268.09
457.937	281.79
458.395	263.19
458.854	246.09
459.312	263.19
459.77	280.79
460.228	258.59
460.686	242.59
461.144	258.59
461.602	246.59
462.06	241.89
462.518	262.49
462.976	260.89
463.434	263.89
463.892	266.99
464.35	282.39
464.808	292.49
465.266	275.99
465.724	274.09
466.181	278.49
466.639	270.39
467.097	294.19
467.555	302.09
468.012	299.29
468.47	311.79
468.928	335.29
469.385	351.09
469.843	348.89
470.3	361.89
470.758	376.79
471.215	393.69
471.673	418.99
472.13	413.49
472.588	431.29
473.045	373.89
473.503	384.19
473.96	400.29
474.417	414.59
474.875	436.89
475.332	488.19
475.789	468.69
476.246	480.09
476.704	490.09
477.161	524.19
477.618	530.09
478.075	574.39
478.532	630.09
478.989	702.09
479.446	838.49
479.903	796.79
480.36	822.29
480.817	891.69
481.274	990.79
481.731	1096.89
482.188	1195.19
482.645	1338.19
483.102	1438.19
483.558	1590.99
484.015	1652.19
484.472	1612.89
484.929	1566.09
485.385	1510.29
485.842	1475.19
486.299	1419.49
486.755	1346.39
487.212	1125.79
487.668	951.89
488.125	864.99
488.582	801.59
489.038	759.29
489.494	720.59
489.951	700.39
490.407	683.29
490.864	661.49
491.32	665.69
491.776	652.39
492.233	660.99
492.689	625.39
493.145	615.89
493.602	608.69
494.058	626.29
494.514	624.39
494.97	651.49
495.426	662.49
495.882	637.79
496.338	620.89
496.794	632.29
497.251	638.29
497.707	643.39
498.163	644.39
498.618	648.79
499.074	656.79
499.53	692.39
499.986	686.79
500.442	652.59
500.898	642.19
501.354	629.69
501.809	660.69
502.265	651.09
502.721	668.09
503.177	678.79
503.632	675.49
504.088	684.39
504.543	718.49
504.999	717.59
505.455	652.29
505.91	640.39
506.366	635.99
506.821	635.39
507.277	621.59
507.732	640.69
508.187	639.69
508.643	651.09
509.098	636.89
509.553	670.99
510.009	673.69
510.464	674.59
510.919	698.09
511.375	699.49
511.83	705.39
512.285	730.99
512.74	770.59
513.195	799.09
513.65	785.49
514.105	777.59
514.56	780.99
515.015	796.99
515.47	814.79
515.925	794.39
516.38	792.89
516.835	806.59
517.29	798.89
517.745	788.29
518.2	772.89
518.655	752.49
519.109	753.49
519.564	750.09
520.019	742.89
520.474	729.09
520.928	736.59
521.383	721.99
521.838	721.29
522.292	720.69
522.747	717.99
523.201	713.89
523.656	708.49
524.11	699.29
524.565	699.59
525.019	698.29
525.474	714.89
525.928	710.19
526.382	702.49
526.837	700.29
527.291	706.99
527.745	703.49
528.2	714.89
528.654	706.09
529.108	696.19
529.562	704.59
530.016	693.39
530.47	699.49
530.925	692.99
531.379	692.59
531.833	710.19
532.287	707.59
532.741	709.89
533.195	707.39
533.649	721.49
534.103	725.99
534.556	713.79
535.01	721.29
535.464	711.59
535.918	716.79
536.372	730.79
536.826	716.79
537.279	711.09
537.733	719.69
538.187	730.49
538.64	717.19
539.094	725.19
539.548	734.89
540.001	719.69
540.455	721.59
540.908	731.69
541.362	745.19
541.815	748.19
542.269	759.49
542.722	765.29
543.175	772.09
543.629	780.19
544.082	787.39
544.536	792.39
544.989	777.99
545.442	801.79
545.895	791.79
546.349	792.09
546.802	802.99
547.255	792.79
547.708	805.49
548.161	815.19
548.614	827.19
549.067	831.19
549.52	821.49
549.973	822.09
550.426	814.59
550.879	799.19
551.332	797.99
551.785	816.49
552.238	805.79
552.691	830.89
553.144	836.49
553.596	845.59
554.049	857.99
554.502	896.09
554.955	917.09
555.407	904.59
555.86	899.69
556.313	898.99
556.765	881.59
557.218	891.69
557.67	887.79
558.123	891.59
558.576	880.59
559.028	880.89
559.48	886.39
559.933	877.09
560.385	840.79
560.838	800.59
561.29	783.59
561.742	790.09
562.195	765.19
562.647	760.39
563.099	776.79
563.551	766.69
564.004	781.09
564.456	760.89
564.908	766.09
565.36	755.99
565.812	735.69
566.264	727.59
566.716	726.79
567.168	721.19
567.62	724.99
568.072	701.19
568.524	698.49
568.976	697.99
569.428	690.29
569.88	675.99
570.332	686.79
570.784	684.39
571.235	681.99
571.687	691.79
572.139	704.89
572.59	713.59
573.042	708.19
573.494	713.89
573.945	706.39
574.397	687.99
574.849	687.29
575.3	692.19
575.752	677.69
576.203	670.99
576.655	681.99
577.106	668.89
577.557	656.09
578.009	672.29
578.46	660.69
578.912	669.49
579.363	663.69
579.814	661.59
580.265	656.69
580.717	663.39
581.168	663.99
581.619	675.99
582.07	678.59
582.521	676.89
582.972	664.59
583.423	682.49
583.875	681.49
584.326	704.69
584.777	743.99
585.227	823.49
585.678	920.99
586.129	1009.49
586.58	1084.39
587.031	1179.19
587.482	1331.89
587.933	1522.59
588.384	1328.89
588.834	990.09
589.285	803.39
589.736	779.09
590.186	770.19
590.637	770.49
591.088	744.69
591.538	732.49
591.989	729.89
592.439	718.09
592.89	719.29
593.34	715.29
593.791	708.19
594.241	690.89
594.692	704.09
595.142	701.49
595.593	699.89
596.043	705.29
596.493	712.39
596.943	710.99
597.394	716.09
597.844	712.69
598.294	716.59
598.744	743.29
599.195	770.69
599.645	809.69
600.095	842.39
600.545	906.89
600.995	958.99
601.445	1019.79
601.895	1080.89
602.345	1131.49
602.795	1086.29
603.245	1059.49
603.695	1011.09
604.145	954.99
604.594	908.49
605.044	845.89
605.494	793.99
605.944	755.29
606.393	737.49
606.843	724.49
607.293	724.69
607.743	720.19
608.192	735.39
608.642	753.39
609.091	761.99
609.541	765.09
609.99	764.59
610.44	762.19
610.889	710.29
611.339	692.99
611.788	683.99
612.238	697.99
612.687	712.59
613.136	709.99
613.586	734.79
614.035	736.19
614.484	756.39
614.933	753.89
615.383	744.39
615.832	732.19
616.281	725.59
616.73	678.09
617.179	655.89
617.628	638.39
618.077	619.29
618.526	620.09
618.975	602.89
619.424	612.99
619.873	596.79
620.322	601.79
620.771	594.29
621.22	597.39
621.669	582.79
622.118	582.29
622.567	577.69
623.015	560.59
623.464	570.39
623.913	554.99
624.361	558.59
624.81	557.09
625.259	538.89
625.707	552.49
626.156	550.39
626.604	566.59
627.053	558.79
627.501	554.69
627.95	559.49
628.398	572.49
628.847	570.39
629.295	569.29
629.744	575.59
630.192	569.79
630.64	563.99
631.089	560.09
631.537	568.09
631.985	579.99
632.433	598.09
632.881	603.39
633.33	648.29
633.778	638.59
634.226	563.09
634.674	560.69
635.122	567.99
635.57	597.39
636.018	612.69
636.466	581.19
636.914	551.19
637.362	558.39
637.81	565.89
638.258	572.89
638.705	570.99
639.153	593.69
639.601	610.09
640.049	632.49
640.497	658.19
640.944	674.49
641.392	633.89
641.84	601.89
642.287	576.99
642.735	560.99
643.182	575.79
643.63	565.89
644.078	567.69
644.525	578.59
644.973	594.39
645.42	590.19
645.867	618.99
646.315	641.19
646.762	643.89
647.21	685.39
647.657	703.39
648.104	745.59
648.551	769.29
648.999	830.89
649.446	913.99
649.893	1004.59
650.34	1144.19
650.787	1380.09
651.234	1710.99
651.682	2231.89
652.129	3063.29
652.576	4427.39
653.023	6510.49
653.47	8970.99
653.917	11252.69
654.363	13021.39
654.81	14422.59
655.257	13758.89
655.704	8980.39
656.151	5288.89
656.598	3435.09
657.044	2418.49
657.491	1873.39
657.938	1491.19
658.385	1246.49
658.831	1072.79
659.278	944.49
659.724	839.29
660.171	786.89
660.618	719.79
661.064	686.19
661.511	661.79
661.957	646.99
662.404	632.59
662.85	648.59
663.296	621.39
663.743	552.39
664.189	525.39
664.635	527.79
665.082	521.99
665.528	528.19
665.974	509.29
666.42	504.59
666.867	498.09
667.313	484.79
667.759	471.99
668.205	469.69
668.651	489.19
669.097	476.79
669.543	493.29
669.989	462.39
670.435	437.89
670.881	427.69
671.327	437.49
671.773	463.49
672.219	476.79
672.665	529.09
673.11	564.59
673.556	617.39
674.002	652.59
674.448	635.49
674.893	531.99
675.339	456.09
675.785	432.99
676.23	407.59
676.676	386.59
677.122	373.89
677.567	363.79
678.013	367.09
678.458	348.19
678.904	346.69
679.349	344.59
679.794	346.99
680.24	341.69
680.685	340.39
681.131	340.09
681.576	336.89
682.021	349.19
682.466	345.09
682.912	342.39
683.357	349.39
683.802	369.39
684.247	400.79
684.692	440.49
685.137	483.39
685.583	527.19
686.028	544.59
686.473	508.79
686.918	430.19
687.363	409.09
687.807	383.59
688.252	357.29
688.697	341.69
689.142	332.09
689.587	330.89
690.032	325.89
690.477	332.89
690.921	339.89
691.366	376.69
691.811	391.19
692.255	415.69
692.7	444.89
693.145	487.79
693.589	668.79
694.034	1084.29
694.478	1494.99
694.923	1690.19
695.367	2197.09
695.812	1154.09
696.256	483.49
696.701	360.19
697.145	335.69
697.59	320.89
698.034	313.49
698.478	325.79
698.922	314.29
699.367	326.69
699.811	330.49
700.255	343.19
700.699	373.29
701.143	417.19
701.588	467.09
702.032	494.99
702.476	501.99
702.92	470.39
703.364	474.59
703.808	607.79
704.252	992.59
704.696	1400.89
705.14	1617.19
705.584	2058.09
706.027	1023.89
706.471	507.29
706.915	385.99
707.359	344.89
707.803	314.99
708.246	309.09
708.69	307.09
709.134	309.29
709.577	302.69
710.021	309.19
710.465	301.59
710.908	295.09
711.352	289.69
711.795	295.39
712.239	341.39
712.682	373.89
713.126	404.19
713.569	460.49
714.012	359.39
714.456	311.69
714.899	293.29
715.342	264.49
715.786	257.89
716.229	248.39
716.672	252.29
717.115	237.19
717.558	240.39
718.002	245.59
718.445	251.49
718.888	281.19
719.331	292.29
719.774	295.09
720.217	290.19
720.66	266.59
721.103	255.59
721.546	247.49
721.989	243.59
722.432	230.29
722.874	228.69
723.317	227.99
723.76	231.09
724.203	248.39
724.645	304.09
725.088	430.79
725.531	545.29
725.974	632.19
726.416	531.69
726.859	301.19
727.301	239.79
727.744	229.69
728.187	226.59
728.629	235.39
729.071	237.89
729.514	253.79
729.956	267.09
730.399	275.39
730.841	279.09
731.283	271.29
731.726	255.39
732.168	255.59
732.61	256.69
733.053	273.69
733.495	303.99
733.937	340.09
734.379	383.89
734.821	422.39
735.263	512.09
735.705	797.19
736.148	1497.09
736.59	2482.29
737.032	2964.99
737.474	2414.69
737.916	781.39
738.357	420.69
738.799	315.49
739.241	289.29
739.683	279.59
740.125	273.39
740.567	288.49
741.008	305.39
741.45	301.69
741.892	311.69
742.334	340.19
742.775	346.89
743.217	336.29
743.658	261.19
744.1	243.69
744.542	247.59
744.983	305.69
745.425	335.79
745.866	338.89
746.307	278.29
746.749	279.69
747.19	314.19
747.632	438.99
748.073	842.89
748.514	1776.09
748.956	2729.69
749.397	3444.69
749.838	2854.39
750.279	2861.99
750.72	1449.99
751.162	531.99
751.603	307.39
752.044	239.69
752.485	209.69
752.926	198.49
753.367	195.59
753.808	188.89
754.249	177.89
754.69	181.29
755.131	177.79
755.572	177.49
756.013	175.99
756.453	180.49
756.894	187.19
757.335	194.19
757.776	194.89
758.216	194.29
758.657	198.49
759.098	199.59
759.538	214.39
759.979	250.59
760.42	352.29
760.86	675.89
761.301	1722.99
761.741	4232.99
762.182	6251.79
762.622	4389.79
763.063	1263.29
763.503	523.29
763.943	338.59
764.384	330.39
764.824	402.49
765.264	433.99
765.705	302.39
766.145	205.99
766.585	190.09
767.025	187.29
767.465	179.09
767.906	235.39
768.346	311.99
768.786	338.99
769.226	256.59
769.666	300.09
770.106	597.99
770.546	1482.49
770.986	2546.99
771.426	2302.69
771.866	763.49
772.306	316.89
772.745	207.99
773.185	166.29
773.625	168.79
774.065	159.59
774.505	192.49
774.944	309.19
775.384	682.69
775.824	1230.59
776.263	1222.89
776.703	512.69
777.142	216.69
777.582	161.39
778.021	130.29
778.461	131.09
778.9	136.29
779.34	129.49
779.779	111.19
780.219	108.49
780.658	110.09
781.097	107.19
781.537	110.59
781.976	104.49
782.415	109.99
782.855	109.89
783.294	101.39
783.733	103.49
784.172	103.69
784.611	102.89
785.05	111.89
785.489	107.39
785.928	121.39
786.367	116.79
786.806	118.79
787.245	126.09
787.684	127.69
788.123	147.29
788.562	129.59
789.001	124.29
789.44	122.59
789.879	108.39
790.317	108.49
790.756	116.99
791.195	125.89
791.634	143.79
792.072	192.99
792.511	348.89
792.95	952.99
793.388	2050.49
793.827	1886.89
794.265	659.49
794.704	268.49
795.142	182.59
795.581	155.69
796.019	131.29
796.458	128.89
796.896	119.79
797.334	129.59
797.773	153.79
798.211	210.19
798.649	406.59
799.087	984.59
799.526	1529.49
799.964	1927.59
800.402	1958.99
800.84	739.59
801.278	286.89
801.716	182.49
802.154	147.79
802.592	142.29
803.03	136.49
803.468	132.39
803.906	137.79
804.344	143.79
804.782	135.39
805.22	130.29
805.658	127.39
806.096	137.59
806.533	156.89
806.971	171.29
807.409	211.29
807.847	298.89
808.284	629.89
808.722	1765.39
809.16	3165.39
809.597	2966.39
810.035	5182.79
810.472	5583.39
810.91	1999.99
811.347	754.29
811.785	386.29
812.222	246.39
812.66	185.69
813.097	157.59
813.535	135.99
813.972	127.69
814.409	114.19
814.846	107.29
815.284	111.99
815.721	96.19
816.158	102.39
816.595	109.59
817.032	172.69
817.47	194.49
817.907	171.19
818.344	158.79
818.781	108.19
819.218	99.39
819.655	115.49
820.092	182.49
820.529	206.49
820.966	172.19
821.403	129.49
821.839	109.99
822.276	96.39
822.713	115.59
823.15	126.89
823.587	112.19
824.023	144.69
824.46	282.39
824.897	853.39
825.333	1319.99
825.77	560.59
826.206	218.69
826.643	124.49
827.08	97.59
827.516	82.99
827.953	78.89
828.389	79.99
828.825	69.19
829.262	64.99
829.698	59.59
830.135	59.29
830.571	59.99
831.007	63.09
831.443	65.49
831.88	61.09
832.316	57.39
832.752	62.19
833.188	58.19
833.624	54.89
834.06	68.19
834.497	72.09
834.933	73.19
835.369	67.79
835.805	64.59
836.241	77.09
836.677	75.69
837.112	81.59
837.548	100.19
837.984	126.69
838.42	193.89
838.856	467.79
839.292	1436.69
839.727	2225.89
840.163	1028.59
840.599	877.59
841.034	1944.79
841.47	2068.39
841.906	739.39
842.341	328.49
842.777	231.59
843.212	323.59
843.648	313.09
844.083	149.29
844.519	96.49
844.954	77.19
845.39	63.19
845.825	48.59
846.261	49.09
846.696	50.09
847.131	55.79
847.566	55.49
848.002	47.59
848.437	56.39
848.872	61.29
849.307	65.59
849.742	84.59
850.177	176.89
850.613	531.99
851.048	848.09
851.483	368.29
851.918	150.99
852.353	82.69
852.788	57.59
853.223	57.89
853.657	54.89
854.092	47.99
854.527	39.99
854.962	38.09
855.397	43.39
855.832	46.69
856.266	42.99
856.701	35.79
857.136	39.09
857.57	38.79
858.005	47.79
858.44	57.69
858.874	35.59
859.309	47.89
859.743	42.29
860.178	47.79
860.612	32.89
861.047	51.59
861.481	66.59
861.915	71.09
862.35	47.29
862.784	33.29
863.218	39.29
863.653	32.39
864.087	42.39
864.521	52.99
864.955	71.79
865.39	156.09
865.824	174.09
866.258	108.49
866.692	154.99
867.126	167.49
867.56	105.49
867.994	53.39
868.428	36.39
868.862	41.49
869.296	53.19
869.73	51.99
870.164	52.79
870.598	48.29
871.031	41.99
871.465	29.39
871.899	35.69
872.333	21.59
872.766	25.49
873.2	21.69
873.634	36.19
874.067	24.49
874.501	26.79
874.935	37.79
875.368	38.29
875.802	27.89
876.235	21.89
876.669	26.29
877.102	25.89
877.535	26.79
877.969	21.69
878.402	25.19
878.836	20.69
879.269	21.89
879.702	25.29
880.135	22.49
880.569	22.99
881.002	28.49
881.435	20.69
881.868	19.79
882.301	24.29
882.734	11.99
883.167	21.79
883.601	21.69
884.034	26.79
884.467	13.39
884.899	15.39
885.332	18.59
885.765	15.59
886.198	17.79
886.631	21.39
887.064	21.69
887.497	20.99
887.929	22.19
888.362	8.69
888.795	10.09
889.228	19.39
889.66	16.89
890.093	20.29
890.526	18.39
890.958	12.29
891.391	17.79
891.823	20.99
892.256	12.99
892.688	9.99
893.121	15.89
893.553	10.89
893.985	24.29
894.418	16.89
894.85	13.89
895.282	14.69
895.715	15.59
896.147	19.09
896.579	12.89
897.011	17.59
897.444	14.79
897.876	10.49
898.308	18.09
898.74	13.39
899.172	11.29
899.604	25.39
900.036	16.59
900.468	13.89
900.9	15.39
901.332	22.99
901.764	8.99
902.196	20.79
902.628	17.89
903.06	19.19
903.491	24.49
903.923	21.39
904.355	16.49
904.787	28.29
905.218	24.89
905.65	19.19
906.082	14.09
906.513	15.19
906.945	21.89
907.376	9.79
907.808	20.59
908.239	20.19
908.671	13.79
909.102	18.39
909.534	25.99
909.965	43.49
910.397	87.79
910.828	302.59
911.259	455.29
911.691	204.89
912.122	103.49
912.553	41.39
912.984	35.89
913.415	30.29
913.847	22.39
914.278	12.69
914.709	18.09
915.14	17.99
915.571	23.09
916.002	15.69
916.433	17.79
916.864	18.49
917.295	11.69
917.726	19.69
918.157	18.49
918.587	28.89
919.018	25.09
919.449	25.49
919.88	22.29
920.311	33.29
920.741	43.99
921.172	158.39
921.603	148.19
922.033	69.09
922.464	48.89
922.895	20.09
923.325	21.79
923.756	13.19
924.186	13.09
924.617	29.89
925.047	40.49
925.478	51.19
925.908	45.69
926.338	26.19
926.769	13.59
927.199	20.39
927.629	13.99
928.06	19.29
928.49	13.39
928.92	18.09
929.35	11.39
929.78	10.89
930.21	7.59
930.641	6.39
931.071	8.69
931.501	7.59
931.931	8.99
932.361	5.19
932.791	1.29
933.221	3.19
933.651	0.89
934.08	22.19
934.51	30.39
934.94	10.79
935.37	12.29
935.8	11.09
936.229	11.59
936.659	12.79
937.089	4.69
937.519	16.99
937.948	19.89
938.378	19.69
938.807	8.09
939.237	5.09
939.666	10.39
940.096	-1.21
940.525	6.09
940.955	7.09
941.384	4.79
941.814	-2.01
942.243	1.89
942.672	8.99
943.102	-3.91
943.531	4.89
943.96	2.89
944.39	2.79
944.819	-1.61
945.248	1.29
945.677	-1.01
946.106	6.49
946.535	5.19
946.964	8.69
947.393	4.09
947.822	5.29
948.251	-0.81
948.68	-1.11
949.109	5.89
949.538	6.99
949.967	0.69
950.396	6.59
950.825	-3.11
951.254	5.29
951.682	-4.51
952.111	7.19
952.54	9.29
952.969	-1.11
953.397	-4.11
953.826	-2.71
954.254	-3.41
954.683	4.29
955.112	-4.01
955.54	2.39
955.969	6.89
956.397	4.29
956.826	-1.91
957.254	6.39
957.682	1.09
958.111	8.19
958.539	-4.71
958.967	-2.81
959.396	0.89
959.824	6.99
960.252	2.59
960.68	-8.11
961.109	-0.81
961.537	-8.11
961.965	-1.81
962.393	6.19
962.821	-3.01
963.249	-3.81
963.677	0.59
964.105	7.49
964.533	44.19
964.961	41.29
965.389	23.09
965.817	12.09
966.245	7.89
966.672	0.59
967.1	-4.51
967.528	1.39
967.956	0.19
968.383	2.49
968.811	-4.71
969.239	-2.71
969.666	-8.81
970.094	0.69
970.522	6.29
970.949	0.39
971.377	-1.21
971.804	-3.61
972.232	-3.11
972.659	-0.61
973.087	-4.21
973.514	1.09
973.941	-1.91
974.369	2.59
974.796	2.19
975.223	2.09
975.651	-5.71
976.078	4.49
976.505	0.29
976.932	-0.41
977.359	11.89
977.786	13.79
978.214	4.39
978.641	-2.11
979.068	-5.01
979.495	-4.91
979.922	-4.61
980.349	-2.61
980.776	3.99
981.202	-4.71
981.629	0.19
982.056	3.69
982.483	1.69
982.91	2.99
983.337	0.39
983.763	-2.71
984.19	-8.21
984.617	-2.11
985.043	-12.81
985.47	-6.31
985.897	-1.31
986.323	-5.91
986.75	4.59
987.176	1.29
987.603	1.59
988.029	5.79
988.456	-3.21
988.882	-3.61
989.308	-2.01
989.735	-6.31
990.161	0.89
990.587	-3.71
991.014	7.39
991.44	6.19
991.866	-6.21
992.292	0.29
992.719	-3.81
993.145	8.39
993.571	-12.81
993.997	-6.61
994.423	-2.31
994.849	-4.51
995.275	-0.61
995.701	-5.11
996.127	-0.01
996.553	-1.01
996.979	0.69
997.405	-3.61
997.83	-8.91
998.256	-8.81
998.682	-2.21
999.108	0.09
999.534	-0.51
999.959	-0.01
1000.385	-2.21
1000.811	11.29
1001.236	-7.21
1001.662	-2.91
1002.087	-8.21
1002.513	-0.11
1002.938	-0.51
1003.364	0.79
1003.789	0.09
1004.215	6.59
1004.64	0.49
1005.066	0.09
1005.491	-4.81
1005.916	-3.61
1006.342	-7.01
1006.767	-12.61
1007.192	4.39
1007.617	-3.61
1008.042	-3.31
1008.468	-6.81
1008.893	-7.31
1009.318	-6.91
1009.743	-4.31
1010.168	0.49
1010.593	0.39
1011.018	-11.11
1011.443	-1.61
1011.868	-1.41
1012.293	-3.61
1012.718	-5.61
1013.143	-2.71
1013.567	-1.31
1013.992	-2.01
1014.417	-11.81
1014.842	-0.61
1015.267	-7.51
1015.691	-8.71
1016.116	7.79
1016.541	-0.11
1016.965	4.49
1017.39	0.99
1017.814	-1.01
1018.239	0.09
1018.663	-7.01
1019.088	-5.71
1019.512	-2.61
1019.937	-2.11
1020.361	0.39
1020.785	-7.11
1021.21	-6.51
1021.634	-3.81
1022.058	1.89
1022.483	5.09
1022.907	-3.61
1023.331	-0.61
1023.755	-7.11
1024.179	-3.01
1024.604	-6.81
1025.028	-8.91
1025.452	-3.31
1025.876	-4.81
1026.3	2.89
1026.724	-10.11
1027.148	-2.81
1027.572	-2.61
1027.996	-1.31
1028.42	-5.81
1028.843	-5.11
1029.267	-9.81
1029.691	-5.91
1030.115	-4.81
1030.539	-10.91
1030.962	-7.41
1031.386	-11.41
1031.81	-2.21
1032.233	0.79
1032.657	-2.61
1033.08	-1.51
1033.504	-2.91
1033.927	-4.41
1034.351	-4.01
1034.774	-1.31
1035.198	-2.01
1035.621	-5.81
1036.045	-5.61
1036.468	0.39
1036.891	-9.21
1037.315	-7.01
1037.738	-7.21
1038.161	0.59
1038.584	-9.81
1039.008	-8.01
1039.431	-4.41
1039.854	-1.81
1040.277	-8.51
1040.7	-9.81
1041.123	3.79
1041.546	-9.71
1041.969	-7.71
1042.392	-1.01
1042.815	1.09
1043.238	2.79
1043.661	-1.41
1044.084	-10.61
1044.507	-2.91
1044.93	-8.31
1045.352	-5.41
1045.775	-4.51
1046.198	-8.81
1046.621	0.19
1047.043	-1.71
1047.466	5.59
1047.889	0.09
1048.311	-5.91
1048.734	-2.81
1049.156	-1.41
1049.579	-6.11
1050.001	-8.61
1050.424	-2.21
1050.846	-6.11
1051.269	-7.21
1051.691	-7.11
1052.113	-5.41
1052.536	-0.91
1052.958	-1.61
1053.38	-8.71
1053.802	-9.31
1054.225	-4.61
1054.647	-11.91
1055.069	-4.71
1055.491	4.39
1055.913	-8.91
1056.335	-8.11
1056.757	-1.11
1057.179	-10.61
1057.601	-10.11
1058.023	-6.01
1058.445	-6.01
1058.867	-5.91
1059.289	-7.11
1059.711	-4.01
1060.133	-3.41
1060.555	-2.31
1060.976	-3.71
1061.398	-3.61
1061.82	-3.61
1062.241	-7.01
1062.663	-4.41
1063.085	-0.31
1063.506	-0.71
1063.928	-4.31
1064.35	0.49
1064.771	-12.81
1065.193	-1.41
1065.614	-7.81
1066.035	-4.61
1066.457	3.19
1066.878	1.19
1067.3	-8.81
1067.721	-5.81
1068.142	-7.01
1068.564	-6.71
1068.985	-3.61
1069.406	0.49
1069.827	-5.31
1070.248	3.09
1070.67	-9.51
1071.091	-5.51
1071.512	-3.41
1071.933	-4.91
1072.354	-10.91
1072.775	-3.81
1073.196	-4.11
1073.617	-0.41
1074.038	-4.51
1074.459	-0.81
1074.88	-6.51
1075.3	2.59
1075.721	-6.31
1076.142	-2.21
1076.563	-2.11
1076.983	-16.01
1077.404	-7.41
1077.825	-15.91
1078.246	-9.81
1078.666	-7.21
1079.087	-2.21
1079.507	-2.81
1079.928	3.29
1080.348	1.79
1080.769	-5.51
1081.189	-6.21
1081.61	-3.61
1082.03	-3.61
1082.451	-9.61
1082.871	-3.11
1083.291	-4.61
1083.711	-12.41
1084.132	-3.71
1084.552	-7.91
1084.972	0.29
1085.392	-13.61
1085.813	-8.61
1086.233	-8.91
1086.653	-6.31
1087.073	-4.11
1087.493	-3.81
1087.913	-5.91
1088.333	-8.71
1088.753	-10.11
1089.173	3.09
1089.593	-3.81
1090.013	2.69
1090.433	-0.71
1090.852	-5.01
1091.272	-1.41
1091.692	-4.21
1092.112	-4.91
1092.531	-8.91
1092.951	-16.31
1093.371	-8.81
1093.79	4.19
1094.21	-6.81
1094.63	-5.11
1095.049	-7.31
1095.469	-5.11
1095.888	0.29
1096.308	-4.71
1096.727	0.59
1097.146	-2.71
1097.566	2.99
1097.985	-6.21
1098.405	-1.61
1098.824	-8.31
1099.243	-4.61
1099.662	-7.71
1100.082	-1.21
1100.501	-5.81
1100.92	-3.91
1101.339	-7.71
1101.758	-3.01
