Data from 20171114-ORNL-Ar_H_NY_Subt18_08-06-24-829.txt Node
Date: Tue Nov 14 08:06:24 EST 2017
User: Ender
Spectrometer: HR+D1039
Trigger mode: 0
Integration Time (sec): 2.730000E-2
Scans to average: 10
Electric dark correction enabled: true
Nonlinearity correction enabled: false
Boxcar width: 0
XAxis mode: Wavelengths
Number of Pixels in Spectrum: 2048
>>>>>Begin Spectral Data<<<<<
187.836	-0.31
188.309	-0.31
188.782	-0.31
189.255	1.39
189.728	-3.21
190.201	4.99
190.674	-2.51
191.147	2.29
191.619	-8.91
192.092	2.99
192.565	4.99
193.038	3.09
193.511	4.69
193.984	0.39
194.456	-6.51
194.929	2.59
195.402	-5.71
195.874	-0.31
196.347	0.49
196.82	-5.51
197.292	7.39
197.765	-2.01
198.237	-4.71
198.71	2.99
199.182	-4.01
199.655	1.69
200.127	1.79
200.6	-6.61
201.072	-6.81
201.544	-5.11
202.017	-5.81
202.489	4.49
202.961	-1.71
203.433	-3.11
203.906	-8.01
204.378	-6.31
204.85	-0.31
205.322	-12.51
205.794	-7.91
206.266	-8.61
206.739	-8.61
207.211	3.19
207.683	-7.71
208.155	-3.81
208.627	-3.11
209.099	-1.01
209.57	-9.41
210.042	-5.31
210.514	-4.41
210.986	-2.11
211.458	-15.91
211.93	-2.21
212.402	0.79
212.873	-13.01
213.345	-7.91
213.817	-9.21
214.288	-6.01
214.76	-12.71
215.232	-3.31
215.703	-3.41
216.175	-0.61
216.646	-6.01
217.118	-5.71
217.589	-6.41
218.061	-5.71
218.532	2.79
219.004	-3.31
219.475	-4.81
219.946	-8.61
220.418	-9.11
220.889	3.29
221.36	-6.01
221.832	0.09
222.303	-7.01
222.774	-0.91
223.245	-10.51
223.717	-9.51
224.188	-6.71
224.659	-4.31
225.13	-9.51
225.601	-7.61
226.072	-3.81
226.543	0.39
227.014	-4.81
227.485	-2.61
227.956	-0.81
228.427	-5.51
228.898	-2.31
229.369	0.09
229.839	-4.51
230.31	-9.81
230.781	2.29
231.252	-6.11
231.722	-3.81
232.193	-0.21
232.664	-3.51
233.135	0.49
233.605	-3.31
234.076	-4.21
234.546	9.29
235.017	4.89
235.487	-0.91
235.958	-2.01
236.428	-9.51
236.899	5.59
237.369	2.39
237.84	-0.71
238.31	4.09
238.78	-3.31
239.251	-3.41
239.721	-0.41
240.191	-0.11
240.662	-0.01
241.132	-1.51
241.602	-1.31
242.072	1.49
242.542	1.69
243.013	1.19
243.483	5.19
243.953	2.99
244.423	2.79
244.893	-4.81
245.363	0.49
245.833	-5.01
246.303	-2.81
246.773	10.49
247.243	1.49
247.712	2.69
248.182	9.89
248.652	5.59
249.122	-0.91
249.592	11.19
250.061	17.49
250.531	31.19
251.001	12.29
251.471	12.69
251.94	18.19
252.41	4.39
252.879	3.89
253.349	9.39
253.818	6.99
254.288	0.49
254.757	5.19
255.227	2.49
255.696	5.19
256.166	6.99
256.635	6.59
257.105	9.59
257.574	-0.91
258.043	4.29
258.513	8.99
258.982	21.29
259.451	2.99
259.92	10.69
260.389	8.89
260.859	17.79
261.328	13.69
261.797	12.99
262.266	8.59
262.735	11.99
263.204	6.09
263.673	5.29
264.142	3.79
264.611	-4.71
265.08	2.49
265.549	-1.91
266.018	3.39
266.487	-2.61
266.955	-3.51
267.424	5.49
267.893	6.09
268.362	-1.91
268.83	1.39
269.299	9.69
269.768	5.89
270.236	3.29
270.705	1.69
271.174	7.19
271.642	6.19
272.111	8.59
272.579	10.69
273.048	15.19
273.516	25.09
273.985	31.69
274.453	19.69
274.922	19.79
275.39	10.29
275.858	2.69
276.327	8.19
276.795	12.59
277.263	7.39
277.731	35.69
278.2	50.69
278.668	56.39
279.136	41.99
279.604	19.59
280.072	13.99
280.54	10.69
281.008	8.39
281.477	11.09
281.945	11.19
282.413	17.79
282.881	12.09
283.348	7.69
283.816	17.39
284.284	15.19
284.752	14.89
285.22	12.09
285.688	11.89
286.156	20.49
286.623	42.69
287.091	47.29
287.559	27.19
288.026	12.29
288.494	16.49
288.962	3.99
289.429	9.29
289.897	17.29
290.364	16.89
290.832	19.59
291.3	11.79
291.767	22.69
292.234	16.69
292.702	14.99
293.169	17.69
293.637	19.09
294.104	19.99
294.571	7.19
295.039	12.79
295.506	17.39
295.973	20.69
296.44	12.29
296.908	18.59
297.375	20.39
297.842	19.49
298.309	14.59
298.776	14.29
299.243	22.29
299.71	14.79
300.177	21.29
300.644	22.99
301.111	18.39
301.578	21.79
302.045	14.39
302.512	22.59
302.979	25.89
303.446	24.89
303.913	17.99
304.379	14.59
304.846	25.79
305.313	22.89
305.78	16.69
306.246	27.89
306.713	24.39
307.18	24.99
307.646	22.99
308.113	26.39
308.579	29.29
309.046	26.49
309.512	22.39
309.979	16.19
310.445	30.39
310.912	32.49
311.378	24.69
311.845	30.69
312.311	33.79
312.777	27.69
313.244	29.39
313.71	40.49
314.176	30.39
314.642	30.89
315.109	30.09
315.575	33.49
316.041	39.79
316.507	37.99
316.973	36.69
317.439	39.69
317.905	40.69
318.371	42.69
318.837	35.69
319.303	30.99
319.769	28.49
320.235	32.69
320.701	38.69
321.167	32.89
321.633	31.29
322.099	37.39
322.564	43.39
323.03	38.19
323.496	36.79
323.962	40.19
324.427	39.89
324.893	41.69
325.359	40.89
325.824	40.49
326.29	43.19
326.755	41.59
327.221	39.09
327.686	42.49
328.152	42.19
328.617	41.69
329.083	51.49
329.548	47.79
330.014	50.79
330.479	41.79
330.944	43.99
331.41	44.39
331.875	42.49
332.34	43.29
332.805	43.59
333.271	46.89
333.736	47.09
334.201	44.39
334.666	47.89
335.131	56.89
335.596	50.39
336.061	47.69
336.526	43.99
336.991	45.29
337.456	59.79
337.921	50.59
338.386	42.59
338.851	41.99
339.316	49.89
339.781	48.69
340.246	50.19
340.711	43.69
341.175	56.39
341.64	46.49
342.105	57.59
342.569	57.09
343.034	59.69
343.499	57.59
343.963	53.99
344.428	55.09
344.893	59.79
345.357	60.19
345.822	58.99
346.286	69.09
346.751	70.69
347.215	68.39
347.679	69.39
348.144	98.19
348.608	82.99
349.073	73.79
349.537	75.19
350.001	74.59
350.465	87.89
350.93	79.19
351.394	81.39
351.858	77.09
352.322	90.89
352.786	83.09
353.25	101.69
353.715	110.49
354.179	93.39
354.643	124.79
355.107	131.39
355.571	104.19
356.035	104.09
356.498	118.29
356.962	122.79
357.426	131.69
357.89	122.09
358.354	89.99
358.818	76.89
359.281	78.29
359.745	77.59
360.209	76.29
360.673	77.29
361.136	86.19
361.6	87.89
362.064	83.89
362.527	78.29
362.991	87.79
363.454	77.49
363.918	73.89
364.381	91.99
364.845	85.49
365.308	87.39
365.772	84.99
366.235	80.19
366.698	84.89
367.162	84.49
367.625	85.89
368.088	88.29
368.552	85.49
369.015	92.39
369.478	97.09
369.941	98.69
370.404	97.69
370.867	103.89
371.331	109.39
371.794	111.59
372.257	112.19
372.72	119.49
373.183	105.89
373.646	97.99
374.109	107.19
374.572	105.79
375.035	117.19
375.497	114.69
375.96	109.79
376.423	102.49
376.886	112.79
377.349	109.99
377.811	106.69
378.274	101.59
378.737	111.89
379.199	115.39
379.662	115.19
380.125	115.29
380.587	113.09
381.05	120.79
381.512	132.09
381.975	135.39
382.437	127.99
382.9	125.79
383.362	128.79
383.825	140.49
384.287	145.79
384.75	139.49
385.212	135.79
385.674	141.59
386.136	135.59
386.599	126.19
387.061	130.49
387.523	134.59
387.985	137.19
388.447	142.79
388.91	144.19
389.372	159.39
389.834	149.69
390.296	148.09
390.758	148.29
391.22	165.99
391.682	211.89
392.144	297.49
392.606	230.69
393.068	168.59
393.529	172.49
393.991	154.29
394.453	151.89
394.915	160.39
395.377	185.99
395.838	213.69
396.3	154.09
396.762	145.69
397.224	126.19
397.685	132.19
398.147	128.69
398.608	133.59
399.07	132.29
399.531	136.09
399.993	140.89
400.454	157.49
400.916	149.59
401.377	149.49
401.839	150.09
402.3	150.79
402.762	170.59
403.223	183.79
403.684	176.19
404.145	159.79
404.607	161.39
405.068	161.99
405.529	174.99
405.99	195.29
406.451	185.09
406.913	180.99
407.374	164.19
407.835	164.99
408.296	176.39
408.757	179.69
409.218	190.39
409.679	187.29
410.14	179.99
410.601	182.49
411.062	186.89
411.522	195.19
411.983	190.99
412.444	182.69
412.905	182.49
413.366	190.19
413.826	196.79
414.287	218.49
414.748	262.89
415.208	251.09
415.669	216.59
416.13	209.89
416.59	205.39
417.051	214.59
417.511	221.69
417.972	244.39
418.432	249.09
418.893	293.59
419.353	254.99
419.814	204.09
420.274	196.49
420.734	182.99
421.195	205.89
421.655	193.19
422.115	196.19
422.576	194.19
423.036	196.69
423.496	215.59
423.956	220.89
424.416	242.29
424.876	266.39
425.336	265.99
425.797	263.49
426.257	256.59
426.717	238.99
427.177	242.99
427.637	224.49
428.097	243.39
428.556	249.19
429.016	276.59
429.476	278.09
429.936	285.69
430.396	281.79
430.856	298.29
431.315	326.49
431.775	352.39
432.235	394.99
432.694	362.99
433.154	371.79
433.614	398.89
434.073	347.49
434.533	295.39
434.993	280.39
435.452	288.29
435.912	304.09
436.371	296.19
436.83	290.59
437.29	284.19
437.749	254.59
438.209	251.69
438.668	278.29
439.127	293.49
439.587	271.59
440.046	252.99
440.505	266.89
440.964	287.69
441.424	337.09
441.883	323.19
442.342	267.59
442.801	232.09
443.26	226.49
443.719	220.69
444.178	219.49
444.637	212.29
445.096	222.99
445.555	234.49
446.014	231.59
446.473	227.89
446.932	238.49
447.391	228.19
447.849	228.79
448.308	230.19
448.767	232.69
449.226	237.19
449.685	238.19
450.143	247.19
450.602	244.49
451.061	232.19
451.519	243.29
451.978	238.29
452.436	240.29
452.895	240.29
453.353	258.89
453.812	245.19
454.27	245.39
454.729	245.79
455.187	247.39
455.646	254.69
456.104	253.59
456.562	266.79
457.021	275.09
457.479	263.99
457.937	287.69
458.395	270.49
458.854	248.19
459.312	261.09
459.77	282.19
460.228	256.39
460.686	252.49
461.144	256.19
461.602	258.59
462.06	248.89
462.518	260.59
462.976	258.89
463.434	261.69
463.892	265.49
464.35	287.89
464.808	296.69
465.266	268.89
465.724	278.59
466.181	283.69
466.639	272.39
467.097	295.79
467.555	309.89
468.012	312.69
468.47	330.69
468.928	337.09
469.385	355.89
469.843	358.79
470.3	353.49
470.758	375.59
471.215	396.99
471.673	423.69
472.13	418.69
472.588	430.19
473.045	384.09
473.503	385.89
473.96	405.99
474.417	411.99
474.875	450.69
475.332	485.89
475.789	473.49
476.246	480.89
476.704	501.29
477.161	519.69
477.618	539.09
478.075	572.59
478.532	637.89
478.989	700.79
479.446	828.09
479.903	785.89
480.36	841.49
480.817	883.39
481.274	985.89
481.731	1081.29
482.188	1198.69
482.645	1322.89
483.102	1431.59
483.558	1564.99
484.015	1628.29
484.472	1590.79
484.929	1547.29
485.385	1494.09
485.842	1455.99
486.299	1388.39
486.755	1333.89
487.212	1116.59
487.668	942.19
488.125	875.49
488.582	800.09
489.038	764.29
489.494	720.09
489.951	703.19
490.407	683.39
490.864	668.59
491.32	651.49
491.776	658.39
492.233	660.89
492.689	633.69
493.145	615.09
493.602	617.59
494.058	625.29
494.514	625.09
494.97	657.09
495.426	668.09
495.882	636.39
496.338	624.09
496.794	643.69
497.251	638.29
497.707	652.19
498.163	659.79
498.618	661.09
499.074	660.09
499.53	687.89
499.986	685.29
500.442	669.29
500.898	645.39
501.354	641.49
501.809	656.19
502.265	668.59
502.721	674.89
503.177	687.49
503.632	684.99
504.088	686.99
504.543	723.59
504.999	720.59
505.455	670.49
505.91	655.49
506.366	657.89
506.821	643.59
507.277	642.99
507.732	636.99
508.187	638.69
508.643	650.79
509.098	649.79
509.553	671.59
510.009	678.49
510.464	685.19
510.919	708.59
511.375	711.39
511.83	726.69
512.285	740.69
512.74	767.89
513.195	809.99
513.65	794.79
514.105	792.79
514.56	792.29
515.015	809.09
515.47	830.09
515.925	814.29
516.38	809.69
516.835	813.89
517.29	803.99
517.745	805.09
518.2	785.59
518.655	774.49
519.109	761.59
519.564	763.59
520.019	756.59
520.474	760.69
520.928	741.09
521.383	743.99
521.838	741.09
522.292	737.49
522.747	729.59
523.201	723.99
523.656	714.49
524.11	707.59
524.565	716.79
525.019	708.99
525.474	726.39
525.928	718.49
526.382	710.49
526.837	708.39
527.291	721.79
527.745	713.69
528.2	713.39
528.654	716.99
529.108	701.29
529.562	704.39
530.016	709.09
530.47	719.19
530.925	725.59
531.379	715.29
531.833	715.09
532.287	715.29
532.741	726.19
533.195	730.79
533.649	731.59
534.103	739.39
534.556	721.59
535.01	740.79
535.464	721.19
535.918	733.19
536.372	735.39
536.826	739.69
537.279	725.79
537.733	731.99
538.187	733.59
538.64	737.09
539.094	748.99
539.548	741.49
540.001	747.39
540.455	748.09
540.908	756.29
541.362	760.59
541.815	773.89
542.269	780.39
542.722	788.99
543.175	795.49
543.629	790.99
544.082	809.09
544.536	809.09
544.989	810.79
545.442	807.29
545.895	813.09
546.349	807.79
546.802	811.29
547.255	822.59
547.708	831.69
548.161	846.79
548.614	849.59
549.067	854.69
549.52	837.79
549.973	841.09
550.426	825.19
550.879	817.69
551.332	822.29
551.785	833.19
552.238	829.59
552.691	846.89
553.144	851.19
553.596	873.89
554.049	892.69
554.502	911.99
554.955	939.79
555.407	932.09
555.86	924.29
556.313	921.69
556.765	902.09
557.218	912.29
557.67	915.49
558.123	902.49
558.576	905.29
559.028	904.29
559.48	901.09
559.933	892.79
560.385	860.79
560.838	837.99
561.29	809.09
561.742	797.59
562.195	788.39
562.647	778.29
563.099	794.99
563.551	788.79
564.004	804.89
564.456	789.79
564.908	784.99
565.36	759.89
565.812	754.19
566.264	748.59
566.716	738.69
567.168	729.69
567.62	737.09
568.072	725.69
568.524	717.79
568.976	715.69
569.428	690.99
569.88	688.29
570.332	701.49
570.784	703.89
571.235	706.29
571.687	716.39
572.139	716.09
572.59	739.89
573.042	729.99
573.494	726.99
573.945	713.39
574.397	700.29
574.849	715.09
575.3	707.99
575.752	697.09
576.203	698.49
576.655	703.09
577.106	693.19
577.557	688.29
578.009	681.89
578.46	677.49
578.912	680.49
579.363	689.29
579.814	684.19
580.265	670.09
580.717	680.59
581.168	677.69
581.619	705.59
582.07	699.09
582.521	699.29
582.972	691.49
583.423	701.99
583.875	707.29
584.326	729.39
584.777	771.29
585.227	831.29
585.678	918.69
586.129	993.89
586.58	1067.69
587.031	1143.89
587.482	1281.89
587.933	1457.79
588.384	1278.69
588.834	981.99
589.285	817.29
589.736	803.49
590.186	798.59
590.637	784.19
591.088	764.39
591.538	755.19
591.989	747.39
592.439	741.99
592.89	741.79
593.34	731.89
593.791	733.19
594.241	714.49
594.692	721.79
595.142	722.09
595.593	721.69
596.043	725.89
596.493	740.19
596.943	736.09
597.394	748.09
597.844	739.69
598.294	744.59
598.744	765.89
599.195	791.69
599.645	837.49
600.095	882.89
600.545	945.89
600.995	988.59
601.445	1054.79
601.895	1111.99
602.345	1155.49
602.795	1147.89
603.245	1094.39
603.695	1037.59
604.145	973.19
604.594	934.19
605.044	880.39
605.494	821.09
605.944	774.69
606.393	759.39
606.843	737.89
607.293	748.19
607.743	746.49
608.192	759.49
608.642	778.09
609.091	784.49
609.541	781.99
609.99	780.99
610.44	783.19
610.889	739.29
611.339	720.29
611.788	703.59
612.238	716.29
612.687	734.89
613.136	735.69
613.586	757.99
614.035	746.19
614.484	768.49
614.933	766.19
615.383	758.19
615.832	745.89
616.281	740.09
616.73	708.19
617.179	681.99
617.628	669.79
618.077	648.79
618.526	641.79
618.975	637.39
619.424	630.29
619.873	629.29
620.322	634.19
620.771	621.49
621.22	620.89
621.669	604.99
622.118	600.09
622.567	594.09
623.015	593.69
623.464	584.09
623.913	568.89
624.361	564.29
624.81	569.09
625.259	567.29
625.707	574.99
626.156	574.09
626.604	579.79
627.053	569.39
627.501	582.39
627.95	584.29
628.398	599.79
628.847	579.39
629.295	583.89
629.744	589.69
630.192	580.79
630.64	580.99
631.089	575.39
631.537	590.39
631.985	590.89
632.433	609.39
632.881	601.69
633.33	663.39
633.778	628.09
634.226	566.79
634.674	579.49
635.122	585.59
635.57	599.89
636.018	630.49
636.466	587.59
636.914	575.99
637.362	585.89
637.81	582.59
638.258	592.49
638.705	594.19
639.153	618.49
639.601	633.89
640.049	656.99
640.497	682.89
640.944	706.19
641.392	651.99
641.84	626.29
642.287	599.09
642.735	585.59
643.182	581.39
643.63	585.09
644.078	588.19
644.525	605.39
644.973	608.59
645.42	611.49
645.867	639.89
646.315	648.69
646.762	674.09
647.21	704.09
647.657	731.99
648.104	769.29
648.551	784.39
648.999	843.09
649.446	926.69
649.893	1021.79
650.34	1176.09
650.787	1410.39
651.234	1742.99
651.682	2281.79
652.129	3130.79
652.576	4517.09
653.023	6627.69
653.47	9119.29
653.917	11358.69
654.363	13122.79
654.81	14445.89
655.257	13766.19
655.704	9004.59
656.151	5340.19
656.598	3471.09
657.044	2453.69
657.491	1893.69
657.938	1514.39
658.385	1266.99
658.831	1090.09
659.278	969.99
659.724	874.29
660.171	794.89
660.618	734.19
661.064	700.49
661.511	680.09
661.957	662.19
662.404	650.19
662.85	657.99
663.296	634.89
663.743	572.39
664.189	550.19
664.635	547.69
665.082	540.89
665.528	531.19
665.974	532.39
666.42	520.49
666.867	509.69
667.313	500.39
667.759	487.49
668.205	487.19
668.651	486.79
669.097	489.19
669.543	500.49
669.989	476.99
670.435	459.79
670.881	448.49
671.327	457.49
671.773	468.09
672.219	487.59
672.665	550.19
673.11	588.49
673.556	646.89
674.002	676.09
674.448	653.49
674.893	562.49
675.339	478.49
675.785	452.39
676.23	424.09
676.676	397.29
677.122	390.09
677.567	376.89
678.013	376.59
678.458	361.89
678.904	367.39
679.349	351.59
679.794	365.89
680.24	361.39
680.685	356.89
681.131	357.39
681.576	353.89
682.021	357.09
682.466	350.69
682.912	358.09
683.357	362.29
683.802	390.19
684.247	420.99
684.692	463.89
685.137	493.99
685.583	539.99
686.028	570.59
686.473	528.39
686.918	450.99
687.363	434.59
687.807	395.19
688.252	374.69
688.697	361.79
689.142	343.49
689.587	333.09
690.032	325.99
690.477	349.29
690.921	353.99
691.366	383.89
691.811	408.59
692.255	439.19
692.7	469.49
693.145	509.49
693.589	699.29
694.034	1140.79
694.478	1561.79
694.923	1770.99
695.367	2290.79
695.812	1206.99
696.256	502.19
696.701	380.49
697.145	348.59
697.59	333.89
698.034	321.89
698.478	333.59
698.922	331.09
699.367	332.49
699.811	342.29
700.255	361.69
700.699	395.19
701.143	428.59
701.588	481.69
702.032	527.29
702.476	517.69
702.92	497.09
703.364	494.79
703.808	647.19
704.252	1043.29
704.696	1479.69
705.14	1696.89
705.584	2151.39
706.027	1075.69
706.471	516.69
706.915	398.69
707.359	356.09
707.803	325.19
708.246	320.89
708.69	315.89
709.134	316.49
709.577	309.49
710.021	319.69
710.465	310.79
710.908	302.49
711.352	302.19
711.795	309.99
712.239	353.29
712.682	391.69
713.126	422.59
713.569	478.39
714.012	367.99
714.456	332.99
714.899	299.39
715.342	275.49
715.786	264.19
716.229	255.59
716.672	258.59
717.115	248.29
717.558	248.09
718.002	258.09
718.445	263.39
718.888	295.49
719.331	287.79
719.774	314.49
720.217	309.89
720.66	291.79
721.103	267.39
721.546	257.79
721.989	253.69
722.432	235.59
722.874	241.89
723.317	226.09
723.76	236.29
724.203	262.09
724.645	329.29
725.088	449.69
725.531	578.39
725.974	655.69
726.416	550.99
726.859	314.89
727.301	248.69
727.744	243.49
728.187	241.99
728.629	243.89
729.071	247.99
729.514	255.09
729.956	275.29
730.399	287.29
730.841	288.39
731.283	278.89
731.726	263.09
732.168	267.49
732.61	269.89
733.053	285.79
733.495	320.29
733.937	362.09
734.379	399.59
734.821	440.39
735.263	544.19
735.705	840.49
736.148	1581.89
736.59	2605.49
737.032	3089.69
737.474	2512.49
737.916	820.49
738.357	431.59
738.799	335.29
739.241	298.19
739.683	292.79
740.125	293.39
740.567	304.59
741.008	317.79
741.45	316.19
741.892	318.79
742.334	348.49
742.775	360.49
743.217	344.49
743.658	282.59
744.1	264.29
744.542	265.39
744.983	309.89
745.425	352.69
745.866	346.19
746.307	282.59
746.749	283.99
747.19	328.89
747.632	460.69
748.073	888.19
748.514	1888.69
748.956	2870.89
749.397	3618.19
749.838	2990.19
750.279	2992.09
750.72	1501.89
751.162	549.59
751.603	332.79
752.044	258.89
752.485	224.79
752.926	213.69
753.367	192.69
753.808	202.39
754.249	189.39
754.69	188.39
755.131	188.99
755.572	180.49
756.013	180.79
756.453	187.49
756.894	185.69
757.335	191.69
757.776	195.79
758.216	199.69
758.657	199.59
759.098	203.09
759.538	225.89
759.979	269.89
760.42	380.49
760.86	706.39
761.301	1833.59
761.741	4428.39
762.182	6497.89
762.622	4568.69
763.063	1323.59
763.503	551.09
763.943	349.69
764.384	330.09
764.824	383.59
765.264	414.29
765.705	298.49
766.145	214.29
766.585	185.59
767.025	185.09
767.465	191.59
767.906	229.39
768.346	300.59
768.786	323.09
769.226	261.19
769.666	322.59
770.106	627.09
770.546	1562.79
770.986	2657.09
771.426	2381.49
771.866	798.79
772.306	329.69
772.745	211.59
773.185	180.79
773.625	174.59
774.065	170.69
774.505	196.49
774.944	303.39
775.384	648.69
775.824	1185.99
776.263	1158.09
776.703	485.19
777.142	211.89
777.582	153.19
778.021	138.29
778.461	145.39
778.9	138.49
779.34	134.59
779.779	116.79
780.219	114.39
780.658	104.09
781.097	110.19
781.537	111.39
781.976	111.19
782.415	105.99
782.855	104.79
783.294	100.59
783.733	114.09
784.172	113.39
784.611	106.99
785.05	111.39
785.489	118.49
785.928	119.79
786.367	129.19
786.806	118.89
787.245	129.29
787.684	137.29
788.123	149.19
788.562	138.09
789.001	130.69
789.44	123.99
789.879	113.09
790.317	126.99
790.756	130.89
791.195	136.09
791.634	151.59
792.072	212.69
792.511	363.39
792.95	1006.69
793.388	2149.39
793.827	1960.99
794.265	684.59
794.704	278.69
795.142	177.99
795.581	151.19
796.019	140.09
796.458	130.69
796.896	127.79
797.334	131.59
797.773	154.89
798.211	218.79
798.649	444.99
799.087	1015.79
799.526	1601.59
799.964	2015.99
800.402	2030.29
800.84	761.89
801.278	305.99
801.716	186.49
802.154	158.49
802.592	146.79
803.03	141.09
803.468	138.69
803.906	138.79
804.344	156.89
804.782	144.29
805.22	138.09
805.658	136.69
806.096	149.49
806.533	157.09
806.971	172.79
807.409	219.49
807.847	324.09
808.284	670.19
808.722	1872.09
809.16	3325.59
809.597	3143.19
810.035	5451.79
810.472	5832.69
810.91	2103.89
811.347	790.49
811.785	405.59
812.222	255.39
812.66	193.29
813.097	164.09
813.535	144.29
813.972	130.79
814.409	123.19
814.846	111.99
815.284	111.89
815.721	107.99
816.158	110.39
816.595	117.89
817.032	179.79
817.47	201.09
817.907	168.49
818.344	147.09
818.781	116.89
819.218	93.09
819.655	122.19
820.092	182.89
820.529	215.89
820.966	177.89
821.403	132.59
821.839	113.49
822.276	102.69
822.713	125.49
823.15	138.49
823.587	117.29
824.023	150.89
824.46	301.69
824.897	893.69
825.333	1378.49
825.77	587.29
826.206	227.69
826.643	132.59
827.08	106.19
827.516	85.49
827.953	81.59
828.389	79.59
828.825	75.59
829.262	66.89
829.698	62.89
830.135	70.19
830.571	64.79
831.007	62.79
831.443	65.19
831.88	51.89
832.316	64.49
832.752	69.59
833.188	71.49
833.624	63.49
834.06	70.99
834.497	65.19
834.933	73.29
835.369	69.69
835.805	67.29
836.241	76.69
836.677	72.49
837.112	88.19
837.548	101.29
837.984	134.19
838.42	198.49
838.856	494.99
839.292	1505.89
839.727	2315.59
840.163	1075.69
840.599	932.69
841.034	2034.59
841.47	2131.29
841.906	781.19
842.341	336.29
842.777	226.09
843.212	304.69
843.648	303.59
844.083	141.49
844.519	95.39
844.954	77.79
845.39	56.89
845.825	59.59
846.261	60.49
846.696	50.69
847.131	44.79
847.566	58.09
848.002	52.89
848.437	56.19
848.872	59.79
849.307	56.89
849.742	87.29
850.177	177.49
850.613	556.49
851.048	899.49
851.483	385.99
851.918	159.09
852.353	92.59
852.788	60.89
853.223	56.79
853.657	52.59
854.092	46.39
854.527	37.89
854.962	40.89
855.397	46.69
855.832	46.59
856.266	44.19
856.701	42.89
857.136	39.89
857.57	47.89
858.005	51.39
858.44	61.89
858.874	43.39
859.309	54.99
859.743	37.79
860.178	49.79
860.612	37.49
861.047	53.99
861.481	72.19
861.915	64.69
862.35	47.39
862.784	36.29
863.218	42.29
863.653	33.89
864.087	47.39
864.521	55.19
864.955	67.69
865.39	165.49
865.824	180.49
866.258	118.29
866.692	163.39
867.126	179.69
867.56	105.09
867.994	50.19
868.428	37.89
868.862	45.99
869.296	50.39
869.73	53.09
870.164	57.09
870.598	47.19
871.031	34.19
871.465	26.39
871.899	27.09
872.333	22.59
872.766	24.59
873.2	25.09
873.634	33.49
874.067	31.09
874.501	25.39
874.935	35.59
875.368	30.29
875.802	28.69
876.235	25.09
876.669	22.59
877.102	17.39
877.535	22.59
877.969	23.19
878.402	24.49
878.836	18.29
879.269	24.79
879.702	24.59
880.135	16.69
880.569	23.89
881.002	27.79
881.435	19.29
881.868	17.29
882.301	24.59
882.734	17.49
883.167	20.29
883.601	20.89
884.034	24.39
884.467	10.89
884.899	22.29
885.332	14.59
885.765	16.49
886.198	10.39
886.631	14.49
887.064	18.89
887.497	23.49
887.929	27.99
888.362	5.39
888.795	10.29
889.228	19.29
889.66	14.69
890.093	16.09
890.526	20.59
890.958	17.59
891.391	14.29
891.823	21.79
892.256	11.49
892.688	12.59
893.121	15.49
893.553	10.89
893.985	23.09
894.418	25.79
894.85	13.69
895.282	18.39
895.715	21.39
896.147	18.19
896.579	19.19
897.011	13.79
897.444	17.49
897.876	11.69
898.308	12.39
898.74	16.89
899.172	14.69
899.604	22.59
900.036	17.09
900.468	9.49
900.9	15.89
901.332	15.39
901.764	15.59
902.196	14.99
902.628	14.09
903.06	11.69
903.491	28.69
903.923	21.69
904.355	17.59
904.787	22.19
905.218	22.79
905.65	13.79
906.082	9.69
906.513	12.59
906.945	13.39
907.376	11.19
907.808	19.69
908.239	22.79
908.671	16.99
909.102	18.19
909.534	21.99
909.965	45.79
910.397	89.49
910.828	316.79
911.259	472.99
911.691	220.19
912.122	106.69
912.553	53.89
912.984	34.29
913.415	27.19
913.847	25.79
914.278	19.29
914.709	12.79
915.14	11.99
915.571	15.29
916.002	8.19
916.433	17.99
916.864	21.49
917.295	12.79
917.726	23.99
918.157	15.49
918.587	27.99
919.018	22.69
919.449	24.39
919.88	24.09
920.311	30.59
920.741	49.49
921.172	170.09
921.603	154.69
922.033	67.29
922.464	44.29
922.895	18.99
923.325	17.59
923.756	21.69
924.186	17.69
924.617	24.19
925.047	43.39
925.478	53.29
925.908	41.89
926.338	28.99
926.769	18.79
927.199	20.79
927.629	8.39
928.06	13.29
928.49	13.79
928.92	15.89
929.35	8.99
929.78	9.69
930.21	10.59
930.641	12.09
931.071	14.09
931.501	-0.81
931.931	7.59
932.361	10.49
932.791	3.69
933.221	5.49
933.651	-1.61
934.08	22.79
934.51	32.29
934.94	13.99
935.37	10.29
935.8	12.89
936.229	10.89
936.659	5.29
937.089	4.59
937.519	15.79
937.948	25.89
938.378	17.09
938.807	6.89
939.237	7.69
939.666	10.69
940.096	-3.21
940.525	2.99
940.955	1.99
941.384	1.39
941.814	-0.51
942.243	-5.41
942.672	5.19
943.102	-0.81
943.531	-1.61
943.96	6.09
944.39	6.19
944.819	-0.11
945.248	5.99
945.677	7.79
946.106	4.79
946.535	7.29
946.964	1.19
947.393	1.99
947.822	1.19
948.251	-5.61
948.68	-1.81
949.109	3.09
949.538	7.99
949.967	-0.41
950.396	4.19
950.825	-0.71
951.254	-2.31
951.682	-10.31
952.111	7.49
952.54	3.49
952.969	-1.81
953.397	-6.11
953.826	0.89
954.254	-4.81
954.683	0.29
955.112	4.99
955.54	-2.91
955.969	0.99
956.397	-2.91
956.826	-6.01
957.254	-0.81
957.682	-1.31
958.111	3.19
958.539	0.19
958.967	3.89
959.396	-0.71
959.824	3.29
960.252	3.09
960.68	-2.71
961.109	0.79
961.537	-7.51
961.965	-2.91
962.393	-1.61
962.821	1.39
963.249	-4.71
963.677	5.79
964.105	10.69
964.533	42.29
964.961	41.09
965.389	16.59
965.817	0.39
966.245	-3.41
966.672	4.59
967.1	-4.71
967.528	-0.91
967.956	2.39
968.383	0.49
968.811	-7.21
969.239	-2.81
969.666	-2.61
970.094	3.89
970.522	0.69
970.949	-0.01
971.377	-5.31
971.804	-2.91
972.232	-0.81
972.659	3.49
973.087	-4.51
973.514	-5.21
973.941	-2.71
974.369	3.39
974.796	2.59
975.223	-3.01
975.651	-6.21
976.078	4.29
976.505	-1.71
976.932	5.29
977.359	18.89
977.786	13.19
978.214	4.19
978.641	-1.31
979.068	-9.81
979.495	-7.31
979.922	3.69
980.349	0.79
980.776	5.69
981.202	1.59
981.629	0.39
982.056	5.99
982.483	-1.41
982.91	5.29
983.337	2.09
983.763	2.59
984.19	-3.61
984.617	-4.11
985.043	-3.31
985.47	-0.81
985.897	-4.71
986.323	-7.81
986.75	4.99
987.176	0.09
987.603	-4.31
988.029	-3.21
988.456	-3.31
988.882	0.09
989.308	-9.11
989.735	-5.51
990.161	-4.21
990.587	-2.71
991.014	0.29
991.44	3.39
991.866	1.79
992.292	-4.41
992.719	1.99
993.145	3.99
993.571	-5.51
993.997	2.59
994.423	-2.11
994.849	-3.01
995.275	2.59
995.701	0.49
996.127	-1.11
996.553	0.39
996.979	-3.51
997.405	-8.61
997.83	-6.01
998.256	-5.71
998.682	-8.01
999.108	-9.71
999.534	-2.71
999.959	-4.21
1000.385	-12.41
1000.811	-2.61
1001.236	-13.91
1001.662	-12.81
1002.087	-10.31
1002.513	-1.81
1002.938	3.09
1003.364	-4.91
1003.789	-3.61
1004.215	3.59
1004.64	-2.11
1005.066	5.29
1005.491	2.29
1005.916	0.69
1006.342	-5.41
1006.767	-9.31
1007.192	7.29
1007.617	-7.71
1008.042	-4.41
1008.468	-4.31
1008.893	-7.31
1009.318	-3.71
1009.743	-5.01
1010.168	-1.71
1010.593	-0.91
1011.018	-4.91
1011.443	5.69
1011.868	2.79
1012.293	-14.51
1012.718	-6.11
1013.143	-5.61
1013.567	4.59
1013.992	-6.81
1014.417	-9.41
1014.842	-2.91
1015.267	-4.91
1015.691	-3.51
1016.116	2.89
1016.541	-6.31
1016.965	0.79
1017.39	5.69
1017.814	-8.31
1018.239	-2.21
1018.663	-5.21
1019.088	-9.71
1019.512	-2.61
1019.937	-4.51
1020.361	-5.41
1020.785	-9.41
1021.21	-4.61
1021.634	-9.21
1022.058	0.39
1022.483	0.69
1022.907	1.59
1023.331	-1.11
1023.755	-3.61
1024.179	-2.21
1024.604	-6.31
1025.028	-8.61
1025.452	-8.51
1025.876	-1.91
1026.3	-3.71
1026.724	-8.91
1027.148	-12.11
1027.572	-7.91
1027.996	-2.91
1028.42	-3.11
1028.843	-6.01
1029.267	-6.81
1029.691	-5.11
1030.115	-11.51
1030.539	-10.31
1030.962	-1.21
1031.386	-7.61
1031.81	-1.51
1032.233	-2.71
1032.657	-2.01
1033.08	-3.11
1033.504	-1.31
1033.927	-8.41
1034.351	-2.41
1034.774	-8.81
1035.198	-7.21
1035.621	-7.71
1036.045	-5.31
1036.468	1.39
1036.891	-16.31
1037.315	-4.61
1037.738	-7.11
1038.161	4.39
1038.584	-4.11
1039.008	-10.11
1039.431	-6.81
1039.854	-1.91
1040.277	-9.81
1040.7	-12.31
1041.123	0.59
1041.546	-9.31
1041.969	-2.11
1042.392	-1.81
1042.815	-6.81
1043.238	-1.11
1043.661	1.59
1044.084	-9.01
1044.507	-10.71
1044.93	-0.41
1045.352	-5.01
1045.775	-0.71
1046.198	-6.31
1046.621	2.09
1047.043	5.09
1047.466	1.59
1047.889	-6.91
1048.311	-6.21
1048.734	-3.21
1049.156	-6.01
1049.579	-0.91
1050.001	-6.21
1050.424	0.29
1050.846	-5.21
1051.269	-1.51
1051.691	-6.31
1052.113	-2.21
1052.536	-0.41
1052.958	-3.71
1053.38	-0.51
1053.802	-7.81
1054.225	-0.21
1054.647	-13.11
1055.069	-12.71
1055.491	-2.11
1055.913	-7.21
1056.335	0.69
1056.757	-7.01
1057.179	-10.81
1057.601	-5.11
1058.023	-2.31
1058.445	-7.01
1058.867	-4.81
1059.289	-5.81
1059.711	-8.41
1060.133	-2.91
1060.555	-10.11
1060.976	-7.71
1061.398	-13.01
1061.82	-5.51
1062.241	-5.81
1062.663	-6.51
1063.085	-3.41
1063.506	-3.51
1063.928	-4.41
1064.35	-7.21
1064.771	-10.71
1065.193	-6.11
1065.614	-10.11
1066.035	-7.21
1066.457	-3.61
1066.878	-4.81
1067.3	-8.61
1067.721	-4.91
1068.142	-2.01
1068.564	-1.41
1068.985	-3.41
1069.406	-5.81
1069.827	-7.21
1070.248	0.39
1070.67	-5.41
1071.091	-5.81
1071.512	-5.81
1071.933	-6.61
1072.354	-9.91
1072.775	-13.81
1073.196	-12.61
1073.617	-6.71
1074.038	-2.41
1074.459	-5.11
1074.88	-9.61
1075.3	-2.51
1075.721	-6.21
1076.142	-4.91
1076.563	-6.81
1076.983	-11.11
1077.404	-11.21
1077.825	-10.41
1078.246	-0.11
1078.666	-10.01
1079.087	-9.31
1079.507	-10.51
1079.928	-8.61
1080.348	-4.81
1080.769	-5.01
1081.189	-3.91
1081.61	-2.61
1082.03	-9.81
1082.451	-4.71
1082.871	-10.31
1083.291	-8.21
1083.711	-14.51
1084.132	-2.81
1084.552	-9.11
1084.972	0.39
1085.392	-8.41
1085.813	-10.01
1086.233	-9.91
1086.653	-3.91
1087.073	-6.71
1087.493	-10.71
1087.913	-10.91
1088.333	-7.81
1088.753	-7.41
1089.173	-2.31
1089.593	-2.61
1090.013	-1.21
1090.433	-0.81
1090.852	-0.81
1091.272	-2.31
1091.692	-6.11
1092.112	-6.51
1092.531	-5.21
1092.951	-15.71
1093.371	-6.51
1093.79	1.99
1094.21	-10.41
1094.63	-9.91
1095.049	-7.81
1095.469	-5.01
1095.888	-4.71
1096.308	2.59
1096.727	-0.61
1097.146	-3.51
1097.566	-1.81
1097.985	-2.91
1098.405	-3.61
1098.824	-6.31
1099.243	-4.71
1099.662	-12.71
1100.082	-2.71
1100.501	-0.31
1100.92	-8.21
1101.339	-8.51
1101.758	-6.71
