Data from 20171114-ORNL-Ar_H_NY_Subt18_08-08-00-370.txt Node
Date: Tue Nov 14 08:08:00 EST 2017
User: Ender
Spectrometer: HR+D1039
Trigger mode: 0
Integration Time (sec): 2.730000E-2
Scans to average: 10
Electric dark correction enabled: true
Nonlinearity correction enabled: false
Boxcar width: 0
XAxis mode: Wavelengths
Number of Pixels in Spectrum: 2048
>>>>>Begin Spectral Data<<<<<
187.836	-3.11
188.309	-3.11
188.782	-3.11
189.255	0.69
189.728	0.59
190.201	3.39
190.674	0.39
191.147	6.39
191.619	-9.51
192.092	-0.01
192.565	-0.51
193.038	-2.31
193.511	0.29
193.984	4.79
194.456	1.09
194.929	2.19
195.402	-4.41
195.874	0.09
196.347	-0.61
196.82	-5.91
197.292	3.59
197.765	-6.41
198.237	-2.11
198.71	5.39
199.182	1.19
199.655	5.79
200.127	3.99
200.6	-4.11
201.072	-2.11
201.544	-1.51
202.017	2.79
202.489	7.09
202.961	0.89
203.433	-5.31
203.906	-3.81
204.378	-6.41
204.85	-3.31
205.322	-3.61
205.794	-1.71
206.266	3.19
206.739	-3.01
207.211	2.79
207.683	-0.11
208.155	-4.41
208.627	-7.21
209.099	-3.01
209.57	-7.41
210.042	-1.51
210.514	3.59
210.986	5.29
211.458	-6.91
211.93	-0.61
212.402	-0.21
212.873	-5.01
213.345	-9.01
213.817	-13.01
214.288	2.19
214.76	-14.31
215.232	-1.01
215.703	-0.01
216.175	-1.51
216.646	1.49
217.118	-6.91
217.589	-2.61
218.061	-2.41
218.532	-4.81
219.004	-0.71
219.475	-3.01
219.946	-9.41
220.418	-2.71
220.889	1.79
221.36	2.09
221.832	-6.21
222.303	-7.21
222.774	-0.51
223.245	-11.21
223.717	-5.31
224.188	-4.61
224.659	-8.41
225.13	-1.51
225.601	0.29
226.072	1.09
226.543	-1.51
227.014	4.49
227.485	-3.51
227.956	-3.11
228.427	-3.41
228.898	0.39
229.369	8.49
229.839	1.59
230.31	-4.11
230.781	4.69
231.252	8.29
231.722	-5.51
232.193	-2.41
232.664	1.79
233.135	1.39
233.605	1.09
234.076	-3.91
234.546	0.79
235.017	-2.91
235.487	3.59
235.958	-5.51
236.428	-3.71
236.899	2.29
237.369	3.09
237.84	0.99
238.31	6.89
238.78	5.29
239.251	-1.41
239.721	6.49
240.191	-0.21
240.662	4.19
241.132	5.39
241.602	0.69
242.072	2.09
242.542	5.09
243.013	0.89
243.483	3.99
243.953	-0.31
244.423	6.59
244.893	-1.11
245.363	0.79
245.833	-0.81
246.303	-2.01
246.773	11.99
247.243	3.79
247.712	5.29
248.182	6.49
248.652	6.49
249.122	-3.51
249.592	12.49
250.061	26.39
250.531	28.89
251.001	19.59
251.471	19.39
251.94	20.19
252.41	3.09
252.879	-1.01
253.349	12.59
253.818	7.39
254.288	4.59
254.757	5.39
255.227	1.59
255.696	7.19
256.166	0.89
256.635	9.09
257.105	13.79
257.574	7.59
258.043	7.59
258.513	10.29
258.982	15.79
259.451	9.89
259.92	9.99
260.389	2.89
260.859	19.29
261.328	14.19
261.797	16.19
262.266	6.69
262.735	10.69
263.204	6.99
263.673	4.69
264.142	10.29
264.611	1.19
265.08	0.09
265.549	0.89
266.018	7.19
266.487	2.89
266.955	2.29
267.424	2.29
267.893	9.99
268.362	4.09
268.83	4.49
269.299	12.09
269.768	1.59
270.236	5.89
270.705	0.39
271.174	5.39
271.642	9.79
272.111	11.29
272.579	20.49
273.048	24.09
273.516	26.59
273.985	28.89
274.453	24.09
274.922	19.29
275.39	11.39
275.858	2.89
276.327	7.59
276.795	16.99
277.263	10.29
277.731	32.99
278.2	51.59
278.668	49.79
279.136	42.79
279.604	22.69
280.072	12.79
280.54	17.69
281.008	3.39
281.477	12.39
281.945	9.09
282.413	9.89
282.881	18.39
283.348	9.79
283.816	18.49
284.284	12.29
284.752	17.19
285.22	16.09
285.688	18.79
286.156	18.59
286.623	43.09
287.091	55.39
287.559	28.19
288.026	18.39
288.494	18.59
288.962	6.39
289.429	11.49
289.897	17.79
290.364	11.69
290.832	14.69
291.3	16.69
291.767	14.99
292.234	19.89
292.702	17.09
293.169	18.69
293.637	20.59
294.104	24.09
294.571	11.49
295.039	10.89
295.506	16.09
295.973	14.39
296.44	18.29
296.908	14.89
297.375	17.99
297.842	19.09
298.309	13.49
298.776	12.69
299.243	16.49
299.71	16.19
300.177	22.99
300.644	22.69
301.111	19.29
301.578	18.79
302.045	16.19
302.512	18.89
302.979	22.39
303.446	21.39
303.913	19.49
304.379	19.89
304.846	24.59
305.313	29.79
305.78	26.29
306.246	27.29
306.713	28.19
307.18	21.49
307.646	27.69
308.113	30.09
308.579	22.39
309.046	27.49
309.512	25.89
309.979	14.09
310.445	29.39
310.912	30.39
311.378	33.49
311.845	29.39
312.311	26.59
312.777	24.99
313.244	29.49
313.71	43.39
314.176	30.19
314.642	28.39
315.109	29.29
315.575	34.89
316.041	33.49
316.507	35.19
316.973	41.59
317.439	36.59
317.905	40.49
318.371	36.19
318.837	30.09
319.303	31.29
319.769	39.29
320.235	36.49
320.701	36.29
321.167	39.79
321.633	29.49
322.099	38.69
322.564	50.09
323.03	39.69
323.496	32.99
323.962	41.29
324.427	40.69
324.893	41.29
325.359	42.09
325.824	39.59
326.29	35.49
326.755	32.39
327.221	40.59
327.686	40.09
328.152	48.09
328.617	46.49
329.083	46.49
329.548	50.29
330.014	45.09
330.479	37.39
330.944	48.99
331.41	45.99
331.875	41.59
332.34	39.69
332.805	49.39
333.271	52.99
333.736	47.59
334.201	56.69
334.666	51.99
335.131	53.69
335.596	53.99
336.061	50.89
336.526	38.99
336.991	48.09
337.456	55.59
337.921	44.29
338.386	38.59
338.851	47.09
339.316	46.19
339.781	43.49
340.246	51.09
340.711	44.99
341.175	52.19
341.64	44.29
342.105	47.09
342.569	57.19
343.034	54.49
343.499	50.39
343.963	46.79
344.428	63.59
344.893	64.59
345.357	61.39
345.822	64.59
346.286	67.59
346.751	66.69
347.215	65.29
347.679	69.19
348.144	98.19
348.608	87.59
349.073	69.09
349.537	75.99
350.001	73.59
350.465	82.79
350.93	80.29
351.394	86.09
351.858	70.69
352.322	88.59
352.786	82.59
353.25	97.39
353.715	109.79
354.179	97.29
354.643	116.59
355.107	125.99
355.571	103.79
356.035	102.49
356.498	114.99
356.962	122.59
357.426	134.19
357.89	118.19
358.354	88.09
358.818	83.79
359.281	76.79
359.745	76.89
360.209	73.79
360.673	76.59
361.136	82.49
361.6	87.39
362.064	83.59
362.527	77.79
362.991	90.99
363.454	78.59
363.918	83.99
364.381	82.49
364.845	82.79
365.308	82.99
365.772	81.89
366.235	82.79
366.698	82.89
367.162	91.49
367.625	87.19
368.088	86.99
368.552	92.79
369.015	89.29
369.478	90.29
369.941	93.69
370.404	96.39
370.867	99.29
371.331	98.49
371.794	115.69
372.257	109.59
372.72	118.09
373.183	110.29
373.646	100.59
374.109	104.29
374.572	105.89
375.035	106.29
375.497	107.29
375.96	97.79
376.423	101.29
376.886	111.09
377.349	109.79
377.811	103.09
378.274	105.79
378.737	107.59
379.199	102.79
379.662	105.49
380.125	115.09
380.587	113.89
381.05	124.09
381.512	130.29
381.975	136.79
382.437	125.89
382.9	131.69
383.362	131.49
383.825	146.89
384.287	152.59
384.75	145.89
385.212	141.79
385.674	137.29
386.136	133.29
386.599	122.09
387.061	125.89
387.523	134.39
387.985	130.59
388.447	146.89
388.91	150.89
389.372	162.09
389.834	154.09
390.296	147.29
390.758	160.59
391.22	166.99
391.682	221.69
392.144	301.79
392.606	235.89
393.068	175.09
393.529	169.79
393.991	154.79
394.453	157.19
394.915	160.59
395.377	201.39
395.838	216.79
396.3	154.69
396.762	144.69
397.224	130.19
397.685	127.89
398.147	133.79
398.608	131.59
399.07	131.99
399.531	138.19
399.993	141.29
400.454	153.59
400.916	144.39
401.377	143.29
401.839	153.59
402.3	153.19
402.762	168.39
403.223	175.89
403.684	170.39
404.145	161.29
404.607	164.39
405.068	165.69
405.529	166.99
405.99	189.09
406.451	177.69
406.913	171.49
407.374	161.09
407.835	169.29
408.296	168.69
408.757	173.49
409.218	196.29
409.679	177.79
410.14	186.29
410.601	180.39
411.062	186.29
411.522	193.19
411.983	195.89
412.444	179.99
412.905	180.59
413.366	185.19
413.826	195.09
414.287	214.39
414.748	255.09
415.208	250.39
415.669	212.99
416.13	201.19
416.59	197.19
417.051	212.19
417.511	215.19
417.972	240.89
418.432	238.59
418.893	285.39
419.353	247.89
419.814	193.59
420.274	182.19
420.734	182.19
421.195	194.59
421.655	198.39
422.115	190.49
422.576	188.99
423.036	196.59
423.496	209.99
423.956	220.39
424.416	230.59
424.876	259.19
425.336	256.09
425.797	263.09
426.257	258.39
426.717	243.29
427.177	231.69
427.637	225.99
428.097	235.69
428.556	247.19
429.016	274.99
429.476	269.89
429.936	274.09
430.396	281.39
430.856	292.49
431.315	316.19
431.775	354.89
432.235	388.49
432.694	363.79
433.154	365.79
433.614	400.09
434.073	343.19
434.533	288.49
434.993	265.89
435.452	287.69
435.912	300.59
436.371	293.99
436.83	290.19
437.29	264.79
437.749	257.69
438.209	246.29
438.668	275.39
439.127	293.09
439.587	264.89
440.046	252.19
440.505	271.19
440.964	278.59
441.424	323.99
441.883	312.19
442.342	266.79
442.801	224.89
443.26	231.69
443.719	229.09
444.178	224.59
444.637	212.49
445.096	223.89
445.555	223.19
446.014	228.49
446.473	231.79
446.932	235.19
447.391	223.39
447.849	227.39
448.308	219.89
448.767	219.79
449.226	232.29
449.685	235.79
450.143	252.59
450.602	237.19
451.061	235.89
451.519	233.59
451.978	239.89
452.436	234.29
452.895	240.89
453.353	259.79
453.812	243.49
454.27	243.09
454.729	241.29
455.187	244.99
455.646	244.19
456.104	252.69
456.562	261.09
457.021	267.69
457.479	261.79
457.937	266.79
458.395	262.69
458.854	242.99
459.312	249.29
459.77	276.09
460.228	264.59
460.686	241.49
461.144	248.89
461.602	241.19
462.06	248.29
462.518	258.29
462.976	254.19
463.434	258.49
463.892	260.99
464.35	275.19
464.808	298.89
465.266	263.89
465.724	267.29
466.181	271.99
466.639	273.89
467.097	282.39
467.555	299.49
468.012	301.09
468.47	306.29
468.928	327.29
469.385	344.29
469.843	353.59
470.3	352.19
470.758	358.49
471.215	382.69
471.673	413.59
472.13	400.89
472.588	424.49
473.045	374.69
473.503	379.39
473.96	394.29
474.417	397.39
474.875	427.79
475.332	480.39
475.789	460.69
476.246	467.79
476.704	485.79
477.161	509.49
477.618	524.49
478.075	553.59
478.532	625.29
478.989	693.79
479.446	806.89
479.903	775.59
480.36	812.69
480.817	866.79
481.274	963.79
481.731	1083.89
482.188	1167.19
482.645	1301.69
483.102	1394.39
483.558	1535.79
484.015	1596.39
484.472	1569.59
484.929	1523.99
485.385	1475.29
485.842	1423.19
486.299	1365.79
486.755	1297.99
487.212	1091.49
487.668	916.09
488.125	841.19
488.582	776.09
489.038	746.29
489.494	708.39
489.951	681.29
490.407	657.69
490.864	646.39
491.32	639.39
491.776	632.69
492.233	645.69
492.689	610.79
493.145	593.09
493.602	595.49
494.058	604.89
494.514	617.69
494.97	628.59
495.426	640.99
495.882	607.19
496.338	615.19
496.794	611.19
497.251	610.39
497.707	635.79
498.163	628.39
498.618	627.09
499.074	635.99
499.53	664.99
499.986	680.29
500.442	646.09
500.898	628.79
501.354	622.19
501.809	637.99
502.265	649.19
502.721	660.89
503.177	662.49
503.632	656.29
504.088	677.79
504.543	708.09
504.999	711.99
505.455	650.99
505.91	630.29
506.366	623.49
506.821	615.89
507.277	624.39
507.732	621.49
508.187	626.79
508.643	630.99
509.098	629.29
509.553	653.99
510.009	658.69
510.464	661.09
510.919	687.39
511.375	695.89
511.83	705.49
512.285	726.39
512.74	753.69
513.195	767.99
513.65	760.59
514.105	760.49
514.56	760.69
515.015	788.09
515.47	805.19
515.925	783.09
516.38	779.69
516.835	791.29
517.29	773.99
517.745	764.79
518.2	752.59
518.655	739.39
519.109	737.39
519.564	730.59
520.019	727.09
520.474	720.69
520.928	723.99
521.383	714.39
521.838	701.09
522.292	704.59
522.747	704.79
523.201	700.09
523.656	689.89
524.11	689.09
524.565	690.89
525.019	696.19
525.474	701.49
525.928	691.29
526.382	690.69
526.837	688.99
527.291	691.89
527.745	693.09
528.2	697.89
528.654	679.89
529.108	684.59
529.562	699.79
530.016	688.59
530.47	700.89
530.925	693.29
531.379	690.19
531.833	695.59
532.287	701.29
532.741	699.89
533.195	696.69
533.649	707.19
534.103	714.59
534.556	704.49
535.01	705.89
535.464	700.49
535.918	710.59
536.372	712.49
536.826	706.69
537.279	699.69
537.733	709.59
538.187	709.29
538.64	711.29
539.094	727.29
539.548	725.69
540.001	721.29
540.455	726.89
540.908	732.69
541.362	734.89
541.815	742.79
542.269	740.49
542.722	750.29
543.175	767.59
543.629	765.79
544.082	779.69
544.536	772.09
544.989	772.19
545.442	784.39
545.895	787.09
546.349	778.09
546.802	791.19
547.255	797.39
547.708	803.19
548.161	808.79
548.614	829.59
549.067	821.89
549.52	812.29
549.973	812.09
550.426	805.39
550.879	787.49
551.332	790.09
551.785	802.69
552.238	805.79
552.691	806.39
553.144	820.19
553.596	847.99
554.049	861.69
554.502	887.89
554.955	901.69
555.407	900.99
555.86	894.09
556.313	888.19
556.765	867.59
557.218	881.59
557.67	880.09
558.123	875.49
558.576	864.59
559.028	873.19
559.48	876.89
559.933	862.09
560.385	836.59
560.838	817.69
561.29	782.69
561.742	776.49
562.195	768.09
562.647	760.79
563.099	763.79
563.551	764.39
564.004	780.59
564.456	765.99
564.908	760.59
565.36	752.09
565.812	740.09
566.264	723.49
566.716	728.59
567.168	706.89
567.62	725.39
568.072	699.29
568.524	701.49
568.976	687.79
569.428	680.09
569.88	679.79
570.332	684.09
570.784	681.59
571.235	683.99
571.687	690.79
572.139	698.29
572.59	706.79
573.042	710.59
573.494	710.69
573.945	694.79
574.397	686.39
574.849	686.99
575.3	699.19
575.752	676.29
576.203	670.79
576.655	679.29
577.106	670.79
577.557	668.69
578.009	667.69
578.46	669.59
578.912	664.29
579.363	663.09
579.814	664.99
580.265	665.29
580.717	677.89
581.168	663.39
581.619	673.09
582.07	686.79
582.521	666.49
582.972	667.89
583.423	668.59
583.875	687.39
584.326	707.49
584.777	753.19
585.227	836.49
585.678	933.19
586.129	1021.19
586.58	1098.99
587.031	1180.29
587.482	1337.19
587.933	1529.79
588.384	1327.59
588.834	983.79
589.285	811.49
589.736	788.79
590.186	775.99
590.637	764.19
591.088	748.59
591.538	736.69
591.989	731.89
592.439	728.19
592.89	722.19
593.34	709.19
593.791	706.09
594.241	697.59
594.692	709.79
595.142	712.19
595.593	703.39
596.043	708.09
596.493	709.09
596.943	726.39
597.394	722.59
597.844	723.29
598.294	732.49
598.744	765.39
599.195	791.29
599.645	813.29
600.095	854.89
600.545	914.69
600.995	958.49
601.445	1025.59
601.895	1088.49
602.345	1122.99
602.795	1103.79
603.245	1054.99
603.695	1004.39
604.145	955.89
604.594	908.49
605.044	859.79
605.494	788.49
605.944	751.09
606.393	735.89
606.843	721.59
607.293	736.39
607.743	732.59
608.192	746.89
608.642	761.99
609.091	764.79
609.541	778.69
609.99	774.19
610.44	772.19
610.889	723.69
611.339	693.69
611.788	685.19
612.238	705.49
612.687	720.79
613.136	721.79
613.586	740.89
614.035	735.09
614.484	761.19
614.933	766.59
615.383	762.19
615.832	744.19
616.281	732.39
616.73	689.99
617.179	671.59
617.628	654.99
618.077	634.59
618.526	625.19
618.975	617.49
619.424	624.19
619.873	610.59
620.322	622.09
620.771	603.99
621.22	603.79
621.669	591.19
622.118	593.29
622.567	575.09
623.015	577.09
623.464	569.19
623.913	566.19
624.361	554.09
624.81	561.09
625.259	559.99
625.707	558.19
626.156	564.09
626.604	563.69
627.053	560.19
627.501	557.99
627.95	569.09
628.398	589.59
628.847	570.59
629.295	565.39
629.744	573.29
630.192	571.79
630.64	573.09
631.089	569.39
631.537	589.99
631.985	600.79
632.433	607.29
632.881	617.89
633.33	675.79
633.778	659.99
634.226	572.09
634.674	577.19
635.122	586.69
635.57	605.29
636.018	638.39
636.466	583.89
636.914	562.19
637.362	574.69
637.81	571.39
638.258	576.39
638.705	592.69
639.153	614.19
639.601	624.59
640.049	638.09
640.497	671.29
640.944	702.39
641.392	640.59
641.84	610.69
642.287	587.59
642.735	578.09
643.182	580.59
643.63	573.79
644.078	585.49
644.525	594.59
644.973	601.39
645.42	603.49
645.867	634.59
646.315	644.39
646.762	675.19
647.21	710.89
647.657	719.19
648.104	756.89
648.551	772.19
648.999	841.59
649.446	923.99
649.893	1018.89
650.34	1173.59
650.787	1416.69
651.234	1749.09
651.682	2309.49
652.129	3188.39
652.576	4603.99
653.023	6784.09
653.47	9277.89
653.917	11504.49
654.363	13188.99
654.81	14485.09
655.257	13823.69
655.704	9041.39
656.151	5329.39
656.598	3454.29
657.044	2456.89
657.491	1878.79
657.938	1496.39
658.385	1249.89
658.831	1087.69
659.278	976.69
659.724	858.19
660.171	802.29
660.618	717.99
661.064	696.09
661.511	672.89
661.957	660.69
662.404	651.59
662.85	660.49
663.296	626.59
663.743	570.79
664.189	536.89
664.635	537.69
665.082	530.59
665.528	531.99
665.974	522.89
666.42	511.89
666.867	505.19
667.313	489.09
667.759	480.19
668.205	490.29
668.651	497.49
669.097	500.29
669.543	512.69
669.989	475.79
670.435	459.89
670.881	446.59
671.327	450.29
671.773	475.49
672.219	492.29
672.665	554.29
673.11	582.39
673.556	637.39
674.002	665.09
674.448	658.99
674.893	546.09
675.339	476.69
675.785	440.79
676.23	418.29
676.676	394.49
677.122	392.19
677.567	363.49
678.013	365.39
678.458	366.49
678.904	367.59
679.349	360.09
679.794	356.89
680.24	357.19
680.685	350.89
681.131	352.89
681.576	350.39
682.021	362.89
682.466	353.29
682.912	354.39
683.357	348.09
683.802	385.29
684.247	421.49
684.692	460.49
685.137	508.99
685.583	530.29
686.028	560.69
686.473	517.19
686.918	434.29
687.363	413.59
687.807	393.29
688.252	366.99
688.697	357.69
689.142	340.49
689.587	338.59
690.032	328.49
690.477	352.99
690.921	354.79
691.366	377.79
691.811	400.89
692.255	430.99
692.7	461.99
693.145	517.29
693.589	716.39
694.034	1155.09
694.478	1542.39
694.923	1716.39
695.367	2231.19
695.812	1189.49
696.256	495.69
696.701	377.29
697.145	349.89
697.59	337.09
698.034	318.69
698.478	320.89
698.922	333.69
699.367	326.99
699.811	337.29
700.255	362.99
700.699	384.69
701.143	426.29
701.588	486.59
702.032	515.59
702.476	510.99
702.92	489.49
703.364	497.29
703.808	655.39
704.252	1060.89
704.696	1454.99
705.14	1652.29
705.584	2096.69
706.027	1052.39
706.471	526.39
706.915	400.59
707.359	353.59
707.803	320.69
708.246	304.79
708.69	323.29
709.134	316.29
709.577	313.79
710.021	322.99
710.465	311.89
710.908	305.99
711.352	303.39
711.795	316.89
712.239	354.99
712.682	391.59
713.126	418.49
713.569	469.39
714.012	376.19
714.456	325.89
714.899	300.69
715.342	275.99
715.786	257.59
716.229	256.49
716.672	256.39
717.115	259.79
717.558	256.29
718.002	257.19
718.445	265.09
718.888	291.19
719.331	296.29
719.774	310.19
720.217	303.89
720.66	290.09
721.103	269.89
721.546	255.39
721.989	250.69
722.432	233.99
722.874	233.89
723.317	237.99
723.76	241.49
724.203	266.99
724.645	327.29
725.088	460.49
725.531	569.59
725.974	633.99
726.416	544.89
726.859	314.29
727.301	248.69
727.744	233.99
728.187	236.69
728.629	240.49
729.071	248.59
729.514	258.89
729.956	280.39
730.399	287.69
730.841	288.89
731.283	274.99
731.726	263.69
732.168	260.99
732.61	264.39
733.053	285.89
733.495	311.19
733.937	354.49
734.379	404.19
734.821	437.89
735.263	553.19
735.705	846.19
736.148	1611.69
736.59	2591.99
737.032	2999.59
737.474	2456.39
737.916	812.39
738.357	426.19
738.799	335.09
739.241	299.89
739.683	288.49
740.125	291.29
740.567	298.09
741.008	307.89
741.45	315.49
741.892	325.69
742.334	355.69
742.775	360.39
743.217	341.09
743.658	275.19
744.1	258.69
744.542	262.49
744.983	312.09
745.425	340.49
745.866	344.59
746.307	293.19
746.749	288.49
747.19	334.39
747.632	468.09
748.073	913.09
748.514	1904.89
748.956	2831.09
749.397	3566.29
749.838	2961.99
750.279	2922.29
750.72	1491.19
751.162	553.79
751.603	329.49
752.044	260.59
752.485	222.39
752.926	216.69
753.367	204.29
753.808	197.79
754.249	193.09
754.69	184.49
755.131	187.29
755.572	185.19
756.013	175.19
756.453	185.09
756.894	185.19
757.335	192.29
757.776	200.09
758.216	199.39
758.657	204.69
759.098	199.09
759.538	226.19
759.979	268.29
760.42	380.39
760.86	723.49
761.301	1892.19
761.741	4474.99
762.182	6307.19
762.622	4433.29
763.063	1298.69
763.503	540.59
763.943	350.89
764.384	349.39
764.824	423.09
765.264	453.39
765.705	313.99
766.145	218.09
766.585	187.39
767.025	186.29
767.465	192.09
767.906	250.29
768.346	333.69
768.786	363.39
769.226	264.89
769.666	318.09
770.106	634.99
770.546	1595.39
770.986	2613.39
771.426	2333.29
771.866	793.69
772.306	323.89
772.745	208.79
773.185	179.79
773.625	173.89
774.065	173.59
774.505	202.39
774.944	324.09
775.384	724.09
775.824	1271.69
776.263	1222.39
776.703	515.29
777.142	225.19
777.582	162.19
778.021	141.99
778.461	145.99
778.9	143.59
779.34	137.19
779.779	117.89
780.219	111.69
780.658	107.99
781.097	106.29
781.537	111.39
781.976	111.29
782.415	103.09
782.855	107.89
783.294	109.29
783.733	110.09
784.172	113.69
784.611	107.89
785.05	109.69
785.489	117.59
785.928	119.69
786.367	123.29
786.806	118.09
787.245	130.29
787.684	135.29
788.123	149.79
788.562	134.59
789.001	130.79
789.44	122.69
789.879	125.19
790.317	120.19
790.756	128.89
791.195	126.49
791.634	153.79
792.072	208.89
792.511	374.59
792.95	1040.59
793.388	2132.19
793.827	1893.69
794.265	675.89
794.704	282.59
795.142	182.49
795.581	153.49
796.019	136.89
796.458	129.99
796.896	125.19
797.334	135.49
797.773	156.09
798.211	225.19
798.649	449.89
799.087	1025.59
799.526	1592.59
799.964	2012.89
800.402	1975.89
800.84	748.19
801.278	304.29
801.716	184.19
802.154	153.09
802.592	149.39
803.03	145.49
803.468	138.99
803.906	150.79
804.344	156.59
804.782	134.19
805.22	136.69
805.658	131.49
806.096	147.49
806.533	161.19
806.971	174.49
807.409	219.19
807.847	324.79
808.284	679.39
808.722	1896.49
809.16	3260.39
809.597	3167.29
810.035	5420.19
810.472	5608.19
810.91	2054.39
811.347	786.69
811.785	407.19
812.222	257.49
812.66	197.69
813.097	168.09
813.535	141.29
813.972	134.59
814.409	125.99
814.846	114.39
815.284	114.09
815.721	103.19
816.158	112.29
816.595	123.49
817.032	182.29
817.47	202.69
817.907	171.19
818.344	156.29
818.781	121.29
819.218	109.79
819.655	126.49
820.092	189.19
820.529	214.29
820.966	175.39
821.403	134.09
821.839	112.79
822.276	104.19
822.713	131.29
823.15	135.49
823.587	114.19
824.023	148.59
824.46	313.59
824.897	919.69
825.333	1322.49
825.77	570.19
826.206	231.59
826.643	138.89
827.08	102.89
827.516	84.09
827.953	78.19
828.389	89.39
828.825	77.29
829.262	68.59
829.698	63.09
830.135	65.39
830.571	62.19
831.007	63.99
831.443	65.59
831.88	64.09
832.316	64.29
832.752	66.19
833.188	68.79
833.624	67.49
834.06	74.59
834.497	71.49
834.933	75.09
835.369	78.79
835.805	66.49
836.241	81.49
836.677	82.69
837.112	88.19
837.548	108.19
837.984	136.99
838.42	201.89
838.856	506.29
839.292	1528.49
839.727	2260.19
840.163	1055.69
840.599	944.09
841.034	2042.59
841.47	2069.99
841.906	758.69
842.341	334.19
842.777	233.29
843.212	332.79
843.648	315.29
844.083	151.39
844.519	100.19
844.954	75.59
845.39	58.09
845.825	58.19
846.261	63.59
846.696	53.79
847.131	51.29
847.566	57.29
848.002	51.89
848.437	55.49
848.872	60.19
849.307	62.89
849.742	87.89
850.177	183.59
850.613	569.59
851.048	859.29
851.483	375.19
851.918	154.49
852.353	85.89
852.788	62.19
853.223	58.29
853.657	57.29
854.092	47.49
854.527	46.29
854.962	43.79
855.397	46.99
855.832	53.29
856.266	42.69
856.701	46.69
857.136	36.09
857.57	42.79
858.005	50.89
858.44	61.09
858.874	46.99
859.309	56.09
859.743	37.99
860.178	43.79
860.612	41.29
861.047	54.39
861.481	64.39
861.915	73.19
862.35	45.29
862.784	30.29
863.218	43.99
863.653	34.69
864.087	47.79
864.521	56.89
864.955	77.39
865.39	159.79
865.824	169.29
866.258	114.29
866.692	161.39
867.126	171.29
867.56	99.99
867.994	55.39
868.428	36.29
868.862	43.09
869.296	43.79
869.73	54.19
870.164	55.69
870.598	49.79
871.031	34.19
871.465	27.89
871.899	33.99
872.333	26.39
872.766	27.39
873.2	24.99
873.634	31.19
874.067	30.69
874.501	29.89
874.935	35.69
875.368	34.59
875.802	27.79
876.235	18.59
876.669	33.59
877.102	20.39
877.535	31.89
877.969	23.29
878.402	29.09
878.836	29.19
879.269	24.69
879.702	29.09
880.135	22.09
880.569	22.39
881.002	33.39
881.435	19.99
881.868	19.39
882.301	16.09
882.734	20.09
883.167	28.49
883.601	20.09
884.034	23.29
884.467	13.49
884.899	24.69
885.332	19.89
885.765	13.49
886.198	21.39
886.631	21.59
887.064	17.09
887.497	23.19
887.929	27.89
888.362	15.59
888.795	11.49
889.228	24.89
889.66	24.39
890.093	21.89
890.526	15.59
890.958	16.09
891.391	18.79
891.823	20.39
892.256	15.59
892.688	11.09
893.121	18.09
893.553	19.19
893.985	26.69
894.418	25.09
894.85	15.99
895.282	14.39
895.715	20.89
896.147	12.59
896.579	18.39
897.011	17.89
897.444	15.69
897.876	16.09
898.308	22.99
898.74	14.09
899.172	12.99
899.604	23.39
900.036	26.09
900.468	20.79
900.9	15.29
901.332	23.39
901.764	16.59
902.196	19.39
902.628	26.99
903.06	15.89
903.491	31.19
903.923	21.29
904.355	27.29
904.787	23.69
905.218	23.49
905.65	28.19
906.082	13.19
906.513	13.29
906.945	19.79
907.376	15.69
907.808	20.29
908.239	26.29
908.671	25.79
909.102	22.89
909.534	31.19
909.965	54.59
910.397	97.49
910.828	317.39
911.259	466.39
911.691	209.89
912.122	108.49
912.553	58.89
912.984	39.89
913.415	27.59
913.847	27.09
914.278	12.79
914.709	8.59
915.14	22.89
915.571	20.09
916.002	10.19
916.433	19.39
916.864	20.89
917.295	13.49
917.726	23.99
918.157	18.29
918.587	25.59
919.018	18.49
919.449	26.29
919.88	21.89
920.311	34.09
920.741	52.09
921.172	161.69
921.603	149.09
922.033	74.39
922.464	43.89
922.895	21.59
923.325	24.59
923.756	23.49
924.186	18.89
924.617	27.39
925.047	43.39
925.478	55.29
925.908	45.99
926.338	29.29
926.769	22.09
927.199	23.39
927.629	7.49
928.06	21.29
928.49	15.49
928.92	19.39
929.35	11.79
929.78	13.49
930.21	10.49
930.641	12.19
931.071	10.49
931.501	2.89
931.931	9.89
932.361	13.19
932.791	4.69
933.221	8.79
933.651	4.59
934.08	16.39
934.51	34.69
934.94	14.19
935.37	11.19
935.8	13.99
936.229	9.59
936.659	14.39
937.089	-1.21
937.519	17.79
937.948	24.19
938.378	14.09
938.807	8.69
939.237	7.09
939.666	6.49
940.096	-5.91
940.525	4.99
940.955	-1.61
941.384	8.09
941.814	0.89
942.243	-1.41
942.672	6.89
943.102	3.69
943.531	6.29
943.96	6.69
944.39	9.59
944.819	0.49
945.248	3.39
945.677	6.79
946.106	8.89
946.535	7.69
946.964	5.29
947.393	4.39
947.822	2.39
948.251	-4.21
948.68	8.29
949.109	5.89
949.538	7.39
949.967	0.59
950.396	-0.51
950.825	1.39
951.254	3.49
951.682	-7.51
952.111	6.89
952.54	7.59
952.969	-3.41
953.397	-4.41
953.826	2.59
954.254	-8.61
954.683	1.89
955.112	-4.61
955.54	-0.31
955.969	2.29
956.397	1.49
956.826	-0.41
957.254	6.09
957.682	6.49
958.111	9.39
958.539	-3.91
958.967	-3.71
959.396	1.69
959.824	3.49
960.252	0.49
960.68	-2.01
961.109	2.79
961.537	-0.41
961.965	1.29
962.393	2.09
962.821	0.79
963.249	5.99
963.677	11.29
964.105	4.99
964.533	46.59
964.961	40.69
965.389	20.99
965.817	9.29
966.245	3.99
966.672	3.79
967.1	-4.51
967.528	-2.11
967.956	-1.91
968.383	0.49
968.811	-1.81
969.239	0.49
969.666	-4.11
970.094	0.39
970.522	2.49
970.949	-1.01
971.377	-5.11
971.804	-0.91
972.232	0.99
972.659	-0.31
973.087	-5.51
973.514	-1.81
973.941	-5.71
974.369	5.99
974.796	5.99
975.223	1.39
975.651	-1.21
976.078	5.29
976.505	1.69
976.932	4.29
977.359	18.19
977.786	17.39
978.214	1.69
978.641	2.09
979.068	0.69
979.495	-2.61
979.922	-0.21
980.349	-5.21
980.776	-2.01
981.202	0.29
981.629	8.29
982.056	2.99
982.483	-0.31
982.91	3.79
983.337	-5.91
983.763	1.19
984.19	-0.11
984.617	-1.71
985.043	-4.41
985.47	3.89
985.897	-6.81
986.323	-2.41
986.75	1.69
987.176	2.09
987.603	3.39
988.029	4.29
988.456	-2.51
988.882	2.19
989.308	-3.01
989.735	-5.41
990.161	-0.61
990.587	-0.61
991.014	-1.41
991.44	4.99
991.866	-0.11
992.292	-1.81
992.719	-3.41
993.145	7.69
993.571	-3.21
993.997	-8.91
994.423	-0.31
994.849	-7.61
995.275	3.89
995.701	3.29
996.127	-5.61
996.553	8.09
996.979	2.49
997.405	2.29
997.83	-3.01
998.256	-4.01
998.682	-5.61
999.108	-4.51
999.534	2.19
999.959	2.89
1000.385	-11.11
1000.811	3.49
1001.236	-7.91
1001.662	-5.31
1002.087	-9.01
1002.513	-0.11
1002.938	4.89
1003.364	-4.11
1003.789	0.09
1004.215	6.09
1004.64	0.49
1005.066	5.49
1005.491	-0.41
1005.916	-0.11
1006.342	-2.91
1006.767	-0.11
1007.192	9.99
1007.617	2.79
1008.042	-6.11
1008.468	-5.21
1008.893	-3.71
1009.318	-4.31
1009.743	-0.21
1010.168	-0.11
1010.593	4.39
1011.018	-5.71
1011.443	0.89
1011.868	1.89
1012.293	-2.91
1012.718	-5.01
1013.143	-5.31
1013.567	-2.11
1013.992	-0.81
1014.417	-10.11
1014.842	2.99
1015.267	-3.31
1015.691	-2.71
1016.116	4.09
1016.541	0.29
1016.965	6.69
1017.39	6.09
1017.814	0.09
1018.239	0.19
1018.663	-8.41
1019.088	-9.31
1019.512	1.09
1019.937	4.79
1020.361	0.79
1020.785	-5.31
1021.21	-4.21
1021.634	-0.81
1022.058	-5.51
1022.483	3.29
1022.907	-1.61
1023.331	-2.61
1023.755	-2.61
1024.179	-3.01
1024.604	-7.61
1025.028	-2.71
1025.452	-6.61
1025.876	1.79
1026.3	1.59
1026.724	-11.21
1027.148	-8.91
1027.572	-6.61
1027.996	-3.11
1028.42	-3.41
1028.843	-3.11
1029.267	-6.01
1029.691	-0.81
1030.115	-7.71
1030.539	-7.51
1030.962	-3.41
1031.386	-11.61
1031.81	3.69
1032.233	-5.11
1032.657	1.19
1033.08	-2.81
1033.504	-8.51
1033.927	-6.31
1034.351	-1.71
1034.774	-7.01
1035.198	-3.01
1035.621	-0.91
1036.045	-5.01
1036.468	-2.41
1036.891	-6.81
1037.315	-8.01
1037.738	-8.11
1038.161	2.79
1038.584	-8.41
1039.008	-7.51
1039.431	-1.71
1039.854	2.39
1040.277	-8.51
1040.7	-7.61
1041.123	0.09
1041.546	-3.01
1041.969	-2.91
1042.392	-6.61
1042.815	-3.31
1043.238	2.69
1043.661	3.69
1044.084	-6.91
1044.507	-2.81
1044.93	-5.31
1045.352	-4.51
1045.775	0.29
1046.198	2.29
1046.621	-3.61
1047.043	8.19
1047.466	12.29
1047.889	-1.31
1048.311	-5.11
1048.734	-0.31
1049.156	-1.91
1049.579	-3.31
1050.001	-6.01
1050.424	0.49
1050.846	-1.41
1051.269	-4.31
1051.691	-6.91
1052.113	0.79
1052.536	1.99
1052.958	-4.11
1053.38	-6.51
1053.802	-10.01
1054.225	0.49
1054.647	-9.01
1055.069	-8.71
1055.491	1.99
1055.913	-7.51
1056.335	0.69
1056.757	-4.71
1057.179	-6.21
1057.601	-1.71
1058.023	1.89
1058.445	-0.21
1058.867	-4.11
1059.289	1.49
1059.711	-3.21
1060.133	-1.21
1060.555	1.09
1060.976	-7.31
1061.398	-3.81
1061.82	-1.71
1062.241	-4.01
1062.663	-6.61
1063.085	-8.01
1063.506	4.29
1063.928	-4.91
1064.35	1.39
1064.771	-11.21
1065.193	-1.11
1065.614	-9.41
1066.035	-3.41
1066.457	-0.81
1066.878	3.89
1067.3	-6.31
1067.721	-3.51
1068.142	-1.01
1068.564	0.19
1068.985	-0.21
1069.406	-0.21
1069.827	-1.71
1070.248	-3.51
1070.67	-7.01
1071.091	-4.11
1071.512	-0.91
1071.933	-5.71
1072.354	-3.41
1072.775	-6.01
1073.196	-5.21
1073.617	3.69
1074.038	-4.91
1074.459	-9.31
1074.88	-8.91
1075.3	2.09
1075.721	-0.61
1076.142	0.89
1076.563	-6.41
1076.983	-8.51
1077.404	-4.31
1077.825	-12.31
1078.246	-3.11
1078.666	-8.71
1079.087	-6.01
1079.507	-4.51
1079.928	2.69
1080.348	-2.71
1080.769	-1.51
1081.189	-4.31
1081.61	-2.51
1082.03	-10.91
1082.451	-8.01
1082.871	-0.41
1083.291	-4.21
1083.711	-4.21
1084.132	-2.51
1084.552	-1.21
1084.972	-1.51
1085.392	-4.81
1085.813	-6.11
1086.233	-2.71
1086.653	0.79
1087.073	1.19
1087.493	-8.81
1087.913	-3.21
1088.333	-8.51
1088.753	-4.01
1089.173	1.39
1089.593	-1.41
1090.013	1.29
1090.433	5.39
1090.852	-1.21
1091.272	-3.01
1091.692	-4.41
1092.112	-4.41
1092.531	-2.21
1092.951	-13.31
1093.371	-5.71
1093.79	-0.31
1094.21	-1.41
1094.63	-5.91
1095.049	-6.21
1095.469	1.29
1095.888	-0.31
1096.308	1.89
1096.727	1.19
1097.146	2.49
1097.566	4.89
1097.985	-5.21
1098.405	-0.51
1098.824	-3.51
1099.243	-4.81
1099.662	-8.21
1100.082	-5.91
1100.501	1.19
1100.92	-3.41
1101.339	-3.41
1101.758	-7.81
