Data from 20171114-ORNL-Ar_H_NY_Subt18_08-08-43-802.txt Node
Date: Tue Nov 14 08:08:43 EST 2017
User: Ender
Spectrometer: HR+D1039
Trigger mode: 0
Integration Time (sec): 2.730000E-2
Scans to average: 10
Electric dark correction enabled: true
Nonlinearity correction enabled: false
Boxcar width: 0
XAxis mode: Wavelengths
Number of Pixels in Spectrum: 2048
>>>>>Begin Spectral Data<<<<<
187.836	-3.92
188.309	-3.92
188.782	-3.92
189.255	-1.52
189.728	2.38
190.201	6.18
190.674	0.18
191.147	2.58
191.619	-11.32
192.092	0.38
192.565	4.48
193.038	1.88
193.511	4.08
193.984	3.68
194.456	-4.52
194.929	0.88
195.402	-4.22
195.874	-1.22
196.347	-0.72
196.82	-9.52
197.292	-3.02
197.765	3.88
198.237	-10.62
198.71	0.68
199.182	2.38
199.655	3.38
200.127	2.68
200.6	1.78
201.072	2.98
201.544	-3.82
202.017	3.68
202.489	2.88
202.961	-2.32
203.433	-6.32
203.906	-5.72
204.378	-6.62
204.85	-0.12
205.322	-6.42
205.794	-1.82
206.266	-6.62
206.739	-9.82
207.211	7.18
207.683	-10.12
208.155	-7.12
208.627	-6.52
209.099	-3.32
209.57	-14.42
210.042	-1.42
210.514	-0.72
210.986	-2.32
211.458	-9.82
211.93	-4.82
212.402	3.48
212.873	-5.62
213.345	-6.52
213.817	-12.22
214.288	-4.72
214.76	-9.72
215.232	-5.42
215.703	-4.42
216.175	-5.92
216.646	-1.02
217.118	-6.92
217.589	-3.42
218.061	-0.42
218.532	2.78
219.004	-3.22
219.475	-0.62
219.946	-1.42
220.418	-4.22
220.889	2.18
221.36	2.68
221.832	1.28
222.303	-9.32
222.774	-3.52
223.245	-5.92
223.717	-4.72
224.188	-3.12
224.659	-8.02
225.13	-6.32
225.601	-7.42
226.072	0.38
226.543	-3.22
227.014	-3.92
227.485	-5.82
227.956	-3.22
228.427	-1.92
228.898	-0.92
229.369	4.88
229.839	-4.32
230.31	-4.52
230.781	2.48
231.252	-0.82
231.722	-3.22
232.193	-2.72
232.664	-2.82
233.135	3.38
233.605	0.68
234.076	-2.52
234.546	-0.12
235.017	5.88
235.487	3.98
235.958	-2.62
236.428	-2.92
236.899	-0.72
237.369	6.38
237.84	-1.02
238.31	8.18
238.78	-6.92
239.251	-2.92
239.721	-2.42
240.191	-2.22
240.662	-5.82
241.132	2.48
241.602	-4.12
242.072	0.78
242.542	3.88
243.013	-0.22
243.483	1.88
243.953	5.28
244.423	0.08
244.893	-4.62
245.363	-4.62
245.833	2.38
246.303	-3.52
246.773	1.08
247.243	7.58
247.712	-1.02
248.182	7.98
248.652	6.88
249.122	-3.52
249.592	4.28
250.061	14.18
250.531	24.48
251.001	6.28
251.471	12.28
251.94	18.98
252.41	4.78
252.879	-3.32
253.349	9.18
253.818	6.88
254.288	3.98
254.757	5.28
255.227	-1.72
255.696	-0.12
256.166	-0.62
256.635	4.88
257.105	0.28
257.574	3.58
258.043	5.08
258.513	7.78
258.982	6.78
259.451	5.18
259.92	2.88
260.389	3.18
260.859	10.28
261.328	5.78
261.797	9.48
262.266	-0.62
262.735	4.78
263.204	-0.72
263.673	-0.62
264.142	-1.22
264.611	-7.32
265.08	2.08
265.549	-0.52
266.018	6.98
266.487	-4.42
266.955	-1.82
267.424	0.68
267.893	5.28
268.362	-3.62
268.83	-3.42
269.299	5.78
269.768	-2.02
270.236	3.58
270.705	-1.52
271.174	0.78
271.642	-2.32
272.111	4.38
272.579	3.58
273.048	11.88
273.516	16.98
273.985	16.48
274.453	15.18
274.922	12.78
275.39	5.88
275.858	-1.72
276.327	1.58
276.795	17.98
277.263	3.48
277.731	19.68
278.2	38.38
278.668	34.08
279.136	33.08
279.604	11.48
280.072	10.58
280.54	10.78
281.008	8.98
281.477	7.98
281.945	6.98
282.413	10.68
282.881	14.58
283.348	5.58
283.816	5.38
284.284	7.08
284.752	20.18
285.22	11.58
285.688	12.08
286.156	19.98
286.623	33.68
287.091	34.48
287.559	15.78
288.026	10.18
288.494	9.08
288.962	9.68
289.429	7.68
289.897	15.48
290.364	8.18
290.832	10.98
291.3	7.88
291.767	10.68
292.234	20.38
292.702	4.68
293.169	15.38
293.637	15.08
294.104	13.08
294.571	5.18
295.039	10.38
295.506	10.58
295.973	10.68
296.44	14.38
296.908	12.68
297.375	11.58
297.842	12.78
298.309	13.78
298.776	15.58
299.243	11.18
299.71	11.68
300.177	22.38
300.644	16.68
301.111	16.38
301.578	17.08
302.045	10.88
302.512	14.28
302.979	15.78
303.446	15.58
303.913	11.18
304.379	10.88
304.846	22.78
305.313	24.28
305.78	22.18
306.246	20.98
306.713	22.08
307.18	22.58
307.646	16.38
308.113	23.38
308.579	14.78
309.046	20.48
309.512	18.68
309.979	13.68
310.445	23.38
310.912	24.58
311.378	26.78
311.845	34.68
312.311	27.98
312.777	23.68
313.244	26.18
313.71	33.68
314.176	25.58
314.642	30.18
315.109	24.78
315.575	27.38
316.041	35.88
316.507	30.48
316.973	30.38
317.439	30.18
317.905	28.88
318.371	28.98
318.837	26.68
319.303	24.28
319.769	31.48
320.235	29.68
320.701	30.78
321.167	30.58
321.633	28.18
322.099	32.18
322.564	38.18
323.03	25.18
323.496	27.68
323.962	33.68
324.427	36.38
324.893	41.98
325.359	34.78
325.824	35.38
326.29	32.78
326.755	36.88
327.221	30.88
327.686	32.88
328.152	40.48
328.617	41.68
329.083	41.88
329.548	42.08
330.014	42.58
330.479	36.28
330.944	42.48
331.41	40.38
331.875	38.78
332.34	33.98
332.805	34.38
333.271	43.78
333.736	36.08
334.201	46.88
334.666	41.58
335.131	41.98
335.596	42.88
336.061	48.88
336.526	35.98
336.991	35.68
337.456	45.38
337.921	49.28
338.386	39.18
338.851	43.28
339.316	43.18
339.781	40.28
340.246	45.18
340.711	36.88
341.175	50.28
341.64	45.38
342.105	50.48
342.569	49.18
343.034	48.58
343.499	51.08
343.963	48.48
344.428	52.08
344.893	48.28
345.357	50.78
345.822	50.68
346.286	58.18
346.751	57.68
347.215	63.38
347.679	62.18
348.144	76.88
348.608	75.18
349.073	57.98
349.537	63.08
350.001	67.48
350.465	76.28
350.93	76.58
351.394	71.68
351.858	62.28
352.322	76.08
352.786	72.08
353.25	86.08
353.715	95.38
354.179	79.48
354.643	102.58
355.107	106.98
355.571	95.48
356.035	89.88
356.498	97.98
356.962	101.98
357.426	116.98
357.89	96.48
358.354	84.08
358.818	79.08
359.281	74.18
359.745	74.18
360.209	66.98
360.673	68.48
361.136	73.48
361.6	78.28
362.064	77.48
362.527	81.58
362.991	78.18
363.454	72.38
363.918	71.88
364.381	71.28
364.845	70.98
365.308	75.58
365.772	82.58
366.235	83.18
366.698	77.38
367.162	80.68
367.625	78.88
368.088	79.88
368.552	84.48
369.015	83.98
369.478	86.88
369.941	95.48
370.404	82.68
370.867	94.28
371.331	96.38
371.794	106.38
372.257	92.98
372.72	109.18
373.183	95.88
373.646	89.78
374.109	94.58
374.572	100.88
375.035	93.28
375.497	98.98
375.96	100.98
376.423	93.98
376.886	101.68
377.349	98.58
377.811	100.08
378.274	97.58
378.737	99.98
379.199	103.18
379.662	108.68
380.125	109.58
380.587	107.78
381.05	112.78
381.512	110.78
381.975	120.88
382.437	121.58
382.9	110.38
383.362	120.48
383.825	131.18
384.287	130.68
384.75	127.68
385.212	132.28
385.674	129.08
386.136	134.18
386.599	119.18
387.061	118.48
387.523	123.88
387.985	119.78
388.447	136.58
388.91	134.78
389.372	147.48
389.834	132.48
390.296	139.58
390.758	139.48
391.22	147.08
391.682	180.68
392.144	232.78
392.606	197.48
393.068	151.18
393.529	157.08
393.991	141.68
394.453	143.48
394.915	141.98
395.377	163.68
395.838	181.78
396.3	143.98
396.762	143.88
397.224	133.28
397.685	128.78
398.147	129.28
398.608	132.18
399.07	127.08
399.531	131.68
399.993	141.88
400.454	147.98
400.916	144.78
401.377	142.78
401.839	146.98
402.3	150.68
402.762	157.98
403.223	172.98
403.684	172.38
404.145	156.18
404.607	160.68
405.068	162.78
405.529	166.88
405.99	187.08
406.451	173.38
406.913	168.78
407.374	164.28
407.835	152.38
408.296	167.38
408.757	169.18
409.218	176.78
409.679	172.48
410.14	173.58
410.601	173.08
411.062	174.78
411.522	182.08
411.983	183.18
412.444	170.58
412.905	181.78
413.366	182.38
413.826	193.18
414.287	226.58
414.748	263.18
415.208	249.18
415.669	209.28
416.13	207.28
416.59	211.18
417.051	209.78
417.511	219.78
417.972	237.28
418.432	250.28
418.893	291.98
419.353	260.78
419.814	199.28
420.274	181.98
420.734	181.38
421.195	193.08
421.655	195.28
422.115	192.88
422.576	193.58
423.036	201.48
423.496	208.88
423.956	215.38
424.416	229.88
424.876	256.48
425.336	257.98
425.797	261.68
426.257	253.78
426.717	234.18
427.177	235.58
427.637	227.48
428.097	236.88
428.556	239.88
429.016	271.28
429.476	265.28
429.936	263.18
430.396	273.48
430.856	282.98
431.315	310.68
431.775	337.88
432.235	375.18
432.694	347.38
433.154	360.88
433.614	383.98
434.073	335.38
434.533	283.68
434.993	269.28
435.452	275.18
435.912	283.58
436.371	275.98
436.83	278.38
437.29	268.98
437.749	248.78
438.209	248.38
438.668	269.08
439.127	282.28
439.587	261.58
440.046	248.38
440.505	259.18
440.964	271.88
441.424	317.88
441.883	304.68
442.342	262.78
442.801	229.48
443.26	224.08
443.719	230.28
444.178	228.18
444.637	214.08
445.096	222.18
445.555	228.78
446.014	229.68
446.473	230.38
446.932	232.08
447.391	231.88
447.849	226.98
448.308	221.78
448.767	224.98
449.226	239.68
449.685	239.68
450.143	258.68
450.602	242.88
451.061	226.68
451.519	235.98
451.978	232.18
452.436	234.68
452.895	238.98
453.353	261.38
453.812	242.28
454.27	244.08
454.729	239.78
455.187	236.68
455.646	250.08
456.104	246.18
456.562	266.28
457.021	272.28
457.479	261.18
457.937	276.88
458.395	260.48
458.854	250.38
459.312	259.58
459.77	273.48
460.228	259.08
460.686	246.98
461.144	253.48
461.602	250.28
462.06	243.78
462.518	254.48
462.976	257.38
463.434	266.58
463.892	273.88
464.35	279.88
464.808	293.78
465.266	274.18
465.724	276.68
466.181	275.88
466.639	270.48
467.097	293.18
467.555	304.38
468.012	308.98
468.47	306.28
468.928	327.58
469.385	340.68
469.843	353.78
470.3	361.68
470.758	375.08
471.215	386.38
471.673	417.98
472.13	415.68
472.588	423.98
473.045	373.18
473.503	384.38
473.96	406.18
474.417	414.58
474.875	443.38
475.332	476.48
475.789	468.08
476.246	470.38
476.704	490.68
477.161	512.58
477.618	532.08
478.075	566.48
478.532	619.58
478.989	686.08
479.446	791.98
479.903	758.48
480.36	802.08
480.817	855.08
481.274	935.98
481.731	1048.08
482.188	1134.18
482.645	1255.58
483.102	1345.68
483.558	1476.68
484.015	1512.98
484.472	1481.08
484.929	1445.68
485.385	1410.18
485.842	1377.28
486.299	1317.28
486.755	1267.48
487.212	1059.78
487.668	913.18
488.125	833.88
488.582	769.08
489.038	740.18
489.494	704.88
489.951	678.28
490.407	665.78
490.864	645.98
491.32	646.08
491.776	658.08
492.233	654.58
492.689	611.78
493.145	603.98
493.602	599.88
494.058	616.08
494.514	616.48
494.97	631.38
495.426	651.88
495.882	632.18
496.338	624.38
496.794	633.48
497.251	618.58
497.707	636.18
498.163	644.08
498.618	647.68
499.074	648.58
499.53	671.78
499.986	674.38
500.442	651.68
500.898	632.18
501.354	618.48
501.809	644.48
502.265	639.98
502.721	657.98
503.177	661.68
503.632	664.58
504.088	665.18
504.543	693.78
504.999	701.18
505.455	665.58
505.91	647.38
506.366	639.28
506.821	641.68
507.277	635.28
507.732	634.38
508.187	636.18
508.643	642.88
509.098	649.68
509.553	663.08
510.009	667.58
510.464	682.88
510.919	694.58
511.375	708.58
511.83	715.08
512.285	729.48
512.74	767.18
513.195	794.68
513.65	782.68
514.105	770.88
514.56	777.28
515.015	792.68
515.47	810.98
515.925	793.98
516.38	800.58
516.835	798.78
517.29	789.58
517.745	790.48
518.2	767.08
518.655	754.18
519.109	743.98
519.564	749.58
520.019	737.38
520.474	728.38
520.928	734.98
521.383	734.88
521.838	723.58
522.292	715.58
522.747	715.78
523.201	724.18
523.656	705.48
524.11	703.28
524.565	701.68
525.019	703.48
525.474	711.78
525.928	707.98
526.382	713.08
526.837	707.48
527.291	705.18
527.745	708.28
528.2	704.48
528.654	700.68
529.108	692.78
529.562	709.28
530.016	698.18
530.47	696.78
530.925	710.98
531.379	704.18
531.833	710.28
532.287	706.88
532.741	713.68
533.195	708.78
533.649	717.18
534.103	726.28
534.556	708.18
535.01	723.18
535.464	713.78
535.918	722.88
536.372	722.78
536.826	727.88
537.279	716.08
537.733	717.38
538.187	721.08
538.64	717.38
539.094	732.58
539.548	735.78
540.001	736.28
540.455	731.58
540.908	741.98
541.362	753.28
541.815	756.98
542.269	771.58
542.722	780.18
543.175	777.18
543.629	780.38
544.082	800.08
544.536	805.88
544.989	792.88
545.442	789.68
545.895	799.98
546.349	800.58
546.802	803.98
547.255	809.58
547.708	814.28
548.161	839.08
548.614	841.48
549.067	839.28
549.52	830.88
549.973	831.48
550.426	814.58
550.879	812.98
551.332	823.38
551.785	814.58
552.238	822.78
552.691	833.28
553.144	838.88
553.596	862.58
554.049	873.68
554.502	899.38
554.955	924.88
555.407	930.18
555.86	908.08
556.313	909.28
556.765	899.58
557.218	893.38
557.67	895.08
558.123	880.08
558.576	879.18
559.028	877.38
559.48	892.58
559.933	891.38
560.385	857.38
560.838	827.58
561.29	801.88
561.742	804.88
562.195	782.48
562.647	789.88
563.099	788.88
563.551	783.28
564.004	805.28
564.456	791.88
564.908	775.18
565.36	761.88
565.812	747.88
566.264	728.98
566.716	734.28
567.168	729.48
567.62	723.88
568.072	721.78
568.524	714.48
568.976	710.48
569.428	692.98
569.88	690.38
570.332	695.58
570.784	700.18
571.235	694.68
571.687	713.78
572.139	717.38
572.59	722.08
573.042	728.38
573.494	728.88
573.945	718.48
574.397	703.48
574.849	705.98
575.3	707.48
575.752	703.68
576.203	692.28
576.655	694.68
577.106	691.48
577.557	676.28
578.009	681.08
578.46	672.98
578.912	679.68
579.363	688.78
579.814	677.48
580.265	669.38
580.717	683.08
581.168	684.98
581.619	694.68
582.07	699.68
582.521	683.78
582.972	686.88
583.423	695.78
583.875	694.88
584.326	721.78
584.777	748.88
585.227	794.28
585.678	857.78
586.129	926.28
586.58	980.18
587.031	1026.88
587.482	1119.18
587.933	1270.48
588.384	1130.58
588.834	917.48
589.285	816.98
589.736	801.28
590.186	790.58
590.637	790.48
591.088	766.08
591.538	763.78
591.989	749.88
592.439	744.48
592.89	736.78
593.34	727.48
593.791	726.08
594.241	718.38
594.692	712.78
595.142	728.38
595.593	706.28
596.043	717.28
596.493	721.88
596.943	728.98
597.394	737.68
597.844	734.78
598.294	755.58
598.744	776.78
599.195	797.08
599.645	849.38
600.095	883.78
600.545	947.58
600.995	993.08
601.445	1062.78
601.895	1108.28
602.345	1155.08
602.795	1134.28
603.245	1101.78
603.695	1036.48
604.145	984.18
604.594	928.58
605.044	874.08
605.494	816.18
605.944	769.58
606.393	771.28
606.843	745.08
607.293	755.28
607.743	752.08
608.192	757.48
608.642	776.18
609.091	784.98
609.541	787.18
609.99	790.78
610.44	787.98
610.889	745.78
611.339	719.58
611.788	712.18
612.238	722.68
612.687	727.68
613.136	726.38
613.586	744.18
614.035	735.58
614.484	756.28
614.933	749.18
615.383	745.38
615.832	734.88
616.281	735.28
616.73	698.58
617.179	688.28
617.628	670.28
618.077	649.88
618.526	642.08
618.975	630.48
619.424	630.88
619.873	630.78
620.322	637.38
620.771	630.78
621.22	616.78
621.669	616.18
622.118	610.78
622.567	590.38
623.015	578.28
623.464	585.28
623.913	575.88
624.361	562.78
624.81	573.18
625.259	571.08
625.707	579.28
626.156	566.58
626.604	588.88
627.053	580.48
627.501	579.08
627.95	587.68
628.398	598.08
628.847	587.58
629.295	594.68
629.744	584.88
630.192	577.78
630.64	583.58
631.089	573.18
631.537	576.58
631.985	565.98
632.433	596.58
632.881	584.58
633.33	632.48
633.778	615.78
634.226	570.28
634.674	572.58
635.122	578.08
635.57	600.78
636.018	623.28
636.466	590.98
636.914	575.28
637.362	590.88
637.81	598.58
638.258	600.08
638.705	596.48
639.153	635.08
639.601	635.28
640.049	651.38
640.497	693.88
640.944	707.28
641.392	670.08
641.84	622.88
642.287	611.48
642.735	583.58
643.182	592.58
643.63	575.98
644.078	588.18
644.525	592.68
644.973	605.88
645.42	614.58
645.867	638.68
646.315	652.88
646.762	683.58
647.21	702.88
647.657	717.38
648.104	772.38
648.551	781.88
648.999	846.98
649.446	926.98
649.893	1015.58
650.34	1160.68
650.787	1409.98
651.234	1743.28
651.682	2263.78
652.129	3080.08
652.576	4402.58
653.023	6490.18
653.47	8795.18
653.917	10838.18
654.363	12393.58
654.81	13646.38
655.257	12947.38
655.704	8501.68
656.151	5083.88
656.598	3320.78
657.044	2373.68
657.491	1835.48
657.938	1480.88
658.385	1243.68
658.831	1072.48
659.278	977.88
659.724	861.68
660.171	796.88
660.618	727.98
661.064	702.58
661.511	684.48
661.957	665.78
662.404	657.38
662.85	664.78
663.296	639.48
663.743	579.68
664.189	549.48
664.635	551.18
665.082	534.48
665.528	539.38
665.974	535.18
666.42	524.98
666.867	517.98
667.313	505.88
667.759	485.18
668.205	481.18
668.651	483.38
669.097	474.68
669.543	488.28
669.989	470.88
670.435	463.08
670.881	457.88
671.327	463.78
671.773	485.48
672.219	512.98
672.665	567.38
673.11	611.78
673.556	650.08
674.002	690.78
674.448	678.08
674.893	572.38
675.339	492.38
675.785	449.28
676.23	433.08
676.676	413.18
677.122	406.18
677.567	386.78
678.013	378.28
678.458	369.18
678.904	373.08
679.349	362.58
679.794	365.88
680.24	372.78
680.685	364.98
681.131	359.08
681.576	366.78
682.021	364.28
682.466	357.78
682.912	363.18
683.357	369.18
683.802	395.38
684.247	429.38
684.692	475.88
685.137	516.78
685.583	558.28
686.028	581.88
686.473	539.68
686.918	463.58
687.363	429.88
687.807	400.38
688.252	381.88
688.697	366.18
689.142	350.18
689.587	347.18
690.032	338.18
690.477	355.98
690.921	370.28
691.366	390.38
691.811	426.18
692.255	442.68
692.7	482.18
693.145	529.18
693.589	750.48
694.034	1216.58
694.478	1627.28
694.923	1795.58
695.367	2326.48
695.812	1237.38
696.256	518.08
696.701	384.98
697.145	356.28
697.59	343.38
698.034	338.48
698.478	349.08
698.922	326.48
699.367	335.08
699.811	346.08
700.255	370.28
700.699	405.68
701.143	447.58
701.588	487.98
702.032	525.28
702.476	538.88
702.92	515.78
703.364	515.98
703.808	687.18
704.252	1115.48
704.696	1550.78
705.14	1735.88
705.584	2201.68
706.027	1110.98
706.471	550.38
706.915	402.78
707.359	363.28
707.803	333.98
708.246	329.98
708.69	327.48
709.134	328.48
709.577	323.58
710.021	333.28
710.465	324.88
710.908	315.88
711.352	311.88
711.795	321.98
712.239	375.78
712.682	394.68
713.126	427.68
713.569	480.48
714.012	379.78
714.456	326.28
714.899	307.88
715.342	279.28
715.786	276.78
716.229	261.48
716.672	268.98
717.115	263.88
717.558	263.48
718.002	263.38
718.445	275.48
718.888	298.58
719.331	310.18
719.774	320.58
720.217	319.68
720.66	297.18
721.103	275.58
721.546	268.68
721.989	256.98
722.432	244.38
722.874	243.18
723.317	241.18
723.76	252.78
724.203	273.88
724.645	336.28
725.088	464.88
725.531	601.08
725.974	654.68
726.416	563.68
726.859	329.48
727.301	257.48
727.744	243.18
728.187	243.88
728.629	253.08
729.071	253.68
729.514	268.58
729.956	285.58
730.399	298.38
730.841	300.98
731.283	287.88
731.726	275.58
732.168	274.68
732.61	280.38
733.053	300.48
733.495	333.18
733.937	369.58
734.379	420.98
734.821	466.08
735.263	579.28
735.705	900.98
736.148	1719.08
736.59	2735.68
737.032	3148.38
737.474	2548.48
737.916	855.28
738.357	456.08
738.799	343.08
739.241	311.38
739.683	295.88
740.125	308.78
740.567	311.58
741.008	328.38
741.45	329.88
741.892	331.38
742.334	358.68
742.775	372.68
743.217	358.68
743.658	287.98
744.1	271.08
744.542	279.58
744.983	332.38
745.425	356.88
745.866	358.18
746.307	293.38
746.749	294.78
747.19	345.58
747.632	486.38
748.073	970.28
748.514	2022.68
748.956	2979.68
749.397	3777.18
749.838	3113.88
750.279	3040.08
750.72	1557.08
751.162	577.78
751.603	333.98
752.044	260.98
752.485	230.78
752.926	214.88
753.367	216.78
753.808	201.38
754.249	199.08
754.69	192.78
755.131	191.78
755.572	189.98
756.013	186.38
756.453	186.68
756.894	190.78
757.335	204.58
757.776	206.98
758.216	204.68
758.657	200.28
759.098	207.18
759.538	241.78
759.979	283.98
760.42	397.88
760.86	776.28
761.301	2022.88
761.741	4748.38
762.182	6613.08
762.622	4652.38
763.063	1375.98
763.503	565.18
763.943	353.68
764.384	321.88
764.824	357.08
765.264	364.58
765.705	274.88
766.145	210.18
766.585	189.68
767.025	181.78
767.465	183.48
767.906	227.08
768.346	278.68
768.786	294.28
769.226	256.88
769.666	334.18
770.106	679.28
770.546	1701.88
770.986	2738.68
771.426	2425.78
771.866	828.38
772.306	334.88
772.745	216.48
773.185	177.48
773.625	170.78
774.065	164.88
774.505	187.08
774.944	275.48
775.384	559.88
775.824	941.28
776.263	893.18
776.703	409.38
777.142	198.88
777.582	145.18
778.021	136.38
778.461	136.88
778.9	138.58
779.34	138.28
779.779	123.28
780.219	117.68
780.658	112.48
781.097	118.38
781.537	116.58
781.976	112.08
782.415	110.18
782.855	103.78
783.294	107.38
783.733	113.48
784.172	110.08
784.611	109.28
785.05	116.48
785.489	122.78
785.928	129.98
786.367	128.98
786.806	128.78
787.245	138.88
787.684	138.68
788.123	153.88
788.562	135.38
789.001	134.68
789.44	124.38
789.879	124.18
790.317	125.18
790.756	132.88
791.195	135.08
791.634	159.78
792.072	222.58
792.511	407.48
792.95	1105.18
793.388	2221.78
793.827	1973.68
794.265	706.78
794.704	296.98
795.142	189.58
795.581	157.78
796.019	143.78
796.458	135.28
796.896	132.98
797.334	140.88
797.773	164.38
798.211	234.28
798.649	483.28
799.087	1097.18
799.526	1684.18
799.964	2121.38
800.402	2050.38
800.84	790.18
801.278	322.58
801.716	187.48
802.154	162.18
802.592	158.48
803.03	151.28
803.468	140.38
803.906	146.48
804.344	153.98
804.782	152.68
805.22	136.58
805.658	140.28
806.096	154.68
806.533	168.38
806.971	183.68
807.409	227.48
807.847	345.58
808.284	734.28
808.722	2016.08
809.16	3407.68
809.597	3367.08
810.035	5719.48
810.472	5864.88
810.91	2149.78
811.347	833.08
811.785	426.68
812.222	274.28
812.66	214.38
813.097	177.88
813.535	145.38
813.972	135.98
814.409	121.38
814.846	109.28
815.284	115.48
815.721	110.88
816.158	112.68
816.595	130.98
817.032	167.88
817.47	190.08
817.907	146.58
818.344	131.78
818.781	112.78
819.218	104.28
819.655	136.18
820.092	192.88
820.529	224.38
820.966	182.18
821.403	138.78
821.839	105.78
822.276	108.48
822.713	132.18
823.15	138.58
823.587	121.48
824.023	150.58
824.46	332.78
824.897	961.48
825.333	1378.78
825.77	600.98
826.206	244.68
826.643	136.28
827.08	108.68
827.516	88.88
827.953	83.88
828.389	89.58
828.825	68.18
829.262	71.78
829.698	62.38
830.135	64.88
830.571	57.48
831.007	65.48
831.443	70.98
831.88	69.08
832.316	63.78
832.752	70.58
833.188	69.08
833.624	66.08
834.06	68.48
834.497	68.68
834.933	78.78
835.369	79.58
835.805	76.48
836.241	82.68
836.677	86.68
837.112	99.18
837.548	111.18
837.984	145.28
838.42	218.98
838.856	551.78
839.292	1626.38
839.727	2365.08
840.163	1109.88
840.599	1001.38
841.034	2154.28
841.47	2170.68
841.906	799.48
842.341	353.18
842.777	227.88
843.212	271.88
843.648	258.58
844.083	142.78
844.519	90.08
844.954	74.28
845.39	58.58
845.825	62.08
846.261	64.48
846.696	58.88
847.131	53.28
847.566	63.08
848.002	53.68
848.437	53.78
848.872	60.48
849.307	68.38
849.742	96.58
850.177	190.78
850.613	592.68
851.048	904.28
851.483	397.58
851.918	160.38
852.353	92.18
852.788	58.18
853.223	61.68
853.657	57.08
854.092	42.88
854.527	44.68
854.962	44.88
855.397	43.48
855.832	49.78
856.266	42.68
856.701	48.08
857.136	49.58
857.57	44.38
858.005	53.38
858.44	61.18
858.874	47.68
859.309	49.38
859.743	42.88
860.178	52.88
860.612	42.48
861.047	61.98
861.481	75.58
861.915	74.58
862.35	53.38
862.784	37.48
863.218	37.68
863.653	35.38
864.087	45.18
864.521	58.48
864.955	75.68
865.39	168.98
865.824	180.68
866.258	120.68
866.692	176.78
867.126	186.78
867.56	113.28
867.994	62.08
868.428	42.58
868.862	48.08
869.296	52.68
869.73	61.18
870.164	65.88
870.598	49.68
871.031	37.78
871.465	35.18
871.899	32.28
872.333	24.78
872.766	26.88
873.2	30.38
873.634	30.58
874.067	23.68
874.501	30.48
874.935	42.58
875.368	37.68
875.802	32.48
876.235	27.18
876.669	30.08
877.102	22.78
877.535	24.58
877.969	23.68
878.402	26.98
878.836	22.98
879.269	30.58
879.702	30.98
880.135	22.58
880.569	23.98
881.002	29.78
881.435	24.08
881.868	24.68
882.301	30.58
882.734	22.28
883.167	21.88
883.601	23.78
884.034	28.58
884.467	17.28
884.899	23.78
885.332	18.78
885.765	21.28
886.198	12.08
886.631	15.98
887.064	15.98
887.497	21.28
887.929	22.98
888.362	12.48
888.795	12.68
889.228	18.18
889.66	25.18
890.093	21.08
890.526	20.08
890.958	17.98
891.391	17.68
891.823	24.48
892.256	17.38
892.688	7.78
893.121	10.88
893.553	16.68
893.985	16.88
894.418	30.58
894.85	12.38
895.282	22.78
895.715	23.18
896.147	17.18
896.579	19.98
897.011	17.58
897.444	21.18
897.876	19.08
898.308	16.18
898.74	10.58
899.172	14.58
899.604	22.38
900.036	17.98
900.468	19.68
900.9	13.58
901.332	15.38
901.764	12.68
902.196	23.18
902.628	21.48
903.06	18.48
903.491	33.18
903.923	20.68
904.355	18.88
904.787	23.38
905.218	25.78
905.65	26.58
906.082	16.98
906.513	15.78
906.945	17.88
907.376	11.28
907.808	18.48
908.239	18.58
908.671	19.88
909.102	27.38
909.534	25.98
909.965	50.98
910.397	100.78
910.828	336.58
911.259	485.38
911.691	220.88
912.122	113.78
912.553	54.98
912.984	34.88
913.415	29.98
913.847	27.38
914.278	13.18
914.709	18.88
915.14	24.88
915.571	20.48
916.002	9.88
916.433	19.18
916.864	16.98
917.295	13.78
917.726	18.48
918.157	15.98
918.587	34.78
919.018	21.68
919.449	27.88
919.88	27.28
920.311	35.38
920.741	51.28
921.172	177.48
921.603	151.78
922.033	71.18
922.464	50.28
922.895	23.78
923.325	22.28
923.756	15.88
924.186	14.78
924.617	25.08
925.047	31.38
925.478	40.28
925.908	35.68
926.338	24.28
926.769	12.78
927.199	18.98
927.629	8.28
928.06	20.28
928.49	16.18
928.92	14.98
929.35	16.38
929.78	9.08
930.21	8.98
930.641	11.38
931.071	9.68
931.501	6.58
931.931	9.28
932.361	13.78
932.791	2.68
933.221	3.98
933.651	5.08
934.08	17.88
934.51	29.58
934.94	13.68
935.37	7.98
935.8	9.58
936.229	10.68
936.659	7.98
937.089	4.28
937.519	14.68
937.948	24.08
938.378	17.18
938.807	4.18
939.237	-0.12
939.666	11.08
940.096	-4.92
940.525	2.18
940.955	1.68
941.384	-3.82
941.814	2.78
942.243	3.08
942.672	5.88
943.102	-2.12
943.531	1.08
943.96	4.88
944.39	7.58
944.819	-0.12
945.248	6.38
945.677	5.68
946.106	3.38
946.535	1.28
946.964	3.58
947.393	3.08
947.822	-1.52
948.251	-2.92
948.68	3.38
949.109	7.88
949.538	11.78
949.967	-0.12
950.396	5.18
950.825	0.58
951.254	1.78
951.682	-4.52
952.111	4.38
952.54	5.58
952.969	2.18
953.397	-1.42
953.826	3.38
954.254	-3.22
954.683	0.28
955.112	-2.02
955.54	1.78
955.969	1.18
956.397	6.68
956.826	-3.92
957.254	7.48
957.682	8.28
958.111	8.78
958.539	0.58
958.967	2.48
959.396	4.28
959.824	2.68
960.252	3.18
960.68	-6.42
961.109	1.78
961.537	-7.92
961.965	0.58
962.393	-1.22
962.821	-0.42
963.249	3.68
963.677	8.18
964.105	8.78
964.533	45.28
964.961	43.28
965.389	20.68
965.817	10.38
966.245	-0.82
966.672	0.88
967.1	-4.42
967.528	0.18
967.956	-5.12
968.383	0.58
968.811	-3.82
969.239	6.08
969.666	3.28
970.094	5.48
970.522	-1.82
970.949	-3.12
971.377	-1.22
971.804	-4.02
972.232	-1.02
972.659	-3.62
973.087	-5.22
973.514	-2.12
973.941	-8.12
974.369	6.98
974.796	-0.42
975.223	-1.82
975.651	-1.02
976.078	2.78
976.505	-0.32
976.932	0.18
977.359	16.18
977.786	12.98
978.214	-6.32
978.641	-2.72
979.068	-2.22
979.495	-6.62
979.922	-1.82
980.349	2.18
980.776	4.98
981.202	0.98
981.629	-0.12
982.056	1.78
982.483	1.28
982.91	-0.72
983.337	-5.52
983.763	3.18
984.19	-4.02
984.617	-5.12
985.043	-1.22
985.47	0.98
985.897	-6.42
986.323	-5.02
986.75	4.18
987.176	1.88
987.603	1.28
988.029	2.68
988.456	0.08
988.882	3.78
989.308	-2.12
989.735	-3.22
990.161	-1.22
990.587	-7.72
991.014	-1.62
991.44	8.58
991.866	-2.22
992.292	-2.12
992.719	-4.92
993.145	6.28
993.571	-14.02
993.997	-6.92
994.423	0.18
994.849	-3.32
995.275	8.98
995.701	4.28
996.127	-2.92
996.553	5.48
996.979	1.08
997.405	0.78
997.83	-4.52
998.256	-3.72
998.682	-7.02
999.108	-10.92
999.534	3.78
999.959	-0.42
1000.385	-3.52
1000.811	-0.22
1001.236	-4.32
1001.662	-3.82
1002.087	-10.42
1002.513	4.08
1002.938	1.58
1003.364	-3.32
1003.789	2.48
1004.215	5.08
1004.64	0.18
1005.066	-1.82
1005.491	-0.52
1005.916	3.18
1006.342	-2.32
1006.767	-6.82
1007.192	5.78
1007.617	-6.12
1008.042	-7.92
1008.468	-8.42
1008.893	-5.92
1009.318	-4.62
1009.743	-2.02
1010.168	6.68
1010.593	-1.62
1011.018	-6.42
1011.443	-4.32
1011.868	2.28
1012.293	-4.72
1012.718	-3.32
1013.143	2.08
1013.567	2.68
1013.992	-5.92
1014.417	-15.52
1014.842	6.68
1015.267	-2.52
1015.691	-4.42
1016.116	-2.42
1016.541	0.18
1016.965	2.98
1017.39	1.18
1017.814	0.48
1018.239	4.88
1018.663	-0.52
1019.088	-12.12
1019.512	-6.42
1019.937	5.28
1020.361	-7.82
1020.785	-8.42
1021.21	-3.72
1021.634	-0.72
1022.058	-0.52
1022.483	3.68
1022.907	-8.62
1023.331	-4.92
1023.755	-3.72
1024.179	-0.22
1024.604	-8.92
1025.028	-9.52
1025.452	-3.92
1025.876	-4.32
1026.3	-0.12
1026.724	-8.92
1027.148	-4.42
1027.572	-7.62
1027.996	-4.32
1028.42	-0.12
1028.843	-6.22
1029.267	-5.12
1029.691	0.38
1030.115	-9.12
1030.539	-2.62
1030.962	-3.02
1031.386	-10.52
1031.81	-1.02
1032.233	1.68
1032.657	-4.22
1033.08	-5.42
1033.504	-3.42
1033.927	-5.42
1034.351	-0.82
1034.774	-6.72
1035.198	-1.02
1035.621	-6.62
1036.045	-7.42
1036.468	-3.12
1036.891	-15.72
1037.315	-3.72
1037.738	-9.42
1038.161	-0.92
1038.584	-2.82
1039.008	-6.62
1039.431	-0.62
1039.854	-4.92
1040.277	-9.72
1040.7	-7.22
1041.123	3.18
1041.546	-3.92
1041.969	-5.82
1042.392	-5.32
1042.815	3.08
1043.238	-0.82
1043.661	3.08
1044.084	-6.82
1044.507	-6.32
1044.93	-2.52
1045.352	-4.62
1045.775	-1.62
1046.198	-0.82
1046.621	0.58
1047.043	5.78
1047.466	9.58
1047.889	-6.12
1048.311	-9.32
1048.734	-1.42
1049.156	-7.82
1049.579	2.18
1050.001	-4.42
1050.424	-0.72
1050.846	-3.32
1051.269	-2.02
1051.691	-3.72
1052.113	-5.42
1052.536	-3.42
1052.958	1.28
1053.38	-5.02
1053.802	-9.72
1054.225	-2.62
1054.647	-5.72
1055.069	-3.32
1055.491	-0.12
1055.913	-10.22
1056.335	-0.72
1056.757	-6.12
1057.179	-5.82
1057.601	-6.32
1058.023	-4.12
1058.445	-5.02
1058.867	-7.32
1059.289	-0.22
1059.711	-8.92
1060.133	-0.22
1060.555	-7.92
1060.976	-9.72
1061.398	-6.82
1061.82	-6.82
1062.241	-6.82
1062.663	-6.32
1063.085	-11.82
1063.506	-4.82
1063.928	-8.42
1064.35	-3.62
1064.771	-10.42
1065.193	7.28
1065.614	-8.52
1066.035	3.78
1066.457	-5.52
1066.878	1.08
1067.3	-2.62
1067.721	-4.42
1068.142	-10.22
1068.564	-8.42
1068.985	-4.42
1069.406	-3.12
1069.827	-7.32
1070.248	-1.22
1070.67	-5.12
1071.091	-6.02
1071.512	-1.52
1071.933	-2.62
1072.354	-10.02
1072.775	-7.12
1073.196	-6.32
1073.617	-2.42
1074.038	-12.52
1074.459	-0.22
1074.88	-9.92
1075.3	-4.62
1075.721	-5.62
1076.142	-4.42
1076.563	-2.82
1076.983	-14.82
1077.404	-7.32
1077.825	-5.92
1078.246	-4.32
1078.666	-12.22
1079.087	-2.62
1079.507	-12.72
1079.928	-9.32
1080.348	-3.62
1080.769	-6.72
1081.189	4.18
1081.61	-8.02
1082.03	-10.72
1082.451	-11.42
1082.871	-7.72
1083.291	-3.02
1083.711	-7.72
1084.132	-9.92
1084.552	-8.12
1084.972	-2.02
1085.392	-12.62
1085.813	-10.62
1086.233	-9.32
1086.653	-3.22
1087.073	-1.92
1087.493	-4.12
1087.913	-8.02
1088.333	-7.22
1088.753	-8.52
1089.173	-5.62
1089.593	-1.72
1090.013	6.68
1090.433	3.58
1090.852	-1.32
1091.272	2.28
1091.692	1.78
1092.112	-4.92
1092.531	-3.92
1092.951	-16.42
1093.371	-5.62
1093.79	2.38
1094.21	-8.72
1094.63	-3.72
1095.049	-7.92
1095.469	-5.82
1095.888	-0.32
1096.308	0.68
1096.727	2.28
1097.146	-2.12
1097.566	0.08
1097.985	-9.02
1098.405	2.08
1098.824	-5.82
1099.243	-8.72
1099.662	-9.32
1100.082	-2.62
1100.501	-3.12
1100.92	-11.22
1101.339	-8.82
1101.758	-6.32
