Data from 20171114-ORNL-Ar_H_NY_Subt18_08-05-54-255.txt Node
Date: Tue Nov 14 08:05:54 EST 2017
User: Ender
Spectrometer: HR+D1039
Trigger mode: 0
Integration Time (sec): 2.730000E-2
Scans to average: 10
Electric dark correction enabled: true
Nonlinearity correction enabled: false
Boxcar width: 0
XAxis mode: Wavelengths
Number of Pixels in Spectrum: 2048
>>>>>Begin Spectral Data<<<<<
187.836	-6.27
188.309	-6.27
188.782	-6.27
189.255	0.93
189.728	-2.97
190.201	2.53
190.674	-1.57
191.147	6.33
191.619	-2.97
192.092	1.43
192.565	6.83
193.038	-1.87
193.511	0.63
193.984	-1.57
194.456	-1.07
194.929	0.73
195.402	-2.27
195.874	1.13
196.347	-0.67
196.82	-6.17
197.292	3.43
197.765	7.53
198.237	-5.07
198.71	-1.07
199.182	-6.37
199.655	-0.37
200.127	0.73
200.6	0.23
201.072	-3.47
201.544	-7.77
202.017	-8.47
202.489	3.73
202.961	-1.57
203.433	-10.77
203.906	-7.77
204.378	-2.77
204.85	-0.17
205.322	-6.97
205.794	3.83
206.266	2.63
206.739	-6.47
207.211	6.93
207.683	-13.67
208.155	-3.87
208.627	-8.97
209.099	-5.27
209.57	-9.47
210.042	-8.57
210.514	-4.37
210.986	0.33
211.458	-8.77
211.93	-5.07
212.402	-1.77
212.873	-8.57
213.345	-12.27
213.817	-12.17
214.288	-6.17
214.76	-8.97
215.232	-4.97
215.703	-4.07
216.175	-3.67
216.646	-4.97
217.118	-4.17
217.589	0.73
218.061	-5.67
218.532	-7.07
219.004	-2.77
219.475	-8.57
219.946	-3.97
220.418	-4.77
220.889	0.43
221.36	-2.07
221.832	-6.27
222.303	-8.47
222.774	-0.17
223.245	-12.17
223.717	-3.97
224.188	-6.27
224.659	-10.07
225.13	-7.17
225.601	-1.67
226.072	3.53
226.543	2.93
227.014	-0.87
227.485	-4.17
227.956	-10.77
228.427	-1.37
228.898	1.93
229.369	1.93
229.839	-7.87
230.31	-5.97
230.781	4.23
231.252	-8.87
231.722	-4.47
232.193	-3.47
232.664	1.43
233.135	-0.67
233.605	3.23
234.076	-5.07
234.546	-2.17
235.017	5.43
235.487	1.03
235.958	-4.47
236.428	-4.97
236.899	9.13
237.369	8.33
237.84	-4.27
238.31	5.63
238.78	12.33
239.251	1.03
239.721	2.63
240.191	-2.97
240.662	2.13
241.132	4.03
241.602	-9.47
242.072	-3.87
242.542	5.53
243.013	1.93
243.483	4.43
243.953	4.53
244.423	0.63
244.893	-2.87
245.363	6.23
245.833	4.13
246.303	-3.87
246.773	1.43
247.243	-0.77
247.712	4.33
248.182	12.23
248.652	3.03
249.122	0.53
249.592	7.73
250.061	21.73
250.531	31.03
251.001	17.03
251.471	18.53
251.94	20.23
252.41	13.23
252.879	6.93
253.349	12.63
253.818	7.13
254.288	7.43
254.757	7.03
255.227	4.03
255.696	3.13
256.166	9.33
256.635	8.03
257.105	12.73
257.574	10.63
258.043	7.73
258.513	13.53
258.982	18.73
259.451	3.63
259.92	15.63
260.389	13.33
260.859	20.13
261.328	18.23
261.797	20.73
262.266	10.93
262.735	11.83
263.204	-0.87
263.673	-1.37
264.142	11.03
264.611	0.33
265.08	7.73
265.549	-1.07
266.018	6.63
266.487	3.93
266.955	-0.97
267.424	2.43
267.893	4.73
268.362	-1.47
268.83	4.13
269.299	10.13
269.768	7.83
270.236	8.73
270.705	6.23
271.174	6.23
271.642	11.23
272.111	8.43
272.579	16.93
273.048	22.83
273.516	32.63
273.985	25.83
274.453	21.93
274.922	23.33
275.39	9.33
275.858	6.43
276.327	16.83
276.795	18.83
277.263	12.43
277.731	34.63
278.2	57.33
278.668	64.03
279.136	56.93
279.604	20.23
280.072	21.63
280.54	7.23
281.008	10.33
281.477	17.23
281.945	18.03
282.413	13.73
282.881	18.13
283.348	7.33
283.816	18.33
284.284	13.43
284.752	23.23
285.22	12.83
285.688	21.23
286.156	24.03
286.623	47.83
287.091	54.53
287.559	30.93
288.026	14.93
288.494	19.73
288.962	6.73
289.429	13.73
289.897	9.83
290.364	19.73
290.832	15.83
291.3	17.13
291.767	16.43
292.234	16.93
292.702	17.43
293.169	18.33
293.637	23.93
294.104	22.83
294.571	15.53
295.039	18.43
295.506	24.63
295.973	15.03
296.44	15.23
296.908	22.43
297.375	22.23
297.842	24.83
298.309	18.83
298.776	14.73
299.243	16.23
299.71	12.33
300.177	27.53
300.644	24.53
301.111	17.83
301.578	25.33
302.045	24.43
302.512	24.53
302.979	27.13
303.446	26.83
303.913	22.43
304.379	15.03
304.846	31.13
305.313	23.23
305.78	23.13
306.246	30.53
306.713	30.33
307.18	24.53
307.646	26.63
308.113	31.13
308.579	30.03
309.046	26.33
309.512	28.23
309.979	21.53
310.445	29.83
310.912	30.33
311.378	36.83
311.845	31.83
312.311	34.43
312.777	30.83
313.244	31.93
313.71	40.83
314.176	32.33
314.642	39.33
315.109	32.03
315.575	35.83
316.041	42.43
316.507	36.13
316.973	37.83
317.439	34.13
317.905	40.13
318.371	37.43
318.837	38.33
319.303	33.43
319.769	36.43
320.235	39.23
320.701	40.63
321.167	42.13
321.633	38.33
322.099	44.03
322.564	48.13
323.03	46.63
323.496	38.43
323.962	40.63
324.427	42.33
324.893	49.73
325.359	36.13
325.824	32.83
326.29	38.93
326.755	42.53
327.221	42.63
327.686	37.23
328.152	46.33
328.617	41.33
329.083	48.53
329.548	51.43
330.014	50.23
330.479	41.63
330.944	48.43
331.41	42.33
331.875	48.83
332.34	45.93
332.805	45.33
333.271	55.63
333.736	43.33
334.201	51.93
334.666	55.43
335.131	50.53
335.596	48.13
336.061	52.53
336.526	47.63
336.991	58.83
337.456	62.63
337.921	55.63
338.386	49.13
338.851	47.13
339.316	54.33
339.781	50.63
340.246	53.63
340.711	48.53
341.175	52.83
341.64	42.83
342.105	51.23
342.569	58.43
343.034	55.43
343.499	63.03
343.963	55.33
344.428	62.63
344.893	64.63
345.357	62.93
345.822	69.03
346.286	69.93
346.751	74.53
347.215	76.83
347.679	73.23
348.144	97.93
348.608	86.23
349.073	70.13
349.537	78.03
350.001	81.53
350.465	91.53
350.93	85.73
351.394	82.83
351.858	72.83
352.322	98.93
352.786	82.83
353.25	107.23
353.715	113.53
354.179	101.43
354.643	127.23
355.107	131.53
355.571	107.13
356.035	113.33
356.498	120.83
356.962	130.13
357.426	137.53
357.89	119.43
358.354	93.43
358.818	91.33
359.281	84.23
359.745	79.53
360.209	78.43
360.673	84.53
361.136	87.33
361.6	91.73
362.064	90.43
362.527	82.23
362.991	94.13
363.454	90.03
363.918	79.43
364.381	78.53
364.845	81.93
365.308	84.63
365.772	87.63
366.235	88.83
366.698	86.83
367.162	91.33
367.625	85.33
368.088	87.83
368.552	91.53
369.015	93.63
369.478	94.53
369.941	99.83
370.404	93.63
370.867	107.33
371.331	112.23
371.794	120.53
372.257	110.03
372.72	119.73
373.183	115.93
373.646	108.33
374.109	110.43
374.572	107.73
375.035	109.53
375.497	106.63
375.96	108.23
376.423	110.03
376.886	120.43
377.349	112.43
377.811	106.63
378.274	106.93
378.737	110.23
379.199	113.13
379.662	109.33
380.125	119.33
380.587	121.83
381.05	128.63
381.512	132.73
381.975	135.53
382.437	129.43
382.9	123.23
383.362	136.63
383.825	144.13
384.287	152.23
384.75	141.23
385.212	140.23
385.674	141.13
386.136	142.43
386.599	130.63
387.061	129.73
387.523	134.03
387.985	132.43
388.447	156.93
388.91	136.73
389.372	157.73
389.834	150.93
390.296	145.13
390.758	156.53
391.22	170.03
391.682	217.53
392.144	299.73
392.606	234.93
393.068	168.43
393.529	170.33
393.991	158.93
394.453	151.13
394.915	163.13
395.377	199.23
395.838	213.23
396.3	156.53
396.762	146.83
397.224	141.63
397.685	137.53
398.147	134.33
398.608	138.93
399.07	128.53
399.531	137.13
399.993	144.03
400.454	160.33
400.916	150.23
401.377	145.93
401.839	155.33
402.3	154.23
402.762	174.53
403.223	186.23
403.684	179.63
404.145	166.23
404.607	165.43
405.068	173.23
405.529	175.53
405.99	193.83
406.451	175.83
406.913	186.63
407.374	167.93
407.835	160.23
408.296	170.13
408.757	172.73
409.218	187.63
409.679	189.63
410.14	188.13
410.601	181.23
411.062	186.13
411.522	196.33
411.983	190.63
412.444	180.13
412.905	187.93
413.366	191.83
413.826	202.33
414.287	218.83
414.748	268.43
415.208	255.23
415.669	223.03
416.13	208.43
416.59	210.53
417.051	221.83
417.511	223.83
417.972	241.23
418.432	252.83
418.893	289.53
419.353	248.73
419.814	205.33
420.274	186.53
420.734	186.53
421.195	204.73
421.655	202.43
422.115	195.73
422.576	200.13
423.036	203.53
423.496	215.13
423.956	215.13
424.416	239.03
424.876	274.13
425.336	267.03
425.797	268.43
426.257	258.23
426.717	243.53
427.177	239.53
427.637	233.93
428.097	241.73
428.556	252.03
429.016	275.63
429.476	269.93
429.936	283.43
430.396	282.63
430.856	301.73
431.315	328.23
431.775	361.53
432.235	384.83
432.694	359.03
433.154	360.83
433.614	399.93
434.073	351.33
434.533	293.23
434.993	274.83
435.452	292.43
435.912	306.63
436.371	294.23
436.83	296.73
437.29	276.73
437.749	254.53
438.209	252.73
438.668	281.53
439.127	296.63
439.587	275.83
440.046	258.53
440.505	263.73
440.964	289.13
441.424	344.03
441.883	317.43
442.342	270.73
442.801	227.13
443.26	228.53
443.719	224.53
444.178	224.83
444.637	215.73
445.096	228.43
445.555	229.63
446.014	231.83
446.473	231.83
446.932	239.43
447.391	230.63
447.849	226.43
448.308	219.53
448.767	228.83
449.226	235.83
449.685	239.33
450.143	249.53
450.602	247.13
451.061	232.83
451.519	239.03
451.978	237.93
452.436	239.73
452.895	256.23
453.353	262.03
453.812	249.83
454.27	255.03
454.729	242.63
455.187	251.73
455.646	255.03
456.104	257.53
456.562	269.83
457.021	277.43
457.479	272.83
457.937	278.83
458.395	270.83
458.854	250.43
459.312	261.73
459.77	279.63
460.228	262.93
460.686	249.43
461.144	255.33
461.602	252.13
462.06	253.63
462.518	265.53
462.976	265.83
463.434	262.43
463.892	269.43
464.35	280.63
464.808	297.13
465.266	273.73
465.724	275.53
466.181	281.73
466.639	284.43
467.097	304.43
467.555	305.03
468.012	311.03
468.47	319.13
468.928	341.93
469.385	348.63
469.843	358.73
470.3	361.03
470.758	371.53
471.215	395.03
471.673	422.53
472.13	422.53
472.588	428.93
473.045	380.33
473.503	381.83
473.96	400.23
474.417	415.73
474.875	444.33
475.332	492.23
475.789	475.93
476.246	475.93
476.704	507.73
477.161	515.53
477.618	530.33
478.075	573.53
478.532	628.53
478.989	712.23
479.446	821.83
479.903	799.53
480.36	830.43
480.817	887.03
481.274	992.13
481.731	1089.73
482.188	1197.83
482.645	1322.73
483.102	1442.83
483.558	1572.93
484.015	1648.03
484.472	1599.33
484.929	1558.73
485.385	1504.53
485.842	1466.83
486.299	1408.73
486.755	1343.33
487.212	1129.53
487.668	943.83
488.125	869.83
488.582	808.13
489.038	759.23
489.494	728.93
489.951	701.43
490.407	680.83
490.864	664.03
491.32	659.13
491.776	657.13
492.233	666.33
492.689	622.83
493.145	620.93
493.602	610.43
494.058	627.43
494.514	640.33
494.97	651.03
495.426	670.83
495.882	646.73
496.338	630.43
496.794	644.03
497.251	633.63
497.707	649.23
498.163	651.93
498.618	665.23
499.074	657.03
499.53	694.23
499.986	691.43
500.442	671.13
500.898	655.13
501.354	645.23
501.809	651.73
502.265	664.53
502.721	678.53
503.177	690.33
503.632	686.73
504.088	700.33
504.543	728.73
504.999	725.33
505.455	672.33
505.91	655.33
506.366	648.03
506.821	640.33
507.277	639.03
507.732	645.43
508.187	638.83
508.643	650.63
509.098	649.23
509.553	675.23
510.009	674.43
510.464	685.63
510.919	700.43
511.375	709.83
511.83	742.13
512.285	736.23
512.74	773.23
513.195	806.83
513.65	795.03
514.105	782.23
514.56	797.93
515.015	810.53
515.47	822.13
515.925	806.13
516.38	816.63
516.835	821.93
517.29	809.23
517.745	796.83
518.2	787.13
518.655	763.83
519.109	768.03
519.564	758.93
520.019	744.63
520.474	737.63
520.928	744.73
521.383	735.43
521.838	723.03
522.292	729.23
522.747	727.43
523.201	718.63
523.656	715.63
524.11	710.73
524.565	711.93
525.019	707.63
525.474	716.13
525.928	715.43
526.382	707.43
526.837	711.33
527.291	712.13
527.745	710.73
528.2	712.93
528.654	714.63
529.108	699.93
529.562	708.93
530.016	702.13
530.47	711.23
530.925	703.83
531.379	715.63
531.833	724.83
532.287	722.93
532.741	720.43
533.195	719.73
533.649	735.53
534.103	743.13
534.556	726.63
535.01	723.73
535.464	724.33
535.918	733.53
536.372	740.13
536.826	735.93
537.279	718.63
537.733	736.43
538.187	730.13
538.64	723.73
539.094	731.83
539.548	744.93
540.001	736.23
540.455	743.33
540.908	743.13
541.362	751.73
541.815	747.23
542.269	770.63
542.722	770.53
543.175	784.83
543.629	784.13
544.082	799.73
544.536	809.23
544.989	792.13
545.442	804.93
545.895	808.63
546.349	795.53
546.802	803.03
547.255	801.33
547.708	822.03
548.161	821.03
548.614	835.93
549.067	832.83
549.52	846.93
549.973	830.53
550.426	828.63
550.879	798.43
551.332	813.13
551.785	831.73
552.238	822.23
552.691	835.73
553.144	855.83
553.596	864.83
554.049	876.83
554.502	911.83
554.955	922.43
555.407	916.53
555.86	910.43
556.313	899.13
556.765	884.53
557.218	894.63
557.67	903.03
558.123	881.93
558.576	895.03
559.028	893.43
559.48	897.23
559.933	889.23
560.385	858.03
560.838	820.33
561.29	791.93
561.742	785.33
562.195	772.53
562.647	779.03
563.099	784.43
563.551	775.83
564.004	795.13
564.456	777.93
564.908	775.83
565.36	755.63
565.812	745.33
566.264	739.53
566.716	731.23
567.168	726.73
567.62	732.53
568.072	715.53
568.524	697.53
568.976	702.33
569.428	682.33
569.88	687.33
570.332	683.33
570.784	697.53
571.235	688.53
571.687	714.43
572.139	714.93
572.59	729.83
573.042	729.33
573.494	728.93
573.945	722.13
574.397	699.43
574.849	708.03
575.3	700.13
575.752	702.63
576.203	688.23
576.655	695.83
577.106	679.93
577.557	679.83
578.009	682.73
578.46	669.53
578.912	677.33
579.363	677.03
579.814	677.83
580.265	672.53
580.717	683.23
581.168	689.13
581.619	685.53
582.07	695.63
582.521	675.83
582.972	676.63
583.423	689.63
583.875	694.53
584.326	709.53
584.777	761.13
585.227	816.93
585.678	914.13
586.129	1003.63
586.58	1067.53
587.031	1156.13
587.482	1311.33
587.933	1486.43
588.384	1296.93
588.834	978.53
589.285	814.33
589.736	791.93
590.186	781.23
590.637	769.53
591.088	748.13
591.538	737.13
591.989	737.83
592.439	729.43
592.89	719.53
593.34	720.33
593.791	726.13
594.241	708.63
594.692	716.33
595.142	708.83
595.593	709.63
596.043	709.33
596.493	717.63
596.943	726.23
597.394	723.43
597.844	725.13
598.294	734.63
598.744	754.33
599.195	779.83
599.645	812.23
600.095	852.23
600.545	910.53
600.995	962.53
601.445	1042.23
601.895	1095.83
602.345	1136.53
602.795	1118.93
603.245	1063.63
603.695	1018.53
604.145	957.93
604.594	920.03
605.044	876.03
605.494	805.43
605.944	749.43
606.393	738.13
606.843	734.23
607.293	739.03
607.743	729.93
608.192	739.73
608.642	764.73
609.091	770.03
609.541	763.33
609.99	764.93
610.44	783.13
610.889	728.53
611.339	704.23
611.788	696.33
612.238	714.33
612.687	728.43
613.136	722.73
613.586	740.53
614.035	734.73
614.484	749.63
614.933	759.33
615.383	750.93
615.832	734.73
616.281	722.33
616.73	695.63
617.179	679.63
617.628	650.93
618.077	642.23
618.526	632.63
618.975	609.53
619.424	614.63
619.873	615.83
620.322	624.43
620.771	604.23
621.22	602.53
621.669	589.23
622.118	594.93
622.567	575.33
623.015	576.93
623.464	578.23
623.913	567.63
624.361	559.63
624.81	551.43
625.259	558.03
625.707	552.63
626.156	550.83
626.604	563.53
627.053	555.33
627.501	566.03
627.95	561.23
628.398	582.93
628.847	567.63
629.295	576.33
629.744	577.23
630.192	563.13
630.64	572.83
631.089	568.63
631.537	580.73
631.985	588.33
632.433	597.93
632.881	603.83
633.33	657.33
633.778	627.33
634.226	559.23
634.674	571.93
635.122	574.03
635.57	594.63
636.018	619.63
636.466	584.03
636.914	566.93
637.362	569.63
637.81	578.23
638.258	585.43
638.705	585.63
639.153	604.83
639.601	618.73
640.049	634.13
640.497	674.23
640.944	692.93
641.392	638.03
641.84	613.33
642.287	583.03
642.735	568.13
643.182	571.43
643.63	571.13
644.078	576.23
644.525	588.23
644.973	593.93
645.42	601.43
645.867	622.03
646.315	640.43
646.762	663.33
647.21	689.63
647.657	711.13
648.104	752.83
648.551	762.93
648.999	829.73
649.446	908.73
649.893	992.53
650.34	1159.03
650.787	1383.93
651.234	1705.03
651.682	2219.33
652.129	3037.83
652.576	4397.73
653.023	6451.23
653.47	8880.43
653.917	11143.93
654.363	12845.83
654.81	14258.73
655.257	13559.23
655.704	8883.63
656.151	5268.63
656.598	3396.53
657.044	2430.63
657.491	1853.73
657.938	1494.23
658.385	1238.13
658.831	1073.73
659.278	956.63
659.724	851.43
660.171	790.23
660.618	716.23
661.064	679.53
661.511	664.33
661.957	648.73
662.404	640.23
662.85	648.83
663.296	615.53
663.743	553.63
664.189	531.33
664.635	531.83
665.082	520.23
665.528	520.53
665.974	503.63
666.42	503.23
666.867	508.43
667.313	483.23
667.759	476.33
668.205	474.73
668.651	482.63
669.097	478.73
669.543	494.83
669.989	463.53
670.435	447.23
670.881	446.03
671.327	444.63
671.773	465.03
672.219	486.63
672.665	538.13
673.11	570.03
673.556	619.63
674.002	656.23
674.448	646.23
674.893	538.13
675.339	464.63
675.785	427.83
676.23	416.43
676.676	388.03
677.122	379.03
677.567	368.33
678.013	360.03
678.458	353.23
678.904	356.63
679.349	337.53
679.794	344.03
680.24	350.83
680.685	348.13
681.131	350.53
681.576	353.13
682.021	349.23
682.466	342.43
682.912	334.93
683.357	351.23
683.802	379.93
684.247	406.53
684.692	443.63
685.137	494.83
685.583	524.73
686.028	560.73
686.473	511.03
686.918	437.73
687.363	416.33
687.807	381.53
688.252	364.73
688.697	346.83
689.142	338.03
689.587	321.73
690.032	310.83
690.477	338.03
690.921	340.13
691.366	372.73
691.811	398.03
692.255	428.23
692.7	448.03
693.145	486.63
693.589	684.03
694.034	1089.63
694.478	1508.63
694.923	1710.73
695.367	2237.43
695.812	1179.33
696.256	493.23
696.701	370.13
697.145	344.83
697.59	322.13
698.034	319.53
698.478	328.33
698.922	327.83
699.367	323.93
699.811	331.93
700.255	352.53
700.699	368.93
701.143	414.13
701.588	468.13
702.032	500.63
702.476	502.13
702.92	479.63
703.364	477.33
703.808	632.03
704.252	1007.73
704.696	1406.53
705.14	1643.33
705.584	2093.73
706.027	1049.53
706.471	513.43
706.915	390.33
707.359	344.93
707.803	317.83
708.246	300.73
708.69	299.83
709.134	318.43
709.577	304.73
710.021	311.73
710.465	301.93
710.908	299.43
711.352	294.83
711.795	307.63
712.239	345.33
712.682	374.33
713.126	416.73
713.569	463.83
714.012	362.83
714.456	321.33
714.899	290.13
715.342	271.83
715.786	263.63
716.229	253.93
716.672	250.73
717.115	243.53
717.558	247.23
718.002	250.03
718.445	257.83
718.888	273.03
719.331	285.83
719.774	305.33
720.217	295.43
720.66	276.33
721.103	262.33
721.546	245.83
721.989	242.03
722.432	225.83
722.874	236.73
723.317	227.43
723.76	231.63
724.203	253.13
724.645	308.93
725.088	429.43
725.531	552.63
725.974	630.53
726.416	536.83
726.859	298.03
727.301	245.43
727.744	229.03
728.187	232.03
728.629	236.73
729.071	241.43
729.514	256.73
729.956	273.33
730.399	272.13
730.841	284.13
731.283	262.63
731.726	259.63
732.168	256.33
732.61	258.33
733.053	276.93
733.495	310.03
733.937	342.03
734.379	387.03
734.821	424.03
735.263	524.53
735.705	798.23
736.148	1523.53
736.59	2514.23
737.032	3004.83
737.474	2443.43
737.916	801.13
738.357	417.23
738.799	322.53
739.241	296.93
739.683	275.23
740.125	285.23
740.567	290.53
741.008	309.53
741.45	308.53
741.892	316.43
742.334	336.53
742.775	353.73
743.217	335.03
743.658	265.83
744.1	247.53
744.542	247.33
744.983	301.43
745.425	337.93
745.866	340.43
746.307	276.23
746.749	279.73
747.19	310.13
747.632	441.53
748.073	846.93
748.514	1780.23
748.956	2782.03
749.397	3472.83
749.838	2908.83
750.279	2906.03
750.72	1465.73
751.162	535.73
751.603	309.53
752.044	246.23
752.485	211.83
752.926	203.03
753.367	199.33
753.808	184.73
754.249	191.93
754.69	186.23
755.131	168.93
755.572	184.43
756.013	175.73
756.453	177.13
756.894	181.53
757.335	184.33
757.776	180.03
758.216	185.93
758.657	195.13
759.098	194.13
759.538	215.43
759.979	257.33
760.42	359.23
760.86	672.93
761.301	1732.33
761.741	4269.33
762.182	6308.53
762.622	4464.73
763.063	1272.33
763.503	532.03
763.943	337.63
764.384	322.93
764.824	396.63
765.264	432.83
765.705	298.83
766.145	204.93
766.585	188.83
767.025	181.63
767.465	179.43
767.906	232.83
768.346	300.53
768.786	335.13
769.226	250.73
769.666	306.13
770.106	599.33
770.546	1494.53
770.986	2588.93
771.426	2325.33
771.866	770.53
772.306	326.23
772.745	205.53
773.185	164.93
773.625	164.73
774.065	162.03
774.505	196.03
774.944	295.13
775.384	628.73
775.824	1169.43
776.263	1157.03
776.703	491.43
777.142	217.43
777.582	159.43
778.021	129.23
778.461	137.83
778.9	132.53
779.34	125.33
779.779	116.13
780.219	108.73
780.658	110.83
781.097	112.43
781.537	114.73
781.976	105.63
782.415	100.43
782.855	100.03
783.294	98.93
783.733	99.93
784.172	108.13
784.611	103.23
785.05	102.73
785.489	108.93
785.928	112.43
786.367	123.73
786.806	117.03
787.245	126.33
787.684	134.33
788.123	145.53
788.562	133.13
789.001	117.03
789.44	119.63
789.879	115.83
790.317	116.03
790.756	120.83
791.195	123.73
791.634	142.43
792.072	193.73
792.511	351.63
792.95	958.53
793.388	2089.43
793.827	1911.33
794.265	663.23
794.704	268.83
795.142	178.73
795.581	148.33
796.019	133.23
796.458	127.63
796.896	117.53
797.334	127.93
797.773	149.53
798.211	206.93
798.649	421.33
799.087	978.33
799.526	1548.23
799.964	1956.33
800.402	1977.43
800.84	742.93
801.278	291.53
801.716	181.73
802.154	147.63
802.592	142.63
803.03	136.03
803.468	130.93
803.906	141.93
804.344	138.83
804.782	135.23
805.22	128.63
805.658	126.13
806.096	144.83
806.533	148.03
806.971	172.93
807.409	208.13
807.847	308.63
808.284	628.93
808.722	1787.13
809.16	3211.63
809.597	3000.93
810.035	5246.03
810.472	5723.03
810.91	2042.43
811.347	772.93
811.785	393.73
812.222	243.03
812.66	192.53
813.097	162.83
813.535	134.53
813.972	124.93
814.409	115.53
814.846	106.43
815.284	110.43
815.721	100.43
816.158	94.03
816.595	116.23
817.032	168.83
817.47	190.83
817.907	163.73
818.344	142.93
818.781	111.73
819.218	101.03
819.655	120.73
820.092	179.63
820.529	214.63
820.966	167.43
821.403	121.23
821.839	103.33
822.276	97.53
822.713	125.73
823.15	127.23
823.587	111.83
824.023	145.63
824.46	288.93
824.897	859.73
825.333	1329.23
825.77	575.63
826.206	225.63
826.643	131.93
827.08	104.93
827.516	90.83
827.953	77.23
828.389	82.63
828.825	69.33
829.262	70.03
829.698	59.13
830.135	59.93
830.571	59.33
831.007	64.83
831.443	64.43
831.88	63.23
832.316	60.63
832.752	64.23
833.188	65.33
833.624	59.73
834.06	64.73
834.497	64.43
834.933	69.73
835.369	76.83
835.805	64.33
836.241	74.13
836.677	79.23
837.112	83.73
837.548	88.13
837.984	126.23
838.42	194.33
838.856	480.53
839.292	1461.33
839.727	2259.33
840.163	1041.43
840.599	882.93
841.034	1965.13
841.47	2091.63
841.906	751.63
842.341	329.63
842.777	228.53
843.212	314.03
843.648	303.13
844.083	147.03
844.519	92.63
844.954	74.73
845.39	59.23
845.825	57.33
846.261	55.73
846.696	53.33
847.131	54.83
847.566	55.93
848.002	47.63
848.437	52.23
848.872	64.43
849.307	59.53
849.742	78.33
850.177	174.13
850.613	532.03
851.048	855.13
851.483	374.83
851.918	147.43
852.353	84.03
852.788	60.93
853.223	56.23
853.657	51.03
854.092	46.03
854.527	41.83
854.962	41.13
855.397	46.83
855.832	49.83
856.266	39.03
856.701	38.83
857.136	36.43
857.57	35.73
858.005	53.43
858.44	59.83
858.874	40.53
859.309	47.93
859.743	37.73
860.178	41.13
860.612	43.63
861.047	44.93
861.481	62.33
861.915	72.33
862.35	47.53
862.784	30.53
863.218	40.33
863.653	28.63
864.087	42.43
864.521	50.93
864.955	69.13
865.39	149.63
865.824	168.03
866.258	109.03
866.692	159.13
867.126	175.73
867.56	97.53
867.994	52.53
868.428	31.03
868.862	42.53
869.296	53.63
869.73	58.23
870.164	57.43
870.598	48.33
871.031	42.73
871.465	32.23
871.899	29.23
872.333	20.93
872.766	24.43
873.2	27.33
873.634	33.83
874.067	25.93
874.501	28.83
874.935	36.83
875.368	32.13
875.802	27.63
876.235	27.33
876.669	25.53
877.102	28.63
877.535	30.03
877.969	26.43
878.402	25.43
878.836	19.43
879.269	21.23
879.702	20.53
880.135	22.93
880.569	17.13
881.002	30.03
881.435	23.33
881.868	20.13
882.301	21.23
882.734	17.83
883.167	26.13
883.601	15.63
884.034	21.33
884.467	14.43
884.899	16.53
885.332	10.93
885.765	10.83
886.198	12.03
886.631	16.43
887.064	20.63
887.497	17.53
887.929	22.23
888.362	14.23
888.795	15.03
889.228	16.23
889.66	24.63
890.093	19.33
890.526	18.23
890.958	14.23
891.391	14.33
891.823	22.23
892.256	17.03
892.688	11.53
893.121	20.93
893.553	15.83
893.985	21.83
894.418	16.73
894.85	10.73
895.282	15.63
895.715	21.43
896.147	18.93
896.579	15.83
897.011	8.83
897.444	22.43
897.876	18.73
898.308	11.83
898.74	17.93
899.172	6.73
899.604	24.43
900.036	22.93
900.468	12.93
900.9	13.23
901.332	16.33
901.764	11.13
902.196	16.53
902.628	13.83
903.06	16.93
903.491	29.13
903.923	19.83
904.355	20.93
904.787	22.93
905.218	26.93
905.65	17.13
906.082	14.33
906.513	12.53
906.945	14.63
907.376	15.83
907.808	14.23
908.239	25.43
908.671	20.03
909.102	22.53
909.534	22.63
909.965	43.53
910.397	91.43
910.828	307.23
911.259	466.03
911.691	212.43
912.122	100.83
912.553	52.53
912.984	36.43
913.415	25.03
913.847	24.13
914.278	15.03
914.709	13.13
915.14	17.33
915.571	14.73
916.002	9.63
916.433	17.03
916.864	17.93
917.295	10.13
917.726	20.13
918.157	14.83
918.587	25.13
919.018	22.23
919.449	23.03
919.88	25.23
920.311	27.23
920.741	44.83
921.172	158.73
921.603	149.33
922.033	62.23
922.464	47.63
922.895	23.73
923.325	16.23
923.756	12.73
924.186	17.53
924.617	31.03
925.047	36.83
925.478	52.83
925.908	48.03
926.338	21.83
926.769	17.83
927.199	22.93
927.629	11.13
928.06	15.43
928.49	12.23
928.92	13.23
929.35	10.83
929.78	9.03
930.21	5.03
930.641	5.73
931.071	7.03
931.501	3.03
931.931	11.73
932.361	10.53
932.791	-2.67
933.221	3.33
933.651	3.83
934.08	15.23
934.51	29.73
934.94	10.53
935.37	10.03
935.8	10.63
936.229	6.03
936.659	1.93
937.089	1.53
937.519	12.03
937.948	19.23
938.378	16.03
938.807	4.43
939.237	3.63
939.666	5.73
940.096	1.83
940.525	4.63
940.955	1.73
941.384	6.63
941.814	-7.07
942.243	-2.17
942.672	4.23
943.102	-3.17
943.531	-2.17
943.96	0.63
944.39	-4.47
944.819	-5.07
945.248	9.83
945.677	2.93
946.106	9.93
946.535	5.53
946.964	-0.17
947.393	7.83
947.822	-1.67
948.251	-3.17
948.68	4.93
949.109	1.13
949.538	2.93
949.967	6.53
950.396	0.33
950.825	0.93
951.254	4.13
951.682	-4.57
952.111	4.23
952.54	2.13
952.969	-6.07
953.397	-4.67
953.826	4.83
954.254	0.23
954.683	5.33
955.112	-0.67
955.54	0.83
955.969	4.43
956.397	-0.77
956.826	-9.47
957.254	6.43
957.682	2.93
958.111	6.73
958.539	1.03
958.967	-2.87
959.396	-5.57
959.824	-3.17
960.252	7.43
960.68	-6.57
961.109	-0.27
961.537	-4.17
961.965	-6.77
962.393	0.83
962.821	-2.97
963.249	3.93
963.677	2.63
964.105	-3.57
964.533	45.63
964.961	38.13
965.389	21.63
965.817	9.53
966.245	2.63
966.672	0.33
967.1	-6.17
967.528	-0.17
967.956	-1.37
968.383	-4.37
968.811	-3.47
969.239	-6.97
969.666	-6.77
970.094	-5.47
970.522	2.73
970.949	-0.17
971.377	-1.77
971.804	-2.27
972.232	-3.97
972.659	-4.57
973.087	-5.37
973.514	-0.57
973.941	0.83
974.369	-0.77
974.796	-0.07
975.223	-2.37
975.651	-5.57
976.078	3.43
976.505	-1.97
976.932	4.53
977.359	15.63
977.786	7.73
978.214	-0.27
978.641	-1.77
979.068	-2.07
979.495	-4.97
979.922	-0.57
980.349	-1.67
980.776	3.13
981.202	-1.67
981.629	3.93
982.056	2.83
982.483	-8.47
982.91	0.63
983.337	-1.27
983.763	2.13
984.19	-8.37
984.617	-1.77
985.043	-7.47
985.47	0.03
985.897	-4.87
986.323	-1.77
986.75	5.23
987.176	-3.47
987.603	-0.67
988.029	1.93
988.456	-7.27
988.882	-1.17
989.308	-14.17
989.735	-9.47
990.161	-1.27
990.587	-5.77
991.014	-0.77
991.44	7.33
991.866	2.83
992.292	-3.17
992.719	-5.07
993.145	-1.57
993.571	-9.17
993.997	-2.37
994.423	4.43
994.849	-5.97
995.275	3.93
995.701	2.83
996.127	-1.27
996.553	1.83
996.979	-2.67
997.405	-2.17
997.83	-5.17
998.256	-5.37
998.682	-4.67
999.108	-5.77
999.534	-2.27
999.959	-0.47
1000.385	-3.27
1000.811	-1.37
1001.236	-6.27
1001.662	0.03
1002.087	-4.67
1002.513	2.83
1002.938	4.03
1003.364	-0.97
1003.789	-1.97
1004.215	3.03
1004.64	-0.37
1005.066	-3.27
1005.491	1.63
1005.916	-0.47
1006.342	-6.17
1006.767	-7.17
1007.192	5.83
1007.617	-0.57
1008.042	-4.07
1008.468	-3.77
1008.893	-7.67
1009.318	3.93
1009.743	4.43
1010.168	1.23
1010.593	-1.27
1011.018	-6.87
1011.443	-1.27
1011.868	3.63
1012.293	-1.67
1012.718	-11.57
1013.143	-6.07
1013.567	-0.67
1013.992	-4.17
1014.417	-11.47
1014.842	3.03
1015.267	-1.37
1015.691	-2.87
1016.116	4.23
1016.541	-5.07
1016.965	2.13
1017.39	2.73
1017.814	-2.87
1018.239	-2.77
1018.663	-10.27
1019.088	-15.67
1019.512	-4.37
1019.937	-1.47
1020.361	-4.67
1020.785	-14.57
1021.21	-10.27
1021.634	-4.77
1022.058	-2.07
1022.483	1.83
1022.907	-9.87
1023.331	-9.27
1023.755	-0.67
1024.179	-6.47
1024.604	-3.27
1025.028	-8.47
1025.452	-4.97
1025.876	-3.87
1026.3	-6.27
1026.724	-8.07
1027.148	0.43
1027.572	-5.87
1027.996	-5.77
1028.42	2.53
1028.843	-3.17
1029.267	-4.47
1029.691	-7.47
1030.115	-3.37
1030.539	-2.87
1030.962	-3.07
1031.386	-6.97
1031.81	1.13
1032.233	2.03
1032.657	-3.97
1033.08	-4.97
1033.504	-2.87
1033.927	-6.27
1034.351	-1.77
1034.774	-5.77
1035.198	-0.07
1035.621	-4.57
1036.045	-5.97
1036.468	1.13
1036.891	-11.07
1037.315	-6.37
1037.738	-6.27
1038.161	-2.27
1038.584	-6.47
1039.008	-1.47
1039.431	-4.17
1039.854	-6.97
1040.277	-8.67
1040.7	-10.77
1041.123	-3.97
1041.546	-8.97
1041.969	-3.77
1042.392	-5.47
1042.815	-6.77
1043.238	-0.97
1043.661	1.03
1044.084	-8.57
1044.507	-6.97
1044.93	-9.67
1045.352	-7.47
1045.775	1.73
1046.198	-0.37
1046.621	-4.77
1047.043	1.13
1047.466	3.23
1047.889	-5.97
1048.311	-10.27
1048.734	-6.07
1049.156	-0.77
1049.579	0.43
1050.001	-3.67
1050.424	6.53
1050.846	-3.97
1051.269	-8.47
1051.691	-6.67
1052.113	-0.37
1052.536	3.83
1052.958	-6.07
1053.38	-5.47
1053.802	-13.07
1054.225	-2.57
1054.647	-10.57
1055.069	-3.47
1055.491	2.53
1055.913	-8.77
1056.335	-1.17
1056.757	-2.87
1057.179	-4.47
1057.601	3.03
1058.023	-6.07
1058.445	-0.07
1058.867	-3.77
1059.289	-3.27
1059.711	-2.27
1060.133	-1.37
1060.555	-3.77
1060.976	-7.97
1061.398	-6.37
1061.82	-1.67
1062.241	-3.57
1062.663	-6.17
1063.085	-10.37
1063.506	-5.07
1063.928	-4.77
1064.35	-4.27
1064.771	-9.37
1065.193	-2.37
1065.614	-8.77
1066.035	-4.97
1066.457	-1.67
1066.878	0.73
1067.3	-6.27
1067.721	-7.07
1068.142	-1.37
1068.564	-6.17
1068.985	-6.47
1069.406	-6.37
1069.827	-0.57
1070.248	-2.67
1070.67	-2.97
1071.091	-8.07
1071.512	-1.47
1071.933	-0.87
1072.354	-5.57
1072.775	-8.27
1073.196	-11.27
1073.617	-10.97
1074.038	-4.47
1074.459	-6.17
1074.88	-3.67
1075.3	-3.57
1075.721	-5.27
1076.142	-1.07
1076.563	-0.67
1076.983	-7.77
1077.404	-9.17
1077.825	-8.87
1078.246	-8.37
1078.666	-13.87
1079.087	-5.07
1079.507	-7.37
1079.928	2.43
1080.348	-5.47
1080.769	-6.47
1081.189	-3.17
1081.61	-1.17
1082.03	-11.27
1082.451	-6.87
1082.871	-3.27
1083.291	-6.07
1083.711	-9.97
1084.132	-4.97
1084.552	-13.37
1084.972	1.73
1085.392	-10.67
1085.813	-10.37
1086.233	-6.87
1086.653	-4.47
1087.073	-5.17
1087.493	-6.97
1087.913	-9.97
1088.333	-9.17
1088.753	-4.17
1089.173	-0.67
1089.593	-4.77
1090.013	-1.47
1090.433	3.33
1090.852	-3.57
1091.272	-2.77
1091.692	-4.57
1092.112	-4.87
1092.531	-14.27
1092.951	-18.27
1093.371	-2.37
1093.79	0.63
1094.21	-6.87
1094.63	-3.07
1095.049	-5.97
1095.469	-1.47
1095.888	-0.07
1096.308	1.63
1096.727	4.93
1097.146	-12.17
1097.566	-3.97
1097.985	-4.07
1098.405	-2.47
1098.824	-5.67
1099.243	-7.17
1099.662	-5.67
1100.082	-5.67
1100.501	-2.67
1100.92	-1.87
1101.339	-4.57
1101.758	-5.97
