Data from 20171114-ORNL-Ar_H_NY_Subt18_08-08-34-219.txt Node
Date: Tue Nov 14 08:08:34 EST 2017
User: Ender
Spectrometer: HR+D1039
Trigger mode: 0
Integration Time (sec): 2.730000E-2
Scans to average: 10
Electric dark correction enabled: true
Nonlinearity correction enabled: false
Boxcar width: 0
XAxis mode: Wavelengths
Number of Pixels in Spectrum: 2048
>>>>>Begin Spectral Data<<<<<
187.836	-4.11
188.309	-4.11
188.782	-4.11
189.255	0.09
189.728	-3.71
190.201	5.49
190.674	-1.61
191.147	4.69
191.619	-8.91
192.092	-1.01
192.565	5.59
193.038	1.69
193.511	-0.11
193.984	0.39
194.456	-0.91
194.929	2.69
195.402	-3.91
195.874	3.69
196.347	0.49
196.82	-7.01
197.292	5.89
197.765	-3.71
198.237	-14.61
198.71	-0.21
199.182	1.59
199.655	-3.51
200.127	0.59
200.6	-3.91
201.072	-0.91
201.544	-0.41
202.017	0.99
202.489	2.39
202.961	-1.81
203.433	0.79
203.906	-4.11
204.378	-7.91
204.85	-5.61
205.322	-7.01
205.794	-4.11
206.266	-4.41
206.739	-7.51
207.211	-2.71
207.683	-6.31
208.155	-7.51
208.627	-1.41
209.099	0.19
209.57	-5.81
210.042	-1.91
210.514	-4.41
210.986	-3.91
211.458	-10.61
211.93	0.49
212.402	-3.11
212.873	-1.61
213.345	-12.21
213.817	-10.71
214.288	-7.41
214.76	-10.91
215.232	-8.31
215.703	1.99
216.175	2.39
216.646	-4.01
217.118	-5.61
217.589	-4.71
218.061	-2.91
218.532	-1.61
219.004	-8.01
219.475	-6.61
219.946	-6.11
220.418	-7.11
220.889	5.99
221.36	-0.21
221.832	-7.21
222.303	-8.11
222.774	0.09
223.245	-9.31
223.717	-10.81
224.188	-3.01
224.659	-11.91
225.13	-8.51
225.601	-3.51
226.072	3.19
226.543	-0.11
227.014	2.09
227.485	-2.31
227.956	-4.41
228.427	-1.51
228.898	-1.91
229.369	7.49
229.839	-3.81
230.31	-11.01
230.781	-0.11
231.252	-5.01
231.722	-5.01
232.193	-9.91
232.664	-6.31
233.135	-4.91
233.605	-7.31
234.076	-15.81
234.546	-5.11
235.017	-3.21
235.487	-3.01
235.958	-2.31
236.428	-5.31
236.899	-3.11
237.369	-2.61
237.84	-3.11
238.31	-0.81
238.78	-6.11
239.251	-8.81
239.721	-7.01
240.191	2.29
240.662	-3.11
241.132	-4.31
241.602	-0.71
242.072	-5.21
242.542	6.99
243.013	-2.61
243.483	3.89
243.953	2.49
244.423	-2.11
244.893	-4.01
245.363	-0.81
245.833	2.29
246.303	-2.71
246.773	12.09
247.243	-1.31
247.712	-0.31
248.182	-2.11
248.652	2.59
249.122	-5.31
249.592	-0.41
250.061	4.19
250.531	9.89
251.001	3.09
251.471	4.69
251.94	4.89
252.41	0.19
252.879	-6.61
253.349	8.19
253.818	3.69
254.288	3.29
254.757	1.99
255.227	-1.11
255.696	-3.11
256.166	-1.01
256.635	1.59
257.105	1.99
257.574	2.39
258.043	4.39
258.513	-6.91
258.982	6.89
259.451	1.59
259.92	7.09
260.389	7.29
260.859	9.19
261.328	3.99
261.797	5.39
262.266	0.09
262.735	5.79
263.204	-1.21
263.673	1.69
264.142	4.89
264.611	-6.21
265.08	0.79
265.549	-3.21
266.018	4.09
266.487	5.09
266.955	-7.31
267.424	-3.91
267.893	5.39
268.362	-4.31
268.83	4.69
269.299	3.79
269.768	4.89
270.236	7.99
270.705	2.19
271.174	6.19
271.642	5.49
272.111	5.89
272.579	4.69
273.048	8.99
273.516	2.89
273.985	8.19
274.453	12.39
274.922	13.99
275.39	8.69
275.858	1.99
276.327	7.29
276.795	16.09
277.263	7.49
277.731	16.29
278.2	17.89
278.668	19.39
279.136	16.59
279.604	2.49
280.072	10.39
280.54	10.09
281.008	3.09
281.477	14.79
281.945	5.39
282.413	7.29
282.881	9.89
283.348	10.99
283.816	9.19
284.284	10.39
284.752	16.89
285.22	12.89
285.688	18.39
286.156	8.39
286.623	23.79
287.091	19.69
287.559	15.29
288.026	11.99
288.494	12.69
288.962	-1.41
289.429	8.79
289.897	15.49
290.364	18.09
290.832	17.29
291.3	8.39
291.767	14.49
292.234	13.79
292.702	5.49
293.169	14.39
293.637	19.99
294.104	14.59
294.571	5.39
295.039	3.49
295.506	9.09
295.973	12.39
296.44	13.89
296.908	15.09
297.375	9.89
297.842	13.89
298.309	12.29
298.776	10.39
299.243	20.39
299.71	13.39
300.177	14.59
300.644	14.39
301.111	15.09
301.578	20.59
302.045	10.79
302.512	20.09
302.979	19.09
303.446	21.69
303.913	17.39
304.379	21.09
304.846	23.29
305.313	20.89
305.78	19.99
306.246	22.69
306.713	30.99
307.18	24.49
307.646	19.99
308.113	22.59
308.579	15.79
309.046	13.69
309.512	23.59
309.979	16.19
310.445	23.09
310.912	21.69
311.378	21.99
311.845	26.79
312.311	29.99
312.777	34.19
313.244	23.09
313.71	36.19
314.176	22.79
314.642	29.59
315.109	27.09
315.575	34.49
316.041	31.39
316.507	29.29
316.973	35.99
317.439	25.19
317.905	37.59
318.371	31.39
318.837	28.09
319.303	32.59
319.769	19.89
320.235	31.19
320.701	29.79
321.167	26.59
321.633	22.79
322.099	33.29
322.564	37.19
323.03	35.59
323.496	37.29
323.962	35.09
324.427	37.69
324.893	36.39
325.359	37.39
325.824	31.89
326.29	32.79
326.755	34.49
327.221	34.19
327.686	39.89
328.152	43.59
328.617	38.49
329.083	40.69
329.548	41.99
330.014	39.59
330.479	33.09
330.944	40.79
331.41	39.09
331.875	43.59
332.34	37.29
332.805	32.29
333.271	44.89
333.736	36.49
334.201	47.09
334.666	44.69
335.131	52.09
335.596	49.39
336.061	42.79
336.526	39.19
336.991	47.39
337.456	47.99
337.921	43.49
338.386	38.39
338.851	44.49
339.316	44.49
339.781	44.49
340.246	47.29
340.711	41.19
341.175	47.79
341.64	39.39
342.105	45.99
342.569	51.89
343.034	55.69
343.499	48.49
343.963	46.99
344.428	59.99
344.893	59.49
345.357	58.59
345.822	56.89
346.286	66.29
346.751	63.59
347.215	71.89
347.679	71.99
348.144	92.69
348.608	80.69
349.073	62.99
349.537	73.19
350.001	74.89
350.465	84.69
350.93	77.29
351.394	80.99
351.858	68.19
352.322	85.99
352.786	80.19
353.25	94.39
353.715	104.89
354.179	96.69
354.643	115.59
355.107	117.89
355.571	104.19
356.035	98.19
356.498	112.39
356.962	111.19
357.426	124.69
357.89	108.79
358.354	83.59
358.818	77.79
359.281	78.69
359.745	68.39
360.209	72.99
360.673	71.39
361.136	75.79
361.6	77.69
362.064	82.69
362.527	79.29
362.991	83.59
363.454	65.59
363.918	71.69
364.381	77.79
364.845	82.29
365.308	87.39
365.772	81.39
366.235	89.29
366.698	78.79
367.162	83.99
367.625	84.19
368.088	88.59
368.552	87.09
369.015	89.59
369.478	88.29
369.941	89.99
370.404	90.89
370.867	96.69
371.331	103.19
371.794	109.29
372.257	100.09
372.72	106.59
373.183	108.19
373.646	93.69
374.109	92.79
374.572	101.59
375.035	102.09
375.497	106.09
375.96	94.49
376.423	107.19
376.886	113.29
377.349	115.19
377.811	102.99
378.274	107.69
378.737	101.59
379.199	110.59
379.662	108.69
380.125	107.99
380.587	112.79
381.05	112.09
381.512	117.79
381.975	123.59
382.437	120.39
382.9	121.19
383.362	128.29
383.825	132.19
384.287	133.29
384.75	125.39
385.212	131.49
385.674	128.19
386.136	132.39
386.599	124.29
387.061	117.99
387.523	125.69
387.985	130.49
388.447	137.69
388.91	123.99
389.372	137.49
389.834	129.79
390.296	123.69
390.758	136.79
391.22	142.69
391.682	159.39
392.144	188.89
392.606	167.59
393.068	144.09
393.529	151.99
393.991	143.99
394.453	133.39
394.915	139.99
395.377	145.89
395.838	157.49
396.3	140.59
396.762	134.79
397.224	144.29
397.685	137.19
398.147	139.29
398.608	128.09
399.07	131.39
399.531	135.29
399.993	144.19
400.454	154.69
400.916	148.79
401.377	148.89
401.839	153.99
402.3	151.09
402.762	169.19
403.223	185.89
403.684	171.79
404.145	162.39
404.607	165.09
405.068	163.89
405.529	167.69
405.99	191.69
406.451	177.59
406.913	178.29
407.374	165.99
407.835	165.69
408.296	169.29
408.757	180.49
409.218	190.79
409.679	182.69
410.14	175.19
410.601	180.19
411.062	182.49
411.522	189.99
411.983	186.39
412.444	175.09
412.905	186.69
413.366	185.09
413.826	208.89
414.287	230.89
414.748	281.29
415.208	251.89
415.669	228.39
416.13	220.09
416.59	218.79
417.051	224.79
417.511	232.79
417.972	251.79
418.432	256.29
418.893	300.59
419.353	263.29
419.814	214.79
420.274	189.59
420.734	193.79
421.195	202.39
421.655	197.09
422.115	201.59
422.576	204.39
423.036	217.09
423.496	217.59
423.956	228.99
424.416	247.19
424.876	269.19
425.336	272.99
425.797	272.29
426.257	269.29
426.717	251.19
427.177	249.19
427.637	232.79
428.097	243.89
428.556	252.59
429.016	277.19
429.476	273.89
429.936	274.99
430.396	290.89
430.856	296.29
431.315	320.19
431.775	358.49
432.235	393.69
432.694	354.29
433.154	371.39
433.614	401.29
434.073	340.79
434.533	288.29
434.993	272.19
435.452	290.29
435.912	298.99
436.371	298.89
436.83	289.49
437.29	269.39
437.749	262.09
438.209	263.89
438.668	284.59
439.127	294.29
439.587	265.59
440.046	254.79
440.505	264.69
440.964	290.09
441.424	334.69
441.883	321.79
442.342	266.49
442.801	237.99
443.26	230.69
443.719	238.89
444.178	231.09
444.637	222.89
445.096	229.19
445.555	238.69
446.014	236.39
446.473	236.69
446.932	242.89
447.391	231.99
447.849	242.09
448.308	225.19
448.767	239.29
449.226	246.99
449.685	251.19
450.143	262.89
450.602	250.69
451.061	247.69
451.519	242.49
451.978	247.79
452.436	235.19
452.895	250.79
453.353	270.39
453.812	254.89
454.27	252.09
454.729	261.19
455.187	254.39
455.646	257.79
456.104	258.49
456.562	270.69
457.021	285.29
457.479	278.09
457.937	279.99
458.395	278.99
458.854	259.19
459.312	271.49
459.77	286.19
460.228	272.19
460.686	248.79
461.144	261.29
461.602	254.29
462.06	255.19
462.518	266.89
462.976	266.89
463.434	273.09
463.892	278.19
464.35	287.39
464.808	301.09
465.266	274.69
465.724	286.09
466.181	286.49
466.639	286.49
467.097	305.29
467.555	321.09
468.012	316.09
468.47	328.09
468.928	342.39
469.385	364.99
469.843	365.19
470.3	370.49
470.758	379.09
471.215	396.69
471.673	422.89
472.13	425.09
472.588	441.59
473.045	394.09
473.503	399.69
473.96	413.39
474.417	424.39
474.875	457.99
475.332	494.19
475.789	485.29
476.246	483.29
476.704	499.09
477.161	525.69
477.618	545.89
478.075	577.89
478.532	635.69
478.989	715.89
479.446	833.29
479.903	781.99
480.36	811.89
480.817	868.79
481.274	955.09
481.731	1048.79
482.188	1134.79
482.645	1252.99
483.102	1343.39
483.558	1467.69
484.015	1497.89
484.472	1491.99
484.929	1440.69
485.385	1399.99
485.842	1358.59
486.299	1309.29
486.755	1273.49
487.212	1079.79
487.668	927.49
488.125	854.09
488.582	788.19
489.038	756.69
489.494	724.89
489.951	696.19
490.407	680.89
490.864	664.49
491.32	663.79
491.776	664.19
492.233	672.49
492.689	640.79
493.145	635.89
493.602	623.99
494.058	643.29
494.514	640.49
494.97	668.49
495.426	668.09
495.882	647.99
496.338	624.59
496.794	637.99
497.251	633.39
497.707	656.69
498.163	651.69
498.618	669.09
499.074	663.59
499.53	697.29
499.986	690.89
500.442	669.59
500.898	649.29
501.354	643.09
501.809	650.39
502.265	655.89
502.721	661.29
503.177	670.39
503.632	679.09
504.088	679.79
504.543	703.09
504.999	717.29
505.455	682.49
505.91	654.69
506.366	656.39
506.821	661.89
507.277	654.79
507.732	654.19
508.187	661.09
508.643	670.39
509.098	669.29
509.553	689.69
510.009	698.09
510.464	707.39
510.919	732.09
511.375	719.69
511.83	734.39
512.285	752.69
512.74	783.19
513.195	807.09
513.65	799.09
514.105	793.19
514.56	796.49
515.015	810.59
515.47	827.29
515.925	807.09
516.38	811.39
516.835	826.09
517.29	811.59
517.745	803.89
518.2	792.39
518.655	781.39
519.109	778.09
519.564	769.79
520.019	753.69
520.474	748.69
520.928	762.19
521.383	746.39
521.838	741.69
522.292	738.99
522.747	744.19
523.201	741.79
523.656	737.29
524.11	729.09
524.565	734.29
525.019	717.29
525.474	732.59
525.928	728.89
526.382	724.79
526.837	736.89
527.291	736.69
527.745	725.19
528.2	727.39
528.654	714.19
529.108	710.59
529.562	715.29
530.016	718.49
530.47	714.69
530.925	724.69
531.379	714.49
531.833	727.89
532.287	735.99
532.741	725.59
533.195	730.39
533.649	743.19
534.103	748.29
534.556	733.79
535.01	732.79
535.464	719.49
535.918	746.49
536.372	735.59
536.826	745.79
537.279	743.29
537.733	739.09
538.187	749.79
538.64	733.69
539.094	749.39
539.548	752.99
540.001	749.59
540.455	749.29
540.908	755.19
541.362	763.39
541.815	780.59
542.269	788.69
542.722	783.09
543.175	800.49
543.629	800.29
544.082	810.09
544.536	822.69
544.989	821.49
545.442	822.59
545.895	833.29
546.349	825.39
546.802	843.39
547.255	839.49
547.708	838.69
548.161	853.09
548.614	857.49
549.067	862.39
549.52	857.79
549.973	848.19
550.426	840.09
550.879	815.39
551.332	833.89
551.785	831.19
552.238	851.19
552.691	854.99
553.144	863.89
553.596	880.19
554.049	910.19
554.502	922.59
554.955	950.79
555.407	951.39
555.86	942.99
556.313	934.49
556.765	917.49
557.218	925.19
557.67	925.09
558.123	912.59
558.576	917.19
559.028	916.89
559.48	930.49
559.933	911.09
560.385	887.89
560.838	851.79
561.29	818.89
561.742	817.09
562.195	808.39
562.647	810.79
563.099	813.99
563.551	805.89
564.004	820.09
564.456	804.69
564.908	781.59
565.36	778.59
565.812	766.19
566.264	747.19
566.716	743.09
567.168	740.19
567.62	744.99
568.072	736.99
568.524	722.19
568.976	713.99
569.428	711.29
569.88	712.89
570.332	711.89
570.784	719.59
571.235	711.69
571.687	725.19
572.139	719.59
572.59	750.69
573.042	750.69
573.494	739.09
573.945	731.39
574.397	720.89
574.849	717.09
575.3	728.69
575.752	719.39
576.203	696.79
576.655	720.79
577.106	699.09
577.557	703.99
578.009	703.09
578.46	695.89
578.912	693.19
579.363	706.29
579.814	696.99
580.265	695.89
580.717	709.59
581.168	703.09
581.619	699.09
582.07	714.39
582.521	706.29
582.972	686.29
583.423	709.89
583.875	707.29
584.326	708.29
584.777	740.49
585.227	771.39
585.678	815.49
586.129	834.79
586.58	860.29
587.031	895.29
587.482	963.09
587.933	1016.79
588.384	963.99
588.834	856.89
589.285	805.99
589.736	810.09
590.186	809.49
590.637	796.09
591.088	777.69
591.538	773.29
591.989	758.29
592.439	756.49
592.89	755.29
593.34	737.39
593.791	744.49
594.241	736.39
594.692	735.69
595.142	737.29
595.593	731.99
596.043	722.69
596.493	740.59
596.943	744.69
597.394	744.59
597.844	745.79
598.294	763.29
598.744	789.39
599.195	811.29
599.645	856.39
600.095	907.29
600.545	963.99
600.995	1001.39
601.445	1087.29
601.895	1144.59
602.345	1179.09
602.795	1167.09
603.245	1111.29
603.695	1072.59
604.145	1010.69
604.594	951.89
605.044	907.89
605.494	838.69
605.944	789.79
606.393	771.89
606.843	764.89
607.293	763.39
607.743	759.69
608.192	782.09
608.642	782.09
609.091	803.09
609.541	803.79
609.99	795.79
610.44	796.39
610.889	745.39
611.339	719.89
611.788	718.49
612.238	728.69
612.687	738.29
613.136	731.99
613.586	738.49
614.035	728.99
614.484	754.79
614.933	754.39
615.383	754.59
615.832	747.19
616.281	738.19
616.73	702.89
617.179	686.79
617.628	674.99
618.077	661.79
618.526	648.89
618.975	654.39
619.424	644.29
619.873	641.49
620.322	645.69
620.771	632.39
621.22	632.99
621.669	617.49
622.118	615.09
622.567	600.69
623.015	593.89
623.464	602.59
623.913	596.69
624.361	581.79
624.81	583.29
625.259	577.69
625.707	586.89
626.156	589.79
626.604	602.59
627.053	579.99
627.501	592.39
627.95	605.29
628.398	604.79
628.847	596.69
629.295	594.89
629.744	583.89
630.192	586.59
630.64	591.29
631.089	572.79
631.537	574.69
631.985	574.59
632.433	574.89
632.881	563.69
633.33	585.49
633.778	573.69
634.226	554.39
634.674	572.09
635.122	575.69
635.57	581.59
636.018	599.09
636.466	593.39
636.914	586.49
637.362	596.79
637.81	602.39
638.258	606.79
638.705	607.89
639.153	645.59
639.601	652.59
640.049	676.59
640.497	704.19
640.944	728.29
641.392	675.19
641.84	650.19
642.287	603.39
642.735	592.69
643.182	593.79
643.63	592.29
644.078	591.59
644.525	602.79
644.973	604.49
645.42	619.09
645.867	640.79
646.315	662.39
646.762	687.29
647.21	717.69
647.657	742.89
648.104	766.99
648.551	780.49
648.999	850.69
649.446	931.99
649.893	1017.29
650.34	1164.79
650.787	1373.99
651.234	1718.39
651.682	2229.29
652.129	3027.79
652.576	4300.39
653.023	6259.19
653.47	8487.39
653.917	10462.69
654.363	11966.09
654.81	13128.69
655.257	12469.89
655.704	8253.39
656.151	4983.19
656.598	3275.99
657.044	2344.49
657.491	1814.89
657.938	1478.49
658.385	1234.19
658.831	1078.79
659.278	971.79
659.724	869.39
660.171	794.39
660.618	734.49
661.064	698.99
661.511	684.29
661.957	677.49
662.404	670.09
662.85	678.89
663.296	640.29
663.743	574.89
664.189	571.39
664.635	551.99
665.082	546.29
665.528	548.79
665.974	536.99
666.42	527.69
666.867	527.69
667.313	509.99
667.759	480.29
668.205	471.79
668.651	476.49
669.097	477.79
669.543	469.59
669.989	467.29
670.435	459.89
670.881	462.79
671.327	474.29
671.773	486.99
672.219	528.09
672.665	580.49
673.11	610.69
673.556	662.99
674.002	701.99
674.448	690.19
674.893	569.79
675.339	501.09
675.785	465.99
676.23	438.79
676.676	413.69
677.122	407.49
677.567	394.29
678.013	389.79
678.458	381.79
678.904	381.79
679.349	371.99
679.794	377.09
680.24	366.49
680.685	363.89
681.131	363.89
681.576	370.09
682.021	370.19
682.466	373.89
682.912	365.99
683.357	373.99
683.802	401.79
684.247	436.09
684.692	487.39
685.137	527.19
685.583	568.69
686.028	594.39
686.473	547.49
686.918	474.89
687.363	445.49
687.807	412.69
688.252	390.99
688.697	375.39
689.142	354.79
689.587	350.89
690.032	347.79
690.477	362.49
690.921	376.89
691.366	399.19
691.811	434.69
692.255	461.99
692.7	485.99
693.145	540.09
693.589	761.39
694.034	1224.79
694.478	1658.99
694.923	1821.19
695.367	2376.29
695.812	1275.19
696.256	533.89
696.701	389.79
697.145	356.49
697.59	345.09
698.034	333.29
698.478	352.89
698.922	342.59
699.367	345.99
699.811	351.89
700.255	374.19
700.699	409.79
701.143	456.39
701.588	497.19
702.032	534.89
702.476	544.79
702.92	516.49
703.364	529.09
703.808	685.29
704.252	1132.09
704.696	1565.29
705.14	1771.99
705.584	2231.69
706.027	1118.49
706.471	548.69
706.915	426.09
707.359	372.59
707.803	338.99
708.246	330.49
708.69	324.89
709.134	331.59
709.577	330.29
710.021	335.69
710.465	324.89
710.908	315.49
711.352	313.29
711.795	332.69
712.239	375.99
712.682	411.99
713.126	437.89
713.569	481.39
714.012	377.09
714.456	328.59
714.899	306.49
715.342	292.99
715.786	272.19
716.229	271.39
716.672	263.09
717.115	265.49
717.558	275.09
718.002	268.69
718.445	279.09
718.888	302.39
719.331	307.99
719.774	315.19
720.217	322.29
720.66	300.09
721.103	281.29
721.546	269.79
721.989	271.09
722.432	245.79
722.874	251.59
723.317	249.39
723.76	246.89
724.203	277.59
724.645	332.19
725.088	475.09
725.531	611.39
725.974	675.99
726.416	577.89
726.859	321.39
727.301	257.19
727.744	247.59
728.187	244.69
728.629	256.79
729.071	255.69
729.514	275.19
729.956	288.59
730.399	303.79
730.841	308.79
731.283	293.69
731.726	274.79
732.168	273.29
732.61	286.29
733.053	307.49
733.495	334.69
733.937	372.79
734.379	419.19
734.821	472.59
735.263	595.39
735.705	905.09
736.148	1738.09
736.59	2785.59
737.032	3185.99
737.474	2609.99
737.916	865.89
738.357	454.19
738.799	350.29
739.241	321.19
739.683	300.49
740.125	307.59
740.567	310.09
741.008	327.69
741.45	329.09
741.892	339.09
742.334	373.29
742.775	381.99
743.217	368.49
743.658	287.99
744.1	269.19
744.542	291.79
744.983	346.69
745.425	367.89
745.866	369.59
746.307	301.09
746.749	299.89
747.19	352.59
747.632	497.39
748.073	980.99
748.514	2030.29
748.956	3026.29
749.397	3839.49
749.838	3185.99
750.279	3101.49
750.72	1576.29
751.162	590.69
751.603	334.39
752.044	270.49
752.485	223.19
752.926	223.19
753.367	213.89
753.808	208.09
754.249	200.19
754.69	201.79
755.131	198.59
755.572	198.29
756.013	187.79
756.453	192.99
756.894	199.79
757.335	195.59
757.776	209.69
758.216	203.39
758.657	209.79
759.098	219.09
759.538	240.49
759.979	293.49
760.42	412.09
760.86	793.89
761.301	2031.19
761.741	4797.39
762.182	6682.99
762.622	4725.89
763.063	1410.29
763.503	575.69
763.943	353.69
764.384	298.59
764.824	297.09
765.264	296.09
765.705	243.99
766.145	199.89
766.585	192.79
767.025	185.39
767.465	178.09
767.906	206.69
768.346	239.89
768.786	251.69
769.226	243.89
769.666	339.79
770.106	691.29
770.546	1719.49
770.986	2799.69
771.426	2464.49
771.866	838.89
772.306	349.69
772.745	223.79
773.185	180.79
773.625	173.49
774.065	156.79
774.505	188.69
774.944	238.69
775.384	446.99
775.824	731.49
776.263	691.39
776.703	334.69
777.142	180.99
777.582	146.79
778.021	130.19
778.461	131.69
778.9	131.39
779.34	137.99
779.779	123.89
780.219	110.59
780.658	120.39
781.097	115.49
781.537	118.69
781.976	117.09
782.415	114.99
782.855	111.19
783.294	109.69
783.733	106.09
784.172	113.59
784.611	106.49
785.05	118.79
785.489	118.19
785.928	119.19
786.367	126.29
786.806	122.99
787.245	139.49
787.684	145.79
788.123	153.89
788.562	143.59
789.001	130.29
789.44	125.39
789.879	130.09
790.317	123.49
790.756	126.29
791.195	131.19
791.634	160.69
792.072	218.19
792.511	403.99
792.95	1113.59
793.388	2235.39
793.827	1979.79
794.265	705.59
794.704	299.49
795.142	193.79
795.581	161.89
796.019	151.59
796.458	135.09
796.896	128.59
797.334	137.09
797.773	168.69
798.211	236.79
798.649	490.59
799.087	1106.49
799.526	1711.09
799.964	2150.49
800.402	2096.89
800.84	801.49
801.278	323.69
801.716	193.69
802.154	160.69
802.592	151.99
803.03	144.39
803.468	145.39
803.906	153.99
804.344	160.49
804.782	149.69
805.22	148.69
805.658	135.29
806.096	164.89
806.533	165.59
806.971	189.69
807.409	237.09
807.847	343.19
808.284	752.19
808.722	2039.59
809.16	3496.69
809.597	3424.99
810.035	5822.99
810.472	5984.19
810.91	2212.19
811.347	861.49
811.785	435.69
812.222	278.39
812.66	208.19
813.097	175.29
813.535	151.79
813.972	140.79
814.409	122.99
814.846	116.49
815.284	112.29
815.721	109.59
816.158	102.99
816.595	111.29
817.032	169.19
817.47	188.19
817.907	138.19
818.344	112.99
818.781	106.19
819.218	96.19
819.655	130.99
820.092	202.09
820.529	223.49
820.966	188.69
821.403	139.59
821.839	101.19
822.276	104.99
822.713	132.49
823.15	147.19
823.587	124.79
824.023	163.89
824.46	323.79
824.897	972.39
825.333	1422.39
825.77	621.09
826.206	249.09
826.643	141.09
827.08	102.69
827.516	86.99
827.953	82.99
828.389	82.19
828.825	73.69
829.262	69.49
829.698	70.39
830.135	68.89
830.571	64.19
831.007	64.99
831.443	70.49
831.88	68.69
832.316	63.69
832.752	67.49
833.188	68.69
833.624	68.59
834.06	70.89
834.497	70.49
834.933	76.29
835.369	76.39
835.805	65.99
836.241	79.69
836.677	76.59
837.112	97.99
837.548	111.79
837.984	146.79
838.42	219.59
838.856	556.59
839.292	1643.19
839.727	2420.89
840.163	1140.79
840.599	1017.79
841.034	2169.29
841.47	2191.69
841.906	818.79
842.341	352.69
842.777	208.39
843.212	239.79
843.648	214.39
844.083	119.59
844.519	86.99
844.954	72.59
845.39	63.29
845.825	55.99
846.261	59.29
846.696	59.29
847.131	56.39
847.566	61.89
848.002	55.09
848.437	59.89
848.872	61.29
849.307	66.99
849.742	87.79
850.177	200.79
850.613	602.09
851.048	923.89
851.483	399.49
851.918	163.19
852.353	89.59
852.788	58.69
853.223	55.59
853.657	52.39
854.092	49.69
854.527	38.89
854.962	47.19
855.397	51.49
855.832	53.59
856.266	41.39
856.701	42.59
857.136	40.89
857.57	44.69
858.005	58.39
858.44	60.89
858.874	48.69
859.309	57.69
859.743	40.69
860.178	51.09
860.612	40.09
861.047	62.19
861.481	72.29
861.915	78.59
862.35	57.69
862.784	38.59
863.218	43.79
863.653	33.99
864.087	49.29
864.521	49.59
864.955	76.39
865.39	168.39
865.824	181.89
866.258	125.99
866.692	180.79
867.126	185.59
867.56	116.79
867.994	53.19
868.428	40.29
868.862	53.89
869.296	59.69
869.73	64.39
870.164	56.39
870.598	52.49
871.031	40.49
871.465	35.89
871.899	30.89
872.333	22.59
872.766	31.29
873.2	23.09
873.634	29.79
874.067	16.99
874.501	27.39
874.935	37.29
875.368	29.09
875.802	34.79
876.235	25.49
876.669	24.19
877.102	22.49
877.535	27.89
877.969	22.19
878.402	25.79
878.836	18.89
879.269	23.69
879.702	24.79
880.135	21.99
880.569	28.09
881.002	24.69
881.435	28.89
881.868	17.89
882.301	18.99
882.734	13.59
883.167	16.99
883.601	20.99
884.034	20.29
884.467	21.79
884.899	21.89
885.332	23.19
885.765	15.29
886.198	19.99
886.631	15.59
887.064	22.79
887.497	22.29
887.929	24.89
888.362	18.19
888.795	12.49
889.228	21.79
889.66	22.79
890.093	17.79
890.526	19.59
890.958	13.59
891.391	18.19
891.823	22.29
892.256	10.09
892.688	20.99
893.121	12.79
893.553	18.19
893.985	22.49
894.418	19.99
894.85	17.89
895.282	21.79
895.715	19.59
896.147	17.89
896.579	19.19
897.011	17.19
897.444	24.09
897.876	16.89
898.308	10.29
898.74	15.19
899.172	11.29
899.604	24.19
900.036	22.09
900.468	16.79
900.9	19.59
901.332	18.59
901.764	19.39
902.196	17.49
902.628	19.49
903.06	17.39
903.491	32.09
903.923	29.69
904.355	21.89
904.787	24.59
905.218	22.99
905.65	29.59
906.082	16.59
906.513	18.29
906.945	19.09
907.376	16.19
907.808	22.79
908.239	22.19
908.671	20.19
909.102	17.19
909.534	30.29
909.965	51.79
910.397	91.59
910.828	330.09
911.259	483.59
911.691	227.09
912.122	109.39
912.553	59.69
912.984	34.29
913.415	29.89
913.847	19.19
914.278	10.29
914.709	17.19
915.14	22.59
915.571	19.49
916.002	18.99
916.433	17.79
916.864	18.09
917.295	14.09
917.726	15.19
918.157	18.19
918.587	33.89
919.018	25.29
919.449	25.09
919.88	16.99
920.311	29.19
920.741	49.29
921.172	182.89
921.603	158.89
922.033	71.19
922.464	47.09
922.895	26.39
923.325	20.39
923.756	13.99
924.186	12.89
924.617	21.99
925.047	25.79
925.478	29.29
925.908	31.39
926.338	13.09
926.769	17.29
927.199	17.89
927.629	10.39
928.06	15.39
928.49	19.49
928.92	14.39
929.35	12.89
929.78	10.39
930.21	10.49
930.641	6.29
931.071	9.39
931.501	-0.01
931.931	12.59
932.361	12.49
932.791	5.69
933.221	4.39
933.651	9.99
934.08	13.69
934.51	26.59
934.94	7.29
935.37	10.99
935.8	12.79
936.229	6.79
936.659	16.19
937.089	-0.71
937.519	16.69
937.948	18.59
938.378	13.99
938.807	7.29
939.237	6.29
939.666	12.19
940.096	-6.81
940.525	-0.61
940.955	3.29
941.384	7.19
941.814	-3.71
942.243	6.29
942.672	3.79
943.102	2.99
943.531	3.59
943.96	1.59
944.39	8.89
944.819	-0.61
945.248	4.89
945.677	0.09
946.106	5.59
946.535	11.29
946.964	-0.61
947.393	-0.11
947.822	-0.31
948.251	-1.81
948.68	4.29
949.109	3.89
949.538	-2.61
949.967	0.49
950.396	-1.91
950.825	1.49
951.254	-0.81
951.682	-10.21
952.111	6.69
952.54	6.09
952.969	1.19
953.397	-1.91
953.826	-3.01
954.254	-9.11
954.683	-0.21
955.112	-4.11
955.54	1.79
955.969	-0.91
956.397	-5.71
956.826	-3.61
957.254	7.29
957.682	-0.01
958.111	5.39
958.539	-0.11
958.967	1.69
959.396	-6.71
959.824	1.09
960.252	-0.51
960.68	-3.81
961.109	-2.91
961.537	-4.41
961.965	-1.01
962.393	1.39
962.821	-2.41
963.249	1.99
963.677	4.39
964.105	8.59
964.533	43.79
964.961	42.69
965.389	22.09
965.817	11.09
966.245	5.49
966.672	-1.71
967.1	-6.71
967.528	1.49
967.956	-1.91
968.383	2.49
968.811	-5.91
969.239	-1.21
969.666	-7.31
970.094	1.19
970.522	-1.91
970.949	-4.11
971.377	-5.91
971.804	-2.61
972.232	0.99
972.659	0.19
973.087	-1.81
973.514	-2.91
973.941	-8.51
974.369	6.69
974.796	2.29
975.223	-1.81
975.651	-4.01
976.078	-1.21
976.505	-3.11
976.932	5.39
977.359	14.69
977.786	15.69
978.214	-0.31
978.641	-8.21
979.068	-5.81
979.495	-8.81
979.922	-5.81
980.349	-2.11
980.776	3.69
981.202	-1.01
981.629	3.89
982.056	5.39
982.483	-0.91
982.91	6.89
983.337	-5.71
983.763	1.69
984.19	-4.01
984.617	-5.81
985.043	-7.01
985.47	-0.41
985.897	-2.61
986.323	-6.41
986.75	4.39
987.176	-2.01
987.603	-0.91
988.029	-8.21
988.456	-1.11
988.882	0.79
989.308	-5.81
989.735	-1.81
990.161	5.59
990.587	0.29
991.014	-1.61
991.44	10.69
991.866	-3.71
992.292	-5.41
992.719	-5.51
993.145	5.79
993.571	-3.51
993.997	2.69
994.423	0.49
994.849	-6.01
995.275	0.49
995.701	0.19
996.127	-4.41
996.553	-1.91
996.979	-7.81
997.405	-4.61
997.83	-2.91
998.256	-2.91
998.682	-14.11
999.108	-4.61
999.534	2.09
999.959	0.79
1000.385	-2.01
1000.811	-1.01
1001.236	-9.61
1001.662	-6.91
1002.087	-8.41
1002.513	-7.01
1002.938	2.09
1003.364	-9.01
1003.789	4.59
1004.215	-0.41
1004.64	-2.11
1005.066	3.29
1005.491	-0.11
1005.916	2.69
1006.342	-7.61
1006.767	-4.71
1007.192	1.29
1007.617	-4.81
1008.042	-4.91
1008.468	-4.51
1008.893	-5.61
1009.318	-1.81
1009.743	-2.11
1010.168	3.19
1010.593	5.09
1011.018	-4.81
1011.443	-5.71
1011.868	-1.11
1012.293	-4.11
1012.718	-6.31
1013.143	-0.81
1013.567	4.19
1013.992	-3.71
1014.417	-17.61
1014.842	6.29
1015.267	-4.51
1015.691	-11.91
1016.116	1.29
1016.541	1.09
1016.965	-2.71
1017.39	4.69
1017.814	3.29
1018.239	0.79
1018.663	-9.81
1019.088	-10.81
1019.512	-6.31
1019.937	-4.21
1020.361	-3.01
1020.785	-13.11
1021.21	-6.81
1021.634	-7.21
1022.058	-2.81
1022.483	-3.91
1022.907	-2.51
1023.331	-0.71
1023.755	-4.11
1024.179	-3.31
1024.604	-8.51
1025.028	-8.41
1025.452	-3.41
1025.876	-5.11
1026.3	0.69
1026.724	-7.51
1027.148	-7.41
1027.572	-1.91
1027.996	1.69
1028.42	0.59
1028.843	-2.91
1029.267	-6.11
1029.691	-2.61
1030.115	-8.21
1030.539	-11.81
1030.962	0.39
1031.386	-8.71
1031.81	-3.51
1032.233	-3.01
1032.657	-0.41
1033.08	-4.11
1033.504	-4.51
1033.927	-11.51
1034.351	4.39
1034.774	-7.71
1035.198	0.09
1035.621	-7.91
1036.045	-1.01
1036.468	2.89
1036.891	-11.81
1037.315	-8.41
1037.738	-5.01
1038.161	2.09
1038.584	-10.41
1039.008	-1.71
1039.431	-5.91
1039.854	-0.21
1040.277	-10.41
1040.7	-12.51
1041.123	-1.71
1041.546	-8.81
1041.969	-0.01
1042.392	-7.41
1042.815	-2.61
1043.238	-0.41
1043.661	1.29
1044.084	-4.11
1044.507	1.59
1044.93	-4.11
1045.352	-10.71
1045.775	-6.01
1046.198	0.59
1046.621	2.69
1047.043	-2.81
1047.466	1.79
1047.889	-0.11
1048.311	-7.51
1048.734	0.39
1049.156	-5.01
1049.579	0.49
1050.001	1.69
1050.424	-3.81
1050.846	-7.81
1051.269	-5.91
1051.691	-8.51
1052.113	-7.81
1052.536	-2.51
1052.958	-2.61
1053.38	-5.71
1053.802	-16.11
1054.225	-0.61
1054.647	-10.01
1055.069	0.09
1055.491	0.59
1055.913	-7.61
1056.335	0.69
1056.757	-8.31
1057.179	-4.91
1057.601	-2.41
1058.023	-5.71
1058.445	-5.61
1058.867	-7.41
1059.289	-2.71
1059.711	-8.91
1060.133	-6.41
1060.555	-4.71
1060.976	-3.11
1061.398	-9.81
1061.82	-10.11
1062.241	-7.71
1062.663	-9.51
1063.085	-9.11
1063.506	-1.21
1063.928	-8.11
1064.35	-2.01
1064.771	-15.11
1065.193	-2.51
1065.614	-3.91
1066.035	-3.71
1066.457	0.19
1066.878	-2.11
1067.3	-1.01
1067.721	-6.71
1068.142	-6.91
1068.564	0.49
1068.985	-4.31
1069.406	-1.91
1069.827	-7.51
1070.248	-2.71
1070.67	-6.51
1071.091	-1.71
1071.512	2.19
1071.933	-7.51
1072.354	-2.61
1072.775	-7.91
1073.196	-4.81
1073.617	-4.11
1074.038	-3.91
1074.459	-2.61
1074.88	-6.51
1075.3	5.19
1075.721	-4.21
1076.142	2.39
1076.563	-0.21
1076.983	-9.21
1077.404	-6.91
1077.825	-10.21
1078.246	-7.31
1078.666	-15.01
1079.087	-5.31
1079.507	-3.51
1079.928	4.39
1080.348	-1.41
1080.769	-4.11
1081.189	1.79
1081.61	-1.91
1082.03	-10.31
1082.451	-7.61
1082.871	-8.51
1083.291	-9.71
1083.711	-7.61
1084.132	-6.21
1084.552	-4.71
1084.972	-0.11
1085.392	-12.11
1085.813	-12.31
1086.233	-5.31
1086.653	-11.91
1087.073	-6.01
1087.493	-3.71
1087.913	-10.81
1088.333	-2.21
1088.753	-3.21
1089.173	4.69
1089.593	-5.51
1090.013	2.59
1090.433	0.09
1090.852	-4.21
1091.272	-2.41
1091.692	2.99
1092.112	-2.31
1092.531	-6.01
1092.951	-13.31
1093.371	-11.51
1093.79	1.09
1094.21	-7.81
1094.63	-7.11
1095.049	-6.21
1095.469	-3.31
1095.888	-3.81
1096.308	-2.11
1096.727	-1.81
1097.146	-8.51
1097.566	-5.21
1097.985	-5.11
1098.405	-2.81
1098.824	-5.01
1099.243	-12.31
1099.662	-9.01
1100.082	-0.81
1100.501	-1.51
1100.92	-11.71
1101.339	-2.61
1101.758	-4.21
