Data from 20171114-ORNL-Ar_H_NY_Subt18_08-05-16-312.txt Node
Date: Tue Nov 14 08:05:16 EST 2017
User: Ender
Spectrometer: HR+D1039
Trigger mode: 0
Integration Time (sec): 2.730000E-2
Scans to average: 10
Electric dark correction enabled: true
Nonlinearity correction enabled: false
Boxcar width: 0
XAxis mode: Wavelengths
Number of Pixels in Spectrum: 2048
>>>>>Begin Spectral Data<<<<<
187.836	-4.73
188.309	-4.73
188.782	-4.73
189.255	1.77
189.728	-2.93
190.201	6.87
190.674	4.07
191.147	3.67
191.619	-10.63
192.092	4.27
192.565	3.07
193.038	0.57
193.511	2.07
193.984	1.37
194.456	-2.63
194.929	0.47
195.402	-5.33
195.874	-1.93
196.347	-1.43
196.82	-5.53
197.292	3.67
197.765	1.07
198.237	-5.33
198.71	0.27
199.182	2.27
199.655	2.57
200.127	1.97
200.6	-8.03
201.072	-5.13
201.544	-4.03
202.017	-0.13
202.489	7.87
202.961	-5.63
203.433	-2.93
203.906	-1.23
204.378	-7.33
204.85	-7.73
205.322	-5.73
205.794	0.57
206.266	-2.73
206.739	-3.33
207.211	-0.03
207.683	-8.33
208.155	-8.33
208.627	-3.63
209.099	-3.53
209.57	-5.43
210.042	-0.83
210.514	-6.53
210.986	-0.73
211.458	-2.83
211.93	-4.83
212.402	3.17
212.873	-6.53
213.345	-12.53
213.817	-10.93
214.288	-3.33
214.76	-10.33
215.232	0.67
215.703	-0.13
216.175	3.87
216.646	-2.83
217.118	-4.43
217.589	-1.33
218.061	0.87
218.532	0.27
219.004	1.47
219.475	-5.13
219.946	-1.33
220.418	-2.93
220.889	5.17
221.36	0.67
221.832	-0.83
222.303	-5.53
222.774	2.97
223.245	-5.63
223.717	-7.93
224.188	-7.03
224.659	-8.33
225.13	-0.23
225.601	-3.83
226.072	3.17
226.543	2.37
227.014	-2.33
227.485	-0.03
227.956	-10.23
228.427	-3.23
228.898	-1.83
229.369	1.77
229.839	0.87
230.31	-5.83
230.781	0.67
231.252	-0.43
231.722	-8.03
232.193	-3.33
232.664	2.27
233.135	1.37
233.605	7.97
234.076	-2.63
234.546	1.37
235.017	7.97
235.487	4.07
235.958	2.97
236.428	2.17
236.899	8.17
237.369	4.97
237.84	-1.23
238.31	12.07
238.78	4.67
239.251	2.57
239.721	0.37
240.191	5.97
240.662	-0.43
241.132	0.17
241.602	-1.73
242.072	5.57
242.542	8.47
243.013	1.77
243.483	3.77
243.953	6.97
244.423	-0.13
244.893	0.17
245.363	7.87
245.833	6.17
246.303	5.27
246.773	6.57
247.243	4.67
247.712	6.07
248.182	11.27
248.652	11.57
249.122	0.97
249.592	13.17
250.061	20.37
250.531	41.87
251.001	18.67
251.471	23.77
251.94	20.67
252.41	11.97
252.879	0.17
253.349	18.47
253.818	4.97
254.288	2.97
254.757	5.27
255.227	5.07
255.696	3.27
256.166	3.57
256.635	16.17
257.105	16.47
257.574	10.97
258.043	6.27
258.513	15.77
258.982	21.67
259.451	9.87
259.92	19.47
260.389	17.27
260.859	21.37
261.328	10.07
261.797	18.57
262.266	14.97
262.735	7.97
263.204	8.37
263.673	-1.83
264.142	8.17
264.611	-4.43
265.08	2.57
265.549	5.27
266.018	5.97
266.487	0.27
266.955	-4.43
267.424	1.67
267.893	4.57
268.362	7.87
268.83	8.87
269.299	16.97
269.768	6.87
270.236	12.37
270.705	1.97
271.174	12.67
271.642	11.77
272.111	13.17
272.579	28.57
273.048	22.97
273.516	30.47
273.985	24.87
274.453	31.87
274.922	18.47
275.39	13.97
275.858	2.27
276.327	13.77
276.795	22.27
277.263	14.67
277.731	30.17
278.2	61.47
278.668	61.27
279.136	51.47
279.604	26.47
280.072	16.37
280.54	8.67
281.008	13.37
281.477	12.57
281.945	16.37
282.413	16.57
282.881	16.07
283.348	13.67
283.816	13.57
284.284	17.67
284.752	22.67
285.22	16.27
285.688	16.67
286.156	22.07
286.623	46.37
287.091	50.87
287.559	34.57
288.026	23.27
288.494	22.17
288.962	6.57
289.429	15.97
289.897	17.67
290.364	19.67
290.832	15.47
291.3	19.77
291.767	22.57
292.234	22.67
292.702	17.07
293.169	20.57
293.637	27.37
294.104	19.57
294.571	10.47
295.039	12.97
295.506	20.17
295.973	25.17
296.44	18.57
296.908	23.67
297.375	21.77
297.842	19.97
298.309	27.07
298.776	17.87
299.243	24.17
299.71	16.47
300.177	20.47
300.644	21.47
301.111	24.57
301.578	31.07
302.045	17.37
302.512	27.87
302.979	23.97
303.446	22.57
303.913	22.07
304.379	20.87
304.846	29.17
305.313	22.57
305.78	19.27
306.246	35.07
306.713	25.87
307.18	29.17
307.646	30.87
308.113	31.77
308.579	29.77
309.046	30.87
309.512	33.17
309.979	27.47
310.445	29.77
310.912	34.27
311.378	30.17
311.845	31.47
312.311	34.57
312.777	36.97
313.244	37.87
313.71	33.17
314.176	39.07
314.642	41.07
315.109	38.47
315.575	36.77
316.041	39.77
316.507	34.37
316.973	37.57
317.439	33.97
317.905	39.77
318.371	36.87
318.837	41.07
319.303	36.67
319.769	30.57
320.235	34.17
320.701	39.97
321.167	39.87
321.633	36.87
322.099	38.87
322.564	51.57
323.03	45.97
323.496	45.37
323.962	44.37
324.427	42.67
324.893	41.97
325.359	41.17
325.824	42.27
326.29	42.77
326.755	42.17
327.221	42.87
327.686	37.07
328.152	44.77
328.617	45.87
329.083	50.17
329.548	57.27
330.014	48.77
330.479	42.57
330.944	48.47
331.41	48.17
331.875	42.77
332.34	54.67
332.805	45.97
333.271	57.57
333.736	46.27
334.201	53.97
334.666	52.77
335.131	61.57
335.596	50.17
336.061	53.77
336.526	48.37
336.991	54.27
337.456	62.77
337.921	50.37
338.386	46.17
338.851	45.67
339.316	49.67
339.781	54.37
340.246	57.77
340.711	49.57
341.175	55.37
341.64	44.27
342.105	58.27
342.569	59.77
343.034	62.77
343.499	63.67
343.963	58.07
344.428	62.57
344.893	64.77
345.357	61.37
345.822	63.07
346.286	65.67
346.751	77.27
347.215	66.67
347.679	75.87
348.144	108.17
348.608	84.67
349.073	69.27
349.537	76.97
350.001	83.17
350.465	94.57
350.93	82.77
351.394	83.47
351.858	69.37
352.322	91.57
352.786	84.47
353.25	100.57
353.715	113.97
354.179	101.57
354.643	122.27
355.107	127.77
355.571	108.57
356.035	113.37
356.498	123.17
356.962	127.47
357.426	133.27
357.89	125.07
358.354	92.77
358.818	87.37
359.281	83.47
359.745	78.87
360.209	81.57
360.673	76.27
361.136	79.67
361.6	88.07
362.064	87.27
362.527	92.27
362.991	92.37
363.454	81.57
363.918	80.47
364.381	79.47
364.845	85.27
365.308	85.37
365.772	87.07
366.235	91.37
366.698	84.27
367.162	88.17
367.625	87.87
368.088	87.07
368.552	87.47
369.015	89.57
369.478	101.07
369.941	102.17
370.404	101.67
370.867	104.67
371.331	111.17
371.794	117.27
372.257	109.87
372.72	120.17
373.183	115.87
373.646	102.27
374.109	100.57
374.572	111.17
375.035	105.67
375.497	108.97
375.96	114.37
376.423	106.37
376.886	117.67
377.349	111.37
377.811	106.87
378.274	106.57
378.737	106.37
379.199	114.67
379.662	112.97
380.125	119.07
380.587	117.47
381.05	120.07
381.512	124.97
381.975	136.77
382.437	129.17
382.9	133.77
383.362	141.07
383.825	139.47
384.287	152.07
384.75	137.67
385.212	136.47
385.674	137.77
386.136	140.07
386.599	123.27
387.061	128.87
387.523	128.17
387.985	142.67
388.447	146.87
388.91	142.97
389.372	164.87
389.834	153.17
390.296	151.47
390.758	149.07
391.22	161.37
391.682	202.47
392.144	290.77
392.606	223.47
393.068	167.97
393.529	166.07
393.991	149.17
394.453	149.37
394.915	152.47
395.377	187.17
395.838	211.47
396.3	156.37
396.762	147.57
397.224	136.87
397.685	132.47
398.147	131.97
398.608	130.07
399.07	130.77
399.531	138.47
399.993	143.17
400.454	153.07
400.916	144.67
401.377	139.07
401.839	155.07
402.3	149.47
402.762	167.37
403.223	177.97
403.684	172.17
404.145	162.47
404.607	160.67
405.068	165.57
405.529	168.87
405.99	191.87
406.451	173.37
406.913	171.67
407.374	167.57
407.835	163.77
408.296	169.57
408.757	169.57
409.218	181.27
409.679	179.17
410.14	173.37
410.601	173.77
411.062	187.37
411.522	191.67
411.983	193.07
412.444	173.87
412.905	182.57
413.366	179.97
413.826	192.47
414.287	224.07
414.748	259.57
415.208	243.77
415.669	215.27
416.13	209.27
416.59	198.37
417.051	207.07
417.511	211.57
417.972	241.27
418.432	246.57
418.893	287.77
419.353	249.07
419.814	195.87
420.274	176.27
420.734	181.27
421.195	194.07
421.655	192.67
422.115	189.77
422.576	190.17
423.036	188.87
423.496	204.87
423.956	218.67
424.416	234.37
424.876	266.67
425.336	254.07
425.797	262.77
426.257	254.47
426.717	245.87
427.177	225.97
427.637	223.47
428.097	230.77
428.556	250.47
429.016	269.97
429.476	268.17
429.936	272.47
430.396	273.47
430.856	291.97
431.315	311.77
431.775	348.57
432.235	378.07
432.694	348.17
433.154	358.57
433.614	390.27
434.073	333.57
434.533	288.27
434.993	259.77
435.452	281.97
435.912	291.47
436.371	283.77
436.83	282.57
437.29	268.87
437.749	245.97
438.209	247.67
438.668	277.67
439.127	284.67
439.587	261.97
440.046	249.77
440.505	260.07
440.964	270.97
441.424	325.87
441.883	313.77
442.342	255.97
442.801	222.87
443.26	223.57
443.719	224.87
444.178	225.77
444.637	215.77
445.096	218.17
445.555	228.07
446.014	225.17
446.473	225.67
446.932	237.57
447.391	229.67
447.849	238.07
448.308	220.87
448.767	228.57
449.226	237.27
449.685	237.67
450.143	246.97
450.602	238.37
451.061	234.97
451.519	235.97
451.978	231.97
452.436	229.07
452.895	236.27
453.353	248.87
453.812	235.07
454.27	244.07
454.729	228.97
455.187	236.37
455.646	242.47
456.104	248.87
456.562	260.57
457.021	272.27
457.479	258.87
457.937	264.37
458.395	276.67
458.854	254.27
459.312	262.57
459.77	274.27
460.228	256.77
460.686	237.27
461.144	249.47
461.602	253.77
462.06	238.37
462.518	252.17
462.976	243.77
463.434	254.27
463.892	255.27
464.35	276.17
464.808	290.57
465.266	272.27
465.724	271.47
466.181	269.37
466.639	270.37
467.097	286.17
467.555	304.87
468.012	308.77
468.47	312.97
468.928	331.17
469.385	338.47
469.843	346.17
470.3	347.57
470.758	363.97
471.215	380.97
471.673	400.17
472.13	412.17
472.588	413.97
473.045	374.57
473.503	378.77
473.96	396.07
474.417	403.77
474.875	428.87
475.332	477.37
475.789	458.17
476.246	466.07
476.704	485.67
477.161	509.47
477.618	520.87
478.075	556.87
478.532	629.17
478.989	694.77
479.446	806.27
479.903	782.97
480.36	801.47
480.817	860.97
481.274	972.27
481.731	1065.27
482.188	1154.27
482.645	1303.37
483.102	1405.57
483.558	1538.17
484.015	1592.27
484.472	1562.17
484.929	1514.37
485.385	1472.87
485.842	1429.87
486.299	1361.57
486.755	1309.07
487.212	1098.37
487.668	926.07
488.125	863.57
488.582	781.17
489.038	745.37
489.494	720.47
489.951	693.97
490.407	665.07
490.864	656.27
491.32	646.87
491.776	644.87
492.233	646.17
492.689	608.87
493.145	601.87
493.602	597.77
494.058	621.87
494.514	623.47
494.97	638.27
495.426	651.87
495.882	623.67
496.338	617.67
496.794	633.07
497.251	633.57
497.707	640.57
498.163	648.87
498.618	648.27
499.074	648.97
499.53	677.37
499.986	669.17
500.442	653.47
500.898	637.67
501.354	629.87
501.809	638.67
502.265	643.77
502.721	661.67
503.177	668.37
503.632	662.27
504.088	675.67
504.543	709.17
504.999	705.77
505.455	667.97
505.91	635.77
506.366	633.97
506.821	626.47
507.277	622.57
507.732	637.57
508.187	629.07
508.643	637.17
509.098	634.07
509.553	653.27
510.009	658.87
510.464	682.87
510.919	687.17
511.375	690.67
511.83	698.57
512.285	726.47
512.74	759.47
513.195	791.47
513.65	772.27
514.105	765.17
514.56	770.37
515.015	786.37
515.47	804.87
515.925	786.07
516.38	802.27
516.835	790.87
517.29	780.87
517.745	773.07
518.2	759.57
518.655	752.07
519.109	743.77
519.564	745.27
520.019	733.07
520.474	729.27
520.928	725.47
521.383	723.77
521.838	710.17
522.292	721.57
522.747	715.97
523.201	700.77
523.656	695.77
524.11	693.07
524.565	687.57
525.019	682.27
525.474	690.97
525.928	698.07
526.382	698.97
526.837	687.27
527.291	702.37
527.745	693.87
528.2	692.47
528.654	683.77
529.108	678.17
529.562	694.67
530.016	687.87
530.47	689.57
530.925	689.67
531.379	693.87
531.833	703.87
532.287	699.67
532.741	699.37
533.195	693.77
533.649	711.17
534.103	713.77
534.556	702.67
535.01	719.17
535.464	706.57
535.918	716.17
536.372	713.17
536.826	719.77
537.279	707.27
537.733	714.07
538.187	702.77
538.64	708.37
539.094	725.77
539.548	727.67
540.001	718.77
540.455	714.47
540.908	722.87
541.362	727.87
541.815	745.17
542.269	756.57
542.722	750.47
543.175	770.87
543.629	766.27
544.082	775.87
544.536	783.57
544.989	780.37
545.442	779.47
545.895	781.57
546.349	777.07
546.802	778.57
547.255	781.07
547.708	795.97
548.161	802.87
548.614	816.17
549.067	828.87
549.52	816.07
549.973	804.27
550.426	798.97
550.879	779.77
551.332	791.07
551.785	792.87
552.238	805.17
552.691	816.37
553.144	825.07
553.596	833.57
554.049	859.47
554.502	889.17
554.955	903.77
555.407	893.57
555.86	892.17
556.313	886.87
556.765	890.57
557.218	877.67
557.67	877.37
558.123	873.47
558.576	859.37
559.028	872.17
559.48	869.17
559.933	854.07
560.385	833.87
560.838	788.47
561.29	773.47
561.742	780.47
562.195	757.27
562.647	754.87
563.099	765.67
563.551	749.07
564.004	784.37
564.456	767.17
564.908	751.37
565.36	745.37
565.812	725.17
566.264	725.07
566.716	713.27
567.168	706.97
567.62	708.27
568.072	699.07
568.524	689.37
568.976	680.97
569.428	666.37
569.88	661.97
570.332	667.97
570.784	675.77
571.235	673.67
571.687	688.67
572.139	685.37
572.59	709.87
573.042	700.87
573.494	695.57
573.945	696.77
574.397	679.87
574.849	679.27
575.3	685.27
575.752	677.57
576.203	669.47
576.655	671.17
577.106	656.17
577.557	657.57
578.009	658.87
578.46	657.87
578.912	648.87
579.363	649.67
579.814	654.87
580.265	654.97
580.717	657.87
581.168	661.67
581.619	664.17
582.07	661.27
582.521	655.97
582.972	669.57
583.423	665.57
583.875	672.87
584.326	684.27
584.777	724.87
585.227	802.97
585.678	883.47
586.129	969.77
586.58	1035.17
587.031	1114.27
587.482	1255.57
587.933	1425.37
588.384	1241.47
588.834	935.37
589.285	782.67
589.736	771.77
590.186	762.87
590.637	749.07
591.088	730.77
591.538	731.37
591.989	718.77
592.439	712.57
592.89	709.07
593.34	688.57
593.791	694.37
594.241	684.17
594.692	691.17
595.142	685.17
595.593	679.97
596.043	691.77
596.493	702.07
596.943	706.27
597.394	701.27
597.844	701.37
598.294	701.87
598.744	738.27
599.195	750.97
599.645	792.77
600.095	826.87
600.545	882.07
600.995	931.37
601.445	989.97
601.895	1056.97
602.345	1106.67
602.795	1084.27
603.245	1042.77
603.695	982.37
604.145	932.47
604.594	879.37
605.044	828.97
605.494	772.27
605.944	732.57
606.393	724.27
606.843	706.67
607.293	722.37
607.743	712.37
608.192	718.97
608.642	734.67
609.091	734.17
609.541	748.67
609.99	732.47
610.44	740.47
610.889	710.37
611.339	669.17
611.788	667.77
612.238	669.77
612.687	693.17
613.136	687.97
613.586	715.27
614.035	711.57
614.484	721.87
614.933	726.97
615.383	715.97
615.832	706.07
616.281	693.67
616.73	664.97
617.179	640.07
617.628	622.27
618.077	611.77
618.526	603.07
618.975	585.37
619.424	591.37
619.873	591.97
620.322	601.37
620.771	590.57
621.22	574.77
621.669	568.87
622.118	567.37
622.567	556.77
623.015	550.97
623.464	547.07
623.913	535.17
624.361	537.77
624.81	540.27
625.259	527.77
625.707	531.27
626.156	536.87
626.604	547.57
627.053	543.67
627.501	542.97
627.95	545.07
628.398	558.97
628.847	543.87
629.295	546.57
629.744	556.27
630.192	545.17
630.64	547.47
631.089	542.87
631.537	561.47
631.985	565.87
632.433	571.17
632.881	574.77
633.33	625.37
633.778	608.67
634.226	539.27
634.674	548.07
635.122	545.07
635.57	568.97
636.018	608.17
636.466	557.07
636.914	536.97
637.362	541.67
637.81	549.87
638.258	546.77
638.705	551.57
639.153	577.27
639.601	589.47
640.049	613.77
640.497	647.17
640.944	668.57
641.392	614.37
641.84	587.47
642.287	558.57
642.735	545.27
643.182	542.07
643.63	549.37
644.078	557.07
644.525	563.97
644.973	563.87
645.42	567.67
645.867	585.27
646.315	601.07
646.762	635.47
647.21	656.37
647.657	672.27
648.104	713.97
648.551	734.97
648.999	802.77
649.446	868.77
649.893	953.17
650.34	1082.37
650.787	1305.67
651.234	1615.97
651.682	2105.97
652.129	2887.87
652.576	4137.47
653.023	6103.97
653.47	8408.87
653.917	10565.37
654.363	12284.07
654.81	13713.57
655.257	12998.07
655.704	8491.27
656.151	5030.77
656.598	3259.77
657.044	2305.47
657.491	1775.07
657.938	1422.17
658.385	1187.57
658.831	1028.07
659.278	915.97
659.724	811.57
660.171	750.57
660.618	688.77
661.064	658.97
661.511	628.77
661.957	618.57
662.404	605.77
662.85	619.07
663.296	591.77
663.743	535.37
664.189	513.07
664.635	507.77
665.082	496.87
665.528	493.47
665.974	487.87
666.42	485.87
666.867	477.97
667.313	460.27
667.759	450.67
668.205	451.27
668.651	456.07
669.097	465.17
669.543	461.17
669.989	438.17
670.435	427.47
670.881	423.27
671.327	429.27
671.773	445.07
672.219	448.87
672.665	509.57
673.11	550.57
673.556	592.47
674.002	630.37
674.448	618.07
674.893	519.97
675.339	447.77
675.785	418.37
676.23	395.07
676.676	369.57
677.122	368.47
677.567	352.27
678.013	350.67
678.458	340.67
678.904	338.87
679.349	331.97
679.794	335.27
680.24	334.27
680.685	331.57
681.131	326.27
681.576	326.67
682.021	331.67
682.466	314.87
682.912	324.17
683.357	333.27
683.802	356.47
684.247	382.17
684.692	421.17
685.137	467.67
685.583	497.77
686.028	527.47
686.473	491.47
686.918	420.87
687.363	388.37
687.807	372.37
688.252	345.67
688.697	336.17
689.142	324.67
689.587	309.17
690.032	300.07
690.477	315.27
690.921	331.37
691.366	358.07
691.811	382.27
692.255	404.87
692.7	434.47
693.145	472.17
693.589	635.77
694.034	1042.87
694.478	1415.27
694.923	1626.97
695.367	2136.77
695.812	1120.67
696.256	470.77
696.701	354.57
697.145	319.47
697.59	308.07
698.034	299.87
698.478	299.97
698.922	307.37
699.367	304.67
699.811	311.87
700.255	327.47
700.699	360.17
701.143	394.77
701.588	440.57
702.032	484.17
702.476	479.27
702.92	458.77
703.364	454.37
703.808	585.87
704.252	944.87
704.696	1338.57
705.14	1563.57
705.584	2017.97
706.027	1000.97
706.471	486.67
706.915	365.47
707.359	338.07
707.803	301.87
708.246	293.67
708.69	296.37
709.134	298.87
709.577	288.87
710.021	293.67
710.465	279.47
710.908	277.47
711.352	277.37
711.795	294.37
712.239	329.17
712.682	359.87
713.126	389.47
713.569	436.47
714.012	340.67
714.456	295.77
714.899	280.77
715.342	261.07
715.786	249.37
716.229	241.57
716.672	240.17
717.115	236.07
717.558	238.47
718.002	234.97
718.445	249.57
718.888	265.27
719.331	273.17
719.774	289.37
720.217	290.27
720.66	269.07
721.103	246.67
721.546	238.27
721.989	230.07
722.432	222.37
722.874	229.77
723.317	217.77
723.76	225.07
724.203	243.17
724.645	297.17
725.088	410.27
725.531	529.77
725.974	602.07
726.416	515.17
726.859	287.67
727.301	228.17
727.744	230.57
728.187	217.37
728.629	226.97
729.071	222.37
729.514	239.87
729.956	252.67
730.399	266.37
730.841	268.67
731.283	252.27
731.726	251.37
732.168	241.67
732.61	245.17
733.053	269.67
733.495	290.77
733.937	325.77
734.379	372.47
734.821	396.27
735.263	494.17
735.705	765.37
736.148	1426.57
736.59	2382.77
737.032	2882.37
737.474	2351.97
737.916	753.27
738.357	396.67
738.799	302.77
739.241	277.67
739.683	268.17
740.125	278.47
740.567	281.17
741.008	291.67
741.45	288.97
741.892	287.77
742.334	326.77
742.775	331.07
743.217	311.67
743.658	258.47
744.1	234.57
744.542	244.57
744.983	297.57
745.425	328.07
745.866	327.97
746.307	268.67
746.749	259.97
747.19	303.77
747.632	412.47
748.073	804.67
748.514	1678.77
748.956	2663.07
749.397	3304.57
749.838	2743.97
750.279	2780.17
750.72	1414.87
751.162	510.07
751.603	304.97
752.044	231.87
752.485	197.27
752.926	196.67
753.367	189.17
753.808	178.77
754.249	180.57
754.69	178.07
755.131	167.37
755.572	174.57
756.013	165.27
756.453	176.07
756.894	176.07
757.335	170.87
757.776	176.37
758.216	185.77
758.657	182.37
759.098	187.37
759.538	208.87
759.979	248.47
760.42	345.87
760.86	631.07
761.301	1640.27
761.741	4025.87
762.182	6065.27
762.622	4282.67
763.063	1222.47
763.503	498.57
763.943	316.97
764.384	306.07
764.824	362.47
765.264	408.67
765.705	270.47
766.145	197.57
766.585	172.07
767.025	166.27
767.465	171.37
767.906	221.37
768.346	292.57
768.786	306.97
769.226	236.57
769.666	295.07
770.106	554.37
770.546	1405.97
770.986	2466.67
771.426	2242.97
771.866	736.77
772.306	305.27
772.745	193.37
773.185	169.47
773.625	162.07
774.065	153.67
774.505	177.57
774.944	275.67
775.384	601.57
775.824	1092.77
776.263	1090.97
776.703	459.17
777.142	202.87
777.582	147.67
778.021	124.57
778.461	117.07
778.9	132.07
779.34	116.07
779.779	112.97
780.219	108.37
780.658	103.47
781.097	106.27
781.537	102.27
781.976	106.27
782.415	99.47
782.855	93.27
783.294	98.97
783.733	96.67
784.172	103.87
784.611	98.77
785.05	97.17
785.489	99.97
785.928	110.57
786.367	110.57
786.806	116.07
787.245	125.17
787.684	128.47
788.123	137.27
788.562	125.67
789.001	118.57
789.44	113.47
789.879	118.37
790.317	114.97
790.756	124.47
791.195	113.97
791.634	138.57
792.072	182.87
792.511	334.67
792.95	902.97
793.388	1982.37
793.827	1825.67
794.265	628.17
794.704	257.17
795.142	175.47
795.581	141.17
796.019	133.97
796.458	115.37
796.896	118.67
797.334	117.47
797.773	142.17
798.211	202.37
798.649	396.27
799.087	928.67
799.526	1470.17
799.964	1854.77
800.402	1914.77
800.84	709.37
801.278	276.27
801.716	171.47
802.154	140.57
802.592	138.17
803.03	130.67
803.468	126.07
803.906	134.77
804.344	133.77
804.782	130.77
805.22	125.07
805.658	118.77
806.096	135.37
806.533	148.17
806.971	162.77
807.409	201.37
807.847	283.07
808.284	595.97
808.722	1686.97
809.16	3062.07
809.597	2868.97
810.035	5004.47
810.472	5518.47
810.91	1971.77
811.347	739.47
811.785	377.57
812.222	236.77
812.66	179.67
813.097	153.17
813.535	129.77
813.972	122.57
814.409	109.77
814.846	97.87
815.284	101.87
815.721	95.17
816.158	99.07
816.595	116.17
817.032	166.37
817.47	181.67
817.907	154.97
818.344	133.37
818.781	105.47
819.218	99.97
819.655	113.17
820.092	168.77
820.529	202.37
820.966	163.67
821.403	125.47
821.839	103.57
822.276	97.77
822.713	108.57
823.15	123.77
823.587	111.87
824.023	135.67
824.46	267.57
824.897	814.87
825.333	1281.27
825.77	545.97
826.206	216.57
826.643	127.07
827.08	96.37
827.516	79.57
827.953	73.27
828.389	79.77
828.825	66.07
829.262	62.17
829.698	57.97
830.135	62.97
830.571	58.47
831.007	63.47
831.443	58.87
831.88	51.47
832.316	61.87
832.752	57.57
833.188	61.77
833.624	55.37
834.06	63.27
834.497	63.37
834.933	63.17
835.369	68.47
835.805	61.47
836.241	72.87
836.677	77.57
837.112	79.97
837.548	94.07
837.984	119.67
838.42	177.77
838.856	436.57
839.292	1362.37
839.727	2159.67
840.163	1000.67
840.599	831.37
841.034	1879.17
841.47	2015.27
841.906	719.47
842.341	304.27
842.777	213.87
843.212	283.27
843.648	269.87
844.083	141.97
844.519	91.57
844.954	76.37
845.39	52.97
845.825	49.57
846.261	51.67
846.696	55.67
847.131	50.17
847.566	54.67
848.002	46.07
848.437	47.77
848.872	58.27
849.307	57.37
849.742	76.17
850.177	166.37
850.613	509.47
851.048	821.67
851.483	348.17
851.918	147.67
852.353	82.07
852.788	52.37
853.223	50.57
853.657	51.27
854.092	44.77
854.527	41.17
854.962	37.57
855.397	40.77
855.832	49.77
856.266	39.57
856.701	32.77
857.136	35.97
857.57	33.27
858.005	45.17
858.44	51.27
858.874	37.07
859.309	49.37
859.743	35.77
860.178	42.57
860.612	35.87
861.047	47.57
861.481	56.57
861.915	66.87
862.35	42.37
862.784	30.17
863.218	37.77
863.653	28.77
864.087	41.17
864.521	51.87
864.955	60.17
865.39	141.47
865.824	162.47
866.258	106.17
866.692	155.17
867.126	172.07
867.56	94.47
867.994	55.97
868.428	39.87
868.862	39.77
869.296	52.97
869.73	46.97
870.164	51.87
870.598	45.77
871.031	36.57
871.465	31.57
871.899	28.97
872.333	22.77
872.766	26.07
873.2	21.47
873.634	26.37
874.067	30.47
874.501	24.67
874.935	33.77
875.368	26.87
875.802	25.37
876.235	19.47
876.669	25.07
877.102	24.87
877.535	24.97
877.969	23.47
878.402	24.67
878.836	17.27
879.269	25.87
879.702	18.17
880.135	19.87
880.569	22.47
881.002	30.27
881.435	20.87
881.868	17.67
882.301	24.87
882.734	15.67
883.167	22.07
883.601	22.47
884.034	20.87
884.467	13.37
884.899	23.67
885.332	17.17
885.765	5.07
886.198	15.07
886.631	14.37
887.064	14.87
887.497	18.47
887.929	18.87
888.362	13.57
888.795	12.67
889.228	17.87
889.66	22.87
890.093	16.67
890.526	16.27
890.958	15.97
891.391	20.07
891.823	19.07
892.256	14.37
892.688	11.27
893.121	19.97
893.553	15.67
893.985	21.87
894.418	14.97
894.85	11.07
895.282	17.87
895.715	14.17
896.147	16.07
896.579	18.37
897.011	14.47
897.444	18.57
897.876	19.67
898.308	17.67
898.74	13.77
899.172	12.17
899.604	18.67
900.036	27.47
900.468	13.27
900.9	15.37
901.332	16.77
901.764	12.17
902.196	16.17
902.628	15.17
903.06	15.57
903.491	28.47
903.923	18.97
904.355	13.47
904.787	23.97
905.218	22.67
905.65	18.27
906.082	16.87
906.513	12.87
906.945	14.97
907.376	17.27
907.808	26.17
908.239	21.37
908.671	16.57
909.102	21.07
909.534	28.57
909.965	41.97
910.397	85.67
910.828	279.47
911.259	452.27
911.691	205.07
912.122	94.17
912.553	40.87
912.984	38.07
913.415	22.37
913.847	25.87
914.278	14.57
914.709	11.77
915.14	8.87
915.571	18.07
916.002	15.17
916.433	17.97
916.864	16.67
917.295	13.37
917.726	23.17
918.157	15.27
918.587	25.87
919.018	14.27
919.449	18.17
919.88	19.97
920.311	25.07
920.741	43.07
921.172	154.77
921.603	136.67
922.033	71.27
922.464	43.77
922.895	24.67
923.325	20.77
923.756	13.47
924.186	14.67
924.617	18.97
925.047	40.07
925.478	51.07
925.908	37.97
926.338	24.77
926.769	16.77
927.199	17.47
927.629	4.97
928.06	14.77
928.49	11.87
928.92	12.17
929.35	10.07
929.78	12.37
930.21	7.77
930.641	7.67
931.071	11.47
931.501	8.47
931.931	12.17
932.361	7.17
932.791	4.57
933.221	6.77
933.651	9.17
934.08	16.17
934.51	29.27
934.94	12.37
935.37	9.17
935.8	13.07
936.229	2.37
936.659	6.97
937.089	-2.63
937.519	14.97
937.948	28.17
938.378	14.17
938.807	4.87
939.237	7.37
939.666	6.57
940.096	-8.03
940.525	-6.83
940.955	2.47
941.384	3.77
941.814	-3.33
942.243	-2.93
942.672	2.37
943.102	-5.23
943.531	-2.23
943.96	-3.53
944.39	1.07
944.819	4.87
945.248	2.97
945.677	2.97
946.106	2.67
946.535	7.77
946.964	2.67
947.393	8.97
947.822	2.87
948.251	0.67
948.68	6.07
949.109	3.17
949.538	6.67
949.967	-3.43
950.396	3.57
950.825	-3.33
951.254	2.97
951.682	-7.23
952.111	8.97
952.54	10.97
952.969	-3.73
953.397	-2.93
953.826	3.67
954.254	-5.43
954.683	2.17
955.112	-13.03
955.54	3.97
955.969	0.67
956.397	-5.53
956.826	-4.93
957.254	4.27
957.682	5.37
958.111	4.07
958.539	1.37
958.967	3.37
959.396	-0.83
959.824	2.47
960.252	1.77
960.68	-6.93
961.109	-1.43
961.537	-0.53
961.965	-0.53
962.393	-0.83
962.821	-2.63
963.249	-1.53
963.677	6.87
964.105	4.17
964.533	40.27
964.961	37.77
965.389	17.87
965.817	5.47
966.245	-0.83
966.672	-0.73
967.1	-4.43
967.528	0.27
967.956	1.77
968.383	-0.03
968.811	-2.03
969.239	3.37
969.666	-6.93
970.094	-3.93
970.522	2.07
970.949	-3.33
971.377	0.07
971.804	-6.83
972.232	4.47
972.659	3.47
973.087	-0.53
973.514	-0.63
973.941	-7.43
974.369	5.27
974.796	3.47
975.223	-0.03
975.651	-6.33
976.078	2.77
976.505	2.97
976.932	3.37
977.359	16.97
977.786	18.67
978.214	4.37
978.641	-2.53
979.068	-8.03
979.495	-8.33
979.922	1.27
980.349	-2.03
980.776	3.97
981.202	1.27
981.629	6.77
982.056	1.47
982.483	-3.33
982.91	10.47
983.337	-6.93
983.763	1.37
984.19	-2.73
984.617	0.47
985.043	-4.93
985.47	-1.73
985.897	-6.13
986.323	-1.53
986.75	6.17
987.176	-0.63
987.603	1.57
988.029	-0.13
988.456	-3.03
988.882	3.27
989.308	-5.73
989.735	-4.43
990.161	1.97
990.587	-4.33
991.014	-4.73
991.44	-0.73
991.866	-5.33
992.292	-3.13
992.719	-0.73
993.145	7.37
993.571	-9.23
993.997	2.57
994.423	2.27
994.849	-5.43
995.275	-0.33
995.701	-0.93
996.127	-2.83
996.553	2.77
996.979	-3.13
997.405	-1.73
997.83	-6.13
998.256	-2.43
998.682	-5.73
999.108	-7.73
999.534	2.17
999.959	2.47
1000.385	-1.73
1000.811	-0.33
1001.236	-6.73
1001.662	-7.43
1002.087	-7.93
1002.513	-2.03
1002.938	-3.13
1003.364	-2.93
1003.789	1.07
1004.215	3.87
1004.64	2.37
1005.066	-5.93
1005.491	2.27
1005.916	-1.03
1006.342	1.87
1006.767	-4.33
1007.192	7.37
1007.617	-2.33
1008.042	-1.53
1008.468	-10.33
1008.893	0.37
1009.318	-3.03
1009.743	-2.33
1010.168	2.17
1010.593	-1.13
1011.018	-5.43
1011.443	-5.33
1011.868	5.87
1012.293	-0.53
1012.718	-3.93
1013.143	5.37
1013.567	3.97
1013.992	1.07
1014.417	-12.43
1014.842	4.17
1015.267	-2.73
1015.691	-5.13
1016.116	3.97
1016.541	-0.53
1016.965	-1.03
1017.39	3.87
1017.814	2.27
1018.239	0.77
1018.663	-4.13
1019.088	-6.03
1019.512	-5.23
1019.937	-0.03
1020.361	-3.93
1020.785	-7.13
1021.21	-1.43
1021.634	-4.23
1022.058	-1.13
1022.483	0.07
1022.907	-4.23
1023.331	-1.33
1023.755	-2.53
1024.179	2.47
1024.604	-5.03
1025.028	-3.83
1025.452	-3.63
1025.876	-4.13
1026.3	2.37
1026.724	-9.53
1027.148	-2.03
1027.572	-8.93
1027.996	-1.53
1028.42	-6.13
1028.843	-7.23
1029.267	1.27
1029.691	-0.43
1030.115	-4.63
1030.539	-6.83
1030.962	-5.73
1031.386	-7.23
1031.81	-0.63
1032.233	4.17
1032.657	0.37
1033.08	-3.23
1033.504	-4.93
1033.927	-1.33
1034.351	2.07
1034.774	-0.13
1035.198	-4.73
1035.621	-5.63
1036.045	-6.03
1036.468	-1.13
1036.891	-2.03
1037.315	-4.93
1037.738	-8.03
1038.161	1.17
1038.584	-3.43
1039.008	-2.53
1039.431	-3.43
1039.854	-3.33
1040.277	-7.63
1040.7	-5.83
1041.123	3.37
1041.546	-7.33
1041.969	-5.03
1042.392	-6.33
1042.815	-1.83
1043.238	-1.63
1043.661	2.07
1044.084	-9.03
1044.507	-1.83
1044.93	-4.63
1045.352	-4.03
1045.775	0.67
1046.198	-4.93
1046.621	0.27
1047.043	-1.83
1047.466	8.07
1047.889	-0.53
1048.311	-7.43
1048.734	-1.53
1049.156	3.17
1049.579	-1.93
1050.001	-3.73
1050.424	3.07
1050.846	-8.03
1051.269	-5.63
1051.691	-4.43
1052.113	1.57
1052.536	5.37
1052.958	-7.83
1053.38	-1.23
1053.802	-7.23
1054.225	2.17
1054.647	-6.13
1055.069	-3.23
1055.491	3.37
1055.913	-12.83
1056.335	1.27
1056.757	-2.63
1057.179	-3.33
1057.601	-1.53
1058.023	-3.83
1058.445	-9.33
1058.867	-1.33
1059.289	-5.73
1059.711	-1.93
1060.133	0.27
1060.555	-1.03
1060.976	-9.03
1061.398	-6.43
1061.82	-4.03
1062.241	-4.13
1062.663	-2.83
1063.085	-4.73
1063.506	0.07
1063.928	2.07
1064.35	-4.63
1064.771	-7.23
1065.193	3.57
1065.614	-7.43
1066.035	0.37
1066.457	-2.43
1066.878	-6.43
1067.3	-1.73
1067.721	2.17
1068.142	-1.53
1068.564	-4.43
1068.985	-1.73
1069.406	-0.23
1069.827	-4.13
1070.248	1.17
1070.67	-3.43
1071.091	-3.43
1071.512	-1.83
1071.933	-2.93
1072.354	-6.73
1072.775	-4.53
1073.196	-10.33
1073.617	-4.63
1074.038	-5.13
1074.459	-3.53
1074.88	-5.43
1075.3	4.17
1075.721	-9.63
1076.142	3.27
1076.563	-1.43
1076.983	-6.53
1077.404	-2.83
1077.825	-7.63
1078.246	1.67
1078.666	-9.83
1079.087	-6.13
1079.507	-0.63
1079.928	0.17
1080.348	2.57
1080.769	-1.43
1081.189	0.87
1081.61	-1.33
1082.03	-4.43
1082.451	-1.73
1082.871	-2.23
1083.291	-9.03
1083.711	-2.33
1084.132	-2.33
1084.552	-1.53
1084.972	3.27
1085.392	-7.33
1085.813	-9.53
1086.233	-7.93
1086.653	-5.73
1087.073	-0.13
1087.493	-4.93
1087.913	-3.43
1088.333	-2.93
1088.753	-4.03
1089.173	1.17
1089.593	-1.33
1090.013	4.07
1090.433	-1.43
1090.852	-1.63
1091.272	1.57
1091.692	-1.13
1092.112	1.37
1092.531	-5.13
1092.951	-18.43
1093.371	-1.43
1093.79	0.97
1094.21	-9.33
1094.63	-7.43
1095.049	-6.63
1095.469	-3.43
1095.888	1.97
1096.308	1.37
1096.727	7.67
1097.146	-7.43
1097.566	2.67
1097.985	-3.73
1098.405	-1.43
1098.824	-7.23
1099.243	-3.23
1099.662	-6.13
1100.082	-2.73
1100.501	-5.73
1100.92	-10.53
1101.339	0.97
1101.758	-5.53
