Data from 20171114-ORNL-Ar_H_NY_Subt18_08-05-33-782.txt Node
Date: Tue Nov 14 08:05:33 EST 2017
User: Ender
Spectrometer: HR+D1039
Trigger mode: 0
Integration Time (sec): 2.730000E-2
Scans to average: 10
Electric dark correction enabled: true
Nonlinearity correction enabled: false
Boxcar width: 0
XAxis mode: Wavelengths
Number of Pixels in Spectrum: 2048
>>>>>Begin Spectral Data<<<<<
187.836	-0.39
188.309	-0.39
188.782	-0.39
189.255	0.61
189.728	-4.39
190.201	5.91
190.674	2.51
191.147	-0.49
191.619	-10.19
192.092	4.41
192.565	6.81
193.038	1.61
193.511	1.21
193.984	-1.79
194.456	-3.19
194.929	-2.99
195.402	1.81
195.874	-1.49
196.347	-2.09
196.82	-10.59
197.292	9.71
197.765	0.51
198.237	-10.29
198.71	2.41
199.182	-1.29
199.655	0.11
200.127	3.01
200.6	-1.09
201.072	-0.89
201.544	-4.89
202.017	-1.89
202.489	-1.19
202.961	-3.69
203.433	-0.79
203.906	-7.79
204.378	-2.69
204.85	-1.99
205.322	-8.39
205.794	-2.29
206.266	-0.79
206.739	-4.99
207.211	3.61
207.683	-8.29
208.155	-9.59
208.627	-2.99
209.099	-2.59
209.57	-10.39
210.042	-2.79
210.514	-4.19
210.986	-4.99
211.458	-7.29
211.93	-5.49
212.402	2.81
212.873	-11.89
213.345	-9.89
213.817	-12.99
214.288	-0.79
214.76	-3.99
215.232	1.81
215.703	-2.79
216.175	-5.69
216.646	-9.19
217.118	-10.19
217.589	-3.79
218.061	0.21
218.532	-6.69
219.004	-5.79
219.475	-1.49
219.946	-2.59
220.418	-3.29
220.889	3.81
221.36	4.61
221.832	-4.09
222.303	-5.09
222.774	-4.59
223.245	-8.29
223.717	-4.89
224.188	-6.59
224.659	-12.59
225.13	-6.59
225.601	2.91
226.072	3.51
226.543	-6.49
227.014	-0.69
227.485	0.01
227.956	-2.19
228.427	-5.59
228.898	2.31
229.369	3.31
229.839	-3.59
230.31	-4.99
230.781	3.71
231.252	-3.59
231.722	0.91
232.193	0.41
232.664	1.41
233.135	0.11
233.605	-1.09
234.076	-2.79
234.546	2.51
235.017	6.41
235.487	-3.39
235.958	-5.59
236.428	-2.89
236.899	6.61
237.369	4.61
237.84	-0.79
238.31	4.31
238.78	-4.49
239.251	-0.49
239.721	3.61
240.191	0.61
240.662	-0.69
241.132	-1.59
241.602	-5.69
242.072	-0.09
242.542	5.11
243.013	1.51
243.483	9.11
243.953	7.51
244.423	-3.19
244.893	-5.19
245.363	4.91
245.833	0.91
246.303	-4.49
246.773	6.11
247.243	1.21
247.712	-1.19
248.182	13.51
248.652	10.91
249.122	1.61
249.592	13.91
250.061	18.91
250.531	30.81
251.001	18.61
251.471	19.41
251.94	21.61
252.41	6.91
252.879	6.41
253.349	7.11
253.818	10.91
254.288	5.01
254.757	8.31
255.227	-0.29
255.696	4.91
256.166	4.31
256.635	10.11
257.105	12.51
257.574	9.91
258.043	9.31
258.513	15.11
258.982	16.41
259.451	15.11
259.92	15.01
260.389	13.51
260.859	15.71
261.328	11.71
261.797	17.81
262.266	14.51
262.735	12.21
263.204	5.61
263.673	9.01
264.142	12.81
264.611	0.81
265.08	4.41
265.549	-1.99
266.018	12.11
266.487	0.21
266.955	-1.89
267.424	-0.69
267.893	5.41
268.362	-2.89
268.83	8.41
269.299	9.51
269.768	20.11
270.236	5.51
270.705	5.41
271.174	5.11
271.642	8.11
272.111	8.01
272.579	19.81
273.048	24.61
273.516	31.21
273.985	31.01
274.453	28.61
274.922	21.41
275.39	13.51
275.858	5.71
276.327	11.51
276.795	18.21
277.263	7.81
277.731	31.31
278.2	53.21
278.668	70.51
279.136	52.21
279.604	12.41
280.072	15.41
280.54	11.01
281.008	7.31
281.477	15.41
281.945	11.51
282.413	17.41
282.881	19.31
283.348	12.61
283.816	13.01
284.284	15.71
284.752	20.61
285.22	14.71
285.688	16.91
286.156	18.71
286.623	46.01
287.091	51.31
287.559	30.41
288.026	17.81
288.494	21.31
288.962	8.51
289.429	9.61
289.897	18.81
290.364	13.91
290.832	15.61
291.3	13.31
291.767	18.41
292.234	18.21
292.702	16.21
293.169	21.31
293.637	24.01
294.104	18.31
294.571	15.21
295.039	13.31
295.506	16.51
295.973	17.01
296.44	12.71
296.908	20.61
297.375	17.61
297.842	23.91
298.309	21.71
298.776	17.11
299.243	24.51
299.71	13.51
300.177	20.31
300.644	20.21
301.111	24.11
301.578	25.91
302.045	17.01
302.512	24.01
302.979	30.11
303.446	25.01
303.913	20.21
304.379	24.61
304.846	26.91
305.313	20.81
305.78	21.21
306.246	25.41
306.713	20.01
307.18	32.71
307.646	30.81
308.113	30.11
308.579	28.51
309.046	26.01
309.512	29.91
309.979	22.61
310.445	25.31
310.912	31.91
311.378	31.61
311.845	34.61
312.311	30.91
312.777	37.81
313.244	42.91
313.71	39.61
314.176	31.11
314.642	35.31
315.109	32.01
315.575	34.21
316.041	42.41
316.507	25.81
316.973	33.51
317.439	41.01
317.905	34.91
318.371	38.11
318.837	32.71
319.303	35.01
319.769	32.21
320.235	38.81
320.701	34.81
321.167	38.71
321.633	37.91
322.099	35.81
322.564	46.01
323.03	45.71
323.496	44.01
323.962	40.91
324.427	37.81
324.893	43.31
325.359	37.81
325.824	42.51
326.29	38.21
326.755	43.61
327.221	42.21
327.686	44.11
328.152	52.81
328.617	39.21
329.083	48.01
329.548	53.41
330.014	49.51
330.479	42.91
330.944	40.11
331.41	39.31
331.875	47.01
332.34	43.71
332.805	43.61
333.271	52.51
333.736	47.61
334.201	57.91
334.666	48.81
335.131	53.11
335.596	56.11
336.061	53.71
336.526	47.71
336.991	50.71
337.456	52.61
337.921	48.31
338.386	49.31
338.851	43.81
339.316	58.41
339.781	46.61
340.246	50.61
340.711	49.31
341.175	51.41
341.64	40.91
342.105	54.21
342.569	55.41
343.034	53.41
343.499	56.61
343.963	54.01
344.428	65.81
344.893	65.11
345.357	61.61
345.822	60.21
346.286	68.01
346.751	70.51
347.215	73.51
347.679	76.61
348.144	97.01
348.608	88.41
349.073	72.71
349.537	80.11
350.001	80.31
350.465	86.11
350.93	83.41
351.394	86.81
351.858	72.51
352.322	84.91
352.786	85.21
353.25	103.41
353.715	117.01
354.179	97.81
354.643	123.91
355.107	135.91
355.571	105.81
356.035	110.31
356.498	122.51
356.962	129.71
357.426	131.41
357.89	127.01
358.354	92.51
358.818	85.41
359.281	80.41
359.745	84.31
360.209	71.11
360.673	72.01
361.136	79.11
361.6	84.01
362.064	86.11
362.527	78.11
362.991	89.81
363.454	82.81
363.918	77.71
364.381	84.01
364.845	78.31
365.308	86.81
365.772	86.81
366.235	87.61
366.698	82.91
367.162	86.41
367.625	90.01
368.088	89.81
368.552	86.31
369.015	93.01
369.478	97.41
369.941	103.81
370.404	90.61
370.867	105.51
371.331	107.11
371.794	113.21
372.257	110.21
372.72	114.51
373.183	110.41
373.646	96.51
374.109	103.71
374.572	113.51
375.035	112.11
375.497	106.61
375.96	105.21
376.423	101.21
376.886	115.01
377.349	107.61
377.811	102.01
378.274	100.81
378.737	105.51
379.199	111.31
379.662	109.71
380.125	114.41
380.587	114.51
381.05	118.31
381.512	124.31
381.975	135.91
382.437	128.31
382.9	126.01
383.362	130.41
383.825	145.41
384.287	140.31
384.75	140.61
385.212	143.21
385.674	139.31
386.136	137.01
386.599	129.01
387.061	129.51
387.523	125.41
387.985	133.81
388.447	149.11
388.91	144.01
389.372	158.81
389.834	152.11
390.296	140.41
390.758	155.51
391.22	162.41
391.682	205.41
392.144	290.31
392.606	221.71
393.068	168.61
393.529	172.01
393.991	156.91
394.453	149.91
394.915	156.41
395.377	187.81
395.838	210.31
396.3	157.11
396.762	141.91
397.224	131.61
397.685	131.01
398.147	128.81
398.608	129.61
399.07	127.91
399.531	133.71
399.993	144.11
400.454	158.11
400.916	147.91
401.377	145.91
401.839	154.01
402.3	145.71
402.762	167.11
403.223	179.11
403.684	173.61
404.145	160.41
404.607	160.51
405.068	156.81
405.529	170.41
405.99	190.91
406.451	175.21
406.913	170.21
407.374	165.81
407.835	162.61
408.296	165.61
408.757	177.91
409.218	180.81
409.679	176.21
410.14	181.31
410.601	178.01
411.062	179.81
411.522	191.81
411.983	186.71
412.444	174.91
412.905	180.71
413.366	182.01
413.826	194.61
414.287	225.31
414.748	260.91
415.208	246.71
415.669	205.81
416.13	211.31
416.59	198.91
417.051	209.01
417.511	211.31
417.972	242.01
418.432	242.11
418.893	281.81
419.353	244.01
419.814	195.31
420.274	182.81
420.734	181.81
421.195	197.61
421.655	195.61
422.115	188.81
422.576	191.71
423.036	197.21
423.496	204.81
423.956	213.51
424.416	230.11
424.876	262.71
425.336	257.91
425.797	264.91
426.257	258.31
426.717	235.41
427.177	226.11
427.637	217.41
428.097	230.31
428.556	240.61
429.016	267.11
429.476	265.11
429.936	274.91
430.396	280.71
430.856	292.71
431.315	323.21
431.775	346.91
432.235	380.41
432.694	342.11
433.154	362.31
433.614	389.41
434.073	340.11
434.533	291.11
434.993	265.91
435.452	278.41
435.912	291.21
436.371	293.31
436.83	285.21
437.29	269.41
437.749	253.11
438.209	241.51
438.668	266.71
439.127	286.51
439.587	265.41
440.046	258.61
440.505	258.71
440.964	275.21
441.424	319.71
441.883	311.91
442.342	257.71
442.801	224.01
443.26	225.21
443.719	208.81
444.178	218.31
444.637	206.61
445.096	220.21
445.555	221.81
446.014	223.11
446.473	221.91
446.932	228.71
447.391	222.81
447.849	233.71
448.308	219.81
448.767	225.91
449.226	231.01
449.685	241.11
450.143	246.21
450.602	238.41
451.061	221.61
451.519	231.71
451.978	225.41
452.436	237.81
452.895	248.01
453.353	253.71
453.812	242.61
454.27	237.21
454.729	236.01
455.187	241.71
455.646	245.21
456.104	249.31
456.562	257.81
457.021	262.31
457.479	259.11
457.937	274.21
458.395	264.01
458.854	246.01
459.312	263.41
459.77	276.51
460.228	249.11
460.686	241.61
461.144	249.31
461.602	239.41
462.06	239.61
462.518	251.01
462.976	254.01
463.434	255.91
463.892	254.11
464.35	271.81
464.808	288.51
465.266	267.61
465.724	266.71
466.181	277.41
466.639	268.01
467.097	281.61
467.555	299.21
468.012	296.81
468.47	305.21
468.928	316.61
469.385	330.61
469.843	340.11
470.3	345.01
470.758	361.11
471.215	381.81
471.673	406.51
472.13	407.81
472.588	420.01
473.045	371.81
473.503	381.21
473.96	392.21
474.417	411.41
474.875	434.71
475.332	481.21
475.789	457.61
476.246	461.51
476.704	486.81
477.161	505.61
477.618	517.81
478.075	562.71
478.532	611.21
478.989	692.91
479.446	796.41
479.903	769.01
480.36	808.21
480.817	867.61
481.274	973.31
481.731	1076.11
482.188	1166.81
482.645	1307.91
483.102	1415.61
483.558	1562.31
484.015	1609.71
484.472	1579.01
484.929	1527.91
485.385	1472.21
485.842	1431.61
486.299	1365.31
486.755	1304.71
487.212	1098.91
487.668	928.91
488.125	843.91
488.582	786.21
489.038	734.21
489.494	716.81
489.951	680.31
490.407	666.71
490.864	651.41
491.32	638.81
491.776	644.51
492.233	647.91
492.689	612.41
493.145	606.71
493.602	600.71
494.058	611.01
494.514	618.61
494.97	643.61
495.426	648.31
495.882	625.11
496.338	615.61
496.794	628.31
497.251	618.11
497.707	633.81
498.163	640.51
498.618	649.21
499.074	653.31
499.53	665.51
499.986	681.91
500.442	662.71
500.898	638.91
501.354	621.01
501.809	634.81
502.265	648.81
502.721	664.91
503.177	670.91
503.632	652.71
504.088	678.51
504.543	704.11
504.999	706.41
505.455	657.11
505.91	634.31
506.366	631.91
506.821	623.61
507.277	616.01
507.732	616.61
508.187	623.21
508.643	624.61
509.098	624.01
509.553	644.21
510.009	660.11
510.464	670.71
510.919	683.31
511.375	697.71
511.83	710.51
512.285	722.41
512.74	760.91
513.195	778.71
513.65	765.41
514.105	764.91
514.56	777.41
515.015	797.31
515.47	801.61
515.925	788.21
516.38	784.91
516.835	790.31
517.29	783.21
517.745	780.91
518.2	766.61
518.655	753.61
519.109	741.91
519.564	738.31
520.019	729.41
520.474	719.91
520.928	724.21
521.383	720.61
521.838	711.41
522.292	710.01
522.747	705.61
523.201	703.21
523.656	693.91
524.11	682.21
524.565	691.51
525.019	686.21
525.474	700.41
525.928	695.51
526.382	699.21
526.837	700.71
527.291	702.61
527.745	699.11
528.2	690.61
528.654	689.61
529.108	688.91
529.562	687.01
530.016	682.01
530.47	689.91
530.925	684.91
531.379	689.51
531.833	706.81
532.287	704.11
532.741	710.81
533.195	700.01
533.649	713.81
534.103	714.51
534.556	705.71
535.01	717.61
535.464	703.41
535.918	718.01
536.372	721.31
536.826	712.71
537.279	699.91
537.733	711.11
538.187	710.71
538.64	712.91
539.094	721.01
539.548	724.81
540.001	725.51
540.455	721.01
540.908	731.81
541.362	736.71
541.815	746.51
542.269	751.71
542.722	743.51
543.175	765.71
543.629	770.11
544.082	784.41
544.536	781.71
544.989	778.61
545.442	777.41
545.895	790.21
546.349	779.81
546.802	784.01
547.255	780.91
547.708	798.51
548.161	808.71
548.614	823.31
549.067	822.31
549.52	824.51
549.973	810.11
550.426	801.01
550.879	789.41
551.332	793.41
551.785	801.51
552.238	804.31
552.691	821.11
553.144	826.21
553.596	845.41
554.049	861.51
554.502	893.61
554.955	912.21
555.407	911.61
555.86	887.41
556.313	886.01
556.765	880.91
557.218	879.51
557.67	872.81
558.123	863.91
558.576	862.61
559.028	877.71
559.48	874.51
559.933	873.41
560.385	833.71
560.838	794.61
561.29	775.61
561.742	782.31
562.195	757.31
562.647	755.01
563.099	765.11
563.551	761.31
564.004	766.71
564.456	772.61
564.908	752.61
565.36	731.11
565.812	719.01
566.264	719.71
566.716	711.01
567.168	705.81
567.62	715.71
568.072	694.71
568.524	685.91
568.976	686.61
569.428	670.91
569.88	673.71
570.332	678.71
570.784	678.81
571.235	675.81
571.687	688.31
572.139	708.31
572.59	699.01
573.042	699.61
573.494	705.71
573.945	691.61
574.397	678.41
574.849	675.71
575.3	685.51
575.752	681.31
576.203	667.01
576.655	681.41
577.106	655.71
577.557	659.61
578.009	660.91
578.46	654.61
578.912	652.41
579.363	656.11
579.814	659.11
580.265	645.51
580.717	659.11
581.168	664.81
581.619	661.71
582.07	674.21
582.521	669.91
582.972	659.21
583.423	674.41
583.875	678.41
584.326	686.71
584.777	731.91
585.227	797.91
585.678	892.11
586.129	965.81
586.58	1045.91
587.031	1125.51
587.482	1278.81
587.933	1451.81
588.384	1263.21
588.834	951.41
589.285	792.41
589.736	766.21
590.186	762.71
590.637	762.21
591.088	731.11
591.538	735.31
591.989	716.11
592.439	712.21
592.89	703.01
593.34	699.51
593.791	702.61
594.241	685.01
594.692	694.31
595.142	686.01
595.593	691.61
596.043	693.21
596.493	696.11
596.943	700.91
597.394	709.71
597.844	695.31
598.294	718.11
598.744	738.11
599.195	753.21
599.645	802.61
600.095	831.11
600.545	905.61
600.995	948.31
601.445	999.61
601.895	1065.11
602.345	1110.91
602.795	1087.71
603.245	1044.41
603.695	982.11
604.145	930.71
604.594	894.71
605.044	838.61
605.494	767.01
605.944	745.51
606.393	735.11
606.843	706.41
607.293	713.01
607.743	726.81
608.192	722.61
608.642	737.01
609.091	744.61
609.541	742.81
609.99	753.81
610.44	755.51
610.889	701.21
611.339	679.61
611.788	670.51
612.238	693.71
612.687	698.81
613.136	698.91
613.586	714.41
614.035	715.51
614.484	739.31
614.933	739.81
615.383	727.21
615.832	722.41
616.281	697.71
616.73	672.21
617.179	636.41
617.628	633.91
618.077	615.91
618.526	610.41
618.975	594.31
619.424	598.21
619.873	603.21
620.322	603.81
620.771	580.91
621.22	597.11
621.669	592.41
622.118	573.91
622.567	559.31
623.015	547.01
623.464	550.11
623.913	535.61
624.361	530.01
624.81	529.11
625.259	534.71
625.707	541.51
626.156	530.61
626.604	554.01
627.053	542.01
627.501	540.81
627.95	551.51
628.398	557.21
628.847	557.61
629.295	556.81
629.744	553.81
630.192	553.11
630.64	548.41
631.089	549.21
631.537	550.11
631.985	561.91
632.433	581.21
632.881	589.51
633.33	625.51
633.778	601.11
634.226	548.11
634.674	554.01
635.122	558.81
635.57	586.61
636.018	607.11
636.466	552.51
636.914	539.01
637.362	551.41
637.81	545.91
638.258	561.31
638.705	558.11
639.153	582.11
639.601	583.31
640.049	617.11
640.497	644.91
640.944	669.61
641.392	619.01
641.84	588.01
642.287	566.41
642.735	555.61
643.182	551.81
643.63	556.51
644.078	554.61
644.525	564.21
644.973	578.41
645.42	586.31
645.867	595.71
646.315	614.01
646.762	637.21
647.21	669.31
647.657	688.31
648.104	722.01
648.551	739.71
648.999	800.11
649.446	883.51
649.893	970.11
650.34	1102.61
650.787	1335.41
651.234	1671.51
651.682	2162.31
652.129	2949.11
652.576	4225.81
653.023	6270.81
653.47	8637.51
653.917	10812.91
654.363	12581.71
654.81	14003.21
655.257	13254.11
655.704	8708.81
656.151	5138.41
656.598	3317.41
657.044	2357.81
657.491	1802.11
657.938	1449.91
658.385	1202.51
658.831	1044.01
659.278	931.71
659.724	813.91
660.171	760.31
660.618	703.81
661.064	664.61
661.511	644.71
661.957	636.01
662.404	620.31
662.85	625.41
663.296	605.41
663.743	539.41
664.189	512.01
664.635	511.01
665.082	500.01
665.528	499.01
665.974	493.51
666.42	483.31
666.867	491.81
667.313	472.31
667.759	467.41
668.205	464.31
668.651	460.21
669.097	462.11
669.543	478.51
669.989	457.61
670.435	436.81
670.881	424.51
671.327	431.01
671.773	453.21
672.219	471.81
672.665	514.51
673.11	547.11
673.556	598.71
674.002	638.51
674.448	626.41
674.893	525.01
675.339	453.11
675.785	418.21
676.23	404.91
676.676	375.01
677.122	369.11
677.567	361.51
678.013	352.91
678.458	343.41
678.904	339.01
679.349	335.41
679.794	333.21
680.24	343.51
680.685	332.21
681.131	320.21
681.576	331.01
682.021	337.61
682.466	322.21
682.912	335.31
683.357	331.91
683.802	361.71
684.247	394.01
684.692	437.81
685.137	470.91
685.583	502.11
686.028	540.01
686.473	496.81
686.918	425.11
687.363	392.61
687.807	381.61
688.252	355.31
688.697	342.91
689.142	314.31
689.587	320.11
690.032	304.41
690.477	321.71
690.921	335.51
691.366	360.81
691.811	384.51
692.255	415.11
692.7	432.21
693.145	469.01
693.589	651.21
694.034	1051.01
694.478	1442.11
694.923	1656.11
695.367	2164.31
695.812	1136.31
696.256	471.01
696.701	352.81
697.145	326.31
697.59	306.41
698.034	314.31
698.478	306.91
698.922	310.01
699.367	312.01
699.811	319.11
700.255	336.61
700.699	361.81
701.143	403.51
701.588	453.31
702.032	479.51
702.476	488.41
702.92	465.71
703.364	467.91
703.808	591.41
704.252	966.61
704.696	1369.61
705.14	1595.71
705.584	2053.71
706.027	1012.01
706.471	488.11
706.915	375.81
707.359	328.41
707.803	307.01
708.246	296.01
708.69	294.61
709.134	294.31
709.577	297.41
710.021	303.21
710.465	293.21
710.908	280.11
711.352	285.21
711.795	300.11
712.239	333.51
712.682	360.71
713.126	392.81
713.569	442.11
714.012	349.51
714.456	312.71
714.899	284.81
715.342	257.41
715.786	242.81
716.229	246.11
716.672	242.71
717.115	234.81
717.558	232.11
718.002	237.71
718.445	243.31
718.888	257.51
719.331	270.21
719.774	291.01
720.217	288.71
720.66	270.51
721.103	248.91
721.546	240.41
721.989	234.61
722.432	216.31
722.874	225.41
723.317	212.41
723.76	216.81
724.203	239.41
724.645	299.71
725.088	417.41
725.531	548.91
725.974	608.51
726.416	510.61
726.859	285.41
727.301	231.01
727.744	224.11
728.187	219.81
728.629	226.91
729.071	229.51
729.514	247.41
729.956	251.91
730.399	266.31
730.841	269.91
731.283	250.31
731.726	245.61
732.168	244.91
732.61	251.71
733.053	271.81
733.495	293.41
733.937	332.21
734.379	379.31
734.821	401.81
735.263	505.71
735.705	770.31
736.148	1467.01
736.59	2415.71
737.032	2903.51
737.474	2365.21
737.916	762.91
738.357	401.71
738.799	311.21
739.241	282.01
739.683	262.51
740.125	271.41
740.567	288.01
741.008	295.91
741.45	299.41
741.892	291.01
742.334	321.81
742.775	339.01
743.217	323.01
743.658	253.81
744.1	236.81
744.542	239.91
744.983	288.21
745.425	324.51
745.866	335.51
746.307	263.91
746.749	266.21
747.19	301.31
747.632	422.51
748.073	805.01
748.514	1719.91
748.956	2676.11
749.397	3347.61
749.838	2785.81
750.279	2831.21
750.72	1427.61
751.162	509.21
751.603	296.81
752.044	243.51
752.485	206.21
752.926	193.41
753.367	186.91
753.808	180.21
754.249	183.81
754.69	181.01
755.131	172.91
755.572	172.81
756.013	170.21
756.453	180.31
756.894	176.01
757.335	177.71
757.776	182.91
758.216	178.51
758.657	179.51
759.098	184.21
759.538	207.91
759.979	246.41
760.42	345.61
760.86	647.41
761.301	1666.31
761.741	4104.61
762.182	6125.81
762.622	4324.01
763.063	1242.61
763.503	501.11
763.943	325.51
764.384	318.51
764.824	374.21
765.264	408.91
765.705	284.51
766.145	195.91
766.585	177.51
767.025	165.21
767.465	174.21
767.906	224.21
768.346	292.91
768.786	319.21
769.226	239.41
769.666	296.21
770.106	558.31
770.546	1429.41
770.986	2492.31
771.426	2269.41
771.866	745.91
772.306	307.81
772.745	198.31
773.185	166.61
773.625	159.81
774.065	165.91
774.505	172.51
774.944	286.71
775.384	621.51
775.824	1149.91
776.263	1126.21
776.703	481.91
777.142	212.01
777.582	146.41
778.021	127.11
778.461	127.01
778.9	132.51
779.34	125.71
779.779	110.31
780.219	105.51
780.658	98.91
781.097	103.61
781.537	109.11
781.976	99.11
782.415	100.51
782.855	106.31
783.294	100.91
783.733	98.91
784.172	100.01
784.611	96.51
785.05	100.01
785.489	99.61
785.928	111.71
786.367	105.91
786.806	107.81
787.245	118.11
787.684	124.11
788.123	136.41
788.562	123.81
789.001	118.41
789.44	117.81
789.879	110.81
790.317	111.51
790.756	118.51
791.195	118.61
791.634	131.01
792.072	187.01
792.511	335.61
792.95	921.91
793.388	2024.91
793.827	1868.81
794.265	644.81
794.704	263.91
795.142	176.31
795.581	146.81
796.019	128.21
796.458	121.91
796.896	109.21
797.334	116.81
797.773	145.61
798.211	207.81
798.649	394.31
799.087	946.51
799.526	1483.91
799.964	1872.51
800.402	1915.11
800.84	710.81
801.278	278.01
801.716	177.21
802.154	145.71
802.592	142.11
803.03	130.61
803.468	122.71
803.906	131.21
804.344	141.21
804.782	136.51
805.22	128.71
805.658	123.61
806.096	141.11
806.533	155.11
806.971	157.21
807.409	198.71
807.847	288.71
808.284	606.21
808.722	1717.31
809.16	3106.11
809.597	2892.01
810.035	5061.91
810.472	5540.81
810.91	1986.61
811.347	748.71
811.785	377.51
812.222	244.81
812.66	194.11
813.097	156.51
813.535	128.91
813.972	121.71
814.409	114.91
814.846	104.91
815.284	97.21
815.721	94.21
816.158	98.01
816.595	114.21
817.032	170.31
817.47	191.11
817.907	161.91
818.344	138.41
818.781	113.91
819.218	94.51
819.655	116.81
820.092	182.11
820.529	208.11
820.966	171.11
821.403	131.41
821.839	99.41
822.276	100.91
822.713	117.51
823.15	131.61
823.587	112.81
824.023	131.91
824.46	273.51
824.897	834.11
825.333	1291.81
825.77	548.01
826.206	215.41
826.643	134.11
827.08	91.91
827.516	77.01
827.953	73.01
828.389	70.91
828.825	64.81
829.262	67.61
829.698	54.51
830.135	57.41
830.571	59.01
831.007	55.91
831.443	60.01
831.88	60.61
832.316	59.51
832.752	60.01
833.188	64.21
833.624	60.51
834.06	67.91
834.497	65.11
834.933	62.71
835.369	73.41
835.805	60.31
836.241	73.11
836.677	78.11
837.112	87.41
837.548	94.41
837.984	116.21
838.42	174.21
838.856	449.01
839.292	1393.41
839.727	2186.01
840.163	1018.81
840.599	860.11
841.034	1883.71
841.47	2035.91
841.906	731.51
842.341	313.91
842.777	213.81
843.212	295.91
843.648	294.71
844.083	151.81
844.519	94.21
844.954	62.51
845.39	48.21
845.825	47.81
846.261	48.81
846.696	52.01
847.131	53.41
847.566	52.81
848.002	52.31
848.437	51.81
848.872	56.41
849.307	53.51
849.742	76.81
850.177	162.71
850.613	512.51
851.048	834.51
851.483	355.71
851.918	140.31
852.353	78.31
852.788	54.21
853.223	51.51
853.657	50.31
854.092	48.81
854.527	39.81
854.962	38.01
855.397	38.81
855.832	48.41
856.266	39.11
856.701	37.71
857.136	33.51
857.57	36.01
858.005	50.41
858.44	59.31
858.874	39.31
859.309	46.91
859.743	37.31
860.178	44.91
860.612	40.81
861.047	47.51
861.481	63.81
861.915	68.71
862.35	43.81
862.784	27.71
863.218	38.61
863.653	31.91
864.087	43.61
864.521	49.31
864.955	63.41
865.39	148.41
865.824	164.41
866.258	107.81
866.692	153.21
867.126	170.01
867.56	103.21
867.994	47.91
868.428	33.31
868.862	43.81
869.296	52.91
869.73	53.31
870.164	49.71
870.598	46.71
871.031	33.51
871.465	34.51
871.899	34.71
872.333	22.61
872.766	19.11
873.2	25.41
873.634	27.61
874.067	24.01
874.501	22.31
874.935	31.31
875.368	32.81
875.802	25.71
876.235	23.11
876.669	27.21
877.102	20.71
877.535	22.31
877.969	18.41
878.402	25.11
878.836	18.91
879.269	17.21
879.702	21.31
880.135	20.51
880.569	19.31
881.002	24.61
881.435	24.11
881.868	16.21
882.301	20.91
882.734	22.21
883.167	25.71
883.601	15.91
884.034	16.71
884.467	14.81
884.899	21.81
885.332	13.21
885.765	10.01
886.198	8.31
886.631	20.21
887.064	16.81
887.497	18.21
887.929	22.01
888.362	11.51
888.795	13.11
889.228	18.91
889.66	16.61
890.093	19.21
890.526	25.11
890.958	18.41
891.391	17.71
891.823	24.01
892.256	10.91
892.688	15.91
893.121	15.61
893.553	14.81
893.985	22.51
894.418	12.91
894.85	8.91
895.282	20.21
895.715	16.51
896.147	14.41
896.579	18.11
897.011	17.61
897.444	17.81
897.876	13.71
898.308	16.31
898.74	18.21
899.172	9.91
899.604	26.41
900.036	20.71
900.468	9.61
900.9	17.31
901.332	19.11
901.764	14.61
902.196	18.11
902.628	16.61
903.06	17.91
903.491	27.01
903.923	19.11
904.355	18.91
904.787	25.41
905.218	19.51
905.65	20.91
906.082	4.91
906.513	5.11
906.945	13.01
907.376	13.81
907.808	15.61
908.239	20.01
908.671	22.21
909.102	19.71
909.534	21.41
909.965	43.71
910.397	83.91
910.828	289.11
911.259	458.51
911.691	208.01
912.122	98.31
912.553	46.91
912.984	32.71
913.415	17.41
913.847	26.01
914.278	14.41
914.709	10.51
915.14	22.51
915.571	13.51
916.002	15.91
916.433	13.91
916.864	17.81
917.295	13.11
917.726	24.01
918.157	10.61
918.587	27.51
919.018	24.11
919.449	22.71
919.88	22.11
920.311	32.51
920.741	45.21
921.172	157.81
921.603	136.61
922.033	72.71
922.464	45.51
922.895	23.71
923.325	16.61
923.756	17.21
924.186	18.01
924.617	28.21
925.047	40.61
925.478	52.01
925.908	39.91
926.338	25.31
926.769	17.21
927.199	19.91
927.629	12.81
928.06	14.51
928.49	13.21
928.92	8.61
929.35	8.51
929.78	12.91
930.21	0.01
930.641	13.81
931.071	9.11
931.501	3.21
931.931	7.91
932.361	9.41
932.791	3.41
933.221	3.31
933.651	4.11
934.08	11.41
934.51	24.71
934.94	9.41
935.37	7.61
935.8	7.31
936.229	5.51
936.659	6.31
937.089	2.41
937.519	13.11
937.948	24.51
938.378	13.41
938.807	10.31
939.237	4.41
939.666	9.71
940.096	-6.29
940.525	-3.49
940.955	-2.49
941.384	-2.19
941.814	-5.29
942.243	-7.99
942.672	8.11
943.102	1.51
943.531	0.91
943.96	1.11
944.39	-0.29
944.819	3.31
945.248	1.51
945.677	11.31
946.106	4.81
946.535	3.61
946.964	2.11
947.393	8.31
947.822	1.01
948.251	-2.59
948.68	3.51
949.109	7.51
949.538	7.51
949.967	0.91
950.396	4.61
950.825	-1.79
951.254	-5.29
951.682	-4.69
952.111	5.71
952.54	9.31
952.969	-4.19
953.397	-3.89
953.826	2.71
954.254	-4.79
954.683	-1.69
955.112	-6.39
955.54	1.41
955.969	-0.29
956.397	2.41
956.826	-4.99
957.254	6.61
957.682	-1.29
958.111	5.51
958.539	3.41
958.967	4.21
959.396	0.21
959.824	0.51
960.252	1.51
960.68	0.01
961.109	-7.39
961.537	-6.09
961.965	-1.49
962.393	0.11
962.821	-4.29
963.249	-0.29
963.677	3.21
964.105	3.41
964.533	44.91
964.961	42.41
965.389	18.11
965.817	7.81
966.245	8.81
966.672	3.31
967.1	-8.49
967.528	-2.79
967.956	1.31
968.383	1.71
968.811	-7.69
969.239	-3.09
969.666	-1.79
970.094	2.61
970.522	2.51
970.949	-0.59
971.377	-3.59
971.804	-5.49
972.232	-4.89
972.659	0.21
973.087	-8.69
973.514	-4.19
973.941	-6.99
974.369	1.91
974.796	1.41
975.223	-4.49
975.651	-4.19
976.078	0.61
976.505	-3.29
976.932	3.91
977.359	9.21
977.786	16.11
978.214	3.81
978.641	1.91
979.068	-2.39
979.495	-2.99
979.922	1.21
980.349	-6.69
980.776	-1.29
981.202	0.61
981.629	-0.79
982.056	-2.49
982.483	-0.79
982.91	-1.59
983.337	-8.39
983.763	-0.39
984.19	-3.99
984.617	-3.99
985.043	-8.49
985.47	1.91
985.897	-0.99
986.323	-6.09
986.75	4.71
987.176	0.61
987.603	0.71
988.029	-4.99
988.456	-3.39
988.882	2.91
989.308	-4.99
989.735	-8.49
990.161	-2.99
990.587	-8.89
991.014	0.81
991.44	8.11
991.866	1.31
992.292	-2.59
992.719	-0.49
993.145	3.41
993.571	-5.09
993.997	-4.29
994.423	2.71
994.849	-5.89
995.275	2.91
995.701	1.21
996.127	-2.59
996.553	2.01
996.979	-6.69
997.405	-0.49
997.83	-3.79
998.256	-7.89
998.682	-8.19
999.108	-12.49
999.534	2.01
999.959	0.61
1000.385	-2.29
1000.811	-1.19
1001.236	-7.49
1001.662	-6.99
1002.087	-8.59
1002.513	-0.79
1002.938	2.31
1003.364	0.61
1003.789	-3.99
1004.215	2.41
1004.64	1.81
1005.066	4.91
1005.491	2.91
1005.916	-4.19
1006.342	-6.09
1006.767	-5.29
1007.192	2.61
1007.617	-10.49
1008.042	-6.59
1008.468	-8.29
1008.893	-2.49
1009.318	3.31
1009.743	0.11
1010.168	1.21
1010.593	-2.39
1011.018	-10.99
1011.443	-1.89
1011.868	-0.19
1012.293	-6.79
1012.718	-0.99
1013.143	2.41
1013.567	0.31
1013.992	-3.49
1014.417	-11.79
1014.842	1.11
1015.267	-6.29
1015.691	-7.49
1016.116	0.51
1016.541	1.31
1016.965	0.21
1017.39	2.91
1017.814	1.41
1018.239	2.61
1018.663	-4.39
1019.088	-12.89
1019.512	-0.99
1019.937	-1.09
1020.361	-7.99
1020.785	-11.59
1021.21	-3.49
1021.634	-2.29
1022.058	-0.79
1022.483	2.91
1022.907	0.61
1023.331	-3.39
1023.755	-3.89
1024.179	-1.29
1024.604	-6.19
1025.028	-10.59
1025.452	-6.99
1025.876	-6.59
1026.3	-3.39
1026.724	-12.59
1027.148	-6.09
1027.572	-4.79
1027.996	-5.59
1028.42	-0.09
1028.843	-3.99
1029.267	-5.79
1029.691	-1.89
1030.115	-8.39
1030.539	-5.29
1030.962	-8.69
1031.386	-11.69
1031.81	-1.29
1032.233	0.31
1032.657	-6.19
1033.08	-9.19
1033.504	0.41
1033.927	-6.29
1034.351	-4.69
1034.774	-9.29
1035.198	-5.69
1035.621	-10.79
1036.045	-9.19
1036.468	7.21
1036.891	-11.69
1037.315	-10.49
1037.738	-10.89
1038.161	-0.99
1038.584	-7.49
1039.008	-7.59
1039.431	-1.29
1039.854	-2.29
1040.277	-6.89
1040.7	-12.59
1041.123	-2.09
1041.546	-10.39
1041.969	-0.49
1042.392	-4.79
1042.815	-2.29
1043.238	-0.19
1043.661	1.81
1044.084	-3.59
1044.507	-5.29
1044.93	-2.29
1045.352	-3.19
1045.775	-4.79
1046.198	-9.29
1046.621	-0.39
1047.043	0.91
1047.466	6.11
1047.889	-4.79
1048.311	-4.59
1048.734	-0.49
1049.156	2.01
1049.579	1.31
1050.001	-0.19
1050.424	-5.59
1050.846	-5.49
1051.269	2.31
1051.691	-8.69
1052.113	-12.19
1052.536	-6.49
1052.958	-2.59
1053.38	-6.69
1053.802	-6.99
1054.225	-1.59
1054.647	-11.89
1055.069	-5.59
1055.491	-6.19
1055.913	-9.99
1056.335	-1.99
1056.757	-11.69
1057.179	-2.59
1057.601	-5.39
1058.023	-6.29
1058.445	-3.59
1058.867	-6.89
1059.289	1.11
1059.711	-3.89
1060.133	-0.79
1060.555	-4.99
1060.976	-8.89
1061.398	-5.29
1061.82	-7.79
1062.241	-4.89
1062.663	-12.39
1063.085	-8.59
1063.506	-3.79
1063.928	-7.39
1064.35	-1.39
1064.771	-9.89
1065.193	-1.59
1065.614	-6.79
1066.035	-3.89
1066.457	-3.69
1066.878	-1.09
1067.3	0.41
1067.721	-3.39
1068.142	-7.99
1068.564	-4.89
1068.985	-0.49
1069.406	-6.49
1069.827	-7.39
1070.248	0.61
1070.67	-7.49
1071.091	-0.19
1071.512	-3.19
1071.933	-9.89
1072.354	-8.89
1072.775	-7.39
1073.196	-5.79
1073.617	0.51
1074.038	-7.49
1074.459	-3.39
1074.88	-5.39
1075.3	2.91
1075.721	-8.39
1076.142	0.31
1076.563	-1.59
1076.983	-16.09
1077.404	-10.69
1077.825	-7.69
1078.246	-8.39
1078.666	-10.09
1079.087	-1.39
1079.507	-7.19
1079.928	-0.69
1080.348	-6.59
1080.769	-8.79
1081.189	-1.69
1081.61	-7.19
1082.03	-12.79
1082.451	-9.79
1082.871	-2.19
1083.291	-5.79
1083.711	-12.79
1084.132	-7.69
1084.552	-6.69
1084.972	-0.99
1085.392	-8.39
1085.813	-6.59
1086.233	-3.69
1086.653	-9.99
1087.073	-5.79
1087.493	-7.09
1087.913	-8.29
1088.333	-8.39
1088.753	-6.89
1089.173	-2.79
1089.593	-6.99
1090.013	-2.29
1090.433	4.01
1090.852	-4.59
1091.272	-1.69
1091.692	-0.79
1092.112	-3.19
1092.531	-12.69
1092.951	-13.19
1093.371	-5.49
1093.79	2.41
1094.21	0.81
1094.63	-10.29
1095.049	-4.19
1095.469	-4.89
1095.888	-0.39
1096.308	3.61
1096.727	10.11
1097.146	-9.99
1097.566	-2.19
1097.985	-8.99
1098.405	-4.59
1098.824	-4.89
1099.243	-4.69
1099.662	-2.29
1100.082	-7.49
1100.501	-0.79
1100.92	-10.39
1101.339	-2.39
1101.758	-7.89
