Data from 20171114-ORNL-Ar_H_NY_Subt18_08-09-14-679.txt Node
Date: Tue Nov 14 08:09:14 EST 2017
User: Ender
Spectrometer: HR+D1039
Trigger mode: 0
Integration Time (sec): 2.730000E-2
Scans to average: 10
Electric dark correction enabled: true
Nonlinearity correction enabled: false
Boxcar width: 0
XAxis mode: Wavelengths
Number of Pixels in Spectrum: 2048
>>>>>Begin Spectral Data<<<<<
187.836	-7.58
188.309	-7.58
188.782	-7.58
189.255	2.32
189.728	-5.08
190.201	5.02
190.674	0.02
191.147	4.02
191.619	-13.08
192.092	6.82
192.565	6.32
193.038	2.32
193.511	4.82
193.984	-2.68
194.456	-4.38
194.929	1.22
195.402	-0.98
195.874	0.92
196.347	0.72
196.82	-10.38
197.292	5.42
197.765	1.22
198.237	-8.18
198.71	4.32
199.182	-0.28
199.655	3.72
200.127	7.32
200.6	-5.78
201.072	3.12
201.544	5.02
202.017	-0.48
202.489	4.12
202.961	-0.38
203.433	-4.88
203.906	-3.88
204.378	-4.98
204.85	-6.58
205.322	-9.18
205.794	-0.78
206.266	3.82
206.739	-9.18
207.211	-1.48
207.683	-5.68
208.155	-4.48
208.627	-1.58
209.099	-4.08
209.57	-4.98
210.042	-6.78
210.514	-2.08
210.986	1.22
211.458	-6.68
211.93	-0.58
212.402	1.82
212.873	-5.58
213.345	-5.88
213.817	-10.08
214.288	-0.28
214.76	-10.28
215.232	-5.18
215.703	0.22
216.175	-2.38
216.646	-3.08
217.118	-3.98
217.589	-4.88
218.061	2.62
218.532	-1.28
219.004	2.62
219.475	-5.78
219.946	-4.28
220.418	-10.28
220.889	7.42
221.36	2.52
221.832	-2.28
222.303	-7.38
222.774	2.82
223.245	-2.68
223.717	-5.28
224.188	-4.98
224.659	-4.58
225.13	-5.58
225.601	-0.98
226.072	0.72
226.543	-1.38
227.014	0.32
227.485	-0.08
227.956	-5.88
228.427	-6.58
228.898	-1.78
229.369	1.02
229.839	-6.58
230.31	-2.68
230.781	1.42
231.252	-2.88
231.722	-1.78
232.193	-12.18
232.664	-0.68
233.135	-1.88
233.605	0.02
234.076	-4.38
234.546	-4.98
235.017	2.42
235.487	0.32
235.958	-3.18
236.428	-7.58
236.899	-0.68
237.369	0.02
237.84	-2.38
238.31	0.12
238.78	-1.08
239.251	-0.08
239.721	0.72
240.191	-1.98
240.662	-2.78
241.132	-1.18
241.602	-7.68
242.072	-2.78
242.542	-1.58
243.013	-2.18
243.483	5.32
243.953	3.62
244.423	-4.58
244.893	-7.38
245.363	7.32
245.833	5.62
246.303	-5.68
246.773	-3.68
247.243	0.52
247.712	-2.18
248.182	7.52
248.652	4.32
249.122	-11.18
249.592	1.62
250.061	4.52
250.531	13.02
251.001	-3.48
251.471	6.12
251.94	0.52
252.41	2.12
252.879	-7.48
253.349	5.52
253.818	1.32
254.288	-1.28
254.757	-2.78
255.227	-4.78
255.696	-2.68
256.166	1.32
256.635	2.42
257.105	4.12
257.574	-6.58
258.043	1.72
258.513	-5.58
258.982	6.12
259.451	-2.08
259.92	10.62
260.389	2.02
260.859	8.92
261.328	-3.08
261.797	1.52
262.266	3.42
262.735	5.22
263.204	-0.18
263.673	-3.08
264.142	6.52
264.611	-5.08
265.08	7.42
265.549	-6.68
266.018	-4.98
266.487	-7.18
266.955	-6.08
267.424	0.22
267.893	4.02
268.362	0.42
268.83	2.02
269.299	12.92
269.768	1.22
270.236	3.02
270.705	-3.78
271.174	-3.18
271.642	3.52
272.111	-0.58
272.579	3.02
273.048	6.12
273.516	-0.18
273.985	5.02
274.453	8.72
274.922	5.72
275.39	-0.58
275.858	-4.18
276.327	0.92
276.795	10.62
277.263	1.72
277.731	14.42
278.2	11.82
278.668	6.12
279.136	7.72
279.604	1.32
280.072	8.62
280.54	0.32
281.008	5.72
281.477	6.02
281.945	6.82
282.413	12.92
282.881	7.82
283.348	6.02
283.816	8.02
284.284	4.22
284.752	7.82
285.22	4.22
285.688	6.22
286.156	7.12
286.623	14.22
287.091	9.92
287.559	13.12
288.026	6.22
288.494	7.92
288.962	-2.38
289.429	6.82
289.897	7.22
290.364	7.02
290.832	6.02
291.3	5.62
291.767	4.42
292.234	10.62
292.702	6.72
293.169	4.42
293.637	16.82
294.104	11.22
294.571	2.12
295.039	3.42
295.506	5.72
295.973	10.72
296.44	7.12
296.908	10.62
297.375	9.72
297.842	11.52
298.309	1.62
298.776	2.62
299.243	11.82
299.71	6.02
300.177	9.72
300.644	11.72
301.111	9.82
301.578	16.22
302.045	4.92
302.512	10.12
302.979	17.92
303.446	10.72
303.913	8.62
304.379	13.42
304.846	13.22
305.313	16.82
305.78	6.42
306.246	18.82
306.713	17.82
307.18	14.92
307.646	14.42
308.113	21.52
308.579	16.92
309.046	17.72
309.512	21.72
309.979	9.22
310.445	23.62
310.912	26.32
311.378	29.62
311.845	22.42
312.311	23.12
312.777	22.62
313.244	24.02
313.71	26.12
314.176	22.42
314.642	23.42
315.109	19.62
315.575	24.22
316.041	31.12
316.507	25.22
316.973	25.22
317.439	25.22
317.905	22.12
318.371	20.42
318.837	28.72
319.303	21.52
319.769	26.02
320.235	24.12
320.701	23.22
321.167	27.32
321.633	24.42
322.099	26.42
322.564	29.72
323.03	23.32
323.496	24.82
323.962	35.72
324.427	25.02
324.893	28.02
325.359	24.72
325.824	29.32
326.29	25.12
326.755	25.12
327.221	30.92
327.686	26.32
328.152	29.42
328.617	32.82
329.083	31.72
329.548	40.72
330.014	38.42
330.479	30.72
330.944	32.42
331.41	33.82
331.875	30.82
332.34	34.32
332.805	32.82
333.271	28.92
333.736	29.72
334.201	42.82
334.666	41.22
335.131	41.92
335.596	38.32
336.061	32.72
336.526	31.82
336.991	37.32
337.456	44.02
337.921	39.52
338.386	36.22
338.851	37.22
339.316	39.62
339.781	36.82
340.246	43.72
340.711	34.12
341.175	36.22
341.64	35.92
342.105	35.52
342.569	45.12
343.034	47.82
343.499	44.32
343.963	40.12
344.428	50.82
344.893	48.72
345.357	45.32
345.822	52.52
346.286	53.72
346.751	58.22
347.215	57.02
347.679	58.22
348.144	68.42
348.608	59.82
349.073	60.22
349.537	57.92
350.001	67.52
350.465	75.32
350.93	66.72
351.394	71.82
351.858	54.62
352.322	68.62
352.786	62.42
353.25	82.32
353.715	81.02
354.179	78.22
354.643	97.42
355.107	95.52
355.571	79.52
356.035	85.92
356.498	91.42
356.962	87.62
357.426	105.72
357.89	93.62
358.354	74.22
358.818	67.32
359.281	65.82
359.745	61.82
360.209	61.82
360.673	65.12
361.136	68.52
361.6	80.12
362.064	67.12
362.527	72.22
362.991	80.42
363.454	74.02
363.918	61.92
364.381	71.32
364.845	71.82
365.308	71.62
365.772	79.52
366.235	72.32
366.698	72.62
367.162	76.02
367.625	80.02
368.088	79.22
368.552	75.52
369.015	78.02
369.478	79.52
369.941	89.72
370.404	74.02
370.867	86.82
371.331	91.22
371.794	94.52
372.257	88.42
372.72	96.12
373.183	93.82
373.646	84.82
374.109	86.12
374.572	83.72
375.035	88.02
375.497	89.02
375.96	93.02
376.423	90.32
376.886	101.22
377.349	100.22
377.811	86.92
378.274	95.32
378.737	94.12
379.199	99.52
379.662	97.62
380.125	103.12
380.587	94.12
381.05	93.12
381.512	108.42
381.975	116.32
382.437	112.42
382.9	108.82
383.362	113.82
383.825	123.22
384.287	124.92
384.75	111.22
385.212	118.02
385.674	122.92
386.136	114.92
386.599	105.52
387.061	114.62
387.523	110.72
387.985	117.52
388.447	121.02
388.91	122.12
389.372	115.72
389.834	113.92
390.296	117.42
390.758	120.32
391.22	129.12
391.682	144.92
392.144	158.62
392.606	144.42
393.068	137.12
393.529	150.52
393.991	132.42
394.453	126.22
394.915	126.82
395.377	138.02
395.838	136.32
396.3	132.72
396.762	132.02
397.224	125.92
397.685	122.02
398.147	125.12
398.608	124.92
399.07	127.22
399.531	129.02
399.993	135.42
400.454	147.82
400.916	144.62
401.377	136.52
401.839	144.32
402.3	142.92
402.762	153.82
403.223	171.72
403.684	158.82
404.145	155.12
404.607	159.12
405.068	158.62
405.529	159.02
405.99	171.82
406.451	168.42
406.913	159.92
407.374	161.02
407.835	150.52
408.296	164.42
408.757	160.42
409.218	182.32
409.679	169.42
410.14	164.52
410.601	178.82
411.062	167.72
411.522	181.52
411.983	175.92
412.444	172.02
412.905	178.92
413.366	181.72
413.826	184.22
414.287	220.32
414.748	264.52
415.208	245.32
415.669	210.72
416.13	199.42
416.59	205.22
417.051	216.72
417.511	218.82
417.972	239.52
418.432	254.62
418.893	286.72
419.353	248.32
419.814	203.22
420.274	185.42
420.734	179.32
421.195	194.52
421.655	188.42
422.115	193.62
422.576	192.62
423.036	198.82
423.496	206.52
423.956	215.42
424.416	226.52
424.876	259.42
425.336	250.62
425.797	259.52
426.257	253.22
426.717	237.22
427.177	232.12
427.637	223.82
428.097	234.42
428.556	238.22
429.016	270.32
429.476	258.42
429.936	270.92
430.396	265.72
430.856	280.82
431.315	300.42
431.775	328.92
432.235	368.92
432.694	326.92
433.154	347.32
433.614	371.62
434.073	320.52
434.533	273.52
434.993	264.42
435.452	274.62
435.912	280.42
436.371	279.92
436.83	271.52
437.29	263.32
437.749	242.92
438.209	242.32
438.668	268.92
439.127	275.82
439.587	255.62
440.046	241.72
440.505	252.42
440.964	270.02
441.424	304.62
441.883	293.02
442.342	261.12
442.801	229.82
443.26	221.42
443.719	226.22
444.178	216.52
444.637	222.82
445.096	222.22
445.555	235.12
446.014	230.52
446.473	231.32
446.932	233.62
447.391	228.92
447.849	241.32
448.308	221.32
448.767	226.22
449.226	237.32
449.685	238.32
450.143	252.82
450.602	241.52
451.061	242.52
451.519	241.72
451.978	233.62
452.436	232.92
452.895	242.42
453.353	245.72
453.812	241.62
454.27	243.12
454.729	245.92
455.187	248.32
455.646	250.92
456.104	250.32
456.562	263.52
457.021	271.62
457.479	264.22
457.937	279.52
458.395	264.42
458.854	255.62
459.312	265.92
459.77	276.42
460.228	262.92
460.686	253.82
461.144	255.82
461.602	251.42
462.06	248.82
462.518	261.32
462.976	269.82
463.434	254.32
463.892	266.92
464.35	280.42
464.808	290.32
465.266	271.92
465.724	272.92
466.181	279.12
466.639	272.12
467.097	301.42
467.555	305.82
468.012	307.42
468.47	318.72
468.928	325.72
469.385	349.02
469.843	349.92
470.3	350.32
470.758	364.72
471.215	386.52
471.673	409.32
472.13	410.12
472.588	419.62
473.045	380.32
473.503	390.62
473.96	399.42
474.417	414.22
474.875	435.92
475.332	485.82
475.789	470.42
476.246	474.92
476.704	494.32
477.161	503.12
477.618	522.12
478.075	561.02
478.532	602.42
478.989	677.32
479.446	792.92
479.903	749.32
480.36	783.92
480.817	829.12
481.274	924.52
481.731	1003.52
482.188	1089.32
482.645	1214.52
483.102	1302.82
483.558	1405.52
484.015	1448.72
484.472	1426.52
484.929	1378.72
485.385	1353.32
485.842	1319.92
486.299	1262.82
486.755	1228.72
487.212	1041.22
487.668	897.22
488.125	823.92
488.582	769.42
489.038	740.42
489.494	710.72
489.951	668.92
490.407	662.72
490.864	642.82
491.32	643.72
491.776	647.62
492.233	640.12
492.689	622.82
493.145	621.42
493.602	610.02
494.058	609.42
494.514	613.52
494.97	638.12
495.426	636.72
495.882	629.92
496.338	606.32
496.794	630.02
497.251	619.72
497.707	624.22
498.163	625.02
498.618	635.02
499.074	647.22
499.53	665.32
499.986	667.62
500.442	635.52
500.898	623.62
501.354	618.42
501.809	626.72
502.265	633.92
502.721	637.42
503.177	648.32
503.632	643.62
504.088	651.82
504.543	670.32
504.999	684.52
505.455	658.02
505.91	646.62
506.366	641.32
506.821	644.42
507.277	643.12
507.732	643.62
508.187	648.52
508.643	654.42
509.098	655.02
509.553	672.72
510.009	680.12
510.464	691.22
510.919	701.72
511.375	706.52
511.83	720.22
512.285	724.02
512.74	753.52
513.195	789.92
513.65	778.12
514.105	771.32
514.56	773.32
515.015	801.02
515.47	817.72
515.925	787.92
516.38	786.12
516.835	797.12
517.29	789.82
517.745	792.32
518.2	774.42
518.655	761.32
519.109	750.82
519.564	747.72
520.019	734.82
520.474	739.72
520.928	734.52
521.383	722.12
521.838	710.92
522.292	717.12
522.747	720.42
523.201	724.02
523.656	718.42
524.11	712.52
524.565	715.82
525.019	698.02
525.474	707.42
525.928	708.92
526.382	713.42
526.837	705.92
527.291	716.62
527.745	718.02
528.2	701.42
528.654	702.32
529.108	698.02
529.562	706.12
530.016	699.52
530.47	702.62
530.925	692.52
531.379	694.52
531.833	711.02
532.287	716.02
532.741	710.82
533.195	709.62
533.649	722.12
534.103	722.62
534.556	705.32
535.01	717.62
535.464	713.72
535.918	725.92
536.372	727.22
536.826	729.12
537.279	709.52
537.733	722.62
538.187	722.82
538.64	725.42
539.094	731.12
539.548	745.32
540.001	733.52
540.455	736.82
540.908	743.32
541.362	751.12
541.815	752.12
542.269	764.02
542.722	768.22
543.175	777.02
543.629	781.32
544.082	799.32
544.536	798.92
544.989	800.62
545.442	801.72
545.895	809.52
546.349	802.12
546.802	812.12
547.255	814.02
547.708	823.22
548.161	825.72
548.614	839.52
549.067	851.22
549.52	838.52
549.973	836.72
550.426	815.12
550.879	824.82
551.332	804.02
551.785	811.32
552.238	830.72
552.691	836.02
553.144	846.02
553.596	868.42
554.049	875.32
554.502	911.42
554.955	932.82
555.407	922.02
555.86	916.02
556.313	913.62
556.765	889.82
557.218	900.52
557.67	889.22
558.123	891.62
558.576	887.92
559.028	889.52
559.48	889.52
559.933	891.72
560.385	850.82
560.838	834.72
561.29	815.02
561.742	809.72
562.195	787.32
562.647	791.72
563.099	794.12
563.551	790.12
564.004	803.42
564.456	794.82
564.908	774.52
565.36	761.02
565.812	741.82
566.264	740.12
566.716	730.22
567.168	724.52
567.62	715.32
568.072	716.22
568.524	713.32
568.976	704.72
569.428	699.32
569.88	685.12
570.332	697.52
570.784	707.62
571.235	703.52
571.687	714.72
572.139	717.82
572.59	732.12
573.042	719.32
573.494	725.72
573.945	719.02
574.397	702.02
574.849	700.02
575.3	709.02
575.752	695.62
576.203	692.72
576.655	705.12
577.106	691.72
577.557	692.52
578.009	690.62
578.46	680.22
578.912	676.82
579.363	682.32
579.814	680.62
580.265	672.32
580.717	671.12
581.168	684.82
581.619	690.32
582.07	696.32
582.521	687.22
582.972	691.22
583.423	693.82
583.875	689.62
584.326	703.12
584.777	727.12
585.227	745.92
585.678	776.72
586.129	792.02
586.58	828.92
587.031	863.92
587.482	905.72
587.933	954.42
588.384	921.82
588.834	836.72
589.285	789.52
589.736	800.62
590.186	796.82
590.637	782.82
591.088	762.72
591.538	749.92
591.989	752.62
592.439	744.62
592.89	726.92
593.34	726.22
593.791	727.12
594.241	715.22
594.692	718.42
595.142	712.72
595.593	709.02
596.043	718.72
596.493	733.32
596.943	727.72
597.394	744.62
597.844	741.02
598.294	753.82
598.744	780.42
599.195	813.72
599.645	850.82
600.095	889.72
600.545	946.02
600.995	996.12
601.445	1045.52
601.895	1119.72
602.345	1159.52
602.795	1142.62
603.245	1098.52
603.695	1039.02
604.145	980.02
604.594	938.72
605.044	890.72
605.494	829.52
605.944	777.32
606.393	764.52
606.843	743.02
607.293	752.22
607.743	754.72
608.192	761.42
608.642	767.72
609.091	778.02
609.541	778.82
609.99	781.62
610.44	775.42
610.889	730.02
611.339	712.02
611.788	696.42
612.238	714.12
612.687	717.92
613.136	724.02
613.586	725.22
614.035	714.52
614.484	728.72
614.933	726.22
615.383	730.02
615.832	720.02
616.281	723.62
616.73	686.12
617.179	683.42
617.628	661.22
618.077	649.02
618.526	638.32
618.975	639.82
619.424	632.32
619.873	629.22
620.322	626.32
620.771	626.12
621.22	611.62
621.669	608.52
622.118	601.82
622.567	597.32
623.015	586.92
623.464	591.22
623.913	572.82
624.361	563.72
624.81	568.02
625.259	560.22
625.707	577.82
626.156	577.72
626.604	592.02
627.053	573.42
627.501	583.62
627.95	580.62
628.398	594.42
628.847	582.42
629.295	582.22
629.744	589.82
630.192	582.32
630.64	576.82
631.089	568.72
631.537	560.42
631.985	553.22
632.433	553.62
632.881	553.12
633.33	563.12
633.778	558.52
634.226	547.62
634.674	560.62
635.122	558.12
635.57	573.22
636.018	589.22
636.466	582.52
636.914	574.32
637.362	581.62
637.81	592.02
638.258	608.42
638.705	602.52
639.153	638.52
639.601	647.52
640.049	669.72
640.497	693.32
640.944	722.22
641.392	668.72
641.84	637.12
642.287	606.02
642.735	580.02
643.182	591.82
643.63	576.22
644.078	579.92
644.525	591.82
644.973	599.52
645.42	603.02
645.867	627.32
646.315	649.22
646.762	676.12
647.21	693.92
647.657	717.32
648.104	760.62
648.551	773.72
648.999	842.72
649.446	910.12
649.893	992.02
650.34	1147.02
650.787	1353.52
651.234	1670.32
651.682	2182.12
652.129	2966.92
652.576	4222.12
653.023	6145.52
653.47	8278.12
653.917	10220.82
654.363	11681.12
654.81	12854.92
655.257	12167.42
655.704	8029.12
656.151	4829.12
656.598	3168.72
657.044	2258.72
657.491	1764.02
657.938	1423.12
658.385	1211.02
658.831	1064.42
659.278	943.42
659.724	840.22
660.171	781.32
660.618	720.62
661.064	693.42
661.511	675.02
661.957	660.52
662.404	648.12
662.85	652.92
663.296	639.12
663.743	576.32
664.189	551.12
664.635	547.82
665.082	546.42
665.528	537.52
665.974	537.82
666.42	528.62
666.867	513.22
667.313	496.62
667.759	479.02
668.205	467.02
668.651	472.02
669.097	469.12
669.543	461.42
669.989	463.62
670.435	461.02
670.881	460.72
671.327	472.42
671.773	488.52
672.219	512.52
672.665	568.32
673.11	616.12
673.556	658.12
674.002	691.82
674.448	679.62
674.893	567.82
675.339	494.02
675.785	454.62
676.23	428.92
676.676	396.02
677.122	392.32
677.567	393.02
678.013	385.42
678.458	377.02
678.904	375.42
679.349	358.92
679.794	369.52
680.24	366.92
680.685	358.02
681.131	357.12
681.576	366.82
682.021	372.42
682.466	356.02
682.912	366.02
683.357	361.42
683.802	400.42
684.247	430.32
684.692	485.42
685.137	528.92
685.583	557.82
686.028	589.02
686.473	542.12
686.918	465.62
687.363	434.62
687.807	416.32
688.252	380.62
688.697	370.52
689.142	350.62
689.587	339.12
690.032	342.62
690.477	362.52
690.921	367.12
691.366	396.82
691.811	409.82
692.255	450.02
692.7	485.02
693.145	541.82
693.589	766.32
694.034	1232.82
694.478	1635.52
694.923	1814.42
695.367	2348.22
695.812	1266.22
696.256	524.42
696.701	393.62
697.145	364.02
697.59	339.02
698.034	331.92
698.478	336.32
698.922	344.32
699.367	338.82
699.811	353.72
700.255	373.82
700.699	410.62
701.143	447.22
701.588	504.42
702.032	534.52
702.476	530.12
702.92	522.82
703.364	531.92
703.808	698.12
704.252	1146.52
704.696	1554.92
705.14	1759.82
705.584	2207.02
706.027	1133.22
706.471	547.32
706.915	417.52
707.359	369.92
707.803	334.72
708.246	320.82
708.69	323.02
709.134	333.22
709.577	319.92
710.021	328.82
710.465	318.02
710.908	320.02
711.352	318.12
711.795	331.02
712.239	376.92
712.682	404.92
713.126	431.92
713.569	474.12
714.012	369.12
714.456	319.32
714.899	302.02
715.342	290.92
715.786	265.22
716.229	276.62
716.672	268.32
717.115	266.62
717.558	263.12
718.002	261.52
718.445	282.22
718.888	294.02
719.331	310.52
719.774	322.82
720.217	317.62
720.66	295.92
721.103	281.92
721.546	277.42
721.989	261.02
722.432	238.62
722.874	249.42
723.317	233.92
723.76	245.02
724.203	267.62
724.645	340.92
725.088	480.02
725.531	601.92
725.974	665.32
726.416	571.42
726.859	325.72
727.301	258.92
727.744	252.22
728.187	253.52
728.629	258.92
729.071	259.32
729.514	275.42
729.956	285.12
730.399	299.12
730.841	305.92
731.283	281.82
731.726	280.72
732.168	275.62
732.61	289.32
733.053	306.42
733.495	334.42
733.937	376.12
734.379	424.92
734.821	468.22
735.263	587.62
735.705	928.22
736.148	1755.42
736.59	2776.32
737.032	3185.02
737.474	2591.52
737.916	865.02
738.357	454.72
738.799	349.82
739.241	322.02
739.683	297.52
740.125	315.62
740.567	318.32
741.008	331.02
741.45	334.42
741.892	337.22
742.334	370.82
742.775	384.72
743.217	359.02
743.658	289.92
744.1	277.12
744.542	283.82
744.983	332.72
745.425	362.32
745.866	361.32
746.307	292.42
746.749	306.02
747.19	346.52
747.632	503.12
748.073	998.92
748.514	2052.82
748.956	3032.22
749.397	3822.92
749.838	3190.32
750.279	3078.02
750.72	1580.52
751.162	587.12
751.603	341.72
752.044	272.62
752.485	227.52
752.926	220.12
753.367	218.82
753.808	210.82
754.249	202.92
754.69	194.72
755.131	189.72
755.572	191.52
756.013	183.22
756.453	192.52
756.894	200.02
757.335	199.42
757.776	203.72
758.216	201.42
758.657	212.52
759.098	209.92
759.538	238.72
759.979	291.22
760.42	409.42
760.86	799.42
761.301	2090.72
761.741	4901.82
762.182	6700.72
762.622	4724.22
763.063	1401.92
763.503	570.12
763.943	346.42
764.384	286.62
764.824	285.72
765.264	277.92
765.705	229.42
766.145	198.42
766.585	188.22
767.025	183.12
767.465	176.52
767.906	193.12
768.346	221.72
768.786	233.02
769.226	235.92
769.666	336.12
770.106	695.52
770.546	1732.52
770.986	2772.42
771.426	2454.42
771.866	846.02
772.306	345.02
772.745	219.52
773.185	181.62
773.625	168.72
774.065	157.22
774.505	174.22
774.944	234.12
775.384	428.82
775.824	672.62
776.263	632.12
776.703	311.52
777.142	172.02
777.582	136.62
778.021	136.02
778.461	133.12
778.9	131.82
779.34	134.12
779.779	123.82
780.219	117.72
780.658	108.62
781.097	113.52
781.537	113.62
781.976	118.72
782.415	113.82
782.855	107.72
783.294	108.72
783.733	109.32
784.172	118.82
784.611	110.12
785.05	111.92
785.489	117.32
785.928	121.32
786.367	131.42
786.806	126.72
787.245	140.12
787.684	144.72
788.123	156.92
788.562	139.82
789.001	130.82
789.44	128.92
789.879	122.52
790.317	134.12
790.756	140.32
791.195	141.32
791.634	155.62
792.072	225.22
792.511	409.72
792.95	1138.42
793.388	2267.62
793.827	1974.62
794.265	715.82
794.704	299.12
795.142	191.32
795.581	160.92
796.019	143.12
796.458	137.72
796.896	134.42
797.334	147.52
797.773	159.12
798.211	243.22
798.649	487.42
799.087	1115.82
799.526	1732.22
799.964	2170.72
800.402	2078.82
800.84	808.22
801.278	327.32
801.716	199.12
802.154	166.32
802.592	148.12
803.03	154.42
803.468	143.02
803.906	159.92
804.344	154.62
804.782	145.82
805.22	148.82
805.658	136.52
806.096	158.82
806.533	160.72
806.971	188.22
807.409	232.92
807.847	340.02
808.284	756.02
808.722	2073.72
809.16	3481.82
809.597	3454.32
810.035	5876.92
810.472	5968.52
810.91	2211.52
811.347	856.72
811.785	430.02
812.222	269.02
812.66	212.32
813.097	179.02
813.535	151.12
813.972	140.52
814.409	127.02
814.846	112.82
815.284	114.92
815.721	106.82
816.158	111.62
816.595	114.92
817.032	159.72
817.47	190.52
817.907	137.02
818.344	100.92
818.781	108.92
819.218	95.92
819.655	139.62
820.092	205.32
820.529	226.72
820.966	178.12
821.403	128.02
821.839	102.52
822.276	102.92
822.713	133.22
823.15	143.52
823.587	121.12
824.023	159.82
824.46	346.32
824.897	982.02
825.333	1415.82
825.77	616.62
826.206	243.22
826.643	144.52
827.08	110.52
827.516	84.42
827.953	82.02
828.389	80.02
828.825	76.82
829.262	71.62
829.698	64.82
830.135	66.02
830.571	68.32
831.007	63.92
831.443	67.42
831.88	63.22
832.316	63.42
832.752	69.92
833.188	71.92
833.624	66.42
834.06	73.22
834.497	69.32
834.933	79.62
835.369	78.22
835.805	67.12
836.241	80.82
836.677	89.02
837.112	85.22
837.548	108.82
837.984	146.62
838.42	237.72
838.856	564.52
839.292	1659.82
839.727	2404.82
840.163	1147.52
840.599	1024.62
841.034	2205.62
841.47	2195.22
841.906	816.82
842.341	362.02
842.777	218.12
843.212	222.92
843.648	205.82
844.083	124.52
844.519	93.22
844.954	76.72
845.39	56.52
845.825	59.52
846.261	57.32
846.696	62.02
847.131	52.32
847.566	61.52
848.002	56.72
848.437	61.02
848.872	64.02
849.307	64.42
849.742	86.52
850.177	207.62
850.613	613.32
851.048	917.52
851.483	397.32
851.918	164.52
852.353	97.02
852.788	60.32
853.223	57.02
853.657	56.92
854.092	51.52
854.527	43.92
854.962	40.82
855.397	49.42
855.832	50.52
856.266	43.92
856.701	43.92
857.136	43.22
857.57	43.42
858.005	57.12
858.44	60.32
858.874	48.02
859.309	60.62
859.743	44.02
860.178	52.22
860.612	44.62
861.047	53.92
861.481	73.22
861.915	79.32
862.35	52.12
862.784	41.02
863.218	40.42
863.653	38.82
864.087	53.52
864.521	59.12
864.955	80.22
865.39	168.62
865.824	178.22
866.258	120.72
866.692	177.72
867.126	184.52
867.56	112.32
867.994	55.82
868.428	38.22
868.862	60.72
869.296	57.82
869.73	65.42
870.164	57.42
870.598	44.92
871.031	40.12
871.465	31.22
871.899	37.12
872.333	24.82
872.766	31.82
873.2	27.42
873.634	31.92
874.067	20.62
874.501	29.32
874.935	36.62
875.368	32.52
875.802	31.62
876.235	24.82
876.669	27.72
877.102	19.02
877.535	30.62
877.969	23.42
878.402	25.62
878.836	18.62
879.269	22.12
879.702	25.42
880.135	17.32
880.569	21.82
881.002	29.82
881.435	24.62
881.868	21.32
882.301	25.02
882.734	11.42
883.167	28.22
883.601	17.02
884.034	18.62
884.467	19.52
884.899	18.82
885.332	24.42
885.765	15.12
886.198	19.52
886.631	20.22
887.064	26.22
887.497	16.82
887.929	28.72
888.362	16.22
888.795	16.52
889.228	21.02
889.66	19.12
890.093	18.12
890.526	19.42
890.958	20.72
891.391	16.72
891.823	22.32
892.256	18.52
892.688	14.72
893.121	17.62
893.553	16.62
893.985	26.82
894.418	21.62
894.85	19.62
895.282	19.12
895.715	21.72
896.147	16.32
896.579	21.62
897.011	14.52
897.444	14.62
897.876	16.32
898.308	16.62
898.74	14.12
899.172	9.92
899.604	19.52
900.036	26.62
900.468	16.62
900.9	16.22
901.332	17.22
901.764	16.72
902.196	20.72
902.628	26.22
903.06	16.22
903.491	32.62
903.923	29.62
904.355	24.42
904.787	27.42
905.218	16.82
905.65	20.12
906.082	14.42
906.513	14.42
906.945	19.42
907.376	16.72
907.808	22.62
908.239	21.22
908.671	19.02
909.102	16.62
909.534	33.02
909.965	47.42
910.397	104.32
910.828	337.92
911.259	501.72
911.691	227.32
912.122	108.62
912.553	53.52
912.984	36.92
913.415	31.82
913.847	22.22
914.278	11.82
914.709	9.82
915.14	22.42
915.571	21.52
916.002	17.62
916.433	24.12
916.864	14.72
917.295	17.62
917.726	16.92
918.157	16.52
918.587	33.82
919.018	28.42
919.449	22.52
919.88	26.02
920.311	28.52
920.741	54.72
921.172	183.12
921.603	158.72
922.033	76.42
922.464	45.42
922.895	29.32
923.325	17.12
923.756	16.62
924.186	11.82
924.617	15.42
925.047	27.52
925.478	18.62
925.908	24.72
926.338	22.12
926.769	22.72
927.199	22.62
927.629	10.22
928.06	11.32
928.49	15.82
928.92	20.72
929.35	8.42
929.78	17.82
930.21	3.22
930.641	9.82
931.071	11.32
931.501	11.42
931.931	5.82
932.361	5.82
932.791	8.72
933.221	12.22
933.651	7.82
934.08	21.92
934.51	34.12
934.94	12.72
935.37	10.02
935.8	16.52
936.229	10.82
936.659	11.82
937.089	8.62
937.519	16.92
937.948	24.42
938.378	14.52
938.807	5.42
939.237	2.92
939.666	10.22
940.096	-7.58
940.525	7.02
940.955	1.42
941.384	1.52
941.814	-5.58
942.243	3.52
942.672	4.92
943.102	-3.88
943.531	-0.18
943.96	2.92
944.39	7.22
944.819	-0.98
945.248	9.12
945.677	4.42
946.106	6.32
946.535	5.52
946.964	2.62
947.393	5.82
947.822	-0.08
948.251	-2.68
948.68	3.42
949.109	7.42
949.538	0.32
949.967	-2.88
950.396	5.32
950.825	-2.98
951.254	-0.18
951.682	-9.28
952.111	7.92
952.54	10.92
952.969	-1.98
953.397	-5.88
953.826	-2.28
954.254	-4.98
954.683	2.12
955.112	2.02
955.54	-6.98
955.969	9.12
956.397	-0.28
956.826	0.32
957.254	7.22
957.682	1.12
958.111	9.32
958.539	3.42
958.967	4.62
959.396	-1.18
959.824	4.82
960.252	4.92
960.68	-0.68
961.109	2.82
961.537	-1.38
961.965	4.82
962.393	-0.18
962.821	1.42
963.249	1.62
963.677	4.72
964.105	12.62
964.533	55.62
964.961	41.22
965.389	24.82
965.817	3.82
966.245	-1.08
966.672	2.42
967.1	-7.98
967.528	3.82
967.956	-1.18
968.383	5.82
968.811	-3.68
969.239	3.72
969.666	-2.58
970.094	1.32
970.522	4.52
970.949	1.62
971.377	-0.88
971.804	-6.48
972.232	0.02
972.659	0.72
973.087	2.02
973.514	-2.18
973.941	-0.78
974.369	6.82
974.796	2.92
975.223	1.82
975.651	-4.48
976.078	5.92
976.505	-6.28
976.932	2.72
977.359	13.82
977.786	13.72
978.214	2.42
978.641	-5.08
979.068	-1.28
979.495	-6.08
979.922	5.22
980.349	-5.28
980.776	7.42
981.202	0.82
981.629	3.92
982.056	4.32
982.483	-3.68
982.91	3.02
983.337	-7.28
983.763	4.52
984.19	-11.88
984.617	-0.88
985.043	-6.98
985.47	1.22
985.897	-1.88
986.323	-11.08
986.75	5.12
987.176	-0.08
987.603	1.62
988.029	-1.18
988.456	-3.88
988.882	1.22
989.308	-4.58
989.735	-3.78
990.161	3.42
990.587	-0.98
991.014	-6.28
991.44	6.92
991.866	-0.98
992.292	-7.88
992.719	-5.08
993.145	9.62
993.571	-10.38
993.997	1.42
994.423	-0.18
994.849	-0.18
995.275	1.92
995.701	-3.08
996.127	-4.88
996.553	5.02
996.979	4.62
997.405	-2.48
997.83	-2.98
998.256	2.92
998.682	-6.98
999.108	-4.88
999.534	-1.98
999.959	1.42
1000.385	-8.58
1000.811	-3.38
1001.236	-7.58
1001.662	-8.58
1002.087	-10.38
1002.513	4.52
1002.938	5.12
1003.364	-0.28
1003.789	12.52
1004.215	4.02
1004.64	-3.18
1005.066	4.92
1005.491	3.92
1005.916	-3.78
1006.342	-5.88
1006.767	-6.18
1007.192	0.42
1007.617	-4.28
1008.042	-7.28
1008.468	-7.58
1008.893	-2.38
1009.318	-0.58
1009.743	3.62
1010.168	2.42
1010.593	4.82
1011.018	-11.38
1011.443	-5.08
1011.868	2.02
1012.293	0.02
1012.718	-0.88
1013.143	2.82
1013.567	4.62
1013.992	-2.98
1014.417	-12.18
1014.842	1.12
1015.267	-5.88
1015.691	-9.08
1016.116	5.92
1016.541	-3.48
1016.965	5.62
1017.39	4.02
1017.814	4.92
1018.239	2.82
1018.663	-3.68
1019.088	0.22
1019.512	-6.08
1019.937	-0.48
1020.361	-0.78
1020.785	-9.48
1021.21	-1.78
1021.634	-1.78
1022.058	1.92
1022.483	-5.78
1022.907	-5.48
1023.331	-10.08
1023.755	-4.68
1024.179	-4.68
1024.604	-6.68
1025.028	-5.28
1025.452	-8.48
1025.876	-2.38
1026.3	-0.88
1026.724	-7.28
1027.148	-6.48
1027.572	-5.88
1027.996	-6.68
1028.42	0.22
1028.843	0.32
1029.267	0.72
1029.691	-4.18
1030.115	-11.98
1030.539	-3.08
1030.962	-8.88
1031.386	-8.18
1031.81	-2.08
1032.233	-3.38
1032.657	-1.68
1033.08	-4.08
1033.504	0.22
1033.927	2.72
1034.351	5.52
1034.774	-2.18
1035.198	-0.78
1035.621	-5.98
1036.045	-9.48
1036.468	2.22
1036.891	-6.18
1037.315	-8.58
1037.738	-12.38
1038.161	1.12
1038.584	-6.28
1039.008	2.02
1039.431	-6.88
1039.854	-1.08
1040.277	-6.88
1040.7	-12.98
1041.123	-1.18
1041.546	-10.48
1041.969	-2.38
1042.392	-8.78
1042.815	-0.88
1043.238	1.02
1043.661	3.12
1044.084	-5.38
1044.507	-6.18
1044.93	-1.28
1045.352	-5.98
1045.775	0.42
1046.198	-2.48
1046.621	-2.48
1047.043	-3.68
1047.466	7.22
1047.889	-3.78
1048.311	-5.38
1048.734	0.42
1049.156	-6.68
1049.579	-2.38
1050.001	-5.58
1050.424	-2.78
1050.846	-3.28
1051.269	-3.68
1051.691	-5.88
1052.113	-0.78
1052.536	1.82
1052.958	-8.68
1053.38	-0.18
1053.802	-8.58
1054.225	5.62
1054.647	-9.78
1055.069	-0.68
1055.491	4.32
1055.913	-8.88
1056.335	2.12
1056.757	-4.78
1057.179	-2.18
1057.601	-10.68
1058.023	-2.08
1058.445	-5.78
1058.867	-0.58
1059.289	-1.48
1059.711	-10.38
1060.133	-3.98
1060.555	-4.48
1060.976	-3.58
1061.398	-7.88
1061.82	-6.18
1062.241	-6.58
1062.663	-7.38
1063.085	1.62
1063.506	2.22
1063.928	2.82
1064.35	-7.88
1064.771	-8.78
1065.193	-0.58
1065.614	-11.68
1066.035	-11.28
1066.457	-4.28
1066.878	4.12
1067.3	-7.08
1067.721	0.42
1068.142	1.02
1068.564	-4.38
1068.985	-6.58
1069.406	-5.38
1069.827	-7.18
1070.248	1.92
1070.67	-12.08
1071.091	-15.48
1071.512	-1.08
1071.933	-7.18
1072.354	-11.18
1072.775	-6.28
1073.196	-9.28
1073.617	-3.58
1074.038	-2.38
1074.459	-1.48
1074.88	-4.98
1075.3	0.22
1075.721	-5.28
1076.142	3.52
1076.563	-1.38
1076.983	-10.38
1077.404	-11.68
1077.825	-4.98
1078.246	-3.78
1078.666	-13.08
1079.087	-4.38
1079.507	-5.98
1079.928	1.32
1080.348	-5.48
1080.769	-2.98
1081.189	-5.08
1081.61	1.12
1082.03	-4.88
1082.451	-7.38
1082.871	-3.78
1083.291	-5.38
1083.711	-6.58
1084.132	-8.68
1084.552	-1.98
1084.972	2.72
1085.392	-8.98
1085.813	-5.38
1086.233	-9.78
1086.653	0.62
1087.073	-4.48
1087.493	-7.18
1087.913	-5.18
1088.333	-5.48
1088.753	-6.58
1089.173	1.62
1089.593	-5.58
1090.013	4.92
1090.433	-5.48
1090.852	-5.38
1091.272	-3.18
1091.692	0.62
1092.112	0.32
1092.531	-10.88
1092.951	-9.48
1093.371	1.32
1093.79	3.52
1094.21	-2.78
1094.63	-7.18
1095.049	-3.48
1095.469	-2.08
1095.888	-1.28
1096.308	-2.58
1096.727	9.32
1097.146	-3.58
1097.566	0.52
1097.985	-1.48
1098.405	-1.88
1098.824	-1.68
1099.243	-2.88
1099.662	-3.58
1100.082	-6.98
1100.501	-3.68
1100.92	-9.28
1101.339	-4.88
1101.758	0.62
