Data from 20171114-ORNL-Ar_H_NY_Subt18_08-04-39-733.txt Node
Date: Tue Nov 14 08:04:39 EST 2017
User: Ender
Spectrometer: HR+D1039
Trigger mode: 0
Integration Time (sec): 2.730000E-2
Scans to average: 10
Electric dark correction enabled: true
Nonlinearity correction enabled: false
Boxcar width: 0
XAxis mode: Wavelengths
Number of Pixels in Spectrum: 2048
>>>>>Begin Spectral Data<<<<<
187.836	-2.34
188.309	-2.34
188.782	-2.34
189.255	0.16
189.728	2.06
190.201	3.06
190.674	4.36
191.147	0.76
191.619	-5.74
192.092	3.96
192.565	3.06
193.038	0.66
193.511	0.36
193.984	-4.64
194.456	-1.54
194.929	4.46
195.402	-5.14
195.874	-3.44
196.347	-4.14
196.82	-7.84
197.292	5.56
197.765	-4.04
198.237	-9.24
198.71	5.46
199.182	0.46
199.655	0.16
200.127	4.96
200.6	-2.94
201.072	-0.44
201.544	-5.54
202.017	-5.04
202.489	-1.24
202.961	-0.64
203.433	-9.94
203.906	-4.84
204.378	-5.44
204.85	-9.14
205.322	-9.84
205.794	-0.04
206.266	-3.04
206.739	-11.64
207.211	2.76
207.683	-10.14
208.155	-5.04
208.627	-6.94
209.099	-3.54
209.57	-9.74
210.042	-3.04
210.514	-1.94
210.986	-2.14
211.458	-6.04
211.93	-4.14
212.402	0.16
212.873	-8.44
213.345	-9.74
213.817	-9.64
214.288	-7.64
214.76	-4.84
215.232	-2.14
215.703	1.96
216.175	-2.64
216.646	-7.04
217.118	-6.04
217.589	-1.44
218.061	-2.54
218.532	-3.94
219.004	0.96
219.475	0.06
219.946	-1.64
220.418	-4.84
220.889	3.66
221.36	0.26
221.832	4.16
222.303	-1.64
222.774	-3.14
223.245	-5.04
223.717	-2.24
224.188	-8.14
224.659	-11.54
225.13	-5.04
225.601	-2.44
226.072	1.16
226.543	-0.74
227.014	2.56
227.485	1.26
227.956	-6.74
228.427	-0.14
228.898	-0.44
229.369	0.86
229.839	-0.24
230.31	-3.94
230.781	4.66
231.252	-6.24
231.722	-2.14
232.193	1.36
232.664	4.36
233.135	4.36
233.605	-3.54
234.076	-6.24
234.546	-0.84
235.017	9.96
235.487	-2.84
235.958	6.06
236.428	0.26
236.899	18.56
237.369	8.86
237.84	-1.94
238.31	5.06
238.78	6.16
239.251	4.26
239.721	-3.74
240.191	10.46
240.662	0.56
241.132	0.96
241.602	-0.24
242.072	5.86
242.542	4.56
243.013	-0.04
243.483	3.26
243.953	6.36
244.423	6.06
244.893	-3.44
245.363	7.96
245.833	6.36
246.303	4.76
246.773	10.46
247.243	8.56
247.712	2.76
248.182	9.26
248.652	9.46
249.122	2.16
249.592	9.96
250.061	31.46
250.531	34.36
251.001	17.66
251.471	20.76
251.94	24.16
252.41	12.26
252.879	-1.44
253.349	13.96
253.818	9.36
254.288	7.06
254.757	10.96
255.227	-0.94
255.696	5.66
256.166	5.06
256.635	9.86
257.105	12.66
257.574	10.26
258.043	8.36
258.513	18.36
258.982	18.36
259.451	12.96
259.92	21.76
260.389	12.66
260.859	18.66
261.328	15.16
261.797	18.06
262.266	8.56
262.735	10.86
263.204	10.26
263.673	4.26
264.142	6.46
264.611	2.66
265.08	6.06
265.549	2.36
266.018	8.36
266.487	5.56
266.955	-6.04
267.424	5.46
267.893	10.06
268.362	10.46
268.83	7.86
269.299	14.56
269.768	8.26
270.236	8.36
270.705	2.26
271.174	11.86
271.642	5.06
272.111	12.86
272.579	20.76
273.048	27.56
273.516	30.96
273.985	34.96
274.453	27.16
274.922	29.06
275.39	16.36
275.858	6.06
276.327	15.36
276.795	17.96
277.263	10.96
277.731	32.36
278.2	58.66
278.668	64.46
279.136	60.76
279.604	24.06
280.072	17.46
280.54	9.56
281.008	9.36
281.477	8.46
281.945	20.96
282.413	15.16
282.881	18.96
283.348	14.06
283.816	15.16
284.284	14.56
284.752	29.16
285.22	17.86
285.688	15.66
286.156	25.76
286.623	44.96
287.091	56.96
287.559	32.36
288.026	16.16
288.494	24.26
288.962	2.66
289.429	14.96
289.897	19.56
290.364	17.56
290.832	12.36
291.3	12.56
291.767	19.16
292.234	24.36
292.702	16.66
293.169	19.66
293.637	21.66
294.104	24.26
294.571	13.46
295.039	8.76
295.506	18.06
295.973	24.96
296.44	16.76
296.908	16.96
297.375	15.76
297.842	28.66
298.309	18.46
298.776	18.36
299.243	26.76
299.71	13.46
300.177	24.16
300.644	20.16
301.111	23.36
301.578	23.86
302.045	26.66
302.512	29.06
302.979	26.66
303.446	21.66
303.913	24.06
304.379	24.96
304.846	29.86
305.313	25.36
305.78	29.26
306.246	29.76
306.713	27.76
307.18	32.16
307.646	39.56
308.113	25.36
308.579	27.76
309.046	25.86
309.512	23.76
309.979	19.56
310.445	33.26
310.912	35.46
311.378	38.56
311.845	32.76
312.311	34.66
312.777	34.66
313.244	34.76
313.71	39.76
314.176	34.46
314.642	38.46
315.109	38.56
315.575	42.26
316.041	35.46
316.507	32.06
316.973	42.76
317.439	31.86
317.905	37.26
318.371	39.46
318.837	41.46
319.303	34.86
319.769	35.16
320.235	34.86
320.701	38.56
321.167	43.06
321.633	36.76
322.099	42.76
322.564	47.86
323.03	43.36
323.496	43.16
323.962	44.36
324.427	38.26
324.893	45.06
325.359	38.66
325.824	45.86
326.29	37.56
326.755	40.46
327.221	42.06
327.686	40.96
328.152	45.26
328.617	44.06
329.083	48.26
329.548	56.56
330.014	50.76
330.479	43.06
330.944	45.86
331.41	43.36
331.875	45.46
332.34	41.86
332.805	44.56
333.271	52.46
333.736	43.66
334.201	58.36
334.666	50.46
335.131	53.86
335.596	50.66
336.061	53.26
336.526	43.36
336.991	52.06
337.456	59.06
337.921	43.36
338.386	48.06
338.851	49.26
339.316	52.76
339.781	49.66
340.246	49.66
340.711	45.66
341.175	50.46
341.64	46.26
342.105	47.46
342.569	60.16
343.034	63.16
343.499	55.66
343.963	54.46
344.428	60.26
344.893	64.26
345.357	59.56
345.822	64.76
346.286	66.26
346.751	74.46
347.215	65.06
347.679	71.36
348.144	96.36
348.608	79.36
349.073	69.06
349.537	65.56
350.001	76.56
350.465	83.96
350.93	80.36
351.394	82.56
351.858	74.16
352.322	92.36
352.786	86.36
353.25	97.76
353.715	101.66
354.179	96.66
354.643	121.36
355.107	125.76
355.571	107.96
356.035	102.46
356.498	116.76
356.962	122.36
357.426	132.36
357.89	121.26
358.354	95.86
358.818	82.56
359.281	79.96
359.745	68.66
360.209	79.06
360.673	72.06
361.136	74.76
361.6	81.06
362.064	78.96
362.527	85.76
362.991	89.46
363.454	78.06
363.918	73.06
364.381	83.66
364.845	80.76
365.308	83.96
365.772	91.16
366.235	83.56
366.698	82.36
367.162	85.86
367.625	83.06
368.088	84.96
368.552	90.36
369.015	87.16
369.478	95.06
369.941	100.46
370.404	96.06
370.867	106.06
371.331	104.36
371.794	113.86
372.257	106.86
372.72	110.36
373.183	100.66
373.646	101.36
374.109	92.86
374.572	100.16
375.035	107.76
375.497	102.86
375.96	106.86
376.423	104.26
376.886	111.96
377.349	107.06
377.811	96.36
378.274	101.76
378.737	99.06
379.199	106.86
379.662	109.36
380.125	114.16
380.587	116.06
381.05	118.16
381.512	121.36
381.975	125.96
382.437	128.36
382.9	125.96
383.362	129.26
383.825	134.46
384.287	133.86
384.75	130.16
385.212	133.36
385.674	135.16
386.136	135.06
386.599	119.36
387.061	121.76
387.523	123.56
387.985	127.76
388.447	144.86
388.91	137.46
389.372	150.46
389.834	144.46
390.296	132.56
390.758	141.46
391.22	167.66
391.682	194.36
392.144	274.06
392.606	219.26
393.068	159.26
393.529	159.16
393.991	148.56
394.453	143.76
394.915	148.46
395.377	178.56
395.838	202.56
396.3	144.06
396.762	134.86
397.224	129.66
397.685	120.36
398.147	118.16
398.608	120.76
399.07	125.46
399.531	127.26
399.993	131.66
400.454	145.96
400.916	138.66
401.377	128.66
401.839	146.46
402.3	140.06
402.762	158.46
403.223	171.46
403.684	156.66
404.145	159.16
404.607	152.96
405.068	151.66
405.529	155.26
405.99	186.06
406.451	168.76
406.913	163.96
407.374	159.16
407.835	154.46
408.296	156.06
408.757	159.26
409.218	174.66
409.679	161.96
410.14	174.16
410.601	167.66
411.062	172.16
411.522	182.96
411.983	175.96
412.444	160.06
412.905	170.56
413.366	174.36
413.826	182.36
414.287	203.46
414.748	249.46
415.208	234.76
415.669	204.86
416.13	197.56
416.59	189.56
417.051	200.06
417.511	201.96
417.972	217.36
418.432	230.46
418.893	263.56
419.353	234.46
419.814	183.66
420.274	171.56
420.734	172.06
421.195	178.26
421.655	180.66
422.115	176.16
422.576	181.36
423.036	187.66
423.496	195.76
423.956	197.66
424.416	220.96
424.876	249.36
425.336	241.16
425.797	247.56
426.257	235.66
426.717	222.46
427.177	219.06
427.637	216.56
428.097	215.46
428.556	232.76
429.016	256.96
429.476	253.36
429.936	259.26
430.396	264.86
430.856	267.56
431.315	292.96
431.775	324.26
432.235	351.36
432.694	328.96
433.154	331.86
433.614	360.16
434.073	310.06
434.533	265.66
434.993	253.16
435.452	269.06
435.912	284.96
436.371	276.36
436.83	270.76
437.29	249.06
437.749	231.16
438.209	230.26
438.668	251.26
439.127	270.66
439.587	245.96
440.046	229.76
440.505	247.66
440.964	253.26
441.424	292.06
441.883	286.96
442.342	247.76
442.801	215.16
443.26	204.96
443.719	202.16
444.178	200.06
444.637	190.16
445.096	206.46
445.555	207.76
446.014	207.96
446.473	204.56
446.932	209.36
447.391	206.16
447.849	219.16
448.308	201.96
448.767	207.86
449.226	220.96
449.685	224.26
450.143	235.86
450.602	223.16
451.061	213.86
451.519	215.06
451.978	216.06
452.436	224.16
452.895	221.96
453.353	236.36
453.812	225.46
454.27	229.56
454.729	224.56
455.187	224.26
455.646	229.96
456.104	236.66
456.562	238.96
457.021	247.66
457.479	248.86
457.937	245.36
458.395	241.56
458.854	222.66
459.312	230.46
459.77	257.26
460.228	239.76
460.686	225.86
461.144	227.66
461.602	224.86
462.06	216.26
462.518	230.36
462.976	238.76
463.434	243.66
463.892	244.16
464.35	256.06
464.808	273.86
465.266	250.56
465.724	254.76
466.181	257.16
466.639	251.06
467.097	265.16
467.555	278.76
468.012	278.16
468.47	289.76
468.928	313.36
469.385	319.86
469.843	321.16
470.3	319.76
470.758	338.06
471.215	355.06
471.673	386.06
472.13	374.76
472.588	388.06
473.045	343.16
473.503	349.36
473.96	370.76
474.417	370.26
474.875	401.86
475.332	449.46
475.789	434.26
476.246	450.06
476.704	461.46
477.161	480.76
477.618	495.66
478.075	521.56
478.532	575.96
478.989	642.16
479.446	749.86
479.903	730.06
480.36	761.36
480.817	815.86
481.274	911.76
481.731	1008.46
482.188	1107.56
482.645	1226.66
483.102	1341.16
483.558	1471.26
484.015	1526.66
484.472	1501.36
484.929	1457.36
485.385	1392.16
485.842	1369.96
486.299	1298.76
486.755	1226.56
487.212	1027.76
487.668	887.76
488.125	799.16
488.582	735.36
489.038	711.86
489.494	667.36
489.951	643.56
490.407	629.76
490.864	609.36
491.32	611.36
491.776	604.76
492.233	601.56
492.689	568.86
493.145	566.66
493.602	565.86
494.058	582.66
494.514	582.56
494.97	595.06
495.426	614.86
495.882	582.96
496.338	582.16
496.794	585.36
497.251	590.86
497.707	605.06
498.163	599.86
498.618	605.86
499.074	615.16
499.53	633.36
499.986	634.06
500.442	625.46
500.898	595.46
501.354	590.56
501.809	600.76
502.265	613.96
502.721	619.26
503.177	619.36
503.632	624.56
504.088	629.26
504.543	665.36
504.999	662.66
505.455	622.86
505.91	588.56
506.366	594.36
506.821	587.06
507.277	590.16
507.732	594.96
508.187	587.76
508.643	592.46
509.098	591.96
509.553	616.06
510.009	615.16
510.464	623.76
510.919	645.76
511.375	644.66
511.83	664.26
512.285	677.36
512.74	727.96
513.195	735.26
513.65	729.06
514.105	733.16
514.56	732.76
515.015	746.76
515.47	755.56
515.925	748.86
516.38	751.56
516.835	748.76
517.29	743.96
517.745	747.06
518.2	715.66
518.655	701.46
519.109	704.66
519.564	704.36
520.019	692.96
520.474	680.06
520.928	683.96
521.383	676.56
521.838	669.66
522.292	673.46
522.747	674.26
523.201	663.86
523.656	643.26
524.11	643.66
524.565	646.26
525.019	638.66
525.474	662.56
525.928	661.26
526.382	652.46
526.837	652.26
527.291	654.46
527.745	657.56
528.2	655.26
528.654	648.06
529.108	647.56
529.562	650.96
530.016	647.26
530.47	642.46
530.925	650.16
531.379	650.46
531.833	664.16
532.287	658.56
532.741	665.86
533.195	657.96
533.649	671.56
534.103	675.56
534.556	666.86
535.01	668.06
535.464	654.76
535.918	679.66
536.372	675.16
536.826	681.76
537.279	663.06
537.733	656.86
538.187	655.26
538.64	658.86
539.094	680.16
539.548	678.26
540.001	677.96
540.455	675.16
540.908	692.36
541.362	687.16
541.815	691.56
542.269	699.96
542.722	709.56
543.175	724.16
543.629	718.06
544.082	735.06
544.536	732.86
544.989	732.76
545.442	744.46
545.895	734.36
546.349	726.96
546.802	726.86
547.255	736.46
547.708	737.26
548.161	750.06
548.614	757.46
549.067	764.86
549.52	760.36
549.973	754.16
550.426	751.56
550.879	738.56
551.332	747.26
551.785	746.96
552.238	739.86
552.691	755.86
553.144	775.66
553.596	779.86
554.049	791.26
554.502	833.36
554.955	849.46
555.407	847.16
555.86	827.96
556.313	830.06
556.765	804.76
557.218	819.06
557.67	816.46
558.123	805.56
558.576	816.66
559.028	808.96
559.48	824.76
559.933	812.26
560.385	776.06
560.838	739.36
561.29	723.96
561.742	713.26
562.195	706.46
562.647	701.96
563.099	712.96
563.551	713.76
564.004	714.56
564.456	718.36
564.908	693.56
565.36	688.66
565.812	682.96
566.264	664.16
566.716	664.36
567.168	662.26
567.62	666.46
568.072	650.46
568.524	640.06
568.976	625.16
569.428	612.76
569.88	613.06
570.332	624.06
570.784	624.96
571.235	621.06
571.687	633.86
572.139	637.76
572.59	647.76
573.042	655.86
573.494	659.36
573.945	648.86
574.397	624.16
574.849	627.56
575.3	625.46
575.752	634.76
576.203	618.26
576.655	635.06
577.106	612.66
577.557	604.76
578.009	610.46
578.46	606.46
578.912	602.56
579.363	609.46
579.814	612.76
580.265	598.66
580.717	612.56
581.168	603.76
581.619	611.86
582.07	619.56
582.521	610.46
582.972	611.36
583.423	624.66
583.875	611.46
584.326	637.06
584.777	684.86
585.227	739.86
585.678	825.56
586.129	919.96
586.58	985.16
587.031	1071.46
587.482	1232.16
587.933	1388.16
588.384	1208.56
588.834	895.96
589.285	727.06
589.736	703.56
590.186	696.56
590.637	699.56
591.088	665.36
591.538	668.46
591.989	654.26
592.439	658.86
592.89	651.76
593.34	638.16
593.791	643.56
594.241	631.16
594.692	643.16
595.142	630.46
595.593	637.26
596.043	635.16
596.493	638.86
596.943	645.26
597.394	640.36
597.844	638.56
598.294	657.36
598.744	676.56
599.195	691.66
599.645	731.16
600.095	762.96
600.545	821.36
600.995	873.56
601.445	921.16
601.895	980.06
602.345	1022.46
602.795	1002.86
603.245	970.86
603.695	922.96
604.145	855.76
604.594	818.76
605.044	776.86
605.494	717.06
605.944	676.26
606.393	668.76
606.843	650.76
607.293	666.96
607.743	660.36
608.192	667.86
608.642	676.86
609.091	687.16
609.541	680.56
609.99	686.36
610.44	678.96
610.889	637.36
611.339	618.36
611.788	605.56
612.238	614.86
612.687	638.26
613.136	643.66
613.586	666.36
614.035	653.86
614.484	671.86
614.933	677.16
615.383	671.86
615.832	665.66
616.281	640.86
616.73	609.46
617.179	586.56
617.628	569.86
618.077	563.06
618.526	555.26
618.975	542.06
619.424	545.76
619.873	547.96
620.322	549.56
620.771	530.56
621.22	534.46
621.669	530.56
622.118	530.16
622.567	509.26
623.015	501.76
623.464	498.16
623.913	493.86
624.361	491.26
624.81	493.36
625.259	491.76
625.707	495.76
626.156	493.26
626.604	499.36
627.053	489.26
627.501	495.36
627.95	498.46
628.398	514.36
628.847	498.16
629.295	498.66
629.744	503.96
630.192	501.46
630.64	499.16
631.089	507.36
631.537	508.06
631.985	512.46
632.433	516.96
632.881	526.66
633.33	571.46
633.778	553.76
634.226	487.16
634.674	492.46
635.122	509.56
635.57	523.06
636.018	553.16
636.466	510.76
636.914	494.66
637.362	504.16
637.81	506.66
638.258	506.36
638.705	507.76
639.153	542.56
639.601	537.96
640.049	565.86
640.497	595.76
640.944	606.66
641.392	559.26
641.84	540.26
642.287	508.56
642.735	496.76
643.182	500.26
643.63	498.86
644.078	507.36
644.525	521.36
644.973	517.86
645.42	522.66
645.867	542.96
646.315	556.26
646.762	589.96
647.21	606.06
647.657	619.76
648.104	650.96
648.551	676.86
648.999	731.86
649.446	791.76
649.893	869.06
650.34	997.46
650.787	1203.16
651.234	1493.46
651.682	1949.16
652.129	2667.76
652.576	3847.06
653.023	5704.06
653.47	7838.56
653.917	9934.96
654.363	11629.86
654.81	13064.06
655.257	12402.96
655.704	8018.26
656.151	4723.36
656.598	3045.46
657.044	2151.16
657.491	1649.56
657.938	1317.66
658.385	1091.96
658.831	960.66
659.278	852.26
659.724	749.46
660.171	690.56
660.618	635.26
661.064	608.96
661.511	578.66
661.957	566.56
662.404	553.16
662.85	563.96
663.296	539.86
663.743	489.86
664.189	474.56
664.635	462.76
665.082	456.66
665.528	448.06
665.974	456.66
666.42	438.06
666.867	436.06
667.313	427.26
667.759	415.36
668.205	419.46
668.651	425.46
669.097	421.86
669.543	437.46
669.989	408.96
670.435	386.16
670.881	391.06
671.327	384.26
671.773	404.66
672.219	420.96
672.665	470.26
673.11	494.96
673.556	538.16
674.002	581.66
674.448	562.36
674.893	468.56
675.339	403.26
675.785	376.46
676.23	367.36
676.676	337.16
677.122	328.96
677.567	319.06
678.013	316.26
678.458	304.36
678.904	312.46
679.349	295.96
679.794	298.16
680.24	295.76
680.685	300.46
681.131	303.16
681.576	300.06
682.021	309.66
682.466	293.86
682.912	302.96
683.357	297.56
683.802	325.66
684.247	346.76
684.692	383.46
685.137	424.46
685.583	454.56
686.028	494.56
686.473	452.56
686.918	380.86
687.363	353.26
687.807	336.86
688.252	308.36
688.697	300.36
689.142	291.36
689.587	285.26
690.032	278.36
690.477	289.86
690.921	302.16
691.366	327.36
691.811	343.96
692.255	358.36
692.7	397.36
693.145	424.26
693.589	579.36
694.034	945.26
694.478	1307.56
694.923	1505.66
695.367	1981.26
695.812	1043.56
696.256	427.96
696.701	318.86
697.145	293.46
697.59	281.66
698.034	277.06
698.478	282.86
698.922	282.86
699.367	285.96
699.811	292.86
700.255	303.26
700.699	328.06
701.143	363.26
701.588	414.96
702.032	446.96
702.476	440.26
702.92	422.96
703.364	409.26
703.808	524.06
704.252	856.86
704.696	1229.86
705.14	1447.86
705.584	1864.16
706.027	926.36
706.471	443.66
706.915	339.06
707.359	297.76
707.803	278.26
708.246	267.76
708.69	275.46
709.134	261.26
709.577	265.26
710.021	279.56
710.465	264.76
710.908	258.76
711.352	251.16
711.795	267.66
712.239	296.46
712.682	329.06
713.126	358.76
713.569	406.56
714.012	314.16
714.456	275.06
714.899	255.16
715.342	233.76
715.786	230.36
716.229	228.36
716.672	216.86
717.115	209.66
717.558	218.36
718.002	223.16
718.445	221.46
718.888	244.66
719.331	242.36
719.774	261.96
720.217	259.36
720.66	243.76
721.103	224.26
721.546	213.46
721.989	213.26
722.432	201.26
722.874	203.36
723.317	195.06
723.76	202.36
724.203	214.86
724.645	266.76
725.088	370.96
725.531	490.56
725.974	558.76
726.416	470.26
726.859	265.06
727.301	210.76
727.744	203.36
728.187	198.46
728.629	201.96
729.071	208.76
729.514	220.66
729.956	223.76
730.399	241.06
730.841	241.66
731.283	231.36
731.726	226.16
732.168	217.26
732.61	227.96
733.053	240.76
733.495	265.76
733.937	295.46
734.379	332.76
734.821	359.06
735.263	447.96
735.705	693.86
736.148	1307.66
736.59	2177.76
737.032	2682.56
737.474	2167.76
737.916	691.66
738.357	363.46
738.799	272.66
739.241	254.36
739.683	236.76
740.125	245.66
740.567	248.86
741.008	269.36
741.45	263.06
741.892	259.36
742.334	297.96
742.775	299.26
743.217	295.36
743.658	223.96
744.1	214.06
744.542	217.96
744.983	261.76
745.425	296.86
745.866	300.46
746.307	248.06
746.749	234.06
747.19	275.16
747.632	375.36
748.073	708.96
748.514	1553.96
748.956	2437.86
749.397	3040.26
749.838	2528.06
750.279	2579.86
750.72	1288.86
751.162	462.36
751.603	278.26
752.044	213.16
752.485	183.76
752.926	180.16
753.367	171.26
753.808	159.16
754.249	165.36
754.69	159.36
755.131	151.36
755.572	159.56
756.013	146.16
756.453	154.06
756.894	159.66
757.335	159.66
757.776	166.06
758.216	167.66
758.657	167.66
759.098	168.06
759.538	189.66
759.979	217.36
760.42	303.96
760.86	575.16
761.301	1483.36
761.741	3684.76
762.182	5657.46
762.622	3981.66
763.063	1119.06
763.503	453.16
763.943	297.96
764.384	293.36
764.824	345.16
765.264	389.16
765.705	273.86
766.145	180.66
766.585	154.66
767.025	149.06
767.465	154.86
767.906	206.66
768.346	279.66
768.786	301.86
769.226	226.26
769.666	268.06
770.106	508.46
770.546	1262.56
770.986	2288.56
771.426	2076.76
771.866	675.26
772.306	276.96
772.745	175.86
773.185	149.96
773.625	144.16
774.065	141.46
774.505	165.96
774.944	257.16
775.384	575.96
775.824	1101.46
776.263	1080.56
776.703	452.86
777.142	195.26
777.582	136.96
778.021	113.56
778.461	118.76
778.9	123.06
779.34	109.26
779.779	96.16
780.219	92.06
780.658	93.26
781.097	97.86
781.537	93.46
781.976	92.16
782.415	93.76
782.855	89.46
783.294	97.86
783.733	95.16
784.172	92.96
784.611	89.86
785.05	89.56
785.489	92.86
785.928	104.06
786.367	101.56
786.806	101.56
787.245	105.16
787.684	112.16
788.123	122.76
788.562	107.46
789.001	110.16
789.44	103.76
789.879	98.16
790.317	93.86
790.756	106.56
791.195	103.26
791.634	122.76
792.072	173.76
792.511	293.66
792.95	819.26
793.388	1841.46
793.827	1711.76
794.265	583.76
794.704	236.06
795.142	154.46
795.581	126.56
796.019	114.86
796.458	110.76
796.896	105.96
797.334	108.66
797.773	132.26
798.211	186.86
798.649	360.46
799.087	849.76
799.526	1350.86
799.964	1709.36
800.402	1765.06
800.84	649.26
801.278	256.16
801.716	160.26
802.154	131.16
802.592	118.56
803.03	117.96
803.468	114.36
803.906	125.46
804.344	124.96
804.782	116.46
805.22	114.16
805.658	105.16
806.096	126.86
806.533	135.66
806.971	146.66
807.409	187.56
807.847	256.46
808.284	532.86
808.722	1545.26
809.16	2836.96
809.597	2630.76
810.035	4633.66
810.472	5134.26
810.91	1823.46
811.347	680.76
811.785	341.56
812.222	216.56
812.66	163.96
813.097	144.96
813.535	124.56
813.972	110.06
814.409	95.46
814.846	89.16
815.284	102.66
815.721	88.06
816.158	86.06
816.595	101.06
817.032	152.66
817.47	164.66
817.907	145.86
818.344	130.06
818.781	101.16
819.218	81.76
819.655	102.76
820.092	163.16
820.529	185.66
820.966	155.66
821.403	117.36
821.839	89.06
822.276	85.46
822.713	106.86
823.15	118.66
823.587	100.96
824.023	120.86
824.46	241.96
824.897	746.96
825.333	1187.36
825.77	504.56
826.206	195.76
826.643	115.46
827.08	91.56
827.516	71.76
827.953	61.06
828.389	65.76
828.825	58.86
829.262	59.06
829.698	47.56
830.135	51.86
830.571	48.26
831.007	51.76
831.443	57.46
831.88	54.56
832.316	50.36
832.752	53.76
833.188	52.56
833.624	54.56
834.06	52.36
834.497	51.36
834.933	62.86
835.369	62.36
835.805	56.86
836.241	66.26
836.677	68.46
837.112	80.96
837.548	87.96
837.984	110.46
838.42	162.96
838.856	403.66
839.292	1283.36
839.727	2010.26
840.163	929.96
840.599	759.36
841.034	1734.36
841.47	1883.16
841.906	668.06
842.341	279.26
842.777	194.66
843.212	281.46
843.648	280.76
844.083	139.16
844.519	84.06
844.954	65.86
845.39	51.06
845.825	53.16
846.261	52.26
846.696	50.36
847.131	37.36
847.566	50.76
848.002	48.56
848.437	49.16
848.872	49.16
849.307	54.06
849.742	70.66
850.177	146.96
850.613	462.96
851.048	772.26
851.483	334.06
851.918	134.26
852.353	74.76
852.788	41.96
853.223	49.56
853.657	52.36
854.092	38.46
854.527	36.56
854.962	36.06
855.397	37.06
855.832	45.06
856.266	32.56
856.701	32.46
857.136	30.26
857.57	37.16
858.005	43.96
858.44	57.86
858.874	40.56
859.309	46.76
859.743	33.76
860.178	38.16
860.612	33.56
861.047	48.46
861.481	58.96
861.915	59.66
862.35	41.16
862.784	22.36
863.218	33.96
863.653	31.56
864.087	44.96
864.521	40.06
864.955	57.36
865.39	131.46
865.824	148.76
866.258	100.26
866.692	138.46
867.126	157.06
867.56	92.76
867.994	45.86
868.428	35.96
868.862	41.56
869.296	49.86
869.73	44.96
870.164	49.36
870.598	43.86
871.031	32.56
871.465	24.76
871.899	30.86
872.333	17.66
872.766	26.46
873.2	14.16
873.634	26.86
874.067	24.86
874.501	22.16
874.935	28.96
875.368	20.76
875.802	25.06
876.235	22.06
876.669	20.96
877.102	17.86
877.535	24.96
877.969	19.46
878.402	19.96
878.836	15.26
879.269	19.86
879.702	24.06
880.135	17.36
880.569	19.36
881.002	26.96
881.435	18.46
881.868	14.96
882.301	21.56
882.734	10.16
883.167	14.86
883.601	13.26
884.034	14.96
884.467	7.96
884.899	12.66
885.332	19.86
885.765	12.56
886.198	9.56
886.631	16.96
887.064	16.26
887.497	23.46
887.929	22.66
888.362	13.46
888.795	12.96
889.228	21.46
889.66	18.56
890.093	19.16
890.526	15.16
890.958	17.06
891.391	16.16
891.823	24.46
892.256	16.46
892.688	8.16
893.121	16.66
893.553	12.86
893.985	18.16
894.418	16.76
894.85	15.06
895.282	16.46
895.715	10.66
896.147	10.86
896.579	11.16
897.011	13.26
897.444	14.06
897.876	13.56
898.308	14.36
898.74	12.76
899.172	10.46
899.604	21.56
900.036	21.76
900.468	15.06
900.9	8.66
901.332	13.26
901.764	14.26
902.196	13.86
902.628	14.26
903.06	13.56
903.491	23.66
903.923	18.16
904.355	18.16
904.787	27.76
905.218	22.56
905.65	19.16
906.082	10.06
906.513	10.36
906.945	13.96
907.376	12.96
907.808	17.76
908.239	20.96
908.671	21.46
909.102	14.66
909.534	20.96
909.965	40.76
910.397	78.76
910.828	267.36
911.259	415.56
911.691	189.86
912.122	92.76
912.553	43.96
912.984	22.96
913.415	19.96
913.847	22.46
914.278	14.06
914.709	12.86
915.14	11.46
915.571	17.06
916.002	9.16
916.433	17.26
916.864	14.16
917.295	11.66
917.726	14.86
918.157	12.96
918.587	29.06
919.018	20.76
919.449	21.06
919.88	16.86
920.311	25.06
920.741	40.06
921.172	144.76
921.603	130.76
922.033	63.96
922.464	42.06
922.895	21.96
923.325	19.56
923.756	14.76
924.186	15.26
924.617	23.36
925.047	33.16
925.478	47.76
925.908	40.26
926.338	18.46
926.769	15.66
927.199	22.86
927.629	7.56
928.06	11.16
928.49	15.26
928.92	6.66
929.35	8.56
929.78	9.76
930.21	3.06
930.641	7.16
931.071	5.86
931.501	1.66
931.931	7.16
932.361	4.86
932.791	0.56
933.221	-0.54
933.651	6.06
934.08	15.66
934.51	31.26
934.94	9.06
935.37	9.96
935.8	6.06
936.229	5.86
936.659	12.86
937.089	9.46
937.519	10.86
937.948	24.56
938.378	17.56
938.807	0.46
939.237	-0.74
939.666	7.06
940.096	-4.44
940.525	-1.64
940.955	2.26
941.384	3.26
941.814	-6.84
942.243	-1.54
942.672	2.86
943.102	-5.44
943.531	0.46
943.96	7.46
944.39	-0.44
944.819	-1.44
945.248	5.56
945.677	3.46
946.106	8.36
946.535	5.86
946.964	-1.74
947.393	4.46
947.822	0.46
948.251	-2.44
948.68	6.86
949.109	4.96
949.538	1.36
949.967	-2.64
950.396	-0.84
950.825	1.26
951.254	-3.74
951.682	-6.24
952.111	1.56
952.54	8.56
952.969	2.26
953.397	-1.04
953.826	-4.24
954.254	-9.54
954.683	3.46
955.112	3.36
955.54	-1.94
955.969	2.16
956.397	0.06
956.826	-7.64
957.254	-0.64
957.682	3.56
958.111	4.76
958.539	1.86
958.967	0.46
959.396	-3.94
959.824	4.86
960.252	3.56
960.68	-6.24
961.109	0.86
961.537	-2.34
961.965	-1.24
962.393	-3.14
962.821	-6.14
963.249	-3.04
963.677	-2.74
964.105	2.06
964.533	38.76
964.961	32.16
965.389	19.06
965.817	8.16
966.245	2.26
966.672	1.66
967.1	-6.44
967.528	-0.84
967.956	-1.64
968.383	-0.24
968.811	-4.84
969.239	4.76
969.666	-5.54
970.094	4.36
970.522	-4.64
970.949	-0.24
971.377	1.86
971.804	-5.64
972.232	0.76
972.659	-1.64
973.087	-0.54
973.514	-4.74
973.941	-6.94
974.369	2.86
974.796	0.46
975.223	2.46
975.651	-2.44
976.078	0.96
976.505	-2.94
976.932	1.86
977.359	8.76
977.786	12.16
978.214	1.36
978.641	-3.44
979.068	-4.94
979.495	-7.24
979.922	-1.94
980.349	-1.74
980.776	1.36
981.202	-1.74
981.629	-0.64
982.056	3.46
982.483	1.66
982.91	7.56
983.337	-8.34
983.763	3.86
984.19	-5.04
984.617	-1.84
985.043	-4.04
985.47	4.86
985.897	-4.34
986.323	-9.04
986.75	5.26
987.176	-4.04
987.603	-1.24
988.029	-1.24
988.456	0.46
988.882	1.86
989.308	-2.34
989.735	-3.44
990.161	-2.24
990.587	0.56
991.014	-1.44
991.44	1.96
991.866	-2.34
992.292	-0.84
992.719	-4.44
993.145	-0.74
993.571	-14.04
993.997	-0.24
994.423	-1.14
994.849	-5.14
995.275	1.86
995.701	2.06
996.127	-8.74
996.553	-1.84
996.979	-1.14
997.405	-2.54
997.83	-7.84
998.256	-6.64
998.682	-8.04
999.108	-6.94
999.534	-6.34
999.959	-2.44
1000.385	-2.64
1000.811	-1.04
1001.236	-9.04
1001.662	-7.24
1002.087	-7.24
1002.513	-5.34
1002.938	2.26
1003.364	-8.64
1003.789	-2.74
1004.215	1.36
1004.64	-0.64
1005.066	2.46
1005.491	-1.64
1005.916	-2.54
1006.342	-7.34
1006.767	-8.44
1007.192	3.76
1007.617	-7.94
1008.042	-7.34
1008.468	-1.24
1008.893	-7.94
1009.318	-2.24
1009.743	-1.74
1010.168	-1.84
1010.593	-0.04
1011.018	-11.94
1011.443	-3.44
1011.868	3.66
1012.293	-3.44
1012.718	-7.94
1013.143	-1.84
1013.567	5.36
1013.992	-0.24
1014.417	-15.14
1014.842	-3.54
1015.267	-3.54
1015.691	-1.04
1016.116	3.96
1016.541	-4.04
1016.965	5.46
1017.39	0.36
1017.814	3.06
1018.239	-1.14
1018.663	-4.94
1019.088	-6.64
1019.512	-3.44
1019.937	-1.14
1020.361	-5.04
1020.785	-12.94
1021.21	-0.74
1021.634	-6.84
1022.058	2.46
1022.483	6.26
1022.907	-9.64
1023.331	-9.64
1023.755	-3.44
1024.179	-2.14
1024.604	-7.24
1025.028	-10.74
1025.452	-2.74
1025.876	-7.24
1026.3	2.36
1026.724	-8.74
1027.148	-3.34
1027.572	-6.74
1027.996	-6.24
1028.42	-9.04
1028.843	-8.44
1029.267	-7.64
1029.691	-3.14
1030.115	-14.14
1030.539	-7.04
1030.962	-10.74
1031.386	-9.94
1031.81	3.26
1032.233	-2.34
1032.657	-4.34
1033.08	-4.24
1033.504	-10.04
1033.927	-3.34
1034.351	0.46
1034.774	0.46
1035.198	2.46
1035.621	-7.64
1036.045	-2.54
1036.468	7.86
1036.891	-7.24
1037.315	-5.94
1037.738	-11.84
1038.161	0.96
1038.584	-4.34
1039.008	1.56
1039.431	-2.44
1039.854	1.36
1040.277	-3.64
1040.7	-13.64
1041.123	-3.14
1041.546	-8.44
1041.969	-12.94
1042.392	-6.54
1042.815	-0.44
1043.238	1.06
1043.661	-0.34
1044.084	-8.94
1044.507	-1.14
1044.93	-2.74
1045.352	-3.64
1045.775	-3.64
1046.198	-2.64
1046.621	-4.04
1047.043	-2.94
1047.466	4.26
1047.889	-1.54
1048.311	-2.24
1048.734	-3.14
1049.156	-0.24
1049.579	-2.44
1050.001	-9.64
1050.424	-8.94
1050.846	-0.84
1051.269	0.76
1051.691	-9.34
1052.113	-3.24
1052.536	-2.74
1052.958	3.26
1053.38	-1.64
1053.802	-11.44
1054.225	-1.74
1054.647	-12.64
1055.069	4.76
1055.491	-0.64
1055.913	-3.44
1056.335	-2.84
1056.757	-5.14
1057.179	-13.04
1057.601	0.66
1058.023	-2.44
1058.445	-5.74
1058.867	-4.74
1059.289	-6.44
1059.711	-5.74
1060.133	-7.24
1060.555	-7.94
1060.976	-4.44
1061.398	-6.64
1061.82	-2.94
1062.241	-12.74
1062.663	-12.44
1063.085	-7.04
1063.506	-1.34
1063.928	-8.04
1064.35	-0.64
1064.771	-15.44
1065.193	-6.04
1065.614	-8.84
1066.035	0.76
1066.457	-6.04
1066.878	-2.34
1067.3	-6.74
1067.721	-3.34
1068.142	2.46
1068.564	-8.94
1068.985	-2.44
1069.406	-1.54
1069.827	-9.44
1070.248	1.06
1070.67	-10.84
1071.091	-0.84
1071.512	-2.94
1071.933	-6.94
1072.354	-14.94
1072.775	-1.74
1073.196	-9.44
1073.617	-2.54
1074.038	-6.94
1074.459	-5.54
1074.88	-3.64
1075.3	-3.34
1075.721	-1.84
1076.142	0.66
1076.563	-4.74
1076.983	-9.34
1077.404	-6.34
1077.825	-12.04
1078.246	-7.54
1078.666	-10.74
1079.087	-7.94
1079.507	-11.94
1079.928	1.56
1080.348	0.46
1080.769	-1.24
1081.189	2.06
1081.61	-2.64
1082.03	-11.04
1082.451	-4.74
1082.871	1.16
1083.291	-4.14
1083.711	-6.44
1084.132	-4.64
1084.552	-4.54
1084.972	0.26
1085.392	-4.24
1085.813	-5.24
1086.233	-6.94
1086.653	-7.54
1087.073	-5.54
1087.493	-6.84
1087.913	-4.24
1088.333	-11.64
1088.753	-2.34
1089.173	0.16
1089.593	-4.64
1090.013	0.86
1090.433	-1.04
1090.852	-2.24
1091.272	-4.24
1091.692	-3.24
1092.112	-1.24
1092.531	-9.54
1092.951	-14.24
1093.371	-2.14
1093.79	-3.14
1094.21	-5.74
1094.63	-2.34
1095.049	-9.34
1095.469	-4.64
1095.888	-2.84
1096.308	1.06
1096.727	5.66
1097.146	-5.74
1097.566	1.96
1097.985	-5.24
1098.405	-5.74
1098.824	-3.64
1099.243	-6.34
1099.662	-9.94
1100.082	-0.04
1100.501	-1.84
1100.92	-8.24
1101.339	-7.54
1101.758	-5.14
