Data from 20171114-ORNL-Ar_H_NY_Subt18_08-08-48-715.txt Node
Date: Tue Nov 14 08:08:48 EST 2017
User: Ender
Spectrometer: HR+D1039
Trigger mode: 0
Integration Time (sec): 2.730000E-2
Scans to average: 10
Electric dark correction enabled: true
Nonlinearity correction enabled: false
Boxcar width: 0
XAxis mode: Wavelengths
Number of Pixels in Spectrum: 2048
>>>>>Begin Spectral Data<<<<<
187.836	-3.74
188.309	-3.74
188.782	-3.74
189.255	7.86
189.728	-1.04
190.201	3.46
190.674	-3.44
191.147	5.06
191.619	-6.14
192.092	1.86
192.565	4.16
193.038	0.46
193.511	-0.34
193.984	0.06
194.456	-5.14
194.929	-2.34
195.402	4.56
195.874	-5.34
196.347	-2.64
196.82	-8.14
197.292	3.46
197.765	-2.14
198.237	-3.84
198.71	0.56
199.182	-1.34
199.655	1.76
200.127	2.26
200.6	-2.74
201.072	-2.34
201.544	-7.24
202.017	-4.44
202.489	3.76
202.961	-3.84
203.433	-2.64
203.906	-6.14
204.378	-10.74
204.85	-10.54
205.322	-15.04
205.794	-9.54
206.266	-8.34
206.739	-11.84
207.211	0.56
207.683	-8.64
208.155	-6.84
208.627	-8.94
209.099	-4.74
209.57	-10.84
210.042	-2.04
210.514	-5.14
210.986	-7.24
211.458	-11.24
211.93	-8.64
212.402	1.26
212.873	-3.54
213.345	-4.74
213.817	-11.74
214.288	-3.24
214.76	-9.84
215.232	-3.04
215.703	-2.44
216.175	-11.04
216.646	-9.34
217.118	-9.84
217.589	-0.34
218.061	-5.04
218.532	-11.74
219.004	-3.84
219.475	-2.74
219.946	-5.44
220.418	-4.84
220.889	-1.44
221.36	-2.34
221.832	-7.44
222.303	-11.84
222.774	-7.54
223.245	-9.44
223.717	-9.34
224.188	-6.74
224.659	-6.54
225.13	-10.14
225.601	-6.94
226.072	-0.04
226.543	-3.54
227.014	-3.04
227.485	-6.04
227.956	-9.54
228.427	-7.04
228.898	-3.74
229.369	1.96
229.839	-4.74
230.31	-10.84
230.781	-0.04
231.252	-7.24
231.722	-8.44
232.193	-4.14
232.664	-3.64
233.135	1.46
233.605	-4.94
234.076	-11.64
234.546	-4.84
235.017	-1.94
235.487	0.26
235.958	-4.44
236.428	-8.94
236.899	-1.14
237.369	-4.74
237.84	-6.14
238.31	0.36
238.78	-6.34
239.251	-10.14
239.721	-3.44
240.191	-4.14
240.662	-6.04
241.132	-8.04
241.602	-7.54
242.072	-8.64
242.542	5.06
243.013	-2.74
243.483	-0.44
243.953	0.56
244.423	-7.74
244.893	-7.84
245.363	0.36
245.833	-2.54
246.303	-10.64
246.773	-0.24
247.243	-4.94
247.712	-1.34
248.182	5.56
248.652	-0.14
249.122	-4.34
249.592	4.46
250.061	8.06
250.531	14.66
251.001	-1.14
251.471	5.36
251.94	10.76
252.41	-1.64
252.879	-7.64
253.349	2.66
253.818	7.56
254.288	0.16
254.757	-4.14
255.227	-1.04
255.696	0.36
256.166	1.36
256.635	-4.04
257.105	2.46
257.574	2.66
258.043	0.96
258.513	-2.34
258.982	7.36
259.451	-3.24
259.92	8.56
260.389	1.36
260.859	9.16
261.328	-1.34
261.797	6.96
262.266	-1.64
262.735	4.06
263.204	1.46
263.673	-6.24
264.142	0.96
264.611	-8.04
265.08	2.46
265.549	-7.54
266.018	4.46
266.487	-6.24
266.955	-7.44
267.424	-7.24
267.893	-0.04
268.362	-0.44
268.83	0.66
269.299	9.36
269.768	2.66
270.236	4.96
270.705	-0.94
271.174	1.56
271.642	0.06
272.111	0.96
272.579	7.56
273.048	11.06
273.516	2.76
273.985	7.66
274.453	6.06
274.922	4.86
275.39	0.36
275.858	0.36
276.327	4.26
276.795	8.16
277.263	1.06
277.731	13.96
278.2	21.86
278.668	22.46
279.136	17.96
279.604	10.36
280.072	5.36
280.54	2.76
281.008	-3.84
281.477	8.96
281.945	8.06
282.413	10.06
282.881	10.76
283.348	3.46
283.816	6.26
284.284	10.46
284.752	9.96
285.22	5.86
285.688	4.56
286.156	7.16
286.623	21.46
287.091	24.26
287.559	10.26
288.026	9.56
288.494	8.26
288.962	-1.84
289.429	-2.04
289.897	9.26
290.364	7.66
290.832	8.16
291.3	8.66
291.767	8.56
292.234	12.16
292.702	10.06
293.169	11.46
293.637	16.36
294.104	12.96
294.571	-4.24
295.039	4.86
295.506	5.26
295.973	11.46
296.44	11.46
296.908	11.16
297.375	9.56
297.842	13.16
298.309	0.46
298.776	2.16
299.243	15.06
299.71	7.16
300.177	10.06
300.644	16.46
301.111	6.76
301.578	15.96
302.045	8.96
302.512	18.26
302.979	15.36
303.446	10.36
303.913	9.26
304.379	10.36
304.846	16.76
305.313	17.76
305.78	12.96
306.246	18.46
306.713	16.86
307.18	15.06
307.646	18.06
308.113	18.86
308.579	16.56
309.046	19.26
309.512	20.36
309.979	10.86
310.445	14.66
310.912	21.46
311.378	18.26
311.845	22.16
312.311	23.46
312.777	22.26
313.244	27.76
313.71	26.56
314.176	20.36
314.642	22.56
315.109	20.86
315.575	21.46
316.041	29.46
316.507	20.46
316.973	26.26
317.439	27.36
317.905	24.06
318.371	26.06
318.837	21.56
319.303	24.96
319.769	24.86
320.235	19.96
320.701	23.46
321.167	26.86
321.633	18.96
322.099	29.26
322.564	29.66
323.03	20.66
323.496	29.36
323.962	27.06
324.427	22.46
324.893	29.26
325.359	27.56
325.824	22.86
326.29	27.46
326.755	36.46
327.221	28.86
327.686	30.06
328.152	33.16
328.617	35.56
329.083	36.56
329.548	38.96
330.014	35.36
330.479	36.16
330.944	36.26
331.41	28.26
331.875	33.46
332.34	31.96
332.805	35.16
333.271	34.46
333.736	30.96
334.201	40.46
334.666	34.76
335.131	39.46
335.596	35.16
336.061	32.26
336.526	27.76
336.991	34.16
337.456	43.86
337.921	41.46
338.386	31.26
338.851	32.96
339.316	37.66
339.781	40.66
340.246	41.26
340.711	39.26
341.175	39.76
341.64	29.26
342.105	37.66
342.569	46.76
343.034	49.76
343.499	42.26
343.963	39.56
344.428	46.76
344.893	46.56
345.357	47.06
345.822	45.76
346.286	48.66
346.751	52.66
347.215	51.96
347.679	57.36
348.144	77.56
348.608	70.26
349.073	52.86
349.537	62.86
350.001	56.06
350.465	67.66
350.93	63.06
351.394	64.06
351.858	58.56
352.322	68.86
352.786	72.16
353.25	84.86
353.715	88.26
354.179	84.86
354.643	98.56
355.107	96.06
355.571	85.36
356.035	78.66
356.498	94.36
356.962	93.86
357.426	111.46
357.89	95.36
358.354	72.96
358.818	64.86
359.281	62.76
359.745	64.96
360.209	61.76
360.673	62.56
361.136	70.16
361.6	66.66
362.064	67.46
362.527	70.06
362.991	74.26
363.454	70.46
363.918	66.56
364.381	68.26
364.845	71.06
365.308	79.96
365.772	74.86
366.235	67.66
366.698	70.36
367.162	74.36
367.625	71.26
368.088	79.96
368.552	74.36
369.015	74.76
369.478	80.06
369.941	83.96
370.404	78.46
370.867	87.26
371.331	86.16
371.794	95.96
372.257	83.96
372.72	99.26
373.183	88.66
373.646	83.66
374.109	84.96
374.572	89.26
375.035	87.96
375.497	97.06
375.96	94.16
376.423	88.56
376.886	97.96
377.349	97.06
377.811	88.86
378.274	89.26
378.737	90.76
379.199	94.26
379.662	101.56
380.125	97.26
380.587	94.86
381.05	101.66
381.512	110.26
381.975	122.06
382.437	110.06
382.9	106.46
383.362	114.16
383.825	126.86
384.287	122.76
384.75	114.46
385.212	116.56
385.674	122.36
386.136	122.06
386.599	113.86
387.061	115.16
387.523	109.86
387.985	120.46
388.447	118.66
388.91	121.36
389.372	123.16
389.834	130.16
390.296	125.36
390.758	124.36
391.22	137.66
391.682	159.96
392.144	203.56
392.606	168.06
393.068	139.76
393.529	149.56
393.991	134.66
394.453	128.66
394.915	132.76
395.377	147.56
395.838	160.16
396.3	127.66
396.762	135.06
397.224	129.56
397.685	116.16
398.147	123.36
398.608	123.66
399.07	119.46
399.531	126.16
399.993	128.66
400.454	144.26
400.916	128.46
401.377	138.66
401.839	144.16
402.3	137.36
402.762	152.56
403.223	168.06
403.684	161.56
404.145	152.56
404.607	148.66
405.068	151.26
405.529	147.36
405.99	172.76
406.451	159.16
406.913	160.96
407.374	157.36
407.835	154.46
408.296	153.36
408.757	164.76
409.218	172.06
409.679	167.36
410.14	157.56
410.601	164.56
411.062	161.56
411.522	169.16
411.983	169.66
412.444	169.56
412.905	172.06
413.366	177.56
413.826	187.56
414.287	211.26
414.748	248.16
415.208	233.16
415.669	204.76
416.13	197.56
416.59	193.06
417.051	206.36
417.511	216.46
417.972	229.36
418.432	232.86
418.893	276.66
419.353	240.76
419.814	188.16
420.274	180.86
420.734	180.36
421.195	189.86
421.655	183.76
422.115	178.76
422.576	181.06
423.036	194.06
423.496	200.16
423.956	207.86
424.416	214.86
424.876	255.96
425.336	251.06
425.797	248.06
426.257	239.26
426.717	229.16
427.177	220.86
427.637	204.56
428.097	218.06
428.556	229.36
429.016	261.76
429.476	246.36
429.936	251.96
430.396	261.36
430.856	273.36
431.315	297.56
431.775	333.36
432.235	359.56
432.694	324.76
433.154	344.06
433.614	371.16
434.073	321.76
434.533	272.96
434.993	252.16
435.452	268.86
435.912	277.26
436.371	271.06
436.83	262.26
437.29	248.16
437.749	242.76
438.209	236.16
438.668	257.46
439.127	274.36
439.587	250.16
440.046	236.26
440.505	248.06
440.964	261.56
441.424	305.16
441.883	296.26
442.342	250.46
442.801	219.16
443.26	213.16
443.719	218.66
444.178	216.66
444.637	204.36
445.096	216.66
445.555	212.66
446.014	220.26
446.473	219.46
446.932	223.96
447.391	218.96
447.849	221.76
448.308	221.66
448.767	221.46
449.226	226.46
449.685	235.26
450.143	246.66
450.602	230.66
451.061	222.96
451.519	237.06
451.978	226.36
452.436	223.46
452.895	238.36
453.353	245.86
453.812	235.26
454.27	233.86
454.729	238.06
455.187	238.86
455.646	235.56
456.104	246.16
456.562	254.96
457.021	263.46
457.479	248.46
457.937	260.96
458.395	257.76
458.854	241.66
459.312	249.36
459.77	266.26
460.228	252.46
460.686	234.56
461.144	243.96
461.602	241.46
462.06	238.76
462.518	249.06
462.976	249.66
463.434	264.16
463.892	257.26
464.35	270.76
464.808	278.96
465.266	260.46
465.724	259.36
466.181	276.46
466.639	269.96
467.097	284.46
467.555	294.56
468.012	300.36
468.47	301.36
468.928	326.46
469.385	335.06
469.843	335.46
470.3	339.16
470.758	353.26
471.215	378.86
471.673	397.66
472.13	402.36
472.588	416.06
473.045	371.66
473.503	377.46
473.96	392.76
474.417	396.16
474.875	415.06
475.332	459.06
475.789	447.96
476.246	461.36
476.704	474.96
477.161	492.66
477.618	509.16
478.075	542.46
478.532	601.06
478.989	660.16
479.446	773.76
479.903	734.96
480.36	771.76
480.817	818.66
481.274	918.96
481.731	993.96
482.188	1076.36
482.645	1210.26
483.102	1297.66
483.558	1429.96
484.015	1461.76
484.472	1437.26
484.929	1393.86
485.385	1338.16
485.842	1303.46
486.299	1264.86
486.755	1224.16
487.212	1028.46
487.668	876.46
488.125	816.86
488.582	743.86
489.038	725.76
489.494	688.46
489.951	662.56
490.407	641.46
490.864	628.16
491.32	626.46
491.776	628.16
492.233	627.86
492.689	611.16
493.145	595.26
493.602	588.56
494.058	602.86
494.514	608.06
494.97	618.26
495.426	640.96
495.882	608.36
496.338	605.56
496.794	609.26
497.251	592.76
497.707	612.36
498.163	623.16
498.618	620.36
499.074	624.96
499.53	653.66
499.986	658.26
500.442	633.86
500.898	612.96
501.354	605.56
501.809	611.66
502.265	627.46
502.721	636.06
503.177	642.76
503.632	647.06
504.088	646.06
504.543	681.56
504.999	682.06
505.455	647.96
505.91	619.26
506.366	627.36
506.821	615.06
507.277	617.76
507.732	623.06
508.187	611.46
508.643	616.96
509.098	628.86
509.553	649.16
510.009	660.36
510.464	658.46
510.919	683.26
511.375	689.26
511.83	694.76
512.285	716.26
512.74	747.36
513.195	766.86
513.65	753.16
514.105	748.56
514.56	759.76
515.015	774.66
515.47	785.16
515.925	772.56
516.38	762.56
516.835	776.46
517.29	766.06
517.745	773.66
518.2	754.26
518.655	736.66
519.109	730.96
519.564	730.16
520.019	716.46
520.474	715.16
520.928	714.56
521.383	710.16
521.838	701.86
522.292	696.36
522.747	701.36
523.201	695.56
523.656	680.86
524.11	681.46
524.565	694.16
525.019	684.56
525.474	697.16
525.928	686.56
526.382	685.46
526.837	695.26
527.291	689.66
527.745	685.46
528.2	691.46
528.654	685.26
529.108	691.56
529.562	685.56
530.016	678.26
530.47	680.66
530.925	680.66
531.379	689.66
531.833	696.46
532.287	693.36
532.741	690.76
533.195	696.96
533.649	709.26
534.103	711.76
534.556	708.16
535.01	700.36
535.464	698.76
535.918	698.36
536.372	715.16
536.826	706.56
537.279	698.36
537.733	706.66
538.187	699.26
538.64	699.76
539.094	715.26
539.548	715.76
540.001	711.66
540.455	718.16
540.908	723.66
541.362	723.16
541.815	735.16
542.269	756.66
542.722	760.56
543.175	758.96
543.629	763.36
544.082	783.16
544.536	786.96
544.989	772.36
545.442	789.56
545.895	775.76
546.349	789.26
546.802	784.06
547.255	801.56
547.708	809.96
548.161	811.66
548.614	819.06
549.067	821.26
549.52	811.86
549.973	805.16
550.426	800.86
550.879	786.56
551.332	796.26
551.785	792.96
552.238	799.26
552.691	812.36
553.144	827.96
553.596	835.96
554.049	859.86
554.502	887.16
554.955	888.46
555.407	899.66
555.86	902.36
556.313	881.86
556.765	870.06
557.218	871.06
557.67	878.86
558.123	859.36
558.576	865.96
559.028	867.76
559.48	870.96
559.933	872.66
560.385	840.86
560.838	809.06
561.29	789.36
561.742	786.46
562.195	766.26
562.647	763.56
563.099	771.76
563.551	772.56
564.004	780.66
564.456	768.06
564.908	747.86
565.36	739.06
565.812	720.66
566.264	726.36
566.716	721.46
567.168	696.26
567.62	711.36
568.072	700.06
568.524	696.46
568.976	688.76
569.428	679.76
569.88	679.56
570.332	682.66
570.784	681.16
571.235	682.56
571.687	692.36
572.139	699.76
572.59	712.26
573.042	703.26
573.494	714.86
573.945	706.16
574.397	676.96
574.849	688.66
575.3	681.66
575.752	676.26
576.203	674.16
576.655	685.56
577.106	677.56
577.557	666.06
578.009	660.76
578.46	670.76
578.912	662.66
579.363	660.46
579.814	664.76
580.265	658.86
580.717	670.56
581.168	671.76
581.619	674.16
582.07	681.06
582.521	678.66
582.972	673.46
583.423	676.96
583.875	682.76
584.326	688.46
584.777	722.76
585.227	762.36
585.678	808.56
586.129	849.36
586.58	898.26
587.031	953.06
587.482	1026.76
587.933	1139.26
588.384	1034.06
588.834	876.56
589.285	785.66
589.736	778.76
590.186	775.66
590.637	766.06
591.088	748.56
591.538	741.46
591.989	732.36
592.439	723.66
592.89	722.26
593.34	711.76
593.791	710.86
594.241	692.16
594.692	703.76
595.142	706.16
595.593	699.96
596.043	704.96
596.493	711.66
596.943	707.86
597.394	718.46
597.844	719.66
598.294	732.86
598.744	752.56
599.195	792.36
599.645	828.96
600.095	865.86
600.545	920.96
600.995	977.76
601.445	1023.06
601.895	1108.86
602.345	1137.86
602.795	1113.26
603.245	1062.56
603.695	1015.36
604.145	959.06
604.594	921.26
605.044	861.46
605.494	799.86
605.944	751.76
606.393	749.06
606.843	724.66
607.293	721.46
607.743	732.36
608.192	740.66
608.642	756.36
609.091	763.76
609.541	771.36
609.99	766.76
610.44	768.96
610.889	724.96
611.339	696.96
611.788	687.86
612.238	698.76
612.687	715.66
613.136	712.86
613.586	724.06
614.035	709.96
614.484	735.56
614.933	725.56
615.383	729.36
615.832	724.26
616.281	714.36
616.73	682.26
617.179	661.76
617.628	649.36
618.077	641.76
618.526	621.86
618.975	612.16
619.424	617.56
619.873	612.06
620.322	628.16
620.771	611.06
621.22	606.96
621.669	596.36
622.118	594.06
622.567	589.56
623.015	570.76
623.464	575.76
623.913	560.06
624.361	565.76
624.81	553.36
625.259	559.26
625.707	562.76
626.156	548.66
626.604	565.16
627.053	570.76
627.501	571.46
627.95	576.46
628.398	577.36
628.847	571.86
629.295	572.06
629.744	580.36
630.192	583.26
630.64	561.76
631.089	561.86
631.537	561.86
631.985	557.26
632.433	573.26
632.881	573.56
633.33	596.96
633.778	575.26
634.226	552.26
634.674	554.16
635.122	557.96
635.57	573.46
636.018	589.36
636.466	576.46
636.914	560.46
637.362	571.56
637.81	579.46
638.258	594.46
638.705	592.96
639.153	623.06
639.601	627.96
640.049	649.16
640.497	680.86
640.944	707.16
641.392	644.26
641.84	613.76
642.287	589.96
642.735	571.36
643.182	568.26
643.63	562.56
644.078	574.66
644.525	580.86
644.973	590.76
645.42	589.96
645.867	612.56
646.315	636.76
646.762	654.76
647.21	691.16
647.657	715.36
648.104	742.66
648.551	765.76
648.999	826.06
649.446	904.06
649.893	988.56
650.34	1138.46
650.787	1363.96
651.234	1682.26
651.682	2187.96
652.129	2979.26
652.576	4257.16
653.023	6184.26
653.47	8406.26
653.917	10371.86
654.363	11883.36
654.81	13050.16
655.257	12395.46
655.704	8184.86
656.151	4892.76
656.598	3200.76
657.044	2282.56
657.491	1779.36
657.938	1437.86
658.385	1205.06
658.831	1049.26
659.278	943.26
659.724	828.56
660.171	780.36
660.618	723.36
661.064	683.96
661.511	666.86
661.957	652.26
662.404	635.26
662.85	643.56
663.296	613.96
663.743	561.56
664.189	539.96
664.635	534.86
665.082	531.46
665.528	535.46
665.974	522.36
666.42	510.36
666.867	511.86
667.313	489.16
667.759	473.76
668.205	471.36
668.651	463.56
669.097	468.46
669.543	473.36
669.989	447.76
670.435	449.46
670.881	444.36
671.327	454.56
671.773	471.66
672.219	499.16
672.665	550.06
673.11	604.06
673.556	643.46
674.002	682.56
674.448	665.96
674.893	551.66
675.339	481.86
675.785	449.36
676.23	419.26
676.676	398.96
677.122	389.16
677.567	379.06
678.013	370.76
678.458	360.36
678.904	366.66
679.349	359.16
679.794	361.66
680.24	355.66
680.685	360.26
681.131	355.96
681.576	349.56
682.021	357.16
682.466	351.86
682.912	354.36
683.357	363.76
683.802	389.56
684.247	421.26
684.692	462.26
685.137	502.76
685.583	549.06
686.028	566.06
686.473	525.16
686.918	442.76
687.363	425.06
687.807	400.16
688.252	370.66
688.697	352.06
689.142	343.86
689.587	331.66
690.032	324.26
690.477	342.86
690.921	357.86
691.366	390.46
691.811	405.46
692.255	438.16
692.7	466.66
693.145	530.36
693.589	734.66
694.034	1186.76
694.478	1596.76
694.923	1751.26
695.367	2298.16
695.812	1210.56
696.256	514.46
696.701	378.06
697.145	346.36
697.59	331.96
698.034	321.66
698.478	333.96
698.922	329.06
699.367	335.46
699.811	339.06
700.255	368.46
700.699	389.96
701.143	435.06
701.588	487.56
702.032	522.26
702.476	529.46
702.92	496.26
703.364	505.96
703.808	682.36
704.252	1104.86
704.696	1511.56
705.14	1701.86
705.584	2153.66
706.027	1093.76
706.471	527.26
706.915	407.76
707.359	358.16
707.803	329.96
708.246	310.76
708.69	321.46
709.134	321.56
709.577	316.46
710.021	320.96
710.465	320.56
710.908	307.36
711.352	302.76
711.795	322.36
712.239	368.76
712.682	394.96
713.126	421.16
713.569	473.16
714.012	369.16
714.456	316.86
714.899	288.46
715.342	281.76
715.786	263.26
716.229	266.46
716.672	259.76
717.115	250.36
717.558	249.06
718.002	257.46
718.445	258.96
718.888	288.36
719.331	303.06
719.774	310.36
720.217	304.06
720.66	294.66
721.103	273.16
721.546	258.06
721.989	252.16
722.432	232.86
722.874	236.96
723.317	235.46
723.76	240.76
724.203	261.76
724.645	325.16
725.088	455.26
725.531	589.96
725.974	652.16
726.416	557.96
726.859	306.36
727.301	250.36
727.744	244.06
728.187	235.76
728.629	243.76
729.071	251.86
729.514	265.26
729.956	275.96
730.399	293.36
730.841	291.86
731.283	289.66
731.726	272.36
732.168	264.56
732.61	273.66
733.053	292.26
733.495	321.46
733.937	368.96
734.379	407.06
734.821	453.46
735.263	567.96
735.705	891.66
736.148	1686.66
736.59	2690.66
737.032	3083.46
737.474	2522.46
737.916	833.26
738.357	437.46
738.799	331.76
739.241	312.56
739.683	289.86
740.125	296.16
740.567	307.66
741.008	322.06
741.45	319.26
741.892	323.96
742.334	362.06
742.775	363.56
743.217	354.76
743.658	273.26
744.1	263.16
744.542	274.96
744.983	317.56
745.425	350.76
745.866	347.96
746.307	290.86
746.749	292.26
747.19	338.16
747.632	483.76
748.073	955.16
748.514	1991.06
748.956	2942.06
749.397	3710.26
749.838	3070.56
750.279	3012.86
750.72	1539.16
751.162	567.86
751.603	323.66
752.044	249.76
752.485	228.06
752.926	211.96
753.367	211.86
753.808	196.96
754.249	192.56
754.69	190.26
755.131	188.16
755.572	185.36
756.013	179.16
756.453	179.76
756.894	194.16
757.335	200.56
757.776	202.26
758.216	202.36
758.657	203.06
759.098	208.46
759.538	232.96
759.979	282.36
760.42	388.56
760.86	764.76
761.301	1991.26
761.741	4697.76
762.182	6489.26
762.622	4607.16
763.063	1356.36
763.503	552.76
763.943	338.96
764.384	306.96
764.824	319.16
765.264	325.96
765.705	253.66
766.145	194.66
766.585	173.16
767.025	176.86
767.465	178.46
767.906	212.76
768.346	244.86
768.786	270.56
769.226	239.26
769.666	327.46
770.106	674.76
770.546	1659.66
770.986	2693.36
771.426	2389.66
771.866	819.96
772.306	337.96
772.745	200.86
773.185	176.16
773.625	166.16
774.065	162.66
774.505	173.16
774.944	252.06
775.384	504.96
775.824	826.06
776.263	786.06
776.703	370.76
777.142	191.76
777.582	148.76
778.021	124.96
778.461	129.46
778.9	127.96
779.34	128.66
779.779	118.46
780.219	110.46
780.658	111.46
781.097	107.06
781.537	108.96
781.976	114.66
782.415	107.06
782.855	99.86
783.294	104.46
783.733	105.26
784.172	108.76
784.611	107.96
785.05	115.66
785.489	114.46
785.928	116.96
786.367	120.16
786.806	120.46
787.245	131.36
787.684	144.06
788.123	152.36
788.562	135.46
789.001	125.16
789.44	118.36
789.879	116.86
790.317	124.86
790.756	133.26
791.195	130.46
791.634	157.16
792.072	215.06
792.511	396.96
792.95	1082.96
793.388	2183.36
793.827	1918.56
794.265	698.16
794.704	299.66
795.142	188.16
795.581	156.56
796.019	136.66
796.458	127.76
796.896	125.66
797.334	141.66
797.773	160.06
798.211	229.96
798.649	468.46
799.087	1068.26
799.526	1670.86
799.964	2091.36
800.402	2032.26
800.84	775.26
801.278	316.26
801.716	195.76
802.154	160.76
802.592	147.46
803.03	140.86
803.468	134.36
803.906	141.56
804.344	161.26
804.782	142.26
805.22	139.26
805.658	133.56
806.096	152.56
806.533	157.16
806.971	183.16
807.409	232.46
807.847	337.56
808.284	723.56
808.722	1984.96
809.16	3356.16
809.597	3333.86
810.035	5630.06
810.472	5797.66
810.91	2130.96
811.347	822.96
811.785	416.76
812.222	266.56
812.66	201.06
813.097	167.26
813.535	140.06
813.972	132.26
814.409	121.26
814.846	107.86
815.284	107.86
815.721	99.06
816.158	109.76
816.595	115.76
817.032	173.06
817.47	186.16
817.907	145.16
818.344	121.26
818.781	101.36
819.218	95.66
819.655	133.86
820.092	190.76
820.529	211.46
820.966	174.66
821.403	129.06
821.839	103.86
822.276	106.36
822.713	126.46
823.15	146.56
823.587	121.96
824.023	152.56
824.46	329.36
824.897	944.66
825.333	1371.66
825.77	589.96
826.206	235.36
826.643	146.36
827.08	100.26
827.516	85.96
827.953	79.46
828.389	79.76
828.825	77.36
829.262	66.66
829.698	65.36
830.135	62.66
830.571	63.66
831.007	59.76
831.443	63.56
831.88	63.66
832.316	62.06
832.752	65.66
833.188	65.76
833.624	65.26
834.06	67.36
834.497	68.96
834.933	64.96
835.369	81.06
835.805	73.56
836.241	73.16
836.677	85.26
837.112	92.16
837.548	109.36
837.984	136.96
838.42	214.16
838.856	537.26
839.292	1604.86
839.727	2336.36
840.163	1104.26
840.599	990.46
841.034	2131.26
841.47	2138.56
841.906	794.46
842.341	346.36
842.777	216.96
843.212	250.06
843.648	232.66
844.083	121.16
844.519	91.26
844.954	76.76
845.39	58.66
845.825	56.76
846.261	61.96
846.696	52.16
847.131	53.06
847.566	57.86
848.002	46.86
848.437	55.46
848.872	57.46
849.307	64.86
849.742	89.16
850.177	195.36
850.613	579.76
851.048	896.36
851.483	391.56
851.918	152.36
852.353	90.06
852.788	56.96
853.223	55.86
853.657	49.96
854.092	49.96
854.527	37.46
854.962	42.96
855.397	43.86
855.832	47.16
856.266	41.26
856.701	42.86
857.136	39.36
857.57	42.46
858.005	59.06
858.44	55.46
858.874	42.26
859.309	55.86
859.743	37.96
860.178	45.66
860.612	42.96
861.047	54.66
861.481	74.76
861.915	74.06
862.35	49.76
862.784	32.16
863.218	32.76
863.653	30.16
864.087	45.06
864.521	57.16
864.955	77.16
865.39	162.16
865.824	175.56
866.258	121.26
866.692	176.76
867.126	181.36
867.56	109.56
867.994	53.36
868.428	37.26
868.862	50.56
869.296	53.96
869.73	61.86
870.164	54.46
870.598	53.66
871.031	34.26
871.465	35.96
871.899	31.46
872.333	18.96
872.766	20.16
873.2	25.76
873.634	25.76
874.067	26.86
874.501	31.36
874.935	36.16
875.368	28.16
875.802	28.06
876.235	18.56
876.669	16.66
877.102	24.86
877.535	23.46
877.969	24.36
878.402	27.46
878.836	17.76
879.269	25.96
879.702	23.46
880.135	16.46
880.569	22.46
881.002	17.16
881.435	24.26
881.868	12.36
882.301	19.76
882.734	12.96
883.167	21.76
883.601	14.16
884.034	25.36
884.467	17.26
884.899	19.96
885.332	14.96
885.765	10.36
886.198	13.46
886.631	15.76
887.064	17.46
887.497	20.96
887.929	23.46
888.362	9.56
888.795	11.96
889.228	14.26
889.66	21.36
890.093	17.56
890.526	17.36
890.958	16.76
891.391	13.06
891.823	19.76
892.256	18.06
892.688	18.06
893.121	15.26
893.553	21.96
893.985	25.66
894.418	28.06
894.85	11.76
895.282	17.26
895.715	21.66
896.147	13.76
896.579	13.26
897.011	7.96
897.444	16.66
897.876	5.56
898.308	15.96
898.74	9.86
899.172	10.46
899.604	19.66
900.036	21.06
900.468	10.86
900.9	9.56
901.332	16.16
901.764	14.96
902.196	16.66
902.628	17.56
903.06	18.16
903.491	29.06
903.923	17.86
904.355	20.86
904.787	21.16
905.218	19.56
905.65	21.56
906.082	12.06
906.513	6.16
906.945	14.26
907.376	16.26
907.808	21.06
908.239	21.96
908.671	20.66
909.102	21.66
909.534	21.16
909.965	44.46
910.397	97.16
910.828	323.26
911.259	475.36
911.691	221.06
912.122	111.26
912.553	52.06
912.984	33.36
913.415	23.16
913.847	22.46
914.278	6.96
914.709	15.66
915.14	16.76
915.571	15.16
916.002	10.86
916.433	16.16
916.864	14.56
917.295	19.06
917.726	17.76
918.157	12.96
918.587	27.56
919.018	19.76
919.449	16.96
919.88	26.46
920.311	38.26
920.741	46.96
921.172	173.06
921.603	155.46
922.033	70.86
922.464	49.76
922.895	20.96
923.325	19.26
923.756	10.16
924.186	11.46
924.617	18.56
925.047	23.56
925.478	33.66
925.908	28.26
926.338	17.46
926.769	18.86
927.199	21.56
927.629	4.36
928.06	11.76
928.49	9.16
928.92	15.86
929.35	5.06
929.78	11.76
930.21	6.26
930.641	3.86
931.071	5.16
931.501	1.96
931.931	8.96
932.361	6.46
932.791	5.36
933.221	2.16
933.651	0.46
934.08	14.76
934.51	25.66
934.94	9.26
935.37	10.16
935.8	13.46
936.229	-3.24
936.659	13.36
937.089	2.06
937.519	9.76
937.948	21.06
938.378	19.66
938.807	7.86
939.237	5.46
939.666	7.66
940.096	-5.24
940.525	-2.24
940.955	-3.54
941.384	8.26
941.814	-4.64
942.243	-4.04
942.672	-0.54
943.102	-3.94
943.531	-1.44
943.96	4.36
944.39	5.96
944.819	3.86
945.248	2.26
945.677	3.06
946.106	1.36
946.535	-1.14
946.964	-0.14
947.393	8.46
947.822	-2.64
948.251	-7.64
948.68	4.56
949.109	8.06
949.538	4.46
949.967	1.36
950.396	6.46
950.825	-1.24
951.254	-1.74
951.682	-10.94
952.111	1.86
952.54	7.46
952.969	-1.84
953.397	-11.24
953.826	1.76
954.254	-7.24
954.683	0.46
955.112	-3.84
955.54	-1.04
955.969	-2.64
956.397	1.46
956.826	-1.04
957.254	2.46
957.682	3.06
958.111	8.16
958.539	2.36
958.967	2.86
959.396	-1.34
959.824	-1.84
960.252	-2.14
960.68	-3.84
961.109	-3.44
961.537	-8.24
961.965	-0.24
962.393	-0.14
962.821	-6.64
963.249	-0.04
963.677	-0.44
964.105	1.26
964.533	46.46
964.961	41.06
965.389	18.36
965.817	6.56
966.245	3.86
966.672	-1.04
967.1	-4.74
967.528	2.76
967.956	-6.14
968.383	-2.04
968.811	-5.14
969.239	-5.44
969.666	-4.84
970.094	-1.24
970.522	-0.24
970.949	-2.84
971.377	-1.84
971.804	-4.84
972.232	-4.84
972.659	-1.14
973.087	-0.14
973.514	-8.54
973.941	-4.34
974.369	7.66
974.796	0.06
975.223	-6.64
975.651	-3.54
976.078	-1.34
976.505	-0.74
976.932	-2.54
977.359	14.86
977.786	12.76
978.214	-5.14
978.641	-9.54
979.068	-7.94
979.495	-10.64
979.922	3.06
980.349	-5.74
980.776	-0.54
981.202	-3.44
981.629	1.26
982.056	2.16
982.483	-1.94
982.91	1.96
983.337	-11.24
983.763	-1.24
984.19	-7.84
984.617	-6.34
985.043	-2.04
985.47	-0.74
985.897	-5.74
986.323	-8.14
986.75	4.26
987.176	-5.84
987.603	-1.74
988.029	-1.24
988.456	-7.94
988.882	0.16
989.308	-10.14
989.735	-5.84
990.161	-6.64
990.587	-5.04
991.014	-3.64
991.44	4.86
991.866	2.26
992.292	-5.84
992.719	-6.74
993.145	0.16
993.571	-9.74
993.997	-0.24
994.423	-1.74
994.849	-4.04
995.275	-1.54
995.701	1.76
996.127	-4.44
996.553	2.16
996.979	-3.04
997.405	-4.24
997.83	-8.14
998.256	-6.14
998.682	-10.44
999.108	-13.34
999.534	-1.94
999.959	-9.24
1000.385	-6.74
1000.811	-4.14
1001.236	-5.54
1001.662	-9.74
1002.087	-6.04
1002.513	2.66
1002.938	-1.34
1003.364	-2.04
1003.789	-0.54
1004.215	0.46
1004.64	-7.24
1005.066	0.26
1005.491	-1.04
1005.916	-10.74
1006.342	-8.34
1006.767	-8.34
1007.192	3.46
1007.617	-8.64
1008.042	-8.04
1008.468	-5.84
1008.893	-8.44
1009.318	-0.74
1009.743	-2.04
1010.168	2.26
1010.593	-0.24
1011.018	-9.04
1011.443	-8.64
1011.868	-1.64
1012.293	-5.84
1012.718	-5.24
1013.143	-3.04
1013.567	0.66
1013.992	-2.44
1014.417	-17.54
1014.842	-2.24
1015.267	-9.14
1015.691	-5.54
1016.116	5.06
1016.541	-0.04
1016.965	0.36
1017.39	5.16
1017.814	-3.54
1018.239	-5.04
1018.663	-10.84
1019.088	-14.14
1019.512	-2.04
1019.937	-3.34
1020.361	-8.44
1020.785	-14.54
1021.21	-6.84
1021.634	-4.64
1022.058	4.36
1022.483	2.36
1022.907	-9.94
1023.331	-4.14
1023.755	-4.64
1024.179	-6.34
1024.604	-9.14
1025.028	-3.24
1025.452	-9.54
1025.876	-8.74
1026.3	-1.14
1026.724	-9.54
1027.148	-0.74
1027.572	-7.04
1027.996	-4.64
1028.42	-4.64
1028.843	-11.04
1029.267	-15.64
1029.691	0.26
1030.115	-6.44
1030.539	-11.44
1030.962	-5.94
1031.386	-9.84
1031.81	-3.34
1032.233	-0.24
1032.657	0.16
1033.08	-1.44
1033.504	-6.74
1033.927	-5.84
1034.351	-0.74
1034.774	-8.04
1035.198	-0.74
1035.621	-10.44
1036.045	-6.34
1036.468	-4.24
1036.891	-5.54
1037.315	-9.24
1037.738	-13.54
1038.161	-4.24
1038.584	-7.84
1039.008	-9.44
1039.431	-1.94
1039.854	-2.34
1040.277	-10.74
1040.7	-11.74
1041.123	-1.04
1041.546	-8.94
1041.969	-10.14
1042.392	-6.34
1042.815	-4.84
1043.238	-5.84
1043.661	-5.74
1044.084	-8.84
1044.507	-7.74
1044.93	-10.64
1045.352	-10.54
1045.775	1.76
1046.198	-4.84
1046.621	-2.54
1047.043	-2.44
1047.466	4.46
1047.889	-1.74
1048.311	-6.94
1048.734	-4.54
1049.156	-2.94
1049.579	-1.64
1050.001	-9.14
1050.424	-5.64
1050.846	-1.84
1051.269	-8.64
1051.691	-3.74
1052.113	-9.74
1052.536	-3.24
1052.958	-6.54
1053.38	0.56
1053.802	-12.34
1054.225	2.56
1054.647	-9.74
1055.069	-8.64
1055.491	-3.54
1055.913	-12.34
1056.335	-2.04
1056.757	-4.84
1057.179	-6.04
1057.601	-8.84
1058.023	-8.64
1058.445	-7.94
1058.867	-5.74
1059.289	-4.14
1059.711	-12.94
1060.133	-4.74
1060.555	-8.04
1060.976	-12.94
1061.398	-11.74
1061.82	-8.64
1062.241	-8.94
1062.663	-11.64
1063.085	0.36
1063.506	-0.64
1063.928	-5.84
1064.35	-3.94
1064.771	-7.14
1065.193	-1.14
1065.614	-7.24
1066.035	-4.24
1066.457	-3.64
1066.878	2.76
1067.3	-8.84
1067.721	-5.74
1068.142	-5.14
1068.564	-7.54
1068.985	-2.84
1069.406	-3.94
1069.827	-4.44
1070.248	0.36
1070.67	-7.74
1071.091	-6.24
1071.512	-7.94
1071.933	-1.94
1072.354	-9.54
1072.775	-8.64
1073.196	-0.54
1073.617	-0.24
1074.038	-4.04
1074.459	-3.54
1074.88	-8.94
1075.3	-1.84
1075.721	-4.54
1076.142	0.26
1076.563	-6.14
1076.983	-16.04
1077.404	-6.34
1077.825	-12.34
1078.246	-10.84
1078.666	-8.34
1079.087	-9.64
1079.507	-7.94
1079.928	-0.74
1080.348	-1.14
1080.769	-0.54
1081.189	1.86
1081.61	-4.94
1082.03	-8.34
1082.451	-8.94
1082.871	-5.24
1083.291	-12.84
1083.711	-5.04
1084.132	-7.54
1084.552	-7.04
1084.972	-2.94
1085.392	-9.64
1085.813	-9.34
1086.233	-12.24
1086.653	-4.14
1087.073	-9.14
1087.493	-6.94
1087.913	-9.54
1088.333	-8.94
1088.753	-2.14
1089.173	0.56
1089.593	-12.44
1090.013	-3.94
1090.433	0.46
1090.852	-3.34
1091.272	-5.64
1091.692	-5.04
1092.112	-4.64
1092.531	-11.14
1092.951	-18.94
1093.371	-4.44
1093.79	-4.34
1094.21	-8.04
1094.63	-9.24
1095.049	-3.94
1095.469	0.16
1095.888	-1.74
1096.308	-0.04
1096.727	2.56
1097.146	-5.24
1097.566	2.86
1097.985	-10.44
1098.405	-8.34
1098.824	-8.24
1099.243	-11.54
1099.662	-6.14
1100.082	-5.74
1100.501	0.16
1100.92	-13.84
1101.339	-4.94
1101.758	-8.14
