Data from 20171114-ORNL-Ar_H_NY_Subt18_08-09-11-403.txt Node
Date: Tue Nov 14 08:09:11 EST 2017
User: Ender
Spectrometer: HR+D1039
Trigger mode: 0
Integration Time (sec): 2.730000E-2
Scans to average: 10
Electric dark correction enabled: true
Nonlinearity correction enabled: false
Boxcar width: 0
XAxis mode: Wavelengths
Number of Pixels in Spectrum: 2048
>>>>>Begin Spectral Data<<<<<
187.836	-4.58
188.309	-4.58
188.782	-4.58
189.255	3.02
189.728	-0.98
190.201	5.12
190.674	1.52
191.147	2.82
191.619	-4.48
192.092	1.62
192.565	3.12
193.038	-3.48
193.511	1.72
193.984	0.32
194.456	-7.68
194.929	-0.28
195.402	1.32
195.874	0.92
196.347	0.92
196.82	-8.38
197.292	4.12
197.765	-2.08
198.237	-7.18
198.71	5.52
199.182	-0.48
199.655	4.12
200.127	5.32
200.6	-5.88
201.072	-0.38
201.544	-4.68
202.017	-1.68
202.489	4.82
202.961	4.22
203.433	-2.88
203.906	-3.88
204.378	-6.88
204.85	-3.38
205.322	-9.18
205.794	-4.68
206.266	1.02
206.739	-9.68
207.211	1.02
207.683	-5.98
208.155	-4.48
208.627	-2.88
209.099	-3.78
209.57	-11.38
210.042	-5.88
210.514	-0.68
210.986	-2.18
211.458	-8.88
211.93	-0.88
212.402	-1.48
212.873	-6.28
213.345	-6.78
213.817	-9.08
214.288	-1.38
214.76	-12.98
215.232	-2.88
215.703	-4.88
216.175	-1.38
216.646	-10.58
217.118	-2.38
217.589	-6.78
218.061	-6.08
218.532	-1.88
219.004	-4.18
219.475	-5.98
219.946	-3.18
220.418	-6.58
220.889	3.02
221.36	1.72
221.832	-7.78
222.303	-6.18
222.774	-3.18
223.245	-8.88
223.717	-8.58
224.188	-10.48
224.659	-12.88
225.13	-4.88
225.601	-3.38
226.072	2.32
226.543	3.42
227.014	5.32
227.485	-4.98
227.956	-5.68
228.427	2.92
228.898	-2.88
229.369	0.22
229.839	-3.18
230.31	-5.08
230.781	2.22
231.252	-7.78
231.722	-8.38
232.193	-6.58
232.664	-5.68
233.135	-2.88
233.605	-2.98
234.076	-7.48
234.546	-0.88
235.017	3.62
235.487	-0.68
235.958	-4.98
236.428	-6.68
236.899	-1.68
237.369	2.12
237.84	-3.48
238.31	0.42
238.78	-4.38
239.251	-5.38
239.721	-4.98
240.191	-6.38
240.662	-4.78
241.132	-6.28
241.602	-2.58
242.072	0.62
242.542	6.02
243.013	-4.78
243.483	0.62
243.953	0.72
244.423	-4.68
244.893	0.12
245.363	1.42
245.833	-1.08
246.303	-8.28
246.773	6.02
247.243	-1.68
247.712	-6.68
248.182	-2.78
248.652	-0.18
249.122	-10.38
249.592	-0.18
250.061	4.12
250.531	6.62
251.001	-6.98
251.471	5.02
251.94	6.32
252.41	0.22
252.879	-2.98
253.349	9.02
253.818	2.52
254.288	-2.98
254.757	0.72
255.227	-0.38
255.696	-5.68
256.166	-0.68
256.635	5.22
257.105	5.22
257.574	2.92
258.043	-3.68
258.513	-5.98
258.982	3.02
259.451	-6.08
259.92	-0.58
260.389	-4.58
260.859	10.32
261.328	-1.98
261.797	1.72
262.266	-3.28
262.735	3.72
263.204	-4.68
263.673	-4.48
264.142	5.92
264.611	-13.28
265.08	-4.98
265.549	-2.48
266.018	0.82
266.487	-7.98
266.955	-5.38
267.424	-6.88
267.893	4.52
268.362	-7.48
268.83	-2.68
269.299	4.42
269.768	1.52
270.236	2.02
270.705	-8.48
271.174	6.52
271.642	-1.48
272.111	-0.88
272.579	-1.08
273.048	3.12
273.516	1.82
273.985	2.92
274.453	3.02
274.922	7.82
275.39	3.82
275.858	-10.18
276.327	10.32
276.795	10.02
277.263	-1.48
277.731	14.22
278.2	4.12
278.668	-0.48
279.136	7.62
279.604	-6.28
280.072	-1.58
280.54	1.82
281.008	2.42
281.477	7.52
281.945	0.72
282.413	9.42
282.881	11.72
283.348	-1.48
283.816	6.02
284.284	7.52
284.752	17.32
285.22	9.52
285.688	8.62
286.156	8.62
286.623	13.82
287.091	6.82
287.559	10.02
288.026	11.82
288.494	5.62
288.962	0.82
289.429	1.72
289.897	10.62
290.364	2.02
290.832	7.62
291.3	11.42
291.767	9.52
292.234	17.12
292.702	6.92
293.169	10.62
293.637	13.92
294.104	11.22
294.571	-2.48
295.039	8.72
295.506	4.12
295.973	8.22
296.44	6.42
296.908	9.92
297.375	2.32
297.842	8.12
298.309	7.62
298.776	6.12
299.243	15.12
299.71	5.42
300.177	13.32
300.644	14.12
301.111	9.72
301.578	12.82
302.045	6.62
302.512	21.82
302.979	14.62
303.446	10.52
303.913	3.92
304.379	10.32
304.846	19.72
305.313	13.02
305.78	11.32
306.246	14.72
306.713	17.92
307.18	14.22
307.646	14.72
308.113	14.72
308.579	12.12
309.046	16.82
309.512	17.22
309.979	11.02
310.445	19.22
310.912	23.62
311.378	20.12
311.845	19.22
312.311	21.72
312.777	20.82
313.244	17.62
313.71	22.12
314.176	17.52
314.642	18.42
315.109	14.92
315.575	26.92
316.041	29.62
316.507	23.62
316.973	20.42
317.439	25.22
317.905	26.12
318.371	24.82
318.837	22.02
319.303	18.42
319.769	23.92
320.235	20.42
320.701	23.02
321.167	23.82
321.633	21.52
322.099	25.42
322.564	30.82
323.03	28.52
323.496	29.62
323.962	27.92
324.427	27.22
324.893	28.52
325.359	29.22
325.824	25.32
326.29	30.42
326.755	33.72
327.221	30.62
327.686	28.12
328.152	33.12
328.617	30.02
329.083	35.22
329.548	37.32
330.014	36.42
330.479	31.02
330.944	33.72
331.41	28.42
331.875	30.42
332.34	24.02
332.805	34.42
333.271	36.32
333.736	26.02
334.201	36.02
334.666	38.72
335.131	38.52
335.596	38.32
336.061	39.92
336.526	30.62
336.991	38.72
337.456	44.92
337.921	39.32
338.386	32.92
338.851	34.32
339.316	38.22
339.781	40.92
340.246	40.82
340.711	41.12
341.175	41.32
341.64	32.12
342.105	38.72
342.569	40.12
343.034	43.32
343.499	48.12
343.963	35.02
344.428	60.32
344.893	47.12
345.357	47.52
345.822	47.72
346.286	46.42
346.751	55.02
347.215	57.72
347.679	52.92
348.144	70.52
348.608	63.52
349.073	53.22
349.537	52.82
350.001	62.52
350.465	68.42
350.93	69.22
351.394	64.12
351.858	58.02
352.322	65.02
352.786	55.62
353.25	71.62
353.715	79.62
354.179	74.12
354.643	90.92
355.107	85.52
355.571	79.22
356.035	78.92
356.498	82.62
356.962	85.52
357.426	93.52
357.89	81.42
358.354	76.42
358.818	67.22
359.281	65.62
359.745	60.62
360.209	60.42
360.673	62.52
361.136	60.32
361.6	70.82
362.064	62.32
362.527	71.72
362.991	77.82
363.454	69.32
363.918	56.32
364.381	64.92
364.845	74.92
365.308	80.72
365.772	79.32
366.235	71.82
366.698	62.52
367.162	71.22
367.625	69.12
368.088	73.82
368.552	73.02
369.015	68.12
369.478	69.52
369.941	79.12
370.404	80.22
370.867	79.02
371.331	84.52
371.794	89.32
372.257	87.42
372.72	84.52
373.183	87.02
373.646	70.02
374.109	76.82
374.572	84.12
375.035	85.62
375.497	89.62
375.96	91.22
376.423	84.72
376.886	96.72
377.349	88.42
377.811	88.02
378.274	90.42
378.737	82.92
379.199	93.42
379.662	94.62
380.125	88.92
380.587	91.62
381.05	93.62
381.512	99.12
381.975	106.62
382.437	100.42
382.9	96.22
383.362	108.42
383.825	116.22
384.287	111.22
384.75	102.62
385.212	103.02
385.674	105.02
386.136	111.62
386.599	109.92
387.061	113.02
387.523	112.12
387.985	112.12
388.447	116.42
388.91	109.02
389.372	109.92
389.834	114.82
390.296	105.92
390.758	108.32
391.22	117.82
391.682	130.22
392.144	132.22
392.606	126.02
393.068	121.02
393.529	135.32
393.991	122.12
394.453	118.22
394.915	119.82
395.377	120.42
395.838	122.12
396.3	123.52
396.762	127.92
397.224	115.62
397.685	117.72
398.147	114.72
398.608	117.22
399.07	117.92
399.531	129.92
399.993	131.62
400.454	140.02
400.916	135.22
401.377	132.42
401.839	132.42
402.3	137.12
402.762	156.02
403.223	167.62
403.684	159.62
404.145	149.22
404.607	144.22
405.068	149.32
405.529	155.12
405.99	171.02
406.451	158.02
406.913	159.82
407.374	144.52
407.835	147.82
408.296	152.42
408.757	156.92
409.218	168.52
409.679	167.32
410.14	161.52
410.601	164.12
411.062	171.72
411.522	163.92
411.983	158.62
412.444	161.02
412.905	173.72
413.366	165.32
413.826	184.12
414.287	206.32
414.748	244.42
415.208	237.02
415.669	200.22
416.13	199.22
416.59	193.02
417.051	205.82
417.511	212.42
417.972	234.22
418.432	238.12
418.893	279.62
419.353	239.22
419.814	192.52
420.274	172.22
420.734	166.92
421.195	182.82
421.655	171.92
422.115	180.92
422.576	186.32
423.036	189.62
423.496	203.72
423.956	212.12
424.416	215.92
424.876	250.32
425.336	246.72
425.797	246.22
426.257	247.62
426.717	229.22
427.177	214.42
427.637	207.82
428.097	224.22
428.556	230.82
429.016	245.82
429.476	241.32
429.936	251.52
430.396	260.32
430.856	264.72
431.315	286.72
431.775	315.62
432.235	349.62
432.694	320.82
433.154	325.72
433.614	355.72
434.073	302.02
434.533	264.62
434.993	249.52
435.452	261.62
435.912	277.62
436.371	269.72
436.83	259.92
437.29	249.62
437.749	238.42
438.209	237.72
438.668	255.22
439.127	268.42
439.587	247.22
440.046	234.32
440.505	250.12
440.964	255.22
441.424	293.92
441.883	289.92
442.342	246.32
442.801	220.42
443.26	219.42
443.719	210.72
444.178	212.72
444.637	206.72
445.096	219.12
445.555	217.12
446.014	216.62
446.473	220.22
446.932	225.52
447.391	220.62
447.849	226.92
448.308	213.72
448.767	210.32
449.226	223.52
449.685	236.02
450.143	250.12
450.602	234.92
451.061	223.22
451.519	229.22
451.978	225.32
452.436	231.72
452.895	235.52
453.353	249.92
453.812	239.02
454.27	238.92
454.729	232.82
455.187	236.42
455.646	239.82
456.104	245.42
456.562	254.22
457.021	258.12
457.479	258.32
457.937	264.22
458.395	264.02
458.854	241.72
459.312	255.12
459.77	264.62
460.228	247.72
460.686	242.72
461.144	250.22
461.602	240.92
462.06	242.42
462.518	252.42
462.976	257.32
463.434	258.92
463.892	259.72
464.35	271.82
464.808	287.32
465.266	274.92
465.724	265.52
466.181	271.32
466.639	265.32
467.097	285.02
467.555	301.22
468.012	293.42
468.47	304.22
468.928	320.72
469.385	329.92
469.843	332.12
470.3	339.12
470.758	354.42
471.215	373.12
471.673	396.52
472.13	396.02
472.588	406.32
473.045	365.42
473.503	379.52
473.96	390.02
474.417	397.22
474.875	422.52
475.332	468.02
475.789	450.62
476.246	456.82
476.704	481.92
477.161	501.92
477.618	522.72
478.075	548.52
478.532	592.72
478.989	653.82
479.446	765.62
479.903	729.42
480.36	752.82
480.817	812.92
481.274	895.82
481.731	982.62
482.188	1049.92
482.645	1173.02
483.102	1242.12
483.558	1369.22
484.015	1418.62
484.472	1374.62
484.929	1331.22
485.385	1303.52
485.842	1273.72
486.299	1221.72
486.755	1193.22
487.212	1013.82
487.668	875.12
488.125	809.22
488.582	736.52
489.038	708.92
489.494	677.02
489.951	655.92
490.407	644.92
490.864	636.12
491.32	625.12
491.776	625.82
492.233	625.42
492.689	595.92
493.145	595.82
493.602	589.52
494.058	607.82
494.514	605.02
494.97	627.12
495.426	636.22
495.882	610.12
496.338	602.42
496.794	610.22
497.251	615.92
497.707	619.22
498.163	620.32
498.618	625.92
499.074	627.72
499.53	654.72
499.986	660.72
500.442	639.52
500.898	617.82
501.354	603.62
501.809	621.82
502.265	613.32
502.721	622.22
503.177	633.82
503.632	638.42
504.088	637.42
504.543	658.02
504.999	674.52
505.455	648.12
505.91	626.02
506.366	632.62
506.821	628.82
507.277	636.02
507.732	629.42
508.187	624.82
508.643	630.92
509.098	635.62
509.553	653.62
510.009	669.32
510.464	666.22
510.919	678.32
511.375	694.72
511.83	708.32
512.285	714.12
512.74	752.02
513.195	771.92
513.65	762.32
514.105	755.92
514.56	756.22
515.015	783.82
515.47	787.72
515.925	776.92
516.38	781.12
516.835	792.82
517.29	774.22
517.745	773.52
518.2	761.62
518.655	745.02
519.109	739.12
519.564	730.62
520.019	733.52
520.474	729.32
520.928	719.92
521.383	711.62
521.838	706.52
522.292	723.72
522.747	712.42
523.201	709.92
523.656	701.42
524.11	695.72
524.565	695.02
525.019	694.32
525.474	701.92
525.928	701.02
526.382	691.02
526.837	699.72
527.291	709.02
527.745	701.92
528.2	695.42
528.654	685.52
529.108	691.92
529.562	693.12
530.016	690.42
530.47	693.12
530.925	693.02
531.379	699.22
531.833	692.52
532.287	690.92
532.741	703.42
533.195	704.52
533.649	701.52
534.103	711.02
534.556	700.42
535.01	710.42
535.464	697.42
535.918	723.22
536.372	713.72
536.826	711.42
537.279	711.62
537.733	710.02
538.187	705.62
538.64	705.52
539.094	724.22
539.548	724.42
540.001	722.82
540.455	730.02
540.908	720.72
541.362	735.52
541.815	754.72
542.269	759.82
542.722	759.72
543.175	770.52
543.629	777.32
544.082	789.62
544.536	784.72
544.989	792.72
545.442	800.72
545.895	792.72
546.349	790.12
546.802	799.22
547.255	798.22
547.708	817.42
548.161	827.62
548.614	828.22
549.067	832.22
549.52	832.32
549.973	804.12
550.426	808.52
550.879	799.72
551.332	798.82
551.785	813.62
552.238	816.32
552.691	836.92
553.144	834.72
553.596	853.22
554.049	871.42
554.502	895.82
554.955	908.52
555.407	913.92
555.86	910.82
556.313	898.92
556.765	877.62
557.218	894.02
557.67	890.92
558.123	880.52
558.576	885.52
559.028	883.82
559.48	900.52
559.933	877.62
560.385	851.62
560.838	824.42
561.29	793.02
561.742	787.12
562.195	770.62
562.647	766.12
563.099	784.92
563.551	781.02
564.004	793.62
564.456	774.42
564.908	773.92
565.36	745.52
565.812	731.42
566.264	726.02
566.716	729.42
567.168	709.02
567.62	722.12
568.072	707.42
568.524	706.32
568.976	704.62
569.428	677.32
569.88	689.42
570.332	687.42
570.784	699.52
571.235	697.42
571.687	710.52
572.139	715.72
572.59	717.42
573.042	713.82
573.494	719.72
573.945	725.02
574.397	696.32
574.849	687.22
575.3	701.02
575.752	687.12
576.203	692.22
576.655	688.32
577.106	683.52
577.557	670.42
578.009	686.12
578.46	668.92
578.912	666.72
579.363	679.22
579.814	677.22
580.265	679.52
580.717	682.82
581.168	679.12
581.619	684.92
582.07	697.22
582.521	680.62
582.972	683.62
583.423	685.12
583.875	677.72
584.326	692.32
584.777	705.22
585.227	721.52
585.678	730.32
586.129	752.02
586.58	770.62
587.031	788.12
587.482	832.92
587.933	848.42
588.384	823.02
588.834	794.32
589.285	783.22
589.736	784.72
590.186	780.02
590.637	773.02
591.088	757.42
591.538	757.12
591.989	751.32
592.439	736.42
592.89	735.42
593.34	719.22
593.791	711.72
594.241	700.02
594.692	711.92
595.142	703.22
595.593	701.32
596.043	710.82
596.493	717.92
596.943	719.12
597.394	715.82
597.844	731.92
598.294	744.42
598.744	761.12
599.195	808.02
599.645	842.12
600.095	872.02
600.545	943.12
600.995	992.92
601.445	1039.12
601.895	1116.72
602.345	1153.32
602.795	1133.92
603.245	1102.72
603.695	1029.02
604.145	979.82
604.594	928.72
605.044	881.52
605.494	809.72
605.944	772.62
606.393	761.72
606.843	729.52
607.293	747.12
607.743	744.22
608.192	752.22
608.642	757.92
609.091	774.22
609.541	777.32
609.99	770.82
610.44	768.12
610.889	719.82
611.339	703.32
611.788	686.52
612.238	700.42
612.687	719.62
613.136	703.62
613.586	723.22
614.035	717.02
614.484	721.32
614.933	711.72
615.383	724.12
615.832	716.82
616.281	716.12
616.73	683.52
617.179	674.52
617.628	658.92
618.077	639.02
618.526	629.32
618.975	625.12
619.424	624.12
619.873	629.52
620.322	626.42
620.771	614.52
621.22	615.72
621.669	597.52
622.118	598.72
622.567	591.32
623.015	577.72
623.464	574.52
623.913	567.02
624.361	549.42
624.81	555.92
625.259	555.92
625.707	570.82
626.156	563.12
626.604	572.82
627.053	573.02
627.501	569.52
627.95	587.42
628.398	587.92
628.847	584.32
629.295	582.52
629.744	580.72
630.192	574.42
630.64	576.62
631.089	550.42
631.537	561.32
631.985	538.02
632.433	540.62
632.881	537.92
633.33	538.52
633.778	533.02
634.226	533.12
634.674	556.62
635.122	552.02
635.57	563.72
636.018	572.82
636.466	573.72
636.914	581.22
637.362	580.02
637.81	588.12
638.258	598.42
638.705	603.82
639.153	624.52
639.601	641.22
640.049	659.52
640.497	688.22
640.944	711.32
641.392	658.72
641.84	614.22
642.287	588.62
642.735	579.12
643.182	580.82
643.63	574.72
644.078	571.42
644.525	582.62
644.973	596.32
645.42	604.62
645.867	623.92
646.315	635.42
646.762	667.22
647.21	696.92
647.657	714.42
648.104	744.32
648.551	771.92
648.999	824.42
649.446	901.32
649.893	986.22
650.34	1124.82
650.787	1336.42
651.234	1640.92
651.682	2136.82
652.129	2915.32
652.576	4117.02
653.023	6009.82
653.47	8084.82
653.917	9970.12
654.363	11464.42
654.81	12517.42
655.257	11880.92
655.704	7861.72
656.151	4722.72
656.598	3119.72
657.044	2233.12
657.491	1734.42
657.938	1404.92
658.385	1185.22
658.831	1035.22
659.278	932.02
659.724	842.52
660.171	775.52
660.618	712.52
661.064	673.72
661.511	659.02
661.957	649.32
662.404	644.32
662.85	657.02
663.296	628.22
663.743	565.42
664.189	538.42
664.635	536.42
665.082	541.52
665.528	541.52
665.974	521.92
666.42	522.12
666.867	515.12
667.313	497.62
667.759	472.12
668.205	461.62
668.651	461.92
669.097	458.72
669.543	450.52
669.989	448.22
670.435	453.12
670.881	449.22
671.327	466.12
671.773	486.82
672.219	517.42
672.665	572.92
673.11	604.32
673.556	652.62
674.002	697.32
674.448	686.12
674.893	569.42
675.339	494.62
675.785	457.12
676.23	438.02
676.676	409.22
677.122	392.92
677.567	390.32
678.013	386.42
678.458	377.92
678.904	380.82
679.349	358.32
679.794	362.62
680.24	366.72
680.685	356.02
681.131	365.42
681.576	367.82
682.021	360.82
682.466	369.12
682.912	357.72
683.357	367.22
683.802	394.32
684.247	423.42
684.692	465.12
685.137	516.82
685.583	550.92
686.028	580.82
686.473	541.72
686.918	459.92
687.363	430.52
687.807	409.82
688.252	378.92
688.697	365.82
689.142	352.32
689.587	345.82
690.032	343.32
690.477	356.42
690.921	372.12
691.366	399.92
691.811	417.02
692.255	446.22
692.7	476.72
693.145	539.02
693.589	748.42
694.034	1217.72
694.478	1634.62
694.923	1791.02
695.367	2337.42
695.812	1242.22
696.256	524.02
696.701	387.72
697.145	353.62
697.59	333.92
698.034	334.92
698.478	334.82
698.922	331.52
699.367	331.62
699.811	343.82
700.255	372.22
700.699	397.92
701.143	436.62
701.588	494.82
702.032	529.92
702.476	536.52
702.92	510.72
703.364	519.62
703.808	694.82
704.252	1132.72
704.696	1547.02
705.14	1726.72
705.584	2199.52
706.027	1122.62
706.471	554.62
706.915	417.42
707.359	368.22
707.803	329.22
708.246	327.42
708.69	324.62
709.134	331.62
709.577	322.22
710.021	325.02
710.465	313.62
710.908	313.52
711.352	313.72
711.795	329.32
712.239	366.12
712.682	412.02
713.126	432.32
713.569	471.72
714.012	368.02
714.456	314.82
714.899	298.72
715.342	284.12
715.786	268.42
716.229	270.72
716.672	266.02
717.115	260.72
717.558	260.92
718.002	262.02
718.445	278.22
718.888	297.72
719.331	297.32
719.774	312.92
720.217	310.32
720.66	291.02
721.103	276.32
721.546	255.92
721.989	255.62
722.432	240.32
722.874	245.22
723.317	235.02
723.76	250.12
724.203	266.82
724.645	336.02
725.088	473.82
725.531	600.02
725.974	664.42
726.416	571.92
726.859	319.02
727.301	256.62
727.744	241.42
728.187	244.22
728.629	252.62
729.071	253.12
729.514	270.82
729.956	280.82
730.399	300.72
730.841	303.52
731.283	282.32
731.726	276.52
732.168	266.22
732.61	277.62
733.053	304.82
733.495	337.42
733.937	366.62
734.379	418.42
734.821	458.12
735.263	591.92
735.705	914.22
736.148	1736.82
736.59	2766.52
737.032	3159.22
737.474	2580.82
737.916	858.42
738.357	457.42
738.799	343.52
739.241	308.32
739.683	298.72
740.125	310.82
740.567	305.72
741.008	329.62
741.45	338.02
741.892	341.42
742.334	371.32
742.775	374.72
743.217	359.82
743.658	287.92
744.1	268.62
744.542	284.52
744.983	336.72
745.425	365.32
745.866	355.92
746.307	295.12
746.749	295.12
747.19	341.52
747.632	502.62
748.073	988.42
748.514	2043.12
748.956	3014.82
749.397	3809.52
749.838	3149.72
750.279	3064.12
750.72	1580.12
751.162	586.42
751.603	335.92
752.044	266.82
752.485	229.82
752.926	218.42
753.367	205.92
753.808	204.32
754.249	197.72
754.69	190.42
755.131	196.72
755.572	187.52
756.013	198.42
756.453	189.62
756.894	196.32
757.335	205.62
757.776	206.62
758.216	202.32
758.657	203.42
759.098	210.02
759.538	243.62
759.979	276.92
760.42	405.52
760.86	787.82
761.301	2070.42
761.741	4850.32
762.182	6649.42
762.622	4704.02
763.063	1396.82
763.503	563.02
763.943	339.22
764.384	280.62
764.824	263.92
765.264	245.12
765.705	212.52
766.145	192.02
766.585	179.12
767.025	174.12
767.465	165.92
767.906	181.22
768.346	194.52
768.786	208.52
769.226	227.72
769.666	336.92
770.106	701.02
770.546	1716.92
770.986	2756.22
771.426	2460.02
771.866	839.32
772.306	349.42
772.745	214.72
773.185	176.42
773.625	169.72
774.065	157.42
774.505	166.52
774.944	216.82
775.384	378.22
775.824	596.72
776.263	567.62
776.703	288.42
777.142	162.82
777.582	139.82
778.021	129.82
778.461	124.42
778.9	138.82
779.34	133.52
779.779	120.22
780.219	108.12
780.658	113.32
781.097	114.02
781.537	118.62
781.976	109.02
782.415	108.22
782.855	109.02
783.294	107.72
783.733	105.12
784.172	112.62
784.611	111.72
785.05	119.02
785.489	116.02
785.928	118.92
786.367	122.42
786.806	118.62
787.245	127.32
787.684	141.82
788.123	156.12
788.562	137.82
789.001	132.02
789.44	126.72
789.879	122.22
790.317	119.62
790.756	135.82
791.195	137.52
791.634	158.62
792.072	216.02
792.511	403.52
792.95	1115.72
793.388	2221.12
793.827	1952.62
794.265	699.82
794.704	303.62
795.142	191.92
795.581	161.72
796.019	147.22
796.458	135.22
796.896	127.82
797.334	136.82
797.773	165.62
798.211	239.62
798.649	482.12
799.087	1100.92
799.526	1711.62
799.964	2155.52
800.402	2065.32
800.84	794.62
801.278	323.82
801.716	196.52
802.154	166.82
802.592	153.22
803.03	149.22
803.468	146.52
803.906	148.32
804.344	150.82
804.782	151.52
805.22	141.82
805.658	135.32
806.096	158.52
806.533	168.82
806.971	184.32
807.409	236.52
807.847	355.12
808.284	748.32
808.722	2054.52
809.16	3472.42
809.597	3455.52
810.035	5835.02
810.472	5977.52
810.91	2204.82
811.347	854.92
811.785	426.72
812.222	262.22
812.66	205.72
813.097	175.32
813.535	150.42
813.972	135.42
814.409	124.62
814.846	111.42
815.284	113.62
815.721	112.82
816.158	110.32
816.595	110.72
817.032	157.92
817.47	180.92
817.907	137.22
818.344	106.72
818.781	101.32
819.218	102.42
819.655	132.12
820.092	192.82
820.529	219.22
820.966	167.92
821.403	132.42
821.839	102.02
822.276	100.92
822.713	127.32
823.15	142.02
823.587	119.12
824.023	164.12
824.46	336.92
824.897	976.82
825.333	1402.02
825.77	608.42
826.206	242.12
826.643	147.62
827.08	105.92
827.516	86.12
827.953	81.72
828.389	80.32
828.825	73.52
829.262	69.42
829.698	62.52
830.135	63.82
830.571	66.22
831.007	68.52
831.443	64.22
831.88	60.52
832.316	62.02
832.752	68.12
833.188	66.42
833.624	70.72
834.06	71.32
834.497	71.72
834.933	71.52
835.369	71.52
835.805	70.92
836.241	74.12
836.677	78.22
837.112	94.82
837.548	109.82
837.984	149.92
838.42	222.62
838.856	562.72
839.292	1642.62
839.727	2395.82
840.163	1142.22
840.599	1019.92
841.034	2201.62
841.47	2187.32
841.906	810.62
842.341	352.12
842.777	211.92
843.212	205.32
843.648	186.02
844.083	113.92
844.519	86.32
844.954	74.92
845.39	61.42
845.825	54.72
846.261	65.22
846.696	58.92
847.131	54.42
847.566	68.12
848.002	54.22
848.437	57.32
848.872	60.22
849.307	62.32
849.742	84.92
850.177	208.02
850.613	605.32
851.048	911.52
851.483	395.62
851.918	173.42
852.353	98.72
852.788	58.92
853.223	51.22
853.657	52.12
854.092	44.62
854.527	47.62
854.962	42.12
855.397	48.12
855.832	53.42
856.266	38.92
856.701	44.02
857.136	40.22
857.57	38.82
858.005	54.42
858.44	56.82
858.874	48.92
859.309	58.22
859.743	47.52
860.178	48.02
860.612	45.42
861.047	60.52
861.481	72.62
861.915	72.82
862.35	55.32
862.784	38.62
863.218	39.42
863.653	31.22
864.087	46.42
864.521	56.72
864.955	73.12
865.39	161.62
865.824	186.42
866.258	117.92
866.692	176.92
867.126	186.42
867.56	109.92
867.994	54.82
868.428	39.12
868.862	46.22
869.296	59.52
869.73	55.32
870.164	54.22
870.598	51.62
871.031	38.72
871.465	38.02
871.899	36.32
872.333	25.02
872.766	23.72
873.2	24.02
873.634	31.22
874.067	24.32
874.501	26.82
874.935	36.62
875.368	33.42
875.802	32.92
876.235	23.02
876.669	24.62
877.102	27.72
877.535	34.22
877.969	30.32
878.402	25.32
878.836	21.22
879.269	19.52
879.702	32.02
880.135	24.32
880.569	23.32
881.002	28.92
881.435	24.72
881.868	22.42
882.301	24.92
882.734	17.42
883.167	21.12
883.601	19.32
884.034	21.82
884.467	15.32
884.899	17.92
885.332	17.52
885.765	16.82
886.198	16.82
886.631	23.32
887.064	19.22
887.497	25.42
887.929	26.22
888.362	19.32
888.795	11.02
889.228	16.62
889.66	26.72
890.093	18.02
890.526	18.82
890.958	19.22
891.391	20.92
891.823	15.72
892.256	21.92
892.688	10.52
893.121	17.42
893.553	15.62
893.985	30.82
894.418	23.82
894.85	10.02
895.282	14.82
895.715	17.92
896.147	16.52
896.579	17.32
897.011	13.72
897.444	18.22
897.876	14.02
898.308	15.12
898.74	20.22
899.172	15.32
899.604	22.12
900.036	18.22
900.468	19.32
900.9	17.12
901.332	19.62
901.764	13.72
902.196	20.52
902.628	17.02
903.06	14.02
903.491	30.12
903.923	27.62
904.355	18.62
904.787	31.22
905.218	26.12
905.65	22.22
906.082	12.42
906.513	12.82
906.945	21.82
907.376	17.62
907.808	18.52
908.239	24.12
908.671	17.12
909.102	23.12
909.534	26.22
909.965	53.92
910.397	95.02
910.828	338.02
911.259	497.42
911.691	229.82
912.122	116.12
912.553	52.42
912.984	36.52
913.415	24.22
913.847	26.62
914.278	12.82
914.709	17.82
915.14	19.42
915.571	16.72
916.002	13.82
916.433	10.62
916.864	13.52
917.295	8.52
917.726	23.62
918.157	15.82
918.587	29.52
919.018	29.32
919.449	27.32
919.88	25.12
920.311	28.92
920.741	53.02
921.172	178.32
921.603	158.62
922.033	71.42
922.464	49.52
922.895	25.42
923.325	19.62
923.756	11.62
924.186	9.72
924.617	13.32
925.047	22.92
925.478	24.12
925.908	21.12
926.338	16.42
926.769	10.62
927.199	21.32
927.629	11.62
928.06	8.42
928.49	13.72
928.92	13.52
929.35	14.02
929.78	12.12
930.21	6.22
930.641	8.22
931.071	9.02
931.501	4.02
931.931	9.72
932.361	8.62
932.791	4.92
933.221	8.12
933.651	6.22
934.08	15.72
934.51	29.72
934.94	11.62
935.37	9.62
935.8	9.82
936.229	9.72
936.659	6.02
937.089	1.42
937.519	12.92
937.948	21.22
938.378	17.22
938.807	8.82
939.237	12.02
939.666	8.62
940.096	-8.18
940.525	-0.88
940.955	-0.28
941.384	8.82
941.814	-5.88
942.243	-6.18
942.672	2.62
943.102	0.72
943.531	0.82
943.96	2.22
944.39	-1.08
944.819	1.42
945.248	0.92
945.677	4.02
946.106	3.72
946.535	5.72
946.964	1.52
947.393	2.02
947.822	1.12
948.251	-3.08
948.68	0.72
949.109	2.62
949.538	2.92
949.967	-0.18
950.396	3.52
950.825	-2.48
951.254	2.62
951.682	-6.18
952.111	1.32
952.54	11.52
952.969	-2.48
953.397	-5.68
953.826	-0.18
954.254	-4.58
954.683	-1.08
955.112	-2.28
955.54	-5.38
955.969	-1.18
956.397	5.72
956.826	-6.28
957.254	7.92
957.682	1.82
958.111	1.22
958.539	-4.08
958.967	5.42
959.396	-5.48
959.824	-2.58
960.252	-0.48
960.68	-1.28
961.109	-2.28
961.537	-10.08
961.965	0.12
962.393	-3.28
962.821	-4.58
963.249	1.42
963.677	4.62
964.105	6.12
964.533	41.22
964.961	44.62
965.389	21.02
965.817	10.52
966.245	0.72
966.672	3.02
967.1	-4.48
967.528	-5.18
967.956	-5.88
968.383	-2.28
968.811	-4.98
969.239	-2.78
969.666	-0.68
970.094	2.52
970.522	2.72
970.949	-1.78
971.377	-3.38
971.804	-3.18
972.232	0.92
972.659	-3.58
973.087	-5.18
973.514	-3.28
973.941	-5.18
974.369	5.92
974.796	0.62
975.223	0.72
975.651	0.72
976.078	1.42
976.505	-0.38
976.932	2.82
977.359	16.12
977.786	14.72
978.214	7.52
978.641	-3.48
979.068	-8.18
979.495	-3.08
979.922	-0.48
980.349	-5.18
980.776	1.52
981.202	-1.08
981.629	-1.38
982.056	3.92
982.483	-3.38
982.91	1.72
983.337	-1.88
983.763	-1.78
984.19	-4.88
984.617	-3.78
985.043	-9.98
985.47	-2.38
985.897	-5.48
986.323	-5.88
986.75	5.42
987.176	-2.28
987.603	3.62
988.029	-6.38
988.456	-3.68
988.882	4.82
989.308	-10.48
989.735	-10.98
990.161	-1.78
990.587	-2.08
991.014	-1.08
991.44	-1.08
991.866	-2.98
992.292	-7.18
992.719	-4.38
993.145	5.02
993.571	-9.08
993.997	-10.88
994.423	2.72
994.849	-1.48
995.275	-0.68
995.701	-0.78
996.127	-2.18
996.553	1.42
996.979	-0.38
997.405	3.32
997.83	-0.78
998.256	-4.88
998.682	-6.08
999.108	-8.08
999.534	-1.08
999.959	-0.08
1000.385	0.32
1000.811	2.42
1001.236	-9.48
1001.662	-8.68
1002.087	-7.58
1002.513	-4.28
1002.938	5.42
1003.364	6.92
1003.789	2.02
1004.215	6.32
1004.64	-2.28
1005.066	4.12
1005.491	5.02
1005.916	-3.98
1006.342	-4.58
1006.767	-6.18
1007.192	6.32
1007.617	-5.48
1008.042	-3.08
1008.468	-9.68
1008.893	-3.08
1009.318	-0.48
1009.743	2.32
1010.168	1.62
1010.593	2.62
1011.018	-7.78
1011.443	-0.68
1011.868	0.82
1012.293	0.92
1012.718	-4.28
1013.143	-1.38
1013.567	-3.38
1013.992	-0.98
1014.417	-12.28
1014.842	3.52
1015.267	-9.38
1015.691	1.42
1016.116	6.72
1016.541	1.02
1016.965	3.02
1017.39	-1.08
1017.814	-5.38
1018.239	0.32
1018.663	-4.18
1019.088	-8.78
1019.512	1.12
1019.937	0.62
1020.361	-9.58
1020.785	-10.68
1021.21	-2.68
1021.634	-5.28
1022.058	5.22
1022.483	4.02
1022.907	3.22
1023.331	-5.58
1023.755	-2.48
1024.179	-3.58
1024.604	-8.58
1025.028	-9.68
1025.452	2.12
1025.876	-2.18
1026.3	-2.08
1026.724	-10.18
1027.148	-2.68
1027.572	-14.08
1027.996	-3.88
1028.42	-1.78
1028.843	-7.88
1029.267	-8.58
1029.691	-0.98
1030.115	-3.48
1030.539	-2.38
1030.962	-6.18
1031.386	-8.48
1031.81	2.72
1032.233	-3.88
1032.657	-1.88
1033.08	0.62
1033.504	0.62
1033.927	-7.08
1034.351	-0.08
1034.774	-6.08
1035.198	-6.68
1035.621	-5.58
1036.045	-4.98
1036.468	2.42
1036.891	-6.98
1037.315	-5.78
1037.738	-4.88
1038.161	-1.48
1038.584	-7.18
1039.008	-6.68
1039.431	-3.18
1039.854	-1.78
1040.277	-13.18
1040.7	-7.78
1041.123	0.52
1041.546	-11.48
1041.969	-2.58
1042.392	-6.18
1042.815	1.02
1043.238	2.22
1043.661	3.42
1044.084	-8.28
1044.507	-7.48
1044.93	-7.48
1045.352	-7.18
1045.775	3.12
1046.198	-3.28
1046.621	-2.28
1047.043	0.62
1047.466	5.52
1047.889	-3.98
1048.311	-6.98
1048.734	-0.78
1049.156	-1.28
1049.579	-4.58
1050.001	-8.48
1050.424	-5.08
1050.846	-5.18
1051.269	-5.08
1051.691	-4.08
1052.113	-8.68
1052.536	-0.78
1052.958	-5.68
1053.38	-3.98
1053.802	-7.38
1054.225	-0.68
1054.647	-8.98
1055.069	-3.88
1055.491	-0.18
1055.913	-3.88
1056.335	3.02
1056.757	-5.08
1057.179	-7.88
1057.601	-5.88
1058.023	-2.38
1058.445	-1.78
1058.867	-8.08
1059.289	-3.98
1059.711	-4.48
1060.133	-5.98
1060.555	-4.38
1060.976	-11.28
1061.398	-8.48
1061.82	-6.58
1062.241	-7.78
1062.663	-8.38
1063.085	-6.98
1063.506	-2.48
1063.928	-5.68
1064.35	-0.18
1064.771	-7.58
1065.193	-7.68
1065.614	-6.18
1066.035	1.62
1066.457	-3.88
1066.878	-2.08
1067.3	-7.88
1067.721	-7.98
1068.142	-1.48
1068.564	-3.78
1068.985	-4.38
1069.406	-1.98
1069.827	-6.68
1070.248	-6.48
1070.67	-4.98
1071.091	-1.68
1071.512	-4.78
1071.933	-6.08
1072.354	-6.78
1072.775	1.12
1073.196	-6.78
1073.617	-1.58
1074.038	-9.18
1074.459	-3.48
1074.88	-12.38
1075.3	0.72
1075.721	-5.08
1076.142	6.62
1076.563	2.92
1076.983	-6.48
1077.404	-5.08
1077.825	-11.38
1078.246	-2.78
1078.666	-6.58
1079.087	-2.38
1079.507	-7.28
1079.928	-2.98
1080.348	-3.58
1080.769	-6.48
1081.189	3.72
1081.61	-5.08
1082.03	-3.98
1082.451	-9.58
1082.871	-3.78
1083.291	-2.58
1083.711	-7.08
1084.132	-3.08
1084.552	-9.98
1084.972	-0.88
1085.392	-11.58
1085.813	-8.98
1086.233	-6.78
1086.653	-9.38
1087.073	-1.98
1087.493	-2.68
1087.913	-6.28
1088.333	-11.28
1088.753	-3.78
1089.173	-3.58
1089.593	-5.38
1090.013	-3.38
1090.433	2.62
1090.852	-3.38
1091.272	-3.08
1091.692	-6.28
1092.112	-8.58
1092.531	-8.68
1092.951	-14.78
1093.371	-5.98
1093.79	0.12
1094.21	-6.98
1094.63	-4.88
1095.049	-2.18
1095.469	-1.68
1095.888	1.92
1096.308	3.22
1096.727	4.12
1097.146	-2.48
1097.566	-5.48
1097.985	-5.48
1098.405	-1.18
1098.824	-8.08
1099.243	-3.38
1099.662	-7.38
1100.082	-0.98
1100.501	-4.28
1100.92	-5.98
1101.339	-10.78
1101.758	-4.78
