Data from 20171114-ORNL-Ar_H_NY_Subt18_08-06-52-945.txt Node
Date: Tue Nov 14 08:06:52 EST 2017
User: Ender
Spectrometer: HR+D1039
Trigger mode: 0
Integration Time (sec): 2.730000E-2
Scans to average: 10
Electric dark correction enabled: true
Nonlinearity correction enabled: false
Boxcar width: 0
XAxis mode: Wavelengths
Number of Pixels in Spectrum: 2048
>>>>>Begin Spectral Data<<<<<
187.836	-3.92
188.309	-3.92
188.782	-3.92
189.255	3.68
189.728	-1.02
190.201	5.28
190.674	-3.42
191.147	-1.12
191.619	-8.42
192.092	0.58
192.565	10.28
193.038	3.38
193.511	5.48
193.984	0.58
194.456	-3.22
194.929	-2.12
195.402	-5.02
195.874	-1.02
196.347	-1.72
196.82	-7.12
197.292	6.98
197.765	-0.92
198.237	-8.32
198.71	2.28
199.182	-2.92
199.655	5.08
200.127	1.38
200.6	-0.62
201.072	-4.32
201.544	-7.62
202.017	-5.32
202.489	0.38
202.961	-3.22
203.433	-2.32
203.906	-7.72
204.378	-7.32
204.85	-7.82
205.322	-4.52
205.794	0.18
206.266	0.28
206.739	-7.02
207.211	-2.52
207.683	-13.02
208.155	-6.12
208.627	-12.62
209.099	-5.72
209.57	-6.22
210.042	-3.82
210.514	-2.42
210.986	0.28
211.458	-4.92
211.93	0.88
212.402	0.98
212.873	-9.62
213.345	-8.82
213.817	-7.12
214.288	-9.72
214.76	-10.22
215.232	-2.32
215.703	-2.02
216.175	-6.22
216.646	-9.42
217.118	-7.72
217.589	-3.82
218.061	-4.72
218.532	-2.62
219.004	-0.22
219.475	-6.72
219.946	-3.82
220.418	-1.62
220.889	0.78
221.36	1.68
221.832	-7.02
222.303	-8.02
222.774	1.68
223.245	-10.12
223.717	-8.22
224.188	-2.32
224.659	-5.12
225.13	-3.32
225.601	2.38
226.072	-6.22
226.543	-2.22
227.014	2.48
227.485	3.88
227.956	-5.62
228.427	-1.32
228.898	0.98
229.369	7.68
229.839	-3.62
230.31	-5.02
230.781	5.98
231.252	-2.72
231.722	-2.22
232.193	-1.92
232.664	-0.32
233.135	-6.82
233.605	-2.32
234.076	-9.52
234.546	-3.42
235.017	4.38
235.487	-2.62
235.958	-3.42
236.428	-4.42
236.899	-5.62
237.369	-5.12
237.84	-2.82
238.31	3.08
238.78	-4.32
239.251	-6.72
239.721	-1.02
240.191	-2.02
240.662	-2.12
241.132	-0.32
241.602	-5.52
242.072	-6.12
242.542	4.28
243.013	-6.42
243.483	8.48
243.953	4.88
244.423	-2.02
244.893	-8.72
245.363	-0.12
245.833	-3.12
246.303	-3.82
246.773	2.68
247.243	0.88
247.712	-0.32
248.182	2.38
248.652	-0.82
249.122	-17.32
249.592	-3.32
250.061	2.38
250.531	9.58
251.001	2.68
251.471	10.58
251.94	6.48
252.41	1.38
252.879	-2.82
253.349	7.48
253.818	6.18
254.288	1.08
254.757	3.98
255.227	-2.02
255.696	0.78
256.166	2.38
256.635	4.48
257.105	2.48
257.574	0.68
258.043	5.28
258.513	-2.02
258.982	3.38
259.451	-2.92
259.92	5.48
260.389	2.88
260.859	3.58
261.328	4.28
261.797	-0.12
262.266	-2.32
262.735	5.48
263.204	5.28
263.673	-1.02
264.142	4.18
264.611	-5.32
265.08	-1.62
265.549	-0.72
266.018	5.48
266.487	-6.52
266.955	-6.22
267.424	-4.32
267.893	1.68
268.362	2.08
268.83	3.68
269.299	4.78
269.768	-0.72
270.236	-3.42
270.705	2.98
271.174	0.68
271.642	3.38
272.111	2.38
272.579	2.68
273.048	1.58
273.516	2.08
273.985	7.68
274.453	9.98
274.922	12.58
275.39	7.38
275.858	1.48
276.327	3.08
276.795	14.18
277.263	-0.02
277.731	12.78
278.2	9.78
278.668	9.38
279.136	8.48
279.604	6.48
280.072	9.48
280.54	10.18
281.008	7.08
281.477	12.88
281.945	9.18
282.413	6.58
282.881	14.48
283.348	5.08
283.816	8.58
284.284	13.08
284.752	14.98
285.22	12.08
285.688	15.08
286.156	9.88
286.623	15.28
287.091	9.88
287.559	9.78
288.026	16.78
288.494	14.48
288.962	3.88
289.429	9.08
289.897	15.98
290.364	13.88
290.832	11.88
291.3	11.08
291.767	13.28
292.234	14.28
292.702	10.48
293.169	11.18
293.637	16.58
294.104	16.78
294.571	5.08
295.039	7.58
295.506	12.88
295.973	14.98
296.44	12.28
296.908	20.18
297.375	8.88
297.842	18.38
298.309	12.48
298.776	14.08
299.243	18.48
299.71	9.88
300.177	18.78
300.644	17.08
301.111	16.08
301.578	19.38
302.045	15.08
302.512	20.98
302.979	25.28
303.446	20.28
303.913	11.68
304.379	14.38
304.846	21.98
305.313	22.98
305.78	20.98
306.246	23.48
306.713	22.88
307.18	18.68
307.646	19.38
308.113	25.68
308.579	24.28
309.046	22.18
309.512	19.58
309.979	13.98
310.445	22.48
310.912	27.68
311.378	31.18
311.845	23.18
312.311	32.78
312.777	23.28
313.244	27.38
313.71	36.78
314.176	25.98
314.642	25.98
315.109	29.58
315.575	31.58
316.041	34.68
316.507	24.48
316.973	34.18
317.439	25.48
317.905	32.68
318.371	30.68
318.837	27.28
319.303	33.28
319.769	29.98
320.235	31.08
320.701	24.88
321.167	38.78
321.633	27.28
322.099	36.58
322.564	36.88
323.03	30.98
323.496	37.88
323.962	35.08
324.427	35.68
324.893	42.18
325.359	35.58
325.824	39.28
326.29	34.38
326.755	25.78
327.221	40.48
327.686	31.48
328.152	37.18
328.617	33.88
329.083	39.28
329.548	46.88
330.014	46.38
330.479	43.68
330.944	40.68
331.41	39.78
331.875	44.58
332.34	38.88
332.805	41.28
333.271	48.88
333.736	29.08
334.201	50.78
334.666	43.88
335.131	49.58
335.596	49.68
336.061	47.58
336.526	39.48
336.991	43.68
337.456	51.48
337.921	40.48
338.386	39.68
338.851	47.18
339.316	41.28
339.781	44.08
340.246	48.48
340.711	50.48
341.175	52.18
341.64	41.68
342.105	43.78
342.569	54.28
343.034	52.48
343.499	50.78
343.963	47.28
344.428	60.58
344.893	60.18
345.357	56.48
345.822	59.68
346.286	63.68
346.751	69.18
347.215	61.08
347.679	66.08
348.144	85.48
348.608	73.18
349.073	69.28
349.537	64.28
350.001	71.68
350.465	85.18
350.93	77.68
351.394	79.78
351.858	72.68
352.322	82.38
352.786	82.88
353.25	90.18
353.715	96.28
354.179	91.78
354.643	107.08
355.107	111.38
355.571	98.48
356.035	85.58
356.498	103.18
356.962	97.78
357.426	109.78
357.89	95.98
358.354	84.18
358.818	84.18
359.281	78.48
359.745	79.48
360.209	67.68
360.673	73.88
361.136	75.18
361.6	84.78
362.064	80.08
362.527	80.58
362.991	92.78
363.454	72.58
363.918	70.48
364.381	77.78
364.845	75.08
365.308	86.98
365.772	82.68
366.235	87.98
366.698	76.28
367.162	85.68
367.625	76.88
368.088	79.58
368.552	85.58
369.015	80.48
369.478	86.08
369.941	94.48
370.404	93.08
370.867	95.88
371.331	97.18
371.794	106.08
372.257	87.28
372.72	98.28
373.183	93.98
373.646	87.88
374.109	92.18
374.572	97.48
375.035	98.08
375.497	98.18
375.96	102.58
376.423	103.28
376.886	108.38
377.349	109.08
377.811	100.88
378.274	99.58
378.737	103.88
379.199	100.88
379.662	103.78
380.125	109.48
380.587	99.18
381.05	107.68
381.512	114.58
381.975	118.38
382.437	116.78
382.9	109.18
383.362	120.28
383.825	127.28
384.287	122.18
384.75	116.68
385.212	122.78
385.674	127.78
386.136	126.18
386.599	120.68
387.061	118.98
387.523	119.88
387.985	119.68
388.447	126.58
388.91	120.48
389.372	126.58
389.834	130.58
390.296	130.98
390.758	130.08
391.22	138.18
391.682	155.28
392.144	154.48
392.606	143.38
393.068	138.08
393.529	151.48
393.991	140.28
394.453	130.98
394.915	135.78
395.377	138.18
395.838	138.18
396.3	131.68
396.762	143.18
397.224	134.48
397.685	134.48
398.147	134.78
398.608	125.38
399.07	131.08
399.531	135.88
399.993	146.48
400.454	148.58
400.916	147.18
401.377	143.08
401.839	154.58
402.3	153.68
402.762	168.68
403.223	182.08
403.684	169.98
404.145	165.08
404.607	160.48
405.068	168.48
405.529	171.08
405.99	189.68
406.451	172.68
406.913	175.08
407.374	167.48
407.835	163.48
408.296	167.58
408.757	159.08
409.218	186.78
409.679	180.68
410.14	171.18
410.601	178.18
411.062	182.38
411.522	180.98
411.983	179.58
412.444	172.48
412.905	186.58
413.366	190.78
413.826	203.08
414.287	224.78
414.748	271.28
415.208	259.68
415.669	222.88
416.13	208.78
416.59	213.18
417.051	225.78
417.511	230.88
417.972	250.28
418.432	256.58
418.893	298.68
419.353	261.58
419.814	206.58
420.274	197.58
420.734	188.98
421.195	201.48
421.655	198.38
422.115	201.48
422.576	207.18
423.036	203.48
423.496	216.28
423.956	226.08
424.416	241.78
424.876	273.08
425.336	263.98
425.797	270.88
426.257	266.08
426.717	242.28
427.177	238.18
427.637	228.18
428.097	235.68
428.556	250.58
429.016	272.48
429.476	267.28
429.936	278.68
430.396	277.98
430.856	296.78
431.315	313.78
431.775	346.78
432.235	387.58
432.694	345.68
433.154	365.38
433.614	382.98
434.073	335.58
434.533	285.18
434.993	277.58
435.452	283.08
435.912	306.28
436.371	300.38
436.83	282.28
437.29	276.08
437.749	258.18
438.209	248.08
438.668	280.28
439.127	288.28
439.587	276.58
440.046	261.98
440.505	270.78
440.964	287.08
441.424	325.38
441.883	312.98
442.342	273.38
442.801	237.28
443.26	237.98
443.719	234.88
444.178	229.08
444.637	227.88
445.096	227.48
445.555	232.58
446.014	235.08
446.473	238.48
446.932	248.48
447.391	234.68
447.849	237.88
448.308	232.58
448.767	233.08
449.226	251.18
449.685	250.98
450.143	269.68
450.602	251.98
451.061	237.98
451.519	250.78
451.978	244.28
452.436	249.78
452.895	253.48
453.353	264.38
453.812	247.68
454.27	249.78
454.729	250.68
455.187	254.18
455.646	264.08
456.104	264.78
456.562	270.98
457.021	276.68
457.479	276.38
457.937	279.88
458.395	281.58
458.854	265.98
459.312	265.48
459.77	290.08
460.228	274.48
460.686	261.48
461.144	260.48
461.602	262.28
462.06	252.08
462.518	275.08
462.976	268.88
463.434	279.28
463.892	278.98
464.35	297.18
464.808	309.98
465.266	284.38
465.724	286.98
466.181	290.98
466.639	289.38
467.097	304.08
467.555	313.88
468.012	322.88
468.47	331.78
468.928	346.68
469.385	366.48
469.843	366.28
470.3	366.98
470.758	387.78
471.215	404.58
471.673	427.18
472.13	434.48
472.588	439.48
473.045	394.98
473.503	398.68
473.96	422.58
474.417	425.18
474.875	455.08
475.332	494.28
475.789	478.58
476.246	491.78
476.704	510.98
477.161	528.58
477.618	543.38
478.075	580.18
478.532	635.58
478.989	707.88
479.446	819.08
479.903	787.88
480.36	816.38
480.817	867.18
481.274	961.28
481.731	1057.48
482.188	1142.58
482.645	1256.88
483.102	1349.08
483.558	1466.28
484.015	1503.38
484.472	1481.98
484.929	1437.98
485.385	1402.28
485.842	1373.38
486.299	1326.78
486.755	1274.58
487.212	1100.48
487.668	929.88
488.125	861.68
488.582	797.78
489.038	762.38
489.494	721.28
489.951	710.68
490.407	700.38
490.864	676.48
491.32	669.78
491.776	663.68
492.233	673.08
492.689	645.28
493.145	643.58
493.602	633.38
494.058	647.28
494.514	643.98
494.97	668.78
495.426	684.28
495.882	654.48
496.338	645.98
496.794	660.98
497.251	638.58
497.707	665.18
498.163	672.68
498.618	671.78
499.074	679.68
499.53	695.98
499.986	696.08
500.442	670.98
500.898	656.88
501.354	656.38
501.809	658.08
502.265	658.98
502.721	664.48
503.177	677.08
503.632	674.58
504.088	683.38
504.543	708.28
504.999	729.08
505.455	686.78
505.91	670.68
506.366	672.98
506.821	670.28
507.277	659.58
507.732	666.58
508.187	672.58
508.643	677.98
509.098	682.68
509.553	701.58
510.009	705.28
510.464	716.98
510.919	740.58
511.375	738.78
511.83	750.18
512.285	761.88
512.74	812.18
513.195	830.88
513.65	817.58
514.105	809.38
514.56	817.48
515.015	833.98
515.47	854.78
515.925	836.08
516.38	839.78
516.835	844.08
517.29	835.98
517.745	832.68
518.2	816.68
518.655	791.58
519.109	788.58
519.564	781.98
520.019	775.78
520.474	770.38
520.928	774.38
521.383	762.38
521.838	756.38
522.292	746.18
522.747	749.98
523.201	744.68
523.656	739.98
524.11	729.18
524.565	738.28
525.019	741.68
525.474	741.08
525.928	741.38
526.382	738.68
526.837	739.38
527.291	747.88
527.745	736.58
528.2	738.18
528.654	732.58
529.108	721.88
529.562	726.58
530.016	740.08
530.47	733.98
530.925	729.68
531.379	727.28
531.833	742.28
532.287	739.58
532.741	736.78
533.195	742.28
533.649	744.68
534.103	763.48
534.556	744.48
535.01	757.38
535.464	751.38
535.918	761.18
536.372	770.08
536.826	760.28
537.279	747.18
537.733	755.38
538.187	754.68
538.64	758.78
539.094	758.88
539.548	781.78
540.001	766.28
540.455	765.08
540.908	767.88
541.362	779.18
541.815	784.08
542.269	801.88
542.722	807.98
543.175	817.38
543.629	826.38
544.082	828.98
544.536	842.78
544.989	834.28
545.442	846.68
545.895	840.18
546.349	846.08
546.802	845.88
547.255	858.78
547.708	866.68
548.161	861.68
548.614	877.28
549.067	883.38
549.52	877.58
549.973	864.08
550.426	857.48
550.879	849.68
551.332	848.68
551.785	870.18
552.238	867.58
552.691	871.68
553.144	882.68
553.596	900.88
554.049	921.98
554.502	941.08
554.955	974.68
555.407	963.28
555.86	957.88
556.313	956.18
556.765	932.38
557.218	943.18
557.67	942.78
558.123	946.38
558.576	931.78
559.028	938.48
559.48	941.38
559.933	918.48
560.385	891.08
560.838	866.58
561.29	838.48
561.742	840.28
562.195	816.88
562.647	814.38
563.099	822.38
563.551	825.08
564.004	834.18
564.456	814.78
564.908	804.28
565.36	785.98
565.812	777.38
566.264	760.08
566.716	761.08
567.168	749.28
567.62	752.88
568.072	744.08
568.524	733.98
568.976	730.58
569.428	717.38
569.88	719.68
570.332	727.18
570.784	724.38
571.235	729.28
571.687	738.58
572.139	752.18
572.59	761.08
573.042	756.28
573.494	758.88
573.945	759.48
574.397	733.98
574.849	728.58
575.3	738.58
575.752	726.78
576.203	724.48
576.655	730.68
577.106	708.08
577.557	716.58
578.009	712.88
578.46	696.88
578.912	696.98
579.363	705.18
579.814	707.68
580.265	700.28
580.717	721.78
581.168	709.78
581.619	713.38
582.07	726.18
582.521	720.98
582.972	709.18
583.423	712.78
583.875	716.88
584.326	720.08
584.777	741.38
585.227	755.98
585.678	773.58
586.129	798.38
586.58	809.38
587.031	847.38
587.482	883.18
587.933	910.48
588.384	877.68
588.834	832.38
589.285	812.28
589.736	814.48
590.186	818.38
590.637	812.38
591.088	785.78
591.538	785.98
591.989	764.68
592.439	757.28
592.89	753.88
593.34	742.98
593.791	740.58
594.241	738.28
594.692	730.48
595.142	737.68
595.593	732.08
596.043	748.48
596.493	734.68
596.943	750.18
597.394	750.28
597.844	756.68
598.294	773.68
598.744	788.68
599.195	823.98
599.645	859.18
600.095	913.88
600.545	962.78
600.995	1017.98
601.445	1091.18
601.895	1149.58
602.345	1201.08
602.795	1170.18
603.245	1136.08
603.695	1078.88
604.145	1015.68
604.594	977.18
605.044	922.28
605.494	854.28
605.944	795.58
606.393	776.68
606.843	765.08
607.293	776.38
607.743	766.48
608.192	780.58
608.642	783.48
609.091	791.38
609.541	798.08
609.99	793.78
610.44	793.38
610.889	749.88
611.339	733.78
611.788	720.28
612.238	731.58
612.687	728.18
613.136	735.18
613.586	737.68
614.035	727.78
614.484	749.78
614.933	748.18
615.383	737.18
615.832	747.18
616.281	734.28
616.73	708.78
617.179	686.18
617.628	669.08
618.077	656.58
618.526	651.78
618.975	650.18
619.424	655.38
619.873	644.28
620.322	638.28
620.771	635.38
621.22	641.38
621.669	616.38
622.118	624.78
622.567	616.98
623.015	593.98
623.464	600.38
623.913	594.38
624.361	583.98
624.81	582.28
625.259	583.28
625.707	579.38
626.156	577.08
626.604	583.88
627.053	594.88
627.501	592.68
627.95	598.88
628.398	613.98
628.847	590.78
629.295	605.18
629.744	598.48
630.192	596.28
630.64	587.58
631.089	566.78
631.537	567.38
631.985	559.78
632.433	563.18
632.881	550.98
633.33	560.58
633.778	547.88
634.226	546.58
634.674	554.58
635.122	564.28
635.57	579.68
636.018	589.18
636.466	590.48
636.914	577.98
637.362	595.58
637.81	594.88
638.258	613.88
638.705	611.98
639.153	636.08
639.601	639.08
640.049	680.88
640.497	700.58
640.944	717.88
641.392	674.18
641.84	640.38
642.287	605.08
642.735	587.98
643.182	597.08
643.63	586.68
644.078	588.08
644.525	608.78
644.973	600.78
645.42	610.58
645.867	634.88
646.315	658.28
646.762	675.28
647.21	706.58
647.657	723.88
648.104	762.78
648.551	782.08
648.999	840.78
649.446	924.38
649.893	1006.48
650.34	1156.58
650.787	1357.18
651.234	1680.98
651.682	2162.38
652.129	2929.58
652.576	4143.28
653.023	6049.08
653.47	8213.98
653.917	10177.38
654.363	11712.38
654.81	12953.18
655.257	12313.08
655.704	8131.88
656.151	4893.88
656.598	3221.78
657.044	2302.78
657.491	1794.28
657.938	1455.88
658.385	1216.78
658.831	1058.28
659.278	958.88
659.724	856.78
660.171	798.38
660.618	743.68
661.064	708.58
661.511	678.08
661.957	665.08
662.404	654.98
662.85	668.08
663.296	640.08
663.743	581.28
664.189	549.28
664.635	550.08
665.082	547.08
665.528	556.78
665.974	542.58
666.42	531.58
666.867	516.18
667.313	506.28
667.759	488.08
668.205	471.68
668.651	472.38
669.097	470.48
669.543	462.38
669.989	464.28
670.435	461.48
670.881	461.18
671.327	468.08
671.773	487.58
672.219	517.08
672.665	566.88
673.11	610.78
673.556	664.28
674.002	695.58
674.448	687.88
674.893	577.18
675.339	492.58
675.785	459.08
676.23	441.58
676.676	413.88
677.122	400.98
677.567	396.38
678.013	386.38
678.458	378.48
678.904	377.88
679.349	368.48
679.794	376.18
680.24	370.38
680.685	361.68
681.131	376.98
681.576	362.78
682.021	371.78
682.466	364.18
682.912	370.08
683.357	369.88
683.802	405.08
684.247	429.78
684.692	479.08
685.137	526.28
685.583	567.08
686.028	590.48
686.473	546.18
686.918	472.68
687.363	445.58
687.807	419.08
688.252	380.18
688.697	368.58
689.142	356.28
689.587	345.98
690.032	343.58
690.477	357.18
690.921	372.48
691.366	405.68
691.811	426.88
692.255	452.98
692.7	485.18
693.145	537.98
693.589	738.48
694.034	1195.88
694.478	1630.68
694.923	1853.38
695.367	2402.88
695.812	1264.58
696.256	517.78
696.701	390.88
697.145	364.98
697.59	341.78
698.034	327.18
698.478	355.68
698.922	339.48
699.367	335.78
699.811	347.08
700.255	370.18
700.699	396.98
701.143	437.88
701.588	487.98
702.032	537.28
702.476	546.08
702.92	514.58
703.364	521.78
703.808	681.88
704.252	1093.88
704.696	1538.98
705.14	1784.98
705.584	2254.28
706.027	1125.48
706.471	564.98
706.915	417.68
707.359	370.58
707.803	335.48
708.246	330.48
708.69	333.28
709.134	327.98
709.577	325.38
710.021	338.68
710.465	317.38
710.908	311.18
711.352	307.58
711.795	329.48
712.239	370.38
712.682	405.18
713.126	429.58
713.569	481.68
714.012	374.28
714.456	318.38
714.899	303.48
715.342	278.08
715.786	270.38
716.229	277.48
716.672	269.88
717.115	258.18
717.558	259.38
718.002	262.98
718.445	273.98
718.888	303.68
719.331	304.68
719.774	322.48
720.217	312.08
720.66	297.68
721.103	279.18
721.546	269.18
721.989	252.98
722.432	237.48
722.874	249.38
723.317	240.78
723.76	244.28
724.203	279.48
724.645	332.08
725.088	471.48
725.531	599.58
725.974	674.38
726.416	569.98
726.859	321.38
727.301	256.78
727.744	248.78
728.187	243.88
728.629	245.68
729.071	261.28
729.514	279.38
729.956	291.88
730.399	299.58
730.841	301.28
731.283	290.48
731.726	285.68
732.168	279.88
732.61	281.38
733.053	296.58
733.495	339.88
733.937	377.28
734.379	428.38
734.821	462.28
735.263	586.18
735.705	891.98
736.148	1669.78
736.59	2737.68
737.032	3241.88
737.474	2646.98
737.916	857.08
738.357	445.68
738.799	342.58
739.241	316.68
739.683	299.98
740.125	309.88
740.567	320.08
741.008	332.68
741.45	328.18
741.892	335.48
742.334	370.48
742.775	384.58
743.217	369.18
743.658	290.78
744.1	271.58
744.542	279.58
744.983	327.98
745.425	367.18
745.866	364.08
746.307	292.78
746.749	300.28
747.19	341.48
747.632	481.18
748.073	935.28
748.514	1987.68
748.956	3039.98
749.397	3791.48
749.838	3157.28
750.279	3116.78
750.72	1583.78
751.162	588.98
751.603	342.08
752.044	261.98
752.485	226.78
752.926	215.18
753.367	214.58
753.808	212.38
754.249	208.08
754.69	195.48
755.131	195.38
755.572	185.88
756.013	191.58
756.453	186.88
756.894	195.38
757.335	197.68
757.776	206.68
758.216	205.08
758.657	208.58
759.098	214.28
759.538	238.08
759.979	282.48
760.42	392.98
760.86	755.18
761.301	1942.88
761.741	4719.68
762.182	6818.78
762.622	4785.98
763.063	1380.38
763.503	565.08
763.943	342.48
764.384	289.28
764.824	274.78
765.264	251.18
765.705	220.68
766.145	193.98
766.585	190.68
767.025	176.68
767.465	175.38
767.906	189.08
768.346	204.48
768.786	218.08
769.226	227.88
769.666	323.68
770.106	647.68
770.546	1657.88
770.986	2785.98
771.426	2498.48
771.866	837.08
772.306	343.58
772.745	221.88
773.185	178.18
773.625	171.58
774.065	158.88
774.505	170.78
774.944	218.78
775.384	387.58
775.824	635.98
776.263	608.68
776.703	294.98
777.142	170.68
777.582	139.58
778.021	135.08
778.461	126.08
778.9	134.18
779.34	134.28
779.779	123.98
780.219	119.68
780.658	106.78
781.097	119.08
781.537	118.98
781.976	109.28
782.415	117.38
782.855	109.68
783.294	111.28
783.733	103.78
784.172	113.38
784.611	106.58
785.05	113.38
785.489	117.18
785.928	121.68
786.367	125.48
786.806	120.58
787.245	131.98
787.684	143.08
788.123	156.58
788.562	140.68
789.001	135.98
789.44	126.28
789.879	122.08
790.317	119.68
790.756	126.28
791.195	135.58
791.634	152.18
792.072	215.68
792.511	385.88
792.95	1062.28
793.388	2237.28
793.827	2027.28
794.265	709.48
794.704	296.98
795.142	187.18
795.581	159.98
796.019	155.28
796.458	134.08
796.896	135.18
797.334	140.48
797.773	163.28
798.211	225.68
798.649	462.78
799.087	1080.28
799.526	1679.58
799.964	2118.58
800.402	2122.78
800.84	796.48
801.278	320.48
801.716	191.18
802.154	162.08
802.592	149.38
803.03	148.38
803.468	144.08
803.906	150.78
804.344	152.78
804.782	150.88
805.22	140.08
805.658	134.68
806.096	156.08
806.533	157.38
806.971	185.18
807.409	228.88
807.847	333.68
808.284	705.88
808.722	1989.18
809.16	3501.68
809.597	3324.88
810.035	5748.28
810.472	6105.38
810.91	2231.58
811.347	848.28
811.785	437.58
812.222	274.38
812.66	208.08
813.097	176.48
813.535	149.58
813.972	137.88
814.409	125.68
814.846	113.28
815.284	112.78
815.721	104.18
816.158	105.38
816.595	110.38
817.032	165.98
817.47	188.98
817.907	144.48
818.344	99.08
818.781	101.58
819.218	106.48
819.655	131.68
820.092	198.68
820.529	226.48
820.966	180.98
821.403	138.48
821.839	106.28
822.276	106.48
822.713	133.58
823.15	144.18
823.587	123.78
824.023	160.18
824.46	324.38
824.897	950.18
825.333	1426.18
825.77	617.18
826.206	243.58
826.643	147.68
827.08	108.38
827.516	88.88
827.953	79.58
828.389	79.48
828.825	76.08
829.262	73.78
829.698	66.48
830.135	63.68
830.571	64.48
831.007	65.78
831.443	58.38
831.88	63.68
832.316	68.08
832.752	67.58
833.188	72.38
833.624	66.08
834.06	72.68
834.497	77.48
834.933	74.58
835.369	80.88
835.805	69.68
836.241	83.18
836.677	82.78
837.112	99.38
837.548	104.28
837.984	139.18
838.42	215.48
838.856	529.48
839.292	1614.78
839.727	2437.98
840.163	1141.68
840.599	993.28
841.034	2146.38
841.47	2256.98
841.906	827.28
842.341	346.88
842.777	207.68
843.212	219.48
843.648	201.38
844.083	123.68
844.519	91.98
844.954	73.28
845.39	53.98
845.825	60.08
846.261	58.78
846.696	58.18
847.131	55.28
847.566	56.68
848.002	55.68
848.437	55.18
848.872	64.08
849.307	70.88
849.742	87.08
850.177	192.58
850.613	589.88
851.048	924.18
851.483	397.98
851.918	163.38
852.353	91.68
852.788	59.58
853.223	50.08
853.657	57.28
854.092	52.48
854.527	41.28
854.962	39.88
855.397	39.58
855.832	49.78
856.266	38.38
856.701	44.78
857.136	36.18
857.57	42.88
858.005	53.98
858.44	60.38
858.874	49.28
859.309	55.78
859.743	44.58
860.178	50.38
860.612	40.78
861.047	56.78
861.481	80.28
861.915	86.08
862.35	54.98
862.784	36.88
863.218	40.68
863.653	30.98
864.087	48.68
864.521	56.48
864.955	68.98
865.39	156.88
865.824	183.68
866.258	129.88
866.692	184.48
867.126	198.68
867.56	118.28
867.994	55.38
868.428	40.68
868.862	53.48
869.296	59.78
869.73	60.78
870.164	56.28
870.598	53.48
871.031	45.48
871.465	35.48
871.899	31.28
872.333	22.58
872.766	24.28
873.2	27.28
873.634	38.18
874.067	24.28
874.501	27.28
874.935	41.78
875.368	34.18
875.802	27.48
876.235	27.98
876.669	22.78
877.102	18.88
877.535	28.48
877.969	22.48
878.402	23.78
878.836	22.18
879.269	28.88
879.702	27.08
880.135	25.28
880.569	24.28
881.002	28.38
881.435	28.38
881.868	21.58
882.301	23.38
882.734	14.38
883.167	22.88
883.601	21.38
884.034	25.98
884.467	17.18
884.899	19.18
885.332	20.58
885.765	17.48
886.198	16.78
886.631	18.38
887.064	17.18
887.497	23.78
887.929	27.18
888.362	12.58
888.795	20.28
889.228	21.28
889.66	19.78
890.093	24.38
890.526	16.68
890.958	20.78
891.391	21.48
891.823	23.28
892.256	11.98
892.688	10.58
893.121	16.68
893.553	17.48
893.985	23.88
894.418	22.18
894.85	20.18
895.282	15.98
895.715	15.28
896.147	17.88
896.579	14.48
897.011	16.08
897.444	21.48
897.876	10.68
898.308	16.88
898.74	16.78
899.172	11.28
899.604	26.58
900.036	19.08
900.468	13.18
900.9	16.58
901.332	16.68
901.764	17.78
902.196	23.68
902.628	20.98
903.06	16.78
903.491	33.78
903.923	24.68
904.355	20.18
904.787	26.48
905.218	22.38
905.65	24.88
906.082	13.48
906.513	14.28
906.945	13.08
907.376	21.28
907.808	24.28
908.239	17.48
908.671	19.48
909.102	22.88
909.534	24.38
909.965	44.28
910.397	103.18
910.828	328.38
911.259	497.28
911.691	225.38
912.122	112.28
912.553	56.08
912.984	35.28
913.415	27.08
913.847	29.88
914.278	23.88
914.709	12.88
915.14	15.08
915.571	10.78
916.002	11.78
916.433	19.58
916.864	16.08
917.295	13.78
917.726	27.98
918.157	22.38
918.587	30.88
919.018	25.68
919.449	23.58
919.88	28.98
920.311	31.88
920.741	55.58
921.172	185.88
921.603	160.58
922.033	77.28
922.464	51.28
922.895	25.18
923.325	23.18
923.756	16.08
924.186	18.28
924.617	19.28
925.047	23.38
925.478	24.18
925.908	20.48
926.338	13.38
926.769	12.98
927.199	16.98
927.629	9.18
928.06	15.68
928.49	13.78
928.92	12.38
929.35	12.48
929.78	9.58
930.21	9.18
930.641	13.28
931.071	12.28
931.501	10.88
931.931	9.28
932.361	12.78
932.791	3.68
933.221	9.68
933.651	8.38
934.08	25.38
934.51	35.58
934.94	10.48
935.37	11.28
935.8	12.38
936.229	8.98
936.659	11.38
937.089	1.68
937.519	18.18
937.948	21.18
938.378	18.08
938.807	8.08
939.237	6.48
939.666	14.78
940.096	-2.42
940.525	-1.72
940.955	-0.62
941.384	4.28
941.814	-2.72
942.243	-1.52
942.672	3.98
943.102	-3.22
943.531	2.88
943.96	8.48
944.39	4.28
944.819	8.18
945.248	7.98
945.677	3.78
946.106	7.98
946.535	8.18
946.964	-1.92
947.393	1.68
947.822	5.48
948.251	-2.72
948.68	2.78
949.109	9.38
949.538	9.98
949.967	-2.62
950.396	-0.02
950.825	1.28
951.254	0.68
951.682	-8.12
952.111	-0.32
952.54	8.98
952.969	-5.82
953.397	0.38
953.826	-1.32
954.254	-0.92
954.683	4.08
955.112	-5.12
955.54	-4.82
955.969	1.48
956.397	1.08
956.826	-0.52
957.254	3.78
957.682	1.58
958.111	12.08
958.539	0.38
958.967	-0.12
959.396	3.58
959.824	-1.92
960.252	4.38
960.68	-7.82
961.109	1.88
961.537	0.48
961.965	3.28
962.393	0.98
962.821	-0.92
963.249	5.58
963.677	0.98
964.105	4.48
964.533	50.68
964.961	39.38
965.389	23.68
965.817	12.88
966.245	3.08
966.672	1.78
967.1	-6.92
967.528	-2.72
967.956	0.88
968.383	-1.12
968.811	-6.02
969.239	-4.82
969.666	-7.82
970.094	2.08
970.522	-2.12
970.949	4.08
971.377	-4.72
971.804	-6.42
972.232	-6.12
972.659	-1.02
973.087	-1.92
973.514	-6.62
973.941	-10.22
974.369	5.48
974.796	-0.72
975.223	-1.72
975.651	-0.82
976.078	1.58
976.505	-0.12
976.932	8.08
977.359	16.58
977.786	13.18
978.214	0.68
978.641	-2.82
979.068	-4.72
979.495	-2.42
979.922	1.68
980.349	-7.42
980.776	5.98
981.202	-0.32
981.629	2.78
982.056	0.78
982.483	-2.02
982.91	2.58
983.337	-7.62
983.763	0.98
984.19	-6.82
984.617	1.08
985.043	-6.72
985.47	3.28
985.897	-2.32
986.323	-3.62
986.75	1.48
987.176	3.58
987.603	-0.72
988.029	2.08
988.456	0.88
988.882	11.78
989.308	0.08
989.735	-4.52
990.161	1.08
990.587	-3.82
991.014	3.68
991.44	3.98
991.866	-0.12
992.292	-7.22
992.719	1.98
993.145	3.98
993.571	-18.82
993.997	-4.22
994.423	-5.02
994.849	3.48
995.275	1.08
995.701	-2.02
996.127	-2.92
996.553	0.48
996.979	2.38
997.405	-3.22
997.83	0.48
998.256	-4.22
998.682	-7.62
999.108	-8.72
999.534	-0.42
999.959	-1.02
1000.385	-4.42
1000.811	3.28
1001.236	-6.12
1001.662	-9.52
1002.087	-11.82
1002.513	0.68
1002.938	3.58
1003.364	-1.52
1003.789	-3.42
1004.215	2.48
1004.64	-7.32
1005.066	4.28
1005.491	0.28
1005.916	-4.72
1006.342	-7.52
1006.767	-5.72
1007.192	8.48
1007.617	-5.82
1008.042	-3.72
1008.468	-6.72
1008.893	-0.22
1009.318	-1.52
1009.743	-2.22
1010.168	3.58
1010.593	0.68
1011.018	-6.02
1011.443	-7.12
1011.868	-5.92
1012.293	-0.62
1012.718	-3.72
1013.143	-0.22
1013.567	2.58
1013.992	3.28
1014.417	-15.12
1014.842	9.68
1015.267	-2.22
1015.691	-3.52
1016.116	1.78
1016.541	1.48
1016.965	5.68
1017.39	-1.72
1017.814	1.68
1018.239	-0.32
1018.663	-9.92
1019.088	-15.62
1019.512	-2.52
1019.937	-5.02
1020.361	-5.52
1020.785	-10.02
1021.21	-0.52
1021.634	0.18
1022.058	0.98
1022.483	6.38
1022.907	-8.02
1023.331	-2.32
1023.755	-4.72
1024.179	-2.92
1024.604	-8.62
1025.028	-7.22
1025.452	-4.92
1025.876	-8.92
1026.3	2.98
1026.724	-12.72
1027.148	-2.72
1027.572	-5.52
1027.996	-7.92
1028.42	-7.22
1028.843	-4.02
1029.267	-4.92
1029.691	-0.32
1030.115	-8.42
1030.539	-11.82
1030.962	-2.52
1031.386	-11.12
1031.81	-1.62
1032.233	3.58
1032.657	-3.92
1033.08	1.08
1033.504	-3.12
1033.927	-3.62
1034.351	5.38
1034.774	-8.62
1035.198	-3.62
1035.621	-5.62
1036.045	-6.52
1036.468	-1.52
1036.891	-12.62
1037.315	-10.02
1037.738	-6.32
1038.161	-4.02
1038.584	-10.82
1039.008	-4.72
1039.431	-6.82
1039.854	-3.52
1040.277	-6.12
1040.7	-9.42
1041.123	-5.32
1041.546	-3.82
1041.969	-5.22
1042.392	-2.82
1042.815	-0.82
1043.238	2.98
1043.661	2.48
1044.084	-2.72
1044.507	-3.42
1044.93	-7.62
1045.352	-7.02
1045.775	1.98
1046.198	-2.12
1046.621	-7.12
1047.043	-0.92
1047.466	6.38
1047.889	-5.62
1048.311	-2.82
1048.734	1.18
1049.156	-3.32
1049.579	-2.62
1050.001	-3.12
1050.424	-0.32
1050.846	-5.42
1051.269	-3.42
1051.691	-6.12
1052.113	-3.72
1052.536	-2.82
1052.958	-4.12
1053.38	-2.02
1053.802	-9.32
1054.225	0.98
1054.647	-4.62
1055.069	-2.62
1055.491	-1.62
1055.913	-5.32
1056.335	1.08
1056.757	-3.62
1057.179	-4.42
1057.601	-6.22
1058.023	-7.72
1058.445	-2.42
1058.867	-5.62
1059.289	-0.82
1059.711	-6.72
1060.133	-2.52
1060.555	-5.22
1060.976	-5.02
1061.398	-5.92
1061.82	-10.82
1062.241	-2.72
1062.663	-2.82
1063.085	-7.82
1063.506	-1.92
1063.928	-4.62
1064.35	-4.52
1064.771	-8.62
1065.193	-7.62
1065.614	-5.12
1066.035	-1.92
1066.457	-7.72
1066.878	-1.22
1067.3	-4.02
1067.721	1.58
1068.142	-4.32
1068.564	-4.72
1068.985	-2.72
1069.406	-8.32
1069.827	-6.22
1070.248	-5.72
1070.67	-5.72
1071.091	-6.82
1071.512	-2.92
1071.933	-6.02
1072.354	-0.32
1072.775	-3.72
1073.196	-5.42
1073.617	-3.72
1074.038	-12.22
1074.459	0.08
1074.88	-4.82
1075.3	-1.42
1075.721	-0.92
1076.142	-7.92
1076.563	-0.52
1076.983	-10.02
1077.404	-3.12
1077.825	-9.02
1078.246	-3.62
1078.666	-6.82
1079.087	-4.32
1079.507	-9.52
1079.928	2.58
1080.348	-0.42
1080.769	-7.32
1081.189	-5.22
1081.61	-2.02
1082.03	-5.22
1082.451	-6.32
1082.871	-0.52
1083.291	-5.22
1083.711	-9.52
1084.132	-8.92
1084.552	-7.32
1084.972	4.68
1085.392	-13.02
1085.813	-17.92
1086.233	-8.22
1086.653	-4.12
1087.073	-3.32
1087.493	-12.22
1087.913	-5.22
1088.333	-7.12
1088.753	-0.72
1089.173	-2.02
1089.593	-1.82
1090.013	-2.22
1090.433	-1.32
1090.852	0.28
1091.272	-3.52
1091.692	0.88
1092.112	-2.22
1092.531	-5.32
1092.951	-10.72
1093.371	1.48
1093.79	-4.92
1094.21	-2.52
1094.63	-2.32
1095.049	-6.82
1095.469	-1.82
1095.888	-2.32
1096.308	1.48
1096.727	4.98
1097.146	0.68
1097.566	-1.22
1097.985	-5.82
1098.405	-1.12
1098.824	0.48
1099.243	-3.42
1099.662	-10.52
1100.082	-2.82
1100.501	-5.62
1100.92	-5.12
1101.339	-3.32
1101.758	-5.92
