Data from 20171114-ORNL-Ar_H_NY_Subt18_08-06-51-853.txt Node
Date: Tue Nov 14 08:06:51 EST 2017
User: Ender
Spectrometer: HR+D1039
Trigger mode: 0
Integration Time (sec): 2.730000E-2
Scans to average: 10
Electric dark correction enabled: true
Nonlinearity correction enabled: false
Boxcar width: 0
XAxis mode: Wavelengths
Number of Pixels in Spectrum: 2048
>>>>>Begin Spectral Data<<<<<
187.836	-5.26
188.309	-5.26
188.782	-5.26
189.255	2.34
189.728	-0.16
190.201	7.54
190.674	3.54
191.147	-0.06
191.619	-3.26
192.092	-0.16
192.565	4.64
193.038	-3.56
193.511	-1.26
193.984	3.04
194.456	-2.36
194.929	3.64
195.402	-2.16
195.874	-6.56
196.347	1.24
196.82	-6.26
197.292	0.34
197.765	0.34
198.237	-7.26
198.71	5.04
199.182	-3.56
199.655	-0.06
200.127	7.34
200.6	-1.86
201.072	-1.16
201.544	-6.26
202.017	-4.06
202.489	6.54
202.961	-3.96
203.433	-5.46
203.906	-4.66
204.378	-2.76
204.85	-3.46
205.322	-10.66
205.794	1.64
206.266	-0.46
206.739	-9.36
207.211	0.04
207.683	-11.06
208.155	-1.46
208.627	-1.66
209.099	-5.56
209.57	-5.86
210.042	-1.76
210.514	-2.86
210.986	-3.76
211.458	-8.86
211.93	-0.56
212.402	4.74
212.873	-4.16
213.345	-8.16
213.817	-11.76
214.288	-5.16
214.76	-5.76
215.232	-5.26
215.703	1.44
216.175	-4.36
216.646	-0.06
217.118	-4.46
217.589	-4.76
218.061	1.74
218.532	-2.06
219.004	1.34
219.475	-2.76
219.946	-5.16
220.418	-6.06
220.889	1.14
221.36	1.04
221.832	-4.16
222.303	-4.66
222.774	-2.06
223.245	-13.26
223.717	-7.06
224.188	-3.46
224.659	-8.06
225.13	-3.66
225.601	3.94
226.072	6.24
226.543	-1.26
227.014	-3.26
227.485	-2.36
227.956	-5.96
228.427	-2.26
228.898	1.74
229.369	0.44
229.839	-4.36
230.31	-2.26
230.781	2.84
231.252	-4.66
231.722	-6.56
232.193	-5.16
232.664	-6.66
233.135	0.44
233.605	1.44
234.076	-4.76
234.546	0.44
235.017	2.64
235.487	0.14
235.958	-2.56
236.428	-5.56
236.899	0.74
237.369	2.64
237.84	-0.66
238.31	3.44
238.78	-8.26
239.251	-3.56
239.721	-8.56
240.191	0.84
240.662	-6.56
241.132	1.64
241.602	-6.96
242.072	-3.06
242.542	4.54
243.013	-3.06
243.483	2.84
243.953	2.84
244.423	-2.86
244.893	-4.86
245.363	-1.86
245.833	-3.06
246.303	-4.16
246.773	4.74
247.243	6.64
247.712	4.54
248.182	5.34
248.652	4.24
249.122	-8.26
249.592	-2.16
250.061	-0.06
250.531	15.24
251.001	-4.26
251.471	6.84
251.94	8.64
252.41	-1.06
252.879	-4.36
253.349	10.84
253.818	5.04
254.288	4.04
254.757	-0.86
255.227	1.34
255.696	1.84
256.166	5.74
256.635	9.14
257.105	0.24
257.574	5.44
258.043	2.74
258.513	-1.96
258.982	6.24
259.451	-1.06
259.92	1.34
260.389	5.04
260.859	12.94
261.328	6.44
261.797	4.54
262.266	2.74
262.735	8.34
263.204	0.14
263.673	4.64
264.142	1.74
264.611	1.34
265.08	-5.06
265.549	0.24
266.018	-1.16
266.487	1.44
266.955	-5.26
267.424	-7.36
267.893	8.44
268.362	4.34
268.83	5.84
269.299	4.34
269.768	4.64
270.236	6.44
270.705	1.54
271.174	6.74
271.642	5.14
272.111	0.14
272.579	5.74
273.048	8.64
273.516	8.34
273.985	3.64
274.453	6.24
274.922	13.24
275.39	7.84
275.858	0.14
276.327	12.64
276.795	22.14
277.263	2.84
277.731	14.74
278.2	16.34
278.668	7.94
279.136	11.24
279.604	8.84
280.072	12.34
280.54	8.84
281.008	8.24
281.477	12.74
281.945	7.34
282.413	15.14
282.881	19.64
283.348	2.64
283.816	11.74
284.284	10.04
284.752	22.84
285.22	12.14
285.688	6.64
286.156	10.04
286.623	21.24
287.091	13.04
287.559	11.64
288.026	11.54
288.494	18.14
288.962	-2.56
289.429	6.54
289.897	20.34
290.364	15.34
290.832	12.94
291.3	11.14
291.767	11.04
292.234	12.74
292.702	14.64
293.169	17.54
293.637	14.74
294.104	20.84
294.571	11.04
295.039	11.04
295.506	8.84
295.973	17.04
296.44	17.64
296.908	10.54
297.375	13.24
297.842	16.34
298.309	16.04
298.776	8.54
299.243	18.24
299.71	12.34
300.177	17.84
300.644	18.14
301.111	14.84
301.578	24.84
302.045	10.04
302.512	14.64
302.979	20.84
303.446	21.54
303.913	20.94
304.379	16.24
304.846	19.54
305.313	16.94
305.78	18.44
306.246	25.14
306.713	23.34
307.18	21.14
307.646	19.04
308.113	24.54
308.579	18.94
309.046	25.24
309.512	25.84
309.979	14.14
310.445	23.94
310.912	22.04
311.378	32.84
311.845	30.04
312.311	34.24
312.777	32.94
313.244	28.64
313.71	32.84
314.176	27.94
314.642	24.84
315.109	28.44
315.575	33.54
316.041	34.14
316.507	27.44
316.973	33.94
317.439	28.54
317.905	33.14
318.371	31.34
318.837	30.34
319.303	24.64
319.769	30.74
320.235	32.94
320.701	30.24
321.167	34.44
321.633	28.64
322.099	34.54
322.564	38.14
323.03	40.54
323.496	33.84
323.962	40.94
324.427	39.74
324.893	40.64
325.359	41.74
325.824	31.84
326.29	32.64
326.755	35.54
327.221	45.04
327.686	38.74
328.152	44.04
328.617	42.34
329.083	42.84
329.548	50.74
330.014	45.54
330.479	35.54
330.944	39.54
331.41	42.24
331.875	45.64
332.34	43.14
332.805	46.54
333.271	38.64
333.736	37.84
334.201	49.54
334.666	56.14
335.131	50.54
335.596	45.34
336.061	43.34
336.526	38.84
336.991	49.24
337.456	51.64
337.921	43.94
338.386	42.54
338.851	44.74
339.316	43.24
339.781	43.74
340.246	50.94
340.711	45.84
341.175	52.54
341.64	36.84
342.105	51.14
342.569	52.74
343.034	53.14
343.499	54.44
343.963	48.84
344.428	64.64
344.893	59.44
345.357	61.74
345.822	57.14
346.286	62.74
346.751	64.44
347.215	64.54
347.679	70.94
348.144	87.44
348.608	72.24
349.073	60.64
349.537	71.64
350.001	75.94
350.465	83.44
350.93	77.64
351.394	73.84
351.858	67.34
352.322	81.94
352.786	78.94
353.25	92.54
353.715	100.84
354.179	91.84
354.643	111.94
355.107	113.54
355.571	102.84
356.035	86.64
356.498	107.04
356.962	107.54
357.426	120.84
357.89	106.14
358.354	79.64
358.818	79.44
359.281	79.04
359.745	69.94
360.209	73.94
360.673	72.24
361.136	72.04
361.6	78.24
362.064	85.14
362.527	83.94
362.991	89.84
363.454	77.04
363.918	74.94
364.381	81.14
364.845	79.84
365.308	85.54
365.772	82.64
366.235	83.84
366.698	80.84
367.162	87.14
367.625	77.04
368.088	85.94
368.552	91.04
369.015	84.04
369.478	95.54
369.941	95.34
370.404	90.14
370.867	96.24
371.331	100.64
371.794	99.94
372.257	97.94
372.72	107.04
373.183	99.24
373.646	96.24
374.109	94.94
374.572	96.54
375.035	101.84
375.497	97.34
375.96	102.74
376.423	99.94
376.886	112.44
377.349	108.04
377.811	97.34
378.274	100.64
378.737	101.54
379.199	107.04
379.662	107.64
380.125	110.14
380.587	104.34
381.05	107.04
381.512	109.94
381.975	121.94
382.437	115.74
382.9	115.44
383.362	130.64
383.825	124.14
384.287	120.74
384.75	119.84
385.212	120.94
385.674	133.94
386.136	134.44
386.599	126.84
387.061	121.84
387.523	118.64
387.985	128.54
388.447	136.64
388.91	131.34
389.372	135.84
389.834	130.04
390.296	124.64
390.758	133.34
391.22	135.14
391.682	151.24
392.144	158.44
392.606	154.44
393.068	144.04
393.529	155.74
393.991	141.04
394.453	133.74
394.915	139.04
395.377	136.94
395.838	144.34
396.3	138.64
396.762	143.44
397.224	128.94
397.685	131.94
398.147	136.74
398.608	135.34
399.07	130.14
399.531	140.94
399.993	149.44
400.454	158.54
400.916	151.94
401.377	146.54
401.839	157.24
402.3	155.94
402.762	163.94
403.223	182.94
403.684	173.74
404.145	161.74
404.607	163.14
405.068	163.84
405.529	166.34
405.99	188.54
406.451	179.64
406.913	175.44
407.374	172.64
407.835	164.64
408.296	171.84
408.757	173.64
409.218	191.24
409.679	187.14
410.14	173.14
410.601	183.54
411.062	178.74
411.522	180.24
411.983	178.44
412.444	174.94
412.905	188.34
413.366	191.34
413.826	208.04
414.287	234.64
414.748	280.44
415.208	268.94
415.669	223.84
416.13	216.74
416.59	210.64
417.051	226.14
417.511	228.14
417.972	255.24
418.432	260.24
418.893	306.74
419.353	262.34
419.814	207.94
420.274	193.74
420.734	193.64
421.195	204.04
421.655	195.64
422.115	199.04
422.576	198.34
423.036	209.24
423.496	218.54
423.956	223.44
424.416	242.24
424.876	280.74
425.336	274.34
425.797	270.84
426.257	266.94
426.717	249.34
427.177	243.94
427.637	230.34
428.097	239.84
428.556	249.24
429.016	272.94
429.476	263.84
429.936	274.44
430.396	286.54
430.856	292.44
431.315	308.54
431.775	349.94
432.235	377.54
432.694	349.34
433.154	354.44
433.614	391.94
434.073	335.84
434.533	288.54
434.993	274.34
435.452	297.64
435.912	300.14
436.371	297.54
436.83	289.14
437.29	268.44
437.749	251.44
438.209	254.54
438.668	280.34
439.127	295.64
439.587	269.64
440.046	261.94
440.505	274.14
440.964	289.34
441.424	339.34
441.883	318.14
442.342	275.94
442.801	238.84
443.26	233.44
443.719	233.04
444.178	235.34
444.637	227.14
445.096	235.84
445.555	234.54
446.014	239.54
446.473	238.04
446.932	247.14
447.391	247.14
447.849	244.54
448.308	233.64
448.767	241.44
449.226	244.94
449.685	253.94
450.143	265.04
450.602	257.44
451.061	240.84
451.519	247.24
451.978	247.04
452.436	254.54
452.895	259.24
453.353	267.34
453.812	253.34
454.27	252.44
454.729	258.64
455.187	252.34
455.646	260.84
456.104	265.44
456.562	276.64
457.021	281.14
457.479	278.64
457.937	288.34
458.395	279.54
458.854	267.24
459.312	275.34
459.77	286.34
460.228	272.24
460.686	262.64
461.144	275.04
461.602	267.64
462.06	257.04
462.518	270.04
462.976	274.64
463.434	281.14
463.892	285.54
464.35	294.54
464.808	304.24
465.266	292.24
465.724	289.34
466.181	300.04
466.639	281.94
467.097	310.14
467.555	314.54
468.012	319.94
468.47	328.84
468.928	348.54
469.385	360.54
469.843	373.14
470.3	371.24
470.758	378.14
471.215	403.34
471.673	430.14
472.13	435.54
472.588	437.34
473.045	397.04
473.503	410.64
473.96	417.04
474.417	433.94
474.875	459.04
475.332	497.34
475.789	482.24
476.246	491.84
476.704	511.24
477.161	540.24
477.618	550.24
478.075	592.24
478.532	648.14
478.989	712.94
479.446	821.34
479.903	788.94
480.36	821.44
480.817	876.74
481.274	969.84
481.731	1065.24
482.188	1145.44
482.645	1264.14
483.102	1353.94
483.558	1481.14
484.015	1525.04
484.472	1482.04
484.929	1455.54
485.385	1418.54
485.842	1387.44
486.299	1339.94
486.755	1287.14
487.212	1088.64
487.668	941.44
488.125	868.94
488.582	804.54
489.038	774.74
489.494	743.44
489.951	713.04
490.407	706.34
490.864	676.44
491.32	671.24
491.776	672.54
492.233	675.74
492.689	651.64
493.145	636.44
493.602	633.64
494.058	650.04
494.514	658.34
494.97	671.84
495.426	684.54
495.882	650.24
496.338	638.04
496.794	662.34
497.251	655.94
497.707	669.24
498.163	673.34
498.618	679.54
499.074	677.04
499.53	711.24
499.986	713.04
500.442	681.84
500.898	668.34
501.354	654.84
501.809	665.24
502.265	670.54
502.721	669.54
503.177	674.34
503.632	679.34
504.088	692.04
504.543	711.84
504.999	732.34
505.455	696.34
505.91	680.84
506.366	679.44
506.821	674.24
507.277	680.74
507.732	676.94
508.187	673.14
508.643	683.74
509.098	688.94
509.553	703.84
510.009	713.24
510.464	723.54
510.919	735.94
511.375	740.64
511.83	759.04
512.285	767.44
512.74	801.34
513.195	834.14
513.65	824.24
514.105	813.44
514.56	816.24
515.015	845.04
515.47	841.44
515.925	823.14
516.38	839.84
516.835	843.54
517.29	834.34
517.745	818.44
518.2	813.74
518.655	799.54
519.109	788.84
519.564	788.54
520.019	785.54
520.474	775.34
520.928	781.74
521.383	766.84
521.838	762.34
522.292	773.44
522.747	756.84
523.201	753.64
523.656	746.84
524.11	746.84
524.565	744.54
525.019	733.44
525.474	745.04
525.928	739.34
526.382	747.14
526.837	751.74
527.291	756.84
527.745	743.44
528.2	743.44
528.654	738.34
529.108	729.14
529.562	744.24
530.016	743.84
530.47	735.64
530.925	733.24
531.379	737.64
531.833	738.54
532.287	741.94
532.741	742.84
533.195	754.84
533.649	760.04
534.103	766.74
534.556	749.94
535.01	748.44
535.464	750.24
535.918	760.34
536.372	765.54
536.826	760.94
537.279	755.34
537.733	764.04
538.187	760.24
538.64	758.24
539.094	761.64
539.548	780.14
540.001	773.84
540.455	770.44
540.908	783.04
541.362	794.34
541.815	785.84
542.269	800.04
542.722	796.34
543.175	820.94
543.629	825.94
544.082	837.34
544.536	842.74
544.989	840.44
545.442	835.24
545.895	840.74
546.349	846.54
546.802	837.24
547.255	849.74
547.708	863.14
548.161	874.44
548.614	875.54
549.067	878.54
549.52	870.64
549.973	869.24
550.426	876.24
550.879	855.64
551.332	862.44
551.785	869.64
552.238	855.64
552.691	880.04
553.144	898.14
553.596	907.94
554.049	913.64
554.502	943.74
554.955	982.94
555.407	972.64
555.86	964.34
556.313	954.94
556.765	942.44
557.218	943.54
557.67	940.74
558.123	947.04
558.576	931.64
559.028	940.34
559.48	950.84
559.933	939.54
560.385	886.04
560.838	868.84
561.29	855.04
561.742	847.24
562.195	823.14
562.647	813.34
563.099	836.34
563.551	822.04
564.004	833.84
564.456	830.14
564.908	812.24
565.36	791.74
565.812	770.24
566.264	767.34
566.716	756.14
567.168	744.34
567.62	762.44
568.072	744.84
568.524	739.84
568.976	738.04
569.428	724.94
569.88	724.84
570.332	733.14
570.784	735.24
571.235	736.24
571.687	742.44
572.139	753.14
572.59	763.04
573.042	762.64
573.494	762.64
573.945	750.04
574.397	742.54
574.849	737.44
575.3	741.54
575.752	731.74
576.203	726.04
576.655	735.94
577.106	707.14
577.557	710.84
578.009	709.44
578.46	708.84
578.912	710.84
579.363	713.04
579.814	707.54
580.265	711.24
580.717	716.24
581.168	709.54
581.619	719.84
582.07	723.84
582.521	716.94
582.972	708.04
583.423	724.04
583.875	725.14
584.326	723.74
584.777	744.04
585.227	765.94
585.678	776.54
586.129	794.04
586.58	826.04
587.031	855.44
587.482	885.24
587.933	928.34
588.384	896.84
588.834	842.14
589.285	819.44
589.736	828.64
590.186	817.04
590.637	813.34
591.088	787.14
591.538	786.74
591.989	768.24
592.439	765.34
592.89	751.94
593.34	746.64
593.791	738.04
594.241	736.44
594.692	746.54
595.142	743.94
595.593	733.74
596.043	737.64
596.493	745.24
596.943	739.24
597.394	762.64
597.844	754.54
598.294	780.24
598.744	812.34
599.195	825.04
599.645	864.84
600.095	917.24
600.545	983.44
600.995	1028.64
601.445	1079.64
601.895	1146.04
602.345	1203.84
602.795	1183.64
603.245	1140.84
603.695	1072.94
604.145	1016.34
604.594	970.24
605.044	922.24
605.494	853.44
605.944	803.34
606.393	791.24
606.843	771.34
607.293	774.04
607.743	768.24
608.192	771.24
608.642	798.74
609.091	807.44
609.541	812.04
609.99	800.74
610.44	807.94
610.889	750.34
611.339	736.94
611.788	721.94
612.238	732.24
612.687	738.64
613.136	726.34
613.586	743.44
614.035	737.94
614.484	750.34
614.933	751.64
615.383	747.04
615.832	743.14
616.281	733.94
616.73	715.54
617.179	682.44
617.628	667.64
618.077	663.34
618.526	660.34
618.975	654.64
619.424	647.24
619.873	648.24
620.322	652.74
620.771	634.94
621.22	630.14
621.669	629.64
622.118	623.14
622.567	617.04
623.015	601.04
623.464	596.74
623.913	573.64
624.361	583.14
624.81	574.14
625.259	577.54
625.707	586.24
626.156	598.34
626.604	602.24
627.053	598.64
627.501	598.44
627.95	599.64
628.398	611.74
628.847	596.64
629.295	606.84
629.744	603.44
630.192	601.54
630.64	583.24
631.089	576.34
631.537	565.64
631.985	559.94
632.433	558.24
632.881	555.24
633.33	567.24
633.778	558.24
634.226	553.14
634.674	572.14
635.122	577.94
635.57	588.84
636.018	596.54
636.466	599.14
636.914	583.14
637.362	602.04
637.81	601.04
638.258	609.94
638.705	613.14
639.153	644.44
639.601	648.44
640.049	673.54
640.497	704.54
640.944	725.44
641.392	678.74
641.84	641.94
642.287	606.94
642.735	586.64
643.182	589.84
643.63	588.94
644.078	590.14
644.525	600.44
644.973	611.84
645.42	617.04
645.867	638.34
646.315	664.94
646.762	678.04
647.21	716.94
647.657	738.54
648.104	763.34
648.551	786.04
648.999	840.44
649.446	917.84
649.893	999.04
650.34	1150.04
650.787	1364.94
651.234	1670.64
651.682	2161.24
652.129	2921.74
652.576	4154.44
653.023	6050.74
653.47	8203.44
653.917	10228.04
654.363	11751.44
654.81	12955.84
655.257	12293.04
655.704	8163.94
656.151	4928.94
656.598	3236.54
657.044	2313.14
657.491	1801.94
657.938	1453.44
658.385	1226.04
658.831	1074.64
659.278	965.34
659.724	858.14
660.171	796.74
660.618	737.34
661.064	701.34
661.511	688.24
661.957	676.74
662.404	656.44
662.85	674.04
663.296	645.34
663.743	575.04
664.189	554.64
664.635	552.54
665.082	548.54
665.528	553.64
665.974	538.84
666.42	534.84
666.867	536.44
667.313	502.44
667.759	488.24
668.205	471.84
668.651	474.54
669.097	473.14
669.543	466.14
669.989	454.34
670.435	460.34
670.881	467.44
671.327	475.44
671.773	494.34
672.219	519.14
672.665	577.54
673.11	615.94
673.556	661.24
674.002	709.34
674.448	688.54
674.893	583.04
675.339	507.94
675.785	470.74
676.23	444.84
676.676	426.84
677.122	404.94
677.567	401.24
678.013	382.44
678.458	381.74
678.904	382.64
679.349	374.64
679.794	376.54
680.24	368.64
680.685	367.54
681.131	365.34
681.576	379.54
682.021	376.44
682.466	369.74
682.912	362.94
683.357	379.34
683.802	400.34
684.247	440.74
684.692	469.84
685.137	522.64
685.583	562.94
686.028	585.14
686.473	542.84
686.918	478.94
687.363	439.94
687.807	420.04
688.252	391.44
688.697	378.34
689.142	360.04
689.587	355.04
690.032	350.54
690.477	361.04
690.921	370.34
691.366	403.54
691.811	424.54
692.255	456.34
692.7	485.14
693.145	533.84
693.589	740.14
694.034	1207.14
694.478	1636.84
694.923	1836.94
695.367	2399.64
695.812	1265.44
696.256	529.04
696.701	396.74
697.145	364.74
697.59	353.44
698.034	340.34
698.478	343.84
698.922	335.74
699.367	338.04
699.811	349.24
700.255	370.54
700.699	393.54
701.143	445.64
701.588	502.44
702.032	540.04
702.476	543.84
702.92	514.34
703.364	517.64
703.808	678.14
704.252	1107.74
704.696	1545.14
705.14	1769.34
705.584	2255.94
706.027	1125.44
706.471	553.24
706.915	423.14
707.359	372.64
707.803	344.44
708.246	330.94
708.69	327.34
709.134	334.94
709.577	329.14
710.021	329.64
710.465	318.74
710.908	315.64
711.352	321.14
711.795	323.84
712.239	359.14
712.682	407.04
713.126	434.74
713.569	479.24
714.012	373.84
714.456	315.64
714.899	309.64
715.342	292.04
715.786	277.04
716.229	269.54
716.672	271.74
717.115	260.64
717.558	266.14
718.002	266.84
718.445	277.54
718.888	299.34
719.331	308.74
719.774	318.44
720.217	321.94
720.66	298.84
721.103	276.74
721.546	269.44
721.989	262.74
722.432	251.14
722.874	252.14
723.317	240.74
723.76	247.64
724.203	265.34
724.645	332.64
725.088	469.44
725.531	598.14
725.974	669.84
726.416	573.74
726.859	321.54
727.301	265.54
727.744	246.24
728.187	248.94
728.629	259.34
729.071	264.24
729.514	267.84
729.956	284.84
730.399	298.54
730.841	307.94
731.283	288.84
731.726	282.74
732.168	268.34
732.61	289.84
733.053	310.14
733.495	330.04
733.937	372.24
734.379	424.14
734.821	458.24
735.263	565.44
735.705	892.04
736.148	1677.24
736.59	2760.04
737.032	3252.44
737.474	2651.24
737.916	856.94
738.357	452.64
738.799	345.44
739.241	314.64
739.683	301.04
740.125	309.74
740.567	318.54
741.008	334.14
741.45	332.64
741.892	338.54
742.334	369.54
742.775	383.84
743.217	362.94
743.658	291.44
744.1	267.74
744.542	277.14
744.983	331.94
745.425	370.94
745.866	367.24
746.307	299.24
746.749	289.84
747.19	346.34
747.632	489.34
748.073	945.84
748.514	1983.24
748.956	3029.84
749.397	3812.84
749.838	3159.04
750.279	3157.84
750.72	1592.94
751.162	574.44
751.603	347.34
752.044	273.04
752.485	231.34
752.926	223.64
753.367	218.34
753.808	209.64
754.249	206.64
754.69	197.74
755.131	194.64
755.572	187.04
756.013	193.04
756.453	197.34
756.894	202.64
757.335	200.74
757.776	207.24
758.216	208.94
758.657	206.14
759.098	216.94
759.538	239.44
759.979	288.84
760.42	398.04
760.86	750.94
761.301	1957.74
761.741	4711.54
762.182	6796.64
762.622	4820.64
763.063	1401.34
763.503	574.44
763.943	347.84
764.384	292.94
764.824	269.44
765.264	254.14
765.705	222.64
766.145	197.54
766.585	179.74
767.025	177.74
767.465	176.94
767.906	194.54
768.346	212.34
768.786	222.94
769.226	236.24
769.666	323.34
770.106	653.04
770.546	1656.24
770.986	2812.84
771.426	2495.54
771.866	841.24
772.306	349.74
772.745	215.34
773.185	175.14
773.625	172.24
774.065	163.04
774.505	173.84
774.944	222.74
775.384	387.04
775.824	642.24
776.263	623.94
776.703	305.14
777.142	170.84
777.582	145.94
778.021	133.44
778.461	135.14
778.9	132.94
779.34	136.34
779.779	113.44
780.219	115.54
780.658	113.54
781.097	115.94
781.537	117.54
781.976	111.84
782.415	108.04
782.855	104.24
783.294	106.94
783.733	110.54
784.172	118.54
784.611	112.54
785.05	113.04
785.489	117.04
785.928	127.14
786.367	126.74
786.806	128.04
787.245	131.64
787.684	142.94
788.123	152.54
788.562	143.34
789.001	135.44
789.44	131.74
789.879	125.14
790.317	125.64
790.756	132.64
791.195	137.84
791.634	159.84
792.072	208.94
792.511	392.74
792.95	1051.64
793.388	2219.84
793.827	2020.04
794.265	712.84
794.704	292.24
795.142	192.94
795.581	159.64
796.019	144.34
796.458	135.04
796.896	130.44
797.334	139.24
797.773	168.44
798.211	231.04
798.649	463.24
799.087	1068.44
799.526	1694.44
799.964	2151.54
800.402	2133.54
800.84	803.34
801.278	321.04
801.716	191.44
802.154	158.94
802.592	157.84
803.03	152.04
803.468	147.44
803.906	146.84
804.344	157.34
804.782	149.14
805.22	145.24
805.658	142.04
806.096	153.84
806.533	170.14
806.971	184.04
807.409	234.94
807.847	346.44
808.284	721.64
808.722	1983.74
809.16	3507.54
809.597	3324.34
810.035	5734.64
810.472	6106.24
810.91	2232.14
811.347	859.24
811.785	437.64
812.222	273.34
812.66	215.64
813.097	180.64
813.535	152.94
813.972	133.04
814.409	130.94
814.846	116.64
815.284	110.14
815.721	109.44
816.158	113.14
816.595	114.44
817.032	167.64
817.47	186.54
817.907	150.44
818.344	110.94
818.781	103.44
819.218	105.04
819.655	134.34
820.092	196.04
820.529	231.34
820.966	176.14
821.403	133.54
821.839	107.74
822.276	95.94
822.713	135.74
823.15	144.74
823.587	126.24
824.023	154.14
824.46	328.04
824.897	952.34
825.333	1429.24
825.77	620.14
826.206	244.34
826.643	141.94
827.08	114.44
827.516	85.64
827.953	78.44
828.389	85.54
828.825	78.24
829.262	72.44
829.698	72.34
830.135	73.64
830.571	61.24
831.007	67.94
831.443	60.34
831.88	67.24
832.316	68.14
832.752	67.84
833.188	68.24
833.624	65.94
834.06	68.34
834.497	76.84
834.933	75.04
835.369	77.44
835.805	77.04
836.241	86.34
836.677	82.74
837.112	94.04
837.548	113.14
837.984	141.94
838.42	212.34
838.856	520.94
839.292	1612.64
839.727	2434.84
840.163	1142.94
840.599	999.34
841.034	2140.54
841.47	2256.14
841.906	826.04
842.341	349.54
842.777	216.34
843.212	216.64
843.648	197.24
844.083	119.04
844.519	88.44
844.954	80.34
845.39	61.74
845.825	66.54
846.261	58.34
846.696	56.14
847.131	60.44
847.566	63.54
848.002	58.84
848.437	57.44
848.872	62.94
849.307	62.64
849.742	89.24
850.177	190.64
850.613	589.24
851.048	932.44
851.483	415.04
851.918	162.64
852.353	89.14
852.788	57.24
853.223	53.34
853.657	55.04
854.092	59.34
854.527	48.04
854.962	43.34
855.397	52.54
855.832	58.04
856.266	56.14
856.701	42.14
857.136	42.44
857.57	50.74
858.005	59.04
858.44	66.74
858.874	49.44
859.309	56.64
859.743	41.94
860.178	50.64
860.612	41.54
861.047	55.64
861.481	74.94
861.915	75.04
862.35	56.94
862.784	40.14
863.218	40.94
863.653	40.04
864.087	49.84
864.521	58.24
864.955	72.94
865.39	165.94
865.824	189.24
866.258	124.64
866.692	180.74
867.126	199.64
867.56	116.14
867.994	61.34
868.428	44.44
868.862	56.64
869.296	60.84
869.73	65.74
870.164	59.14
870.598	55.64
871.031	40.84
871.465	36.44
871.899	29.34
872.333	31.64
872.766	34.24
873.2	24.24
873.634	32.54
874.067	29.24
874.501	24.04
874.935	42.94
875.368	31.34
875.802	31.04
876.235	27.14
876.669	29.44
877.102	20.24
877.535	30.04
877.969	32.34
878.402	28.14
878.836	21.44
879.269	25.24
879.702	25.34
880.135	25.34
880.569	26.64
881.002	20.24
881.435	24.04
881.868	11.54
882.301	17.64
882.734	19.84
883.167	19.04
883.601	21.84
884.034	27.64
884.467	17.24
884.899	18.14
885.332	20.74
885.765	25.14
886.198	17.84
886.631	22.74
887.064	20.24
887.497	28.14
887.929	28.64
888.362	9.54
888.795	15.04
889.228	24.34
889.66	19.94
890.093	18.24
890.526	19.54
890.958	20.34
891.391	20.34
891.823	25.24
892.256	16.34
892.688	13.54
893.121	20.74
893.553	17.24
893.985	23.74
894.418	19.14
894.85	12.04
895.282	15.94
895.715	14.54
896.147	15.94
896.579	16.54
897.011	17.04
897.444	25.24
897.876	16.14
898.308	20.34
898.74	9.24
899.172	16.64
899.604	29.04
900.036	19.74
900.468	16.14
900.9	21.74
901.332	24.04
901.764	16.04
902.196	22.44
902.628	19.44
903.06	17.04
903.491	32.24
903.923	28.04
904.355	28.44
904.787	24.94
905.218	23.74
905.65	22.74
906.082	15.84
906.513	17.24
906.945	19.44
907.376	20.04
907.808	22.74
908.239	18.84
908.671	21.44
909.102	21.24
909.534	28.74
909.965	50.64
910.397	101.64
910.828	329.64
911.259	501.94
911.691	227.34
912.122	111.94
912.553	65.24
912.984	38.54
913.415	26.14
913.847	31.44
914.278	17.94
914.709	16.34
915.14	25.84
915.571	21.94
916.002	18.14
916.433	28.04
916.864	18.24
917.295	17.64
917.726	16.74
918.157	18.34
918.587	30.04
919.018	20.24
919.449	24.84
919.88	23.14
920.311	34.34
920.741	52.44
921.172	179.84
921.603	169.24
922.033	77.74
922.464	47.24
922.895	25.84
923.325	21.04
923.756	11.04
924.186	13.04
924.617	14.94
925.047	25.84
925.478	26.44
925.908	27.04
926.338	20.64
926.769	21.04
927.199	20.24
927.629	10.84
928.06	22.34
928.49	18.04
928.92	14.24
929.35	9.04
929.78	21.54
930.21	17.04
930.641	13.04
931.071	6.74
931.501	3.64
931.931	9.94
932.361	5.14
932.791	2.74
933.221	6.14
933.651	4.44
934.08	19.34
934.51	34.84
934.94	16.34
935.37	15.84
935.8	10.84
936.229	8.84
936.659	12.54
937.089	8.14
937.519	18.74
937.948	26.44
938.378	21.04
938.807	10.34
939.237	-1.26
939.666	11.04
940.096	-2.46
940.525	10.44
940.955	3.04
941.384	9.54
941.814	-5.16
942.243	4.04
942.672	4.64
943.102	1.14
943.531	3.64
943.96	5.34
944.39	2.74
944.819	5.84
945.248	8.34
945.677	0.64
946.106	2.74
946.535	5.24
946.964	3.44
947.393	8.84
947.822	0.04
948.251	-6.56
948.68	0.64
949.109	6.14
949.538	7.04
949.967	5.34
950.396	5.24
950.825	-1.86
951.254	3.14
951.682	-6.96
952.111	5.14
952.54	10.24
952.969	-2.56
953.397	-6.66
953.826	5.04
954.254	-0.56
954.683	2.04
955.112	-0.06
955.54	4.24
955.969	9.54
956.397	1.24
956.826	1.84
957.254	9.64
957.682	3.24
958.111	3.74
958.539	-0.66
958.967	3.64
959.396	-4.16
959.824	5.54
960.252	2.44
960.68	-2.16
961.109	2.34
961.537	-3.96
961.965	-2.06
962.393	2.44
962.821	-0.26
963.249	5.54
963.677	9.24
964.105	4.54
964.533	51.94
964.961	39.34
965.389	29.54
965.817	8.24
966.245	-1.36
966.672	2.44
967.1	-6.36
967.528	2.74
967.956	1.34
968.383	-0.36
968.811	2.44
969.239	-0.26
969.666	-0.36
970.094	9.24
970.522	10.84
970.949	1.84
971.377	0.84
971.804	0.24
972.232	-3.36
972.659	0.64
973.087	-4.86
973.514	-5.56
973.941	0.34
974.369	9.14
974.796	6.34
975.223	-0.46
975.651	4.44
976.078	3.74
976.505	3.34
976.932	2.74
977.359	19.64
977.786	20.44
978.214	5.04
978.641	-1.36
979.068	-1.06
979.495	-3.86
979.922	0.44
980.349	-2.36
980.776	0.54
981.202	2.84
981.629	6.64
982.056	6.24
982.483	-4.16
982.91	6.44
983.337	-8.56
983.763	8.64
984.19	-3.76
984.617	-4.56
985.043	-7.56
985.47	-2.36
985.897	-5.06
986.323	-4.06
986.75	7.24
987.176	1.94
987.603	0.94
988.029	-3.46
988.456	-0.56
988.882	9.54
989.308	2.14
989.735	-5.56
990.161	7.34
990.587	-5.36
991.014	5.34
991.44	8.64
991.866	-2.96
992.292	-6.16
992.719	-6.46
993.145	4.94
993.571	-4.96
993.997	-1.06
994.423	0.54
994.849	-4.96
995.275	1.34
995.701	5.14
996.127	0.54
996.553	8.64
996.979	-0.56
997.405	0.14
997.83	-4.46
998.256	-5.86
998.682	-2.16
999.108	-3.66
999.534	-4.96
999.959	-0.86
1000.385	-2.46
1000.811	-2.16
1001.236	-8.76
1001.662	0.14
1002.087	-5.26
1002.513	5.64
1002.938	-0.36
1003.364	0.84
1003.789	9.84
1004.215	1.24
1004.64	-0.56
1005.066	9.14
1005.491	2.44
1005.916	-2.76
1006.342	-2.66
1006.767	-4.06
1007.192	6.74
1007.617	0.94
1008.042	1.64
1008.468	-2.46
1008.893	4.54
1009.318	-5.46
1009.743	0.64
1010.168	4.24
1010.593	4.74
1011.018	-6.66
1011.443	-0.86
1011.868	3.84
1012.293	-0.66
1012.718	-8.66
1013.143	3.04
1013.567	2.94
1013.992	0.34
1014.417	-13.66
1014.842	5.64
1015.267	-3.56
1015.691	-1.56
1016.116	5.44
1016.541	-4.16
1016.965	6.94
1017.39	-0.86
1017.814	-0.16
1018.239	-3.16
1018.663	-8.46
1019.088	-4.06
1019.512	-0.56
1019.937	4.14
1020.361	-3.16
1020.785	-7.06
1021.21	-5.56
1021.634	-2.06
1022.058	0.84
1022.483	5.04
1022.907	-2.66
1023.331	-3.66
1023.755	-1.56
1024.179	-0.36
1024.604	-3.26
1025.028	-6.06
1025.452	-3.16
1025.876	-1.26
1026.3	0.44
1026.724	-8.06
1027.148	-8.16
1027.572	-5.56
1027.996	1.34
1028.42	-1.46
1028.843	-6.96
1029.267	-8.46
1029.691	4.54
1030.115	-5.96
1030.539	-7.26
1030.962	-4.16
1031.386	-10.56
1031.81	-0.96
1032.233	1.54
1032.657	0.54
1033.08	-1.76
1033.504	-7.56
1033.927	-6.46
1034.351	-0.56
1034.774	-7.26
1035.198	-0.66
1035.621	-5.46
1036.045	-5.96
1036.468	0.34
1036.891	-5.06
1037.315	-7.76
1037.738	-8.76
1038.161	-1.76
1038.584	-1.66
1039.008	-5.56
1039.431	-7.06
1039.854	1.14
1040.277	0.84
1040.7	-9.96
1041.123	4.34
1041.546	-8.46
1041.969	-3.86
1042.392	-7.96
1042.815	-2.86
1043.238	0.94
1043.661	2.24
1044.084	-7.06
1044.507	-1.76
1044.93	-1.46
1045.352	0.94
1045.775	2.44
1046.198	-6.26
1046.621	-1.96
1047.043	-1.36
1047.466	6.14
1047.889	-3.46
1048.311	-5.06
1048.734	0.54
1049.156	-0.16
1049.579	-0.76
1050.001	-5.46
1050.424	-0.96
1050.846	-4.36
1051.269	-5.16
1051.691	-6.36
1052.113	-1.06
1052.536	1.74
1052.958	-2.06
1053.38	-2.56
1053.802	-6.66
1054.225	5.34
1054.647	-7.86
1055.069	-2.56
1055.491	-0.16
1055.913	-4.16
1056.335	4.44
1056.757	1.34
1057.179	-1.56
1057.601	-6.46
1058.023	0.44
1058.445	-3.46
1058.867	-0.16
1059.289	1.04
1059.711	-2.26
1060.133	-4.96
1060.555	-1.56
1060.976	-9.36
1061.398	-5.66
1061.82	-5.66
1062.241	-2.36
1062.663	-3.76
1063.085	0.44
1063.506	-2.26
1063.928	-7.26
1064.35	-0.26
1064.771	-14.16
1065.193	-8.16
1065.614	-4.36
1066.035	2.24
1066.457	-6.36
1066.878	-0.86
1067.3	-5.46
1067.721	0.24
1068.142	3.84
1068.564	-5.46
1068.985	-1.46
1069.406	-3.26
1069.827	-5.96
1070.248	-3.66
1070.67	-9.36
1071.091	-4.66
1071.512	-3.46
1071.933	-3.66
1072.354	-4.16
1072.775	1.54
1073.196	-5.76
1073.617	-2.06
1074.038	-7.56
1074.459	-1.36
1074.88	-8.56
1075.3	-1.16
1075.721	-8.06
1076.142	2.54
1076.563	0.84
1076.983	-9.96
1077.404	-6.36
1077.825	-7.96
1078.246	-2.46
1078.666	-4.06
1079.087	0.24
1079.507	-1.26
1079.928	-2.06
1080.348	1.84
1080.769	-4.16
1081.189	-0.76
1081.61	0.04
1082.03	-3.56
1082.451	-0.16
1082.871	1.24
1083.291	-6.26
1083.711	-11.26
1084.132	-5.36
1084.552	-1.86
1084.972	-0.56
1085.392	-13.36
1085.813	-10.36
1086.233	1.24
1086.653	-2.36
1087.073	-5.26
1087.493	-6.96
1087.913	-3.66
1088.333	-4.26
1088.753	0.04
1089.173	4.24
1089.593	-4.56
1090.013	4.04
1090.433	-1.56
1090.852	-0.46
1091.272	-1.76
1091.692	2.34
1092.112	-7.56
1092.531	-5.86
1092.951	-10.26
1093.371	-4.96
1093.79	2.84
1094.21	-2.06
1094.63	-2.06
1095.049	-4.56
1095.469	-2.96
1095.888	-8.56
1096.308	0.94
1096.727	6.94
1097.146	-5.06
1097.566	-4.96
1097.985	-4.26
1098.405	-1.56
1098.824	-8.36
1099.243	-6.76
1099.662	-5.46
1100.082	-7.26
1100.501	5.14
1100.92	-7.06
1101.339	-7.86
1101.758	-4.66
