Data from 20171114-ORNL-Ar_H_NY_Subt18_08-06-10-634.txt Node
Date: Tue Nov 14 08:06:10 EST 2017
User: Ender
Spectrometer: HR+D1039
Trigger mode: 0
Integration Time (sec): 2.730000E-2
Scans to average: 10
Electric dark correction enabled: true
Nonlinearity correction enabled: false
Boxcar width: 0
XAxis mode: Wavelengths
Number of Pixels in Spectrum: 2048
>>>>>Begin Spectral Data<<<<<
187.836	-4.14
188.309	-4.14
188.782	-4.14
189.255	4.76
189.728	1.56
190.201	5.56
190.674	1.86
191.147	4.36
191.619	-11.94
192.092	3.56
192.565	4.86
193.038	-2.64
193.511	-0.04
193.984	-1.64
194.456	-4.24
194.929	1.96
195.402	-0.54
195.874	-3.34
196.347	0.56
196.82	-7.14
197.292	6.36
197.765	0.16
198.237	-4.24
198.71	9.26
199.182	-1.14
199.655	-0.14
200.127	-2.04
200.6	-4.14
201.072	-5.14
201.544	-2.04
202.017	-1.64
202.489	7.46
202.961	5.86
203.433	-5.24
203.906	-5.04
204.378	-14.14
204.85	-1.74
205.322	-8.64
205.794	-5.04
206.266	-0.24
206.739	-8.84
207.211	0.56
207.683	-5.74
208.155	-4.34
208.627	-5.44
209.099	-2.24
209.57	-2.54
210.042	-1.14
210.514	-3.64
210.986	2.96
211.458	-3.84
211.93	5.46
212.402	2.96
212.873	-6.44
213.345	-6.24
213.817	-9.04
214.288	-1.74
214.76	-16.54
215.232	-6.14
215.703	-4.74
216.175	-4.24
216.646	-5.04
217.118	-5.84
217.589	-1.84
218.061	9.46
218.532	-7.04
219.004	0.36
219.475	-3.24
219.946	-6.04
220.418	-6.44
220.889	2.96
221.36	2.06
221.832	-3.14
222.303	-10.24
222.774	-0.34
223.245	-7.94
223.717	-3.94
224.188	-1.34
224.659	-2.34
225.13	-5.04
225.601	-1.14
226.072	-1.04
226.543	-2.44
227.014	-1.64
227.485	0.06
227.956	-6.94
228.427	-3.54
228.898	-0.24
229.369	-1.64
229.839	-0.44
230.31	-4.64
230.781	3.16
231.252	4.16
231.722	-7.44
232.193	0.06
232.664	2.56
233.135	2.66
233.605	5.06
234.076	-4.04
234.546	1.96
235.017	9.06
235.487	3.36
235.958	-4.44
236.428	0.06
236.899	-2.14
237.369	4.76
237.84	-1.04
238.31	3.46
238.78	5.96
239.251	3.06
239.721	7.16
240.191	-0.24
240.662	-1.94
241.132	0.26
241.602	-6.84
242.072	3.36
242.542	9.06
243.013	2.66
243.483	11.06
243.953	1.96
244.423	-4.04
244.893	-2.84
245.363	6.96
245.833	3.96
246.303	0.66
246.773	6.16
247.243	0.36
247.712	7.16
248.182	6.46
248.652	3.66
249.122	0.46
249.592	11.96
250.061	19.76
250.531	34.66
251.001	17.96
251.471	22.36
251.94	19.66
252.41	6.16
252.879	-0.94
253.349	15.76
253.818	11.86
254.288	7.66
254.757	1.86
255.227	3.96
255.696	2.46
256.166	11.46
256.635	13.46
257.105	12.36
257.574	6.56
258.043	9.56
258.513	8.86
258.982	14.06
259.451	6.36
259.92	16.66
260.389	7.16
260.859	12.66
261.328	12.16
261.797	19.46
262.266	10.86
262.735	12.56
263.204	9.96
263.673	7.46
264.142	6.76
264.611	3.56
265.08	5.66
265.549	-1.64
266.018	6.76
266.487	2.36
266.955	-0.14
267.424	1.46
267.893	8.96
268.362	4.86
268.83	3.16
269.299	13.36
269.768	8.36
270.236	10.86
270.705	0.86
271.174	7.86
271.642	11.76
272.111	15.56
272.579	16.36
273.048	24.06
273.516	30.26
273.985	27.06
274.453	23.86
274.922	15.86
275.39	12.06
275.858	6.86
276.327	15.96
276.795	19.96
277.263	11.66
277.731	28.26
278.2	55.56
278.668	62.56
279.136	51.76
279.604	21.76
280.072	17.56
280.54	16.06
281.008	16.46
281.477	10.66
281.945	14.76
282.413	15.96
282.881	18.26
283.348	14.66
283.816	20.26
284.284	16.16
284.752	26.76
285.22	14.36
285.688	17.86
286.156	19.96
286.623	51.56
287.091	58.46
287.559	27.96
288.026	21.06
288.494	23.06
288.962	7.46
289.429	11.26
289.897	22.66
290.364	13.76
290.832	11.16
291.3	16.26
291.767	15.56
292.234	20.46
292.702	8.36
293.169	24.66
293.637	27.16
294.104	20.26
294.571	9.76
295.039	9.96
295.506	14.56
295.973	18.96
296.44	11.96
296.908	19.46
297.375	24.46
297.842	18.46
298.309	22.26
298.776	14.56
299.243	19.16
299.71	13.26
300.177	24.76
300.644	19.96
301.111	23.46
301.578	22.66
302.045	21.46
302.512	24.06
302.979	19.06
303.446	24.86
303.913	25.16
304.379	21.96
304.846	33.36
305.313	26.16
305.78	30.36
306.246	28.96
306.713	24.16
307.18	26.76
307.646	29.66
308.113	29.86
308.579	27.56
309.046	26.76
309.512	28.36
309.979	22.96
310.445	28.96
310.912	28.76
311.378	34.76
311.845	32.06
312.311	39.16
312.777	31.06
313.244	29.36
313.71	36.86
314.176	27.96
314.642	32.76
315.109	36.56
315.575	39.26
316.041	39.86
316.507	35.26
316.973	41.76
317.439	37.76
317.905	40.76
318.371	41.36
318.837	33.16
319.303	36.96
319.769	34.46
320.235	41.56
320.701	36.96
321.167	38.16
321.633	35.66
322.099	39.56
322.564	44.66
323.03	43.96
323.496	43.76
323.962	43.66
324.427	40.76
324.893	50.76
325.359	39.56
325.824	39.56
326.29	38.36
326.755	43.76
327.221	37.56
327.686	46.36
328.152	43.36
328.617	44.66
329.083	47.86
329.548	53.66
330.014	47.66
330.479	44.16
330.944	49.06
331.41	47.46
331.875	50.16
332.34	47.16
332.805	46.56
333.271	48.46
333.736	54.56
334.201	62.86
334.666	56.96
335.131	52.96
335.596	55.96
336.061	50.26
336.526	41.06
336.991	53.66
337.456	54.86
337.921	54.86
338.386	47.66
338.851	46.96
339.316	53.16
339.781	48.26
340.246	55.86
340.711	51.16
341.175	57.46
341.64	47.06
342.105	50.76
342.569	60.46
343.034	54.76
343.499	56.66
343.963	54.66
344.428	72.46
344.893	63.36
345.357	58.96
345.822	64.66
346.286	72.56
346.751	74.96
347.215	72.46
347.679	79.86
348.144	101.86
348.608	90.76
349.073	63.56
349.537	77.06
350.001	80.16
350.465	91.06
350.93	83.16
351.394	83.76
351.858	74.26
352.322	88.66
352.786	90.46
353.25	105.96
353.715	109.76
354.179	109.06
354.643	131.16
355.107	130.16
355.571	116.26
356.035	110.46
356.498	125.46
356.962	128.96
357.426	140.26
357.89	114.16
358.354	93.66
358.818	89.96
359.281	85.56
359.745	84.36
360.209	85.36
360.673	74.56
361.136	89.66
361.6	88.26
362.064	88.46
362.527	87.46
362.991	98.86
363.454	84.96
363.918	75.66
364.381	79.36
364.845	89.46
365.308	92.26
365.772	94.96
366.235	88.66
366.698	94.26
367.162	91.36
367.625	84.66
368.088	96.96
368.552	90.66
369.015	96.86
369.478	101.86
369.941	102.06
370.404	99.96
370.867	109.86
371.331	114.96
371.794	120.26
372.257	118.06
372.72	123.46
373.183	119.26
373.646	108.26
374.109	109.16
374.572	110.36
375.035	112.26
375.497	116.06
375.96	110.56
376.423	110.06
376.886	117.96
377.349	115.16
377.811	104.76
378.274	114.96
378.737	118.56
379.199	111.56
379.662	115.66
380.125	116.76
380.587	119.66
381.05	127.46
381.512	129.86
381.975	140.26
382.437	131.46
382.9	128.16
383.362	139.66
383.825	146.16
384.287	154.56
384.75	144.96
385.212	142.06
385.674	144.36
386.136	144.26
386.599	135.96
387.061	130.46
387.523	129.56
387.985	146.56
388.447	151.16
388.91	144.46
389.372	162.56
389.834	156.56
390.296	148.96
390.758	157.76
391.22	176.86
391.682	209.36
392.144	296.66
392.606	230.76
393.068	171.06
393.529	170.86
393.991	158.76
394.453	151.86
394.915	160.16
395.377	187.56
395.838	215.46
396.3	157.86
396.762	141.76
397.224	136.36
397.685	137.76
398.147	134.86
398.608	142.46
399.07	132.16
399.531	143.46
399.993	143.06
400.454	168.26
400.916	153.26
401.377	152.06
401.839	154.26
402.3	150.16
402.762	176.26
403.223	191.76
403.684	173.86
404.145	164.66
404.607	164.56
405.068	172.86
405.529	182.86
405.99	192.46
406.451	187.26
406.913	182.26
407.374	174.36
407.835	164.86
408.296	176.66
408.757	183.76
409.218	192.26
409.679	194.76
410.14	184.16
410.601	181.96
411.062	188.46
411.522	204.36
411.983	198.36
412.444	186.06
412.905	189.76
413.366	187.36
413.826	204.66
414.287	222.76
414.748	270.56
415.208	254.26
415.669	220.56
416.13	208.66
416.59	220.56
417.051	221.96
417.511	227.16
417.972	250.26
418.432	254.46
418.893	302.86
419.353	258.86
419.814	207.56
420.274	186.96
420.734	190.96
421.195	208.36
421.655	199.26
422.115	195.86
422.576	198.86
423.036	205.26
423.496	205.56
423.956	226.06
424.416	247.86
424.876	277.06
425.336	266.06
425.797	267.86
426.257	255.46
426.717	251.56
427.177	241.26
427.637	237.16
428.097	242.06
428.556	249.56
429.016	275.86
429.476	270.26
429.936	287.86
430.396	288.36
430.856	305.66
431.315	328.16
431.775	361.96
432.235	389.56
432.694	368.66
433.154	375.76
433.614	406.76
434.073	351.26
434.533	296.56
434.993	276.56
435.452	290.36
435.912	311.46
436.371	297.26
436.83	293.76
437.29	282.56
437.749	257.76
438.209	252.16
438.668	281.26
439.127	302.36
439.587	280.86
440.046	262.26
440.505	272.16
440.964	296.06
441.424	340.36
441.883	323.56
442.342	273.06
442.801	233.46
443.26	232.46
443.719	232.36
444.178	229.06
444.637	226.66
445.096	236.96
445.555	237.76
446.014	235.06
446.473	236.66
446.932	239.56
447.391	231.46
447.849	240.96
448.308	228.96
448.767	230.46
449.226	246.76
449.685	240.26
450.143	260.46
450.602	246.76
451.061	236.36
451.519	238.26
451.978	243.76
452.436	245.56
452.895	255.56
453.353	269.06
453.812	253.96
454.27	248.96
454.729	243.96
455.187	253.16
455.646	262.26
456.104	264.26
456.562	277.26
457.021	284.46
457.479	273.26
457.937	281.56
458.395	275.86
458.854	268.76
459.312	273.96
459.77	283.56
460.228	271.26
460.686	260.46
461.144	262.46
461.602	251.36
462.06	250.56
462.518	264.26
462.976	266.06
463.434	268.46
463.892	277.36
464.35	287.76
464.808	301.66
465.266	277.56
465.724	287.46
466.181	282.16
466.639	279.76
467.097	305.36
467.555	306.96
468.012	319.16
468.47	328.86
468.928	339.16
469.385	357.66
469.843	363.86
470.3	373.06
470.758	382.26
471.215	409.76
471.673	419.66
472.13	423.56
472.588	427.86
473.045	392.56
473.503	395.96
473.96	409.26
474.417	425.86
474.875	459.26
475.332	493.26
475.789	480.26
476.246	485.26
476.704	503.56
477.161	530.36
477.618	544.96
478.075	585.86
478.532	641.76
478.989	709.86
479.446	847.16
479.903	807.86
480.36	840.06
480.817	908.26
481.274	997.86
481.731	1114.96
482.188	1198.36
482.645	1352.76
483.102	1458.26
483.558	1595.36
484.015	1645.06
484.472	1627.96
484.929	1562.26
485.385	1519.96
485.842	1475.96
486.299	1415.96
486.755	1353.36
487.212	1142.66
487.668	964.36
488.125	885.06
488.582	811.06
489.038	767.86
489.494	739.06
489.951	713.56
490.407	700.46
490.864	679.96
491.32	669.06
491.776	664.56
492.233	667.76
492.689	643.66
493.145	632.46
493.602	624.16
494.058	635.46
494.514	643.86
494.97	671.96
495.426	683.16
495.882	653.76
496.338	642.46
496.794	658.56
497.251	644.06
497.707	664.46
498.163	663.96
498.618	667.66
499.074	676.36
499.53	702.66
499.986	703.16
500.442	683.26
500.898	659.86
501.354	657.46
501.809	661.96
502.265	681.46
502.721	680.06
503.177	704.56
503.632	694.26
504.088	715.56
504.543	724.96
504.999	741.06
505.455	686.76
505.91	666.76
506.366	662.66
506.821	650.16
507.277	659.26
507.732	641.06
508.187	665.26
508.643	669.66
509.098	657.26
509.553	682.96
510.009	691.46
510.464	695.56
510.919	716.46
511.375	723.76
511.83	731.06
512.285	763.36
512.74	803.06
513.195	816.36
513.65	808.26
514.105	801.96
514.56	812.56
515.015	829.56
515.47	840.56
515.925	821.06
516.38	819.46
516.835	829.76
517.29	824.96
517.745	806.76
518.2	796.96
518.655	785.06
519.109	781.86
519.564	772.56
520.019	762.46
520.474	767.96
520.928	763.46
521.383	757.46
521.838	742.16
522.292	740.56
522.747	748.16
523.201	723.86
523.656	722.36
524.11	717.36
524.565	724.76
525.019	716.06
525.474	735.36
525.928	738.96
526.382	726.06
526.837	725.86
527.291	726.86
527.745	733.16
528.2	726.46
528.654	721.16
529.108	712.86
529.562	715.96
530.016	716.16
530.47	727.66
530.925	726.06
531.379	729.36
531.833	736.36
532.287	734.36
532.741	740.06
533.195	737.96
533.649	749.96
534.103	759.26
534.556	743.96
535.01	742.86
535.464	741.16
535.918	751.66
536.372	751.86
536.826	744.16
537.279	731.36
537.733	751.06
538.187	752.86
538.64	740.86
539.094	749.96
539.548	758.36
540.001	748.76
540.455	758.56
540.908	764.96
541.362	767.66
541.815	785.36
542.269	782.96
542.722	790.36
543.175	804.76
543.629	807.86
544.082	816.66
544.536	821.36
544.989	819.16
545.442	824.66
545.895	822.86
546.349	820.26
546.802	822.96
547.255	824.06
547.708	840.06
548.161	856.46
548.614	862.96
549.067	861.36
549.52	860.96
549.973	848.46
550.426	840.66
550.879	825.16
551.332	832.06
551.785	851.86
552.238	846.86
552.691	856.76
553.144	866.06
553.596	880.36
554.049	903.16
554.502	931.96
554.955	949.86
555.407	950.36
555.86	937.86
556.313	932.06
556.765	920.56
557.218	915.96
557.67	913.46
558.123	914.96
558.576	901.16
559.028	915.06
559.48	923.16
559.933	922.96
560.385	872.46
560.838	844.56
561.29	817.56
561.742	807.76
562.195	791.86
562.647	786.46
563.099	808.46
563.551	804.36
564.004	809.96
564.456	796.96
564.908	803.56
565.36	773.96
565.812	764.56
566.264	764.46
566.716	746.76
567.168	737.66
567.62	756.16
568.072	720.96
568.524	726.76
568.976	714.46
569.428	698.86
569.88	699.36
570.332	699.76
570.784	702.36
571.235	706.36
571.687	726.36
572.139	720.46
572.59	734.66
573.042	738.86
573.494	734.66
573.945	741.36
574.397	715.46
574.849	723.56
575.3	723.16
575.752	715.66
576.203	703.06
576.655	714.96
577.106	708.96
577.557	693.36
578.009	694.26
578.46	692.26
578.912	691.86
579.363	683.96
579.814	690.86
580.265	690.16
580.717	700.56
581.168	700.76
581.619	704.36
582.07	707.16
582.521	696.26
582.972	689.56
583.423	697.06
583.875	706.66
584.326	727.26
584.777	774.16
585.227	833.76
585.678	921.96
586.129	1023.66
586.58	1085.76
587.031	1154.06
587.482	1296.76
587.933	1463.56
588.384	1297.46
588.834	983.36
589.285	832.16
589.736	806.16
590.186	801.76
590.637	782.96
591.088	769.66
591.538	765.96
591.989	753.26
592.439	747.76
592.89	751.56
593.34	733.76
593.791	739.46
594.241	723.86
594.692	729.06
595.142	736.86
595.593	721.06
596.043	732.16
596.493	744.56
596.943	746.26
597.394	739.66
597.844	738.76
598.294	760.86
598.744	783.46
599.195	800.46
599.645	843.06
600.095	878.56
600.545	942.76
600.995	998.96
601.445	1056.36
601.895	1129.66
602.345	1181.56
602.795	1151.76
603.245	1099.86
603.695	1041.36
604.145	988.56
604.594	936.76
605.044	883.06
605.494	823.86
605.944	781.16
606.393	772.06
606.843	755.96
607.293	752.96
607.743	747.86
608.192	776.76
608.642	779.06
609.091	793.36
609.541	788.76
609.99	785.76
610.44	788.46
610.889	741.26
611.339	724.16
611.788	698.16
612.238	721.26
612.687	738.66
613.136	744.46
613.586	755.76
614.035	751.56
614.484	777.66
614.933	780.66
615.383	766.56
615.832	756.76
616.281	742.06
616.73	712.16
617.179	688.66
617.628	669.46
618.077	655.86
618.526	640.56
618.975	632.76
619.424	633.96
619.873	630.06
620.322	645.76
620.771	618.86
621.22	625.76
621.669	606.46
622.118	604.56
622.567	595.66
623.015	593.66
623.464	588.96
623.913	575.06
624.361	567.36
624.81	574.76
625.259	570.76
625.707	573.76
626.156	576.36
626.604	588.96
627.053	578.06
627.501	575.76
627.95	581.56
628.398	603.26
628.847	595.16
629.295	584.46
629.744	585.76
630.192	588.06
630.64	586.86
631.089	574.76
631.537	597.16
631.985	598.46
632.433	614.96
632.881	622.66
633.33	671.36
633.778	658.06
634.226	586.26
634.674	585.86
635.122	592.06
635.57	612.26
636.018	643.56
636.466	590.06
636.914	571.36
637.362	581.16
637.81	588.86
638.258	604.86
638.705	601.06
639.153	619.86
639.601	622.76
640.049	658.76
640.497	685.06
640.944	706.96
641.392	657.76
641.84	625.76
642.287	592.86
642.735	578.96
643.182	583.46
643.63	578.66
644.078	593.06
644.525	607.76
644.973	609.16
645.42	613.36
645.867	636.46
646.315	648.66
646.762	673.76
647.21	708.46
647.657	727.66
648.104	763.36
648.551	792.66
648.999	859.86
649.446	924.96
649.893	1018.06
650.34	1180.26
650.787	1405.76
651.234	1755.46
651.682	2291.36
652.129	3126.36
652.576	4499.46
653.023	6623.36
653.47	9053.66
653.917	11321.76
654.363	13086.36
654.81	14469.26
655.257	13771.06
655.704	9035.86
656.151	5360.86
656.598	3484.56
657.044	2465.96
657.491	1878.66
657.938	1508.76
658.385	1271.96
658.831	1118.26
659.278	985.56
659.724	869.96
660.171	799.26
660.618	742.06
661.064	708.66
661.511	686.56
661.957	674.66
662.404	660.36
662.85	657.86
663.296	633.56
663.743	571.26
664.189	547.96
664.635	547.26
665.082	532.76
665.528	542.66
665.974	526.76
666.42	523.76
666.867	512.36
667.313	499.96
667.759	488.46
668.205	486.26
668.651	497.06
669.097	487.06
669.543	501.16
669.989	476.66
670.435	450.26
670.881	456.86
671.327	462.66
671.773	475.56
672.219	501.96
672.665	555.16
673.11	591.96
673.556	649.06
674.002	690.06
674.448	671.86
674.893	562.26
675.339	480.86
675.785	445.66
676.23	423.96
676.676	399.76
677.122	384.46
677.567	383.66
678.013	369.46
678.458	363.56
678.904	369.86
679.349	359.56
679.794	354.36
680.24	353.36
680.685	361.96
681.131	345.86
681.576	365.36
682.021	358.76
682.466	353.56
682.912	355.76
683.357	362.46
683.802	388.46
684.247	421.66
684.692	465.06
685.137	507.96
685.583	546.36
686.028	574.96
686.473	527.46
686.918	447.96
687.363	418.06
687.807	399.86
688.252	366.46
688.697	352.96
689.142	338.46
689.587	344.36
690.032	331.26
690.477	345.86
690.921	352.36
691.366	391.96
691.811	414.66
692.255	431.16
692.7	466.86
693.145	502.96
693.589	705.26
694.034	1128.46
694.478	1561.56
694.923	1763.26
695.367	2298.66
695.812	1214.86
696.256	507.26
696.701	378.96
697.145	350.06
697.59	334.26
698.034	321.26
698.478	337.46
698.922	333.06
699.367	330.96
699.811	343.66
700.255	361.26
700.699	385.86
701.143	420.46
701.588	484.86
702.032	523.06
702.476	525.66
702.92	496.96
703.364	500.16
703.808	635.86
704.252	1043.56
704.696	1473.16
705.14	1699.36
705.584	2172.96
706.027	1077.06
706.471	534.86
706.915	397.46
707.359	361.86
707.803	325.36
708.246	310.36
708.69	312.06
709.134	319.76
709.577	320.76
710.021	321.06
710.465	309.86
710.908	309.86
711.352	304.46
711.795	311.56
712.239	356.36
712.682	388.86
713.126	421.26
713.569	470.36
714.012	374.36
714.456	320.36
714.899	306.26
715.342	282.06
715.786	267.86
716.229	261.66
716.672	267.06
717.115	251.26
717.558	258.36
718.002	256.46
718.445	259.46
718.888	290.36
719.331	300.36
719.774	319.96
720.217	305.96
720.66	287.56
721.103	270.56
721.546	259.16
721.989	252.36
722.432	239.16
722.874	236.06
723.317	228.26
723.76	246.86
724.203	256.86
724.645	318.86
725.088	444.96
725.531	571.26
725.974	647.56
726.416	555.06
726.859	309.76
727.301	243.06
727.744	241.76
728.187	235.76
728.629	243.46
729.071	244.36
729.514	265.76
729.956	274.36
730.399	288.26
730.841	289.66
731.283	273.66
731.726	263.06
732.168	260.06
732.61	265.96
733.053	293.06
733.495	320.66
733.937	358.06
734.379	411.96
734.821	443.06
735.263	542.36
735.705	841.96
736.148	1576.16
736.59	2603.16
737.032	3100.76
737.474	2516.46
737.916	817.76
738.357	431.76
738.799	331.06
739.241	298.46
739.683	288.66
740.125	291.36
740.567	307.76
741.008	315.06
741.45	320.26
741.892	319.16
742.334	347.86
742.775	359.36
743.217	341.26
743.658	276.66
744.1	254.56
744.542	268.26
744.983	308.86
745.425	346.66
745.866	344.16
746.307	293.26
746.749	282.36
747.19	328.46
747.632	451.36
748.073	876.56
748.514	1865.46
748.956	2891.76
749.397	3598.46
749.838	2986.36
750.279	2992.46
750.72	1518.36
751.162	555.06
751.603	322.26
752.044	257.86
752.485	216.46
752.926	213.26
753.367	204.26
753.808	196.86
754.249	192.36
754.69	190.96
755.131	182.56
755.572	184.76
756.013	181.86
756.453	182.16
756.894	201.46
757.335	190.66
757.776	195.36
758.216	197.36
758.657	206.16
759.098	204.96
759.538	231.16
759.979	266.56
760.42	374.76
760.86	700.06
761.301	1812.46
761.741	4403.66
762.182	6511.96
762.622	4588.06
763.063	1324.46
763.503	542.16
763.943	348.96
764.384	337.46
764.824	393.06
765.264	432.16
765.705	304.06
766.145	210.46
766.585	186.46
767.025	183.66
767.465	188.16
767.906	237.66
768.346	316.46
768.786	334.16
769.226	254.66
769.666	314.66
770.106	620.76
770.546	1554.76
770.986	2683.06
771.426	2401.06
771.866	806.26
772.306	327.36
772.745	211.96
773.185	174.16
773.625	170.86
774.065	163.16
774.505	191.66
774.944	300.26
775.384	635.76
775.824	1151.16
776.263	1130.56
776.703	482.86
777.142	219.56
777.582	159.86
778.021	134.96
778.461	138.86
778.9	143.76
779.34	133.06
779.779	122.56
780.219	115.66
780.658	110.46
781.097	116.26
781.537	116.56
781.976	114.26
782.415	109.36
782.855	107.76
783.294	113.26
783.733	110.26
784.172	110.46
784.611	106.26
785.05	110.96
785.489	117.96
785.928	120.36
786.367	123.56
786.806	119.16
787.245	138.26
787.684	133.86
788.123	143.66
788.562	140.56
789.001	133.26
789.44	115.46
789.879	124.86
790.317	118.16
790.756	132.56
791.195	128.76
791.634	148.76
792.072	206.26
792.511	361.56
792.95	1012.96
793.388	2152.16
793.827	1952.76
794.265	680.46
794.704	289.76
795.142	183.36
795.581	151.66
796.019	131.56
796.458	128.66
796.896	121.96
797.334	129.56
797.773	154.96
798.211	223.56
798.649	435.66
799.087	1014.66
799.526	1592.76
799.964	2003.46
800.402	2031.86
800.84	761.46
801.278	304.76
801.716	194.16
802.154	156.16
802.592	153.66
803.03	136.16
803.468	137.66
803.906	146.46
804.344	151.36
804.782	135.86
805.22	136.16
805.658	133.56
806.096	145.56
806.533	158.06
806.971	170.96
807.409	219.86
807.847	315.46
808.284	652.66
808.722	1860.96
809.16	3329.46
809.597	3133.86
810.035	5460.26
810.472	5884.76
810.91	2103.26
811.347	798.46
811.785	412.36
812.222	259.36
812.66	198.56
813.097	165.46
813.535	143.26
813.972	130.36
814.409	111.46
814.846	109.96
815.284	114.66
815.721	102.46
816.158	102.86
816.595	117.26
817.032	176.66
817.47	187.36
817.907	170.36
818.344	150.86
818.781	117.26
819.218	99.86
819.655	128.36
820.092	187.96
820.529	220.76
820.966	182.36
821.403	135.96
821.839	111.76
822.276	104.26
822.713	121.46
823.15	133.06
823.587	119.66
824.023	144.26
824.46	303.16
824.897	893.36
825.333	1364.06
825.77	583.46
826.206	230.96
826.643	130.76
827.08	101.26
827.516	83.56
827.953	80.66
828.389	82.16
828.825	75.06
829.262	71.06
829.698	69.56
830.135	68.26
830.571	60.46
831.007	68.46
831.443	68.86
831.88	65.86
832.316	63.66
832.752	70.06
833.188	65.66
833.624	69.46
834.06	70.36
834.497	69.56
834.933	65.66
835.369	74.76
835.805	68.96
836.241	77.06
836.677	86.96
837.112	92.36
837.548	101.36
837.984	139.46
838.42	204.56
838.856	486.96
839.292	1516.76
839.727	2324.56
840.163	1077.86
840.599	932.06
841.034	2023.36
841.47	2152.06
841.906	783.96
842.341	334.96
842.777	226.06
843.212	304.86
843.648	304.06
844.083	146.16
844.519	100.66
844.954	80.26
845.39	59.96
845.825	56.36
846.261	54.86
846.696	53.36
847.131	52.16
847.566	62.56
848.002	51.66
848.437	56.16
848.872	64.86
849.307	68.06
849.742	84.56
850.177	179.66
850.613	554.66
851.048	892.76
851.483	381.26
851.918	154.16
852.353	86.16
852.788	62.76
853.223	60.66
853.657	55.56
854.092	44.66
854.527	43.46
854.962	43.16
855.397	44.06
855.832	48.56
856.266	40.46
856.701	39.46
857.136	41.66
857.57	34.46
858.005	48.56
858.44	61.06
858.874	47.96
859.309	54.86
859.743	37.06
860.178	48.36
860.612	45.56
861.047	58.56
861.481	67.46
861.915	67.76
862.35	57.96
862.784	39.96
863.218	36.46
863.653	29.96
864.087	47.46
864.521	52.46
864.955	76.66
865.39	156.76
865.824	178.46
866.258	113.46
866.692	163.06
867.126	179.36
867.56	106.66
867.994	59.56
868.428	43.76
868.862	50.76
869.296	53.76
869.73	58.36
870.164	56.56
870.598	50.66
871.031	39.96
871.465	36.26
871.899	32.66
872.333	20.76
872.766	26.16
873.2	20.66
873.634	36.56
874.067	28.26
874.501	26.86
874.935	35.16
875.368	32.46
875.802	27.86
876.235	25.76
876.669	22.96
877.102	20.86
877.535	28.66
877.969	24.06
878.402	25.36
878.836	19.86
879.269	25.26
879.702	23.96
880.135	19.76
880.569	26.76
881.002	31.16
881.435	25.16
881.868	12.36
882.301	16.26
882.734	19.46
883.167	23.56
883.601	28.26
884.034	25.96
884.467	18.36
884.899	19.46
885.332	18.26
885.765	14.86
886.198	18.56
886.631	18.36
887.064	28.06
887.497	17.46
887.929	24.96
888.362	13.26
888.795	13.06
889.228	20.06
889.66	22.86
890.093	16.46
890.526	16.06
890.958	13.96
891.391	20.46
891.823	20.86
892.256	17.66
892.688	12.36
893.121	12.66
893.553	16.06
893.985	22.46
894.418	20.06
894.85	10.06
895.282	16.66
895.715	17.36
896.147	15.36
896.579	16.46
897.011	13.96
897.444	21.66
897.876	22.56
898.308	21.16
898.74	18.56
899.172	15.26
899.604	25.46
900.036	18.86
900.468	21.16
900.9	17.16
901.332	18.16
901.764	13.06
902.196	20.36
902.628	12.96
903.06	18.96
903.491	26.16
903.923	26.26
904.355	22.66
904.787	28.16
905.218	20.36
905.65	21.16
906.082	16.06
906.513	16.26
906.945	9.96
907.376	12.76
907.808	20.86
908.239	18.16
908.671	17.96
909.102	19.36
909.534	23.16
909.965	49.46
910.397	93.16
910.828	320.96
911.259	475.26
911.691	216.26
912.122	105.96
912.553	59.36
912.984	28.66
913.415	19.66
913.847	27.96
914.278	16.96
914.709	16.96
915.14	19.96
915.571	21.66
916.002	14.56
916.433	18.96
916.864	13.56
917.295	17.96
917.726	23.16
918.157	19.16
918.587	24.76
919.018	20.86
919.449	20.26
919.88	25.76
920.311	35.46
920.741	51.56
921.172	168.36
921.603	150.66
922.033	74.66
922.464	45.46
922.895	28.26
923.325	31.16
923.756	18.66
924.186	19.16
924.617	24.76
925.047	37.86
925.478	52.36
925.908	42.46
926.338	26.06
926.769	24.26
927.199	25.56
927.629	10.16
928.06	17.56
928.49	10.46
928.92	15.06
929.35	12.46
929.78	12.76
930.21	3.46
930.641	11.06
931.071	7.26
931.501	6.86
931.931	12.36
932.361	7.16
932.791	10.96
933.221	6.76
933.651	5.16
934.08	19.36
934.51	34.06
934.94	7.96
935.37	9.16
935.8	8.56
936.229	10.26
936.659	11.66
937.089	7.06
937.519	15.36
937.948	26.36
938.378	13.06
938.807	6.96
939.237	6.66
939.666	9.06
940.096	0.66
940.525	8.76
940.955	6.06
941.384	0.06
941.814	-2.54
942.243	0.16
942.672	4.76
943.102	-6.64
943.531	2.16
943.96	3.46
944.39	8.06
944.819	0.66
945.248	0.96
945.677	3.36
946.106	7.26
946.535	9.96
946.964	2.56
947.393	1.66
947.822	4.06
948.251	-4.94
948.68	-1.24
949.109	6.36
949.538	6.46
949.967	-3.14
950.396	-0.74
950.825	1.06
951.254	-1.84
951.682	-3.14
952.111	6.26
952.54	2.66
952.969	-7.44
953.397	-5.54
953.826	2.16
954.254	-6.94
954.683	3.56
955.112	2.16
955.54	-4.04
955.969	-0.74
956.397	-1.94
956.826	-0.94
957.254	3.76
957.682	0.16
958.111	6.66
958.539	-1.24
958.967	-2.84
959.396	-2.04
959.824	0.46
960.252	-0.04
960.68	-6.84
961.109	-0.44
961.537	-5.44
961.965	-0.84
962.393	0.36
962.821	0.96
963.249	-3.04
963.677	4.26
964.105	4.16
964.533	45.86
964.961	40.16
965.389	23.06
965.817	7.66
966.245	5.86
966.672	-2.94
967.1	-8.84
967.528	5.46
967.956	-1.54
968.383	7.06
968.811	-6.14
969.239	-0.44
969.666	-9.24
970.094	2.46
970.522	3.36
970.949	-1.54
971.377	-3.54
971.804	-2.04
972.232	1.16
972.659	-0.44
973.087	-1.64
973.514	1.46
973.941	-1.14
974.369	0.16
974.796	-1.64
975.223	2.06
975.651	3.76
976.078	-0.34
976.505	-0.14
976.932	2.16
977.359	19.46
977.786	17.36
978.214	0.56
978.641	-6.24
979.068	-1.34
979.495	-7.94
979.922	-0.64
980.349	1.26
980.776	6.36
981.202	-1.24
981.629	8.56
982.056	4.16
982.483	-6.04
982.91	6.16
983.337	-12.34
983.763	0.86
984.19	-1.34
984.617	-8.94
985.043	-7.04
985.47	1.46
985.897	-2.44
986.323	-5.74
986.75	-1.84
987.176	-0.24
987.603	-4.44
988.029	1.16
988.456	0.06
988.882	3.06
989.308	-6.54
989.735	-3.44
990.161	2.56
990.587	-3.14
991.014	-2.04
991.44	2.96
991.866	1.06
992.292	-10.04
992.719	-6.14
993.145	1.66
993.571	-8.74
993.997	0.86
994.423	-2.44
994.849	-2.04
995.275	-0.74
995.701	1.46
996.127	-0.14
996.553	1.46
996.979	2.76
997.405	-1.94
997.83	-3.44
998.256	-3.34
998.682	-8.64
999.108	-5.84
999.534	-3.24
999.959	1.16
1000.385	0.36
1000.811	-3.54
1001.236	-9.24
1001.662	-5.14
1002.087	-6.14
1002.513	-4.84
1002.938	-0.94
1003.364	4.46
1003.789	1.16
1004.215	2.16
1004.64	0.76
1005.066	-1.14
1005.491	3.96
1005.916	0.56
1006.342	-3.74
1006.767	-6.14
1007.192	-1.14
1007.617	-7.54
1008.042	-10.94
1008.468	-4.34
1008.893	-1.74
1009.318	-5.14
1009.743	-4.74
1010.168	4.56
1010.593	3.96
1011.018	-9.54
1011.443	-0.04
1011.868	-1.64
1012.293	-4.64
1012.718	-6.84
1013.143	6.06
1013.567	1.66
1013.992	-3.04
1014.417	-13.44
1014.842	-4.34
1015.267	-2.54
1015.691	-4.94
1016.116	3.06
1016.541	0.46
1016.965	3.76
1017.39	0.16
1017.814	2.96
1018.239	-2.04
1018.663	-13.44
1019.088	-11.04
1019.512	-0.14
1019.937	-3.64
1020.361	-5.44
1020.785	-13.44
1021.21	-7.04
1021.634	-8.04
1022.058	-4.74
1022.483	7.36
1022.907	-2.54
1023.331	-3.34
1023.755	-2.64
1024.179	-8.44
1024.604	-2.84
1025.028	-3.44
1025.452	-5.44
1025.876	-3.14
1026.3	3.16
1026.724	-16.64
1027.148	-1.14
1027.572	-9.04
1027.996	-0.14
1028.42	0.56
1028.843	-3.04
1029.267	-1.14
1029.691	-0.24
1030.115	-9.04
1030.539	-0.74
1030.962	-7.74
1031.386	-9.94
1031.81	-1.04
1032.233	-2.14
1032.657	1.06
1033.08	-0.04
1033.504	1.36
1033.927	-7.24
1034.351	-1.34
1034.774	-2.54
1035.198	-5.24
1035.621	-5.64
1036.045	-3.14
1036.468	2.56
1036.891	-9.44
1037.315	-8.74
1037.738	-9.44
1038.161	-0.14
1038.584	-8.34
1039.008	-8.24
1039.431	-5.54
1039.854	-1.54
1040.277	-13.24
1040.7	-14.04
1041.123	-5.54
1041.546	-8.04
1041.969	-2.74
1042.392	-3.84
1042.815	-4.24
1043.238	-0.54
1043.661	1.56
1044.084	-9.94
1044.507	-6.94
1044.93	-7.84
1045.352	-2.94
1045.775	-2.04
1046.198	-2.44
1046.621	-1.04
1047.043	-3.24
1047.466	7.56
1047.889	-0.34
1048.311	-3.04
1048.734	-2.54
1049.156	-0.94
1049.579	2.56
1050.001	-3.54
1050.424	5.16
1050.846	0.86
1051.269	0.36
1051.691	-2.64
1052.113	-5.94
1052.536	-0.04
1052.958	0.26
1053.38	-1.44
1053.802	-17.74
1054.225	-0.64
1054.647	-11.14
1055.069	-7.44
1055.491	1.26
1055.913	-6.54
1056.335	-1.24
1056.757	-2.04
1057.179	-12.54
1057.601	-0.84
1058.023	-7.74
1058.445	-5.54
1058.867	-4.04
1059.289	-2.24
1059.711	-4.84
1060.133	-3.14
1060.555	-6.74
1060.976	-10.94
1061.398	-9.94
1061.82	-3.24
1062.241	-5.34
1062.663	-9.94
1063.085	-2.24
1063.506	0.86
1063.928	-8.24
1064.35	-4.24
1064.771	-12.14
1065.193	-2.04
1065.614	-4.44
1066.035	-2.74
1066.457	-1.94
1066.878	-4.14
1067.3	-9.84
1067.721	-7.84
1068.142	-5.64
1068.564	-12.84
1068.985	-0.74
1069.406	-5.54
1069.827	-9.94
1070.248	0.16
1070.67	-6.24
1071.091	-3.54
1071.512	-3.64
1071.933	-7.34
1072.354	-9.74
1072.775	-3.74
1073.196	-3.94
1073.617	-4.84
1074.038	-7.44
1074.459	-7.24
1074.88	-6.24
1075.3	1.46
1075.721	-6.44
1076.142	-0.64
1076.563	0.26
1076.983	-6.84
1077.404	-8.24
1077.825	-9.74
1078.246	-8.04
1078.666	-13.64
1079.087	-5.74
1079.507	-6.74
1079.928	-2.24
1080.348	-2.94
1080.769	-0.94
1081.189	-1.44
1081.61	-4.64
1082.03	-4.64
1082.451	-9.64
1082.871	-5.04
1083.291	-4.34
1083.711	-8.94
1084.132	-5.44
1084.552	-7.94
1084.972	-2.24
1085.392	-6.34
1085.813	-15.04
1086.233	-11.04
1086.653	-7.14
1087.073	-2.54
1087.493	-8.54
1087.913	-6.34
1088.333	-7.44
1088.753	-3.94
1089.173	-3.44
1089.593	1.66
1090.013	-2.34
1090.433	0.16
1090.852	-4.64
1091.272	-4.14
1091.692	0.66
1092.112	-3.34
1092.531	-15.44
1092.951	-13.84
1093.371	-4.14
1093.79	-0.34
1094.21	-5.64
1094.63	-3.44
1095.049	-8.94
1095.469	-6.74
1095.888	-0.94
1096.308	-1.64
1096.727	-1.84
1097.146	-7.64
1097.566	0.46
1097.985	-8.94
1098.405	-6.44
1098.824	-7.54
1099.243	-4.74
1099.662	-13.24
1100.082	-2.14
1100.501	-1.04
1100.92	-3.54
1101.339	-9.04
1101.758	-6.14
