Data from 20171114-ORNL-Ar_H_NY_Subt18_08-03-54-692.txt Node
Date: Tue Nov 14 08:03:54 EST 2017
User: Ender
Spectrometer: HR+D1039
Trigger mode: 0
Integration Time (sec): 2.730000E-2
Scans to average: 10
Electric dark correction enabled: true
Nonlinearity correction enabled: false
Boxcar width: 0
XAxis mode: Wavelengths
Number of Pixels in Spectrum: 2048
>>>>>Begin Spectral Data<<<<<
187.836	-4.59
188.309	-4.59
188.782	-4.59
189.255	-4.19
189.728	-4.79
190.201	5.81
190.674	1.71
191.147	-1.89
191.619	-9.09
192.092	4.01
192.565	4.01
193.038	4.21
193.511	4.71
193.984	5.71
194.456	-2.69
194.929	-2.29
195.402	-0.59
195.874	-0.09
196.347	4.71
196.82	-13.49
197.292	3.31
197.765	-3.59
198.237	-8.79
198.71	-2.49
199.182	-0.49
199.655	2.51
200.127	3.01
200.6	0.01
201.072	-1.99
201.544	-2.39
202.017	-2.29
202.489	4.91
202.961	-4.39
203.433	-2.69
203.906	-9.69
204.378	-2.29
204.85	-2.79
205.322	-10.39
205.794	-2.29
206.266	-4.69
206.739	-8.09
207.211	6.01
207.683	-10.89
208.155	-3.39
208.627	-2.89
209.099	-6.39
209.57	-6.09
210.042	-0.39
210.514	-9.29
210.986	1.31
211.458	-0.99
211.93	-1.69
212.402	-3.09
212.873	-9.39
213.345	-8.09
213.817	-9.59
214.288	-6.79
214.76	-8.29
215.232	-4.49
215.703	-6.29
216.175	-4.99
216.646	-3.49
217.118	-5.89
217.589	-2.49
218.061	-3.89
218.532	-1.89
219.004	-3.89
219.475	-10.99
219.946	-4.59
220.418	-3.09
220.889	2.61
221.36	-0.49
221.832	-12.09
222.303	-2.99
222.774	1.01
223.245	-12.69
223.717	-9.29
224.188	-2.39
224.659	-2.79
225.13	-5.99
225.601	-2.69
226.072	-4.09
226.543	-2.29
227.014	-2.49
227.485	-8.09
227.956	-2.39
228.427	-3.59
228.898	-5.79
229.369	-1.49
229.839	-5.39
230.31	-9.49
230.781	1.91
231.252	2.71
231.722	-6.89
232.193	-7.79
232.664	-4.99
233.135	-1.19
233.605	-7.99
234.076	-5.79
234.546	2.51
235.017	-1.99
235.487	-2.59
235.958	-1.89
236.428	-7.29
236.899	-0.69
237.369	-0.29
237.84	-3.79
238.31	-1.09
238.78	-3.39
239.251	-3.19
239.721	-4.89
240.191	-8.89
240.662	-8.39
241.132	-5.49
241.602	-4.29
242.072	-1.29
242.542	3.21
243.013	-2.69
243.483	-3.09
243.953	-2.29
244.423	-8.29
244.893	-5.49
245.363	4.11
245.833	-1.49
246.303	-5.99
246.773	1.91
247.243	0.61
247.712	-0.59
248.182	4.01
248.652	2.01
249.122	-7.79
249.592	0.51
250.061	2.51
250.531	4.61
251.001	-4.39
251.471	3.41
251.94	3.91
252.41	-1.79
252.879	-4.29
253.349	9.11
253.818	7.61
254.288	-3.39
254.757	-4.59
255.227	-0.89
255.696	0.91
256.166	2.41
256.635	0.01
257.105	-0.29
257.574	-0.19
258.043	-1.69
258.513	-6.79
258.982	1.11
259.451	-4.49
259.92	-2.29
260.389	-0.89
260.859	5.41
261.328	0.31
261.797	5.71
262.266	-4.39
262.735	1.31
263.204	-1.49
263.673	3.31
264.142	5.81
264.611	-6.59
265.08	-5.99
265.549	-3.79
266.018	3.11
266.487	-0.69
266.955	-2.39
267.424	-2.99
267.893	-0.39
268.362	-0.59
268.83	2.81
269.299	9.71
269.768	2.71
270.236	3.11
270.705	-1.99
271.174	-1.49
271.642	-0.59
272.111	-3.99
272.579	-3.19
273.048	3.61
273.516	0.01
273.985	2.41
274.453	3.21
274.922	8.81
275.39	1.71
275.858	-0.49
276.327	5.51
276.795	10.41
277.263	2.91
277.731	9.31
278.2	0.11
278.668	3.71
279.136	6.01
279.604	1.51
280.072	10.01
280.54	2.01
281.008	5.91
281.477	6.81
281.945	1.81
282.413	10.71
282.881	15.91
283.348	0.91
283.816	10.01
284.284	12.01
284.752	9.91
285.22	7.71
285.688	5.81
286.156	9.61
286.623	15.11
287.091	5.81
287.559	7.51
288.026	3.61
288.494	6.81
288.962	-0.79
289.429	-1.09
289.897	13.21
290.364	6.81
290.832	12.61
291.3	10.71
291.767	6.01
292.234	4.21
292.702	1.81
293.169	7.81
293.637	13.11
294.104	11.51
294.571	3.71
295.039	7.51
295.506	6.31
295.973	8.61
296.44	6.01
296.908	11.71
297.375	10.81
297.842	12.31
298.309	9.01
298.776	3.11
299.243	13.21
299.71	8.81
300.177	10.91
300.644	10.91
301.111	5.21
301.578	16.81
302.045	9.61
302.512	17.81
302.979	16.31
303.446	18.01
303.913	8.31
304.379	6.51
304.846	22.01
305.313	15.31
305.78	15.71
306.246	13.21
306.713	16.81
307.18	15.81
307.646	17.51
308.113	17.01
308.579	18.31
309.046	13.91
309.512	13.21
309.979	17.01
310.445	19.61
310.912	20.11
311.378	24.51
311.845	25.91
312.311	24.81
312.777	23.51
313.244	21.91
313.71	28.61
314.176	20.31
314.642	24.11
315.109	19.71
315.575	25.71
316.041	30.01
316.507	19.41
316.973	24.61
317.439	23.11
317.905	19.41
318.371	24.61
318.837	25.51
319.303	24.41
319.769	29.21
320.235	24.51
320.701	31.31
321.167	28.91
321.633	23.01
322.099	22.71
322.564	29.81
323.03	34.41
323.496	28.01
323.962	31.01
324.427	30.61
324.893	37.11
325.359	27.81
325.824	27.81
326.29	22.21
326.755	24.21
327.221	26.51
327.686	32.51
328.152	39.71
328.617	31.71
329.083	40.51
329.548	40.71
330.014	40.11
330.479	34.01
330.944	33.31
331.41	30.21
331.875	37.41
332.34	35.31
332.805	30.61
333.271	38.51
333.736	36.01
334.201	38.81
334.666	41.21
335.131	46.91
335.596	41.21
336.061	37.11
336.526	33.01
336.991	38.01
337.456	45.91
337.921	42.11
338.386	32.31
338.851	32.41
339.316	35.81
339.781	36.81
340.246	41.71
340.711	41.71
341.175	44.51
341.64	33.01
342.105	40.71
342.569	45.71
343.034	42.61
343.499	49.61
343.963	42.81
344.428	54.91
344.893	53.51
345.357	51.11
345.822	51.01
346.286	55.81
346.751	61.41
347.215	50.61
347.679	55.01
348.144	77.91
348.608	67.51
349.073	54.31
349.537	65.51
350.001	60.41
350.465	73.11
350.93	68.31
351.394	70.01
351.858	63.61
352.322	72.91
352.786	67.71
353.25	74.01
353.715	87.41
354.179	77.21
354.643	94.81
355.107	99.41
355.571	88.51
356.035	81.41
356.498	91.61
356.962	94.61
357.426	98.11
357.89	84.61
358.354	76.61
358.818	72.91
359.281	69.71
359.745	68.11
360.209	61.51
360.673	66.21
361.136	72.21
361.6	72.21
362.064	73.71
362.527	70.41
362.991	83.91
363.454	68.41
363.918	63.91
364.381	71.11
364.845	76.21
365.308	80.01
365.772	79.31
366.235	75.01
366.698	77.41
367.162	75.21
367.625	74.71
368.088	79.11
368.552	85.41
369.015	83.41
369.478	87.11
369.941	89.11
370.404	84.21
370.867	92.51
371.331	93.81
371.794	89.51
372.257	87.61
372.72	91.21
373.183	92.41
373.646	85.11
374.109	88.61
374.572	89.31
375.035	92.71
375.497	94.31
375.96	98.81
376.423	91.11
376.886	99.51
377.349	93.31
377.811	94.41
378.274	93.21
378.737	95.21
379.199	102.31
379.662	102.61
380.125	102.51
380.587	99.41
381.05	107.71
381.512	108.71
381.975	115.91
382.437	112.51
382.9	106.91
383.362	120.21
383.825	119.71
384.287	120.61
384.75	107.21
385.212	116.41
385.674	117.31
386.136	116.71
386.599	109.81
387.061	114.01
387.523	112.91
387.985	119.01
388.447	124.81
388.91	118.31
389.372	119.51
389.834	122.31
390.296	118.51
390.758	128.21
391.22	118.11
391.682	135.41
392.144	144.91
392.606	138.11
393.068	133.91
393.529	145.91
393.991	136.71
394.453	124.91
394.915	129.11
395.377	122.81
395.838	134.41
396.3	126.51
396.762	130.31
397.224	128.51
397.685	125.21
398.147	129.41
398.608	128.11
399.07	123.31
399.531	137.71
399.993	141.41
400.454	143.51
400.916	144.21
401.377	138.81
401.839	147.71
402.3	143.91
402.762	158.81
403.223	176.41
403.684	171.41
404.145	156.11
404.607	149.91
405.068	151.81
405.529	156.61
405.99	165.81
406.451	158.51
406.913	167.01
407.374	155.81
407.835	156.71
408.296	162.01
408.757	166.61
409.218	171.91
409.679	171.61
410.14	171.41
410.601	170.91
411.062	176.21
411.522	181.81
411.983	179.91
412.444	174.31
412.905	177.71
413.366	180.01
413.826	191.81
414.287	218.01
414.748	270.01
415.208	249.31
415.669	213.61
416.13	203.41
416.59	199.71
417.051	220.21
417.511	226.01
417.972	242.81
418.432	251.71
418.893	289.51
419.353	255.61
419.814	198.31
420.274	182.91
420.734	183.91
421.195	193.61
421.655	184.11
422.115	189.81
422.576	189.11
423.036	192.71
423.496	204.51
423.956	208.41
424.416	223.71
424.876	269.11
425.336	253.01
425.797	256.11
426.257	244.51
426.717	233.61
427.177	229.61
427.637	220.61
428.097	219.71
428.556	232.91
429.016	259.11
429.476	252.81
429.936	257.31
430.396	261.41
430.856	267.31
431.315	293.41
431.775	315.11
432.235	356.71
432.694	323.81
433.154	337.91
433.614	356.71
434.073	306.41
434.533	267.21
434.993	252.41
435.452	262.51
435.912	264.51
436.371	263.91
436.83	257.01
437.29	248.91
437.749	236.51
438.209	228.41
438.668	251.61
439.127	265.21
439.587	246.31
440.046	232.01
440.505	239.01
440.964	250.71
441.424	278.91
441.883	273.41
442.342	248.71
442.801	213.61
443.26	216.81
443.719	220.81
444.178	216.81
444.637	209.01
445.096	216.91
445.555	216.21
446.014	216.11
446.473	214.51
446.932	231.21
447.391	227.51
447.849	233.21
448.308	216.21
448.767	216.61
449.226	230.41
449.685	233.61
450.143	236.91
450.602	227.31
451.061	220.81
451.519	228.71
451.978	229.91
452.436	228.31
452.895	225.21
453.353	238.31
453.812	227.71
454.27	228.01
454.729	227.91
455.187	234.21
455.646	231.91
456.104	237.91
456.562	248.61
457.021	252.31
457.479	239.61
457.937	258.61
458.395	256.71
458.854	238.91
459.312	230.91
459.77	253.81
460.228	248.31
460.686	225.31
461.144	242.51
461.602	228.81
462.06	236.51
462.518	244.71
462.976	246.11
463.434	249.11
463.892	252.41
464.35	262.61
464.808	272.01
465.266	251.21
465.724	258.21
466.181	265.01
466.639	263.11
467.097	277.51
467.555	292.91
468.012	282.51
468.47	291.21
468.928	310.51
469.385	317.51
469.843	317.41
470.3	324.11
470.758	339.51
471.215	346.81
471.673	369.91
472.13	371.61
472.588	382.71
473.045	356.31
473.503	357.01
473.96	373.91
474.417	373.91
474.875	397.01
475.332	427.41
475.789	430.31
476.246	439.71
476.704	452.01
477.161	463.01
477.618	475.51
478.075	516.11
478.532	555.31
478.989	603.61
479.446	696.21
479.903	688.41
480.36	720.91
480.817	764.31
481.274	837.31
481.731	926.21
482.188	992.61
482.645	1100.81
483.102	1184.81
483.558	1275.31
484.015	1330.81
484.472	1313.41
484.929	1280.51
485.385	1239.91
485.842	1223.01
486.299	1176.71
486.755	1117.41
487.212	963.91
487.668	830.11
488.125	777.11
488.582	716.71
489.038	688.11
489.494	647.11
489.951	631.91
490.407	611.91
490.864	592.01
491.32	595.31
491.776	588.21
492.233	600.01
492.689	563.91
493.145	562.81
493.602	548.21
494.058	556.41
494.514	565.21
494.97	573.21
495.426	590.21
495.882	563.51
496.338	568.11
496.794	569.41
497.251	559.91
497.707	575.51
498.163	565.11
498.618	581.71
499.074	574.01
499.53	588.41
499.986	598.61
500.442	584.21
500.898	567.21
501.354	562.61
501.809	568.41
502.265	572.41
502.721	576.91
503.177	584.41
503.632	587.71
504.088	585.51
504.543	605.11
504.999	613.81
505.455	596.21
505.91	574.41
506.366	580.51
506.821	572.31
507.277	579.61
507.732	582.21
508.187	572.61
508.643	583.01
509.098	583.41
509.553	609.41
510.009	606.01
510.464	612.81
510.919	632.31
511.375	630.31
511.83	637.91
512.285	646.51
512.74	679.61
513.195	678.31
513.65	682.81
514.105	692.31
514.56	677.61
515.015	703.01
515.47	711.81
515.925	688.21
516.38	711.01
516.835	696.61
517.29	703.31
517.745	700.81
518.2	687.11
518.655	669.71
519.109	667.11
519.564	655.11
520.019	649.91
520.474	647.51
520.928	639.01
521.383	644.31
521.838	630.81
522.292	633.91
522.747	632.41
523.201	641.11
523.656	626.61
524.11	627.41
524.565	622.71
525.019	610.21
525.474	614.41
525.928	625.01
526.382	605.11
526.837	619.51
527.291	619.61
527.745	614.61
528.2	623.21
528.654	605.81
529.108	606.21
529.562	608.51
530.016	602.61
530.47	607.11
530.925	612.01
531.379	608.21
531.833	611.61
532.287	615.21
532.741	611.61
533.195	611.21
533.649	622.51
534.103	629.21
534.556	607.51
535.01	611.81
535.464	598.51
535.918	623.91
536.372	622.81
536.826	616.41
537.279	614.91
537.733	616.01
538.187	618.81
538.64	611.81
539.094	613.81
539.548	629.11
540.001	614.91
540.455	616.71
540.908	625.01
541.362	630.71
541.815	642.21
542.269	650.91
542.722	656.81
543.175	661.21
543.629	660.01
544.082	671.41
544.536	674.61
544.989	663.11
545.442	684.91
545.895	674.91
546.349	693.21
546.802	679.81
547.255	686.61
547.708	692.01
548.161	699.61
548.614	702.61
549.067	705.31
549.52	696.01
549.973	690.81
550.426	682.21
550.879	673.61
551.332	687.61
551.785	689.71
552.238	688.81
552.691	693.71
553.144	707.01
553.596	708.81
554.049	713.31
554.502	745.81
554.955	767.91
555.407	759.91
555.86	749.51
556.313	742.71
556.765	736.11
557.218	738.91
557.67	732.91
558.123	732.91
558.576	736.81
559.028	730.91
559.48	742.61
559.933	733.91
560.385	695.91
560.838	692.21
561.29	659.31
561.742	660.11
562.195	644.91
562.647	644.41
563.099	645.31
563.551	642.41
564.004	646.91
564.456	634.91
564.908	626.81
565.36	618.21
565.812	602.61
566.264	594.51
566.716	591.01
567.168	589.11
567.62	588.11
568.072	576.61
568.524	575.51
568.976	573.91
569.428	562.51
569.88	553.41
570.332	559.41
570.784	567.11
571.235	555.71
571.687	571.41
572.139	576.81
572.59	580.81
573.042	578.01
573.494	584.61
573.945	576.01
574.397	551.91
574.849	559.31
575.3	560.21
575.752	547.41
576.203	550.61
576.655	552.51
577.106	547.51
577.557	541.31
578.009	544.31
578.46	539.51
578.912	537.21
579.363	531.41
579.814	539.61
580.265	528.01
580.717	538.91
581.168	529.31
581.619	540.81
582.07	541.41
582.521	532.31
582.972	528.61
583.423	529.01
583.875	531.31
584.326	541.01
584.777	543.11
585.227	567.61
585.678	588.81
586.129	605.81
586.58	607.01
587.031	625.71
587.482	666.21
587.933	694.81
588.384	666.31
588.834	620.61
589.285	608.11
589.736	610.51
590.186	614.21
590.637	600.21
591.088	592.81
591.538	588.31
591.989	575.61
592.439	565.91
592.89	553.31
593.34	558.21
593.791	556.91
594.241	548.61
594.692	547.91
595.142	536.31
595.593	539.31
596.043	549.21
596.493	547.51
596.943	553.01
597.394	563.11
597.844	563.91
598.294	573.21
598.744	589.61
599.195	607.71
599.645	638.51
600.095	660.61
600.545	702.31
600.995	741.51
601.445	787.51
601.895	835.41
602.345	876.81
602.795	869.21
603.245	827.11
603.695	783.51
604.145	753.81
604.594	714.91
605.044	672.51
605.494	612.71
605.944	579.81
606.393	570.71
606.843	559.61
607.293	558.61
607.743	551.21
608.192	560.01
608.642	579.41
609.091	568.71
609.541	581.01
609.99	574.11
610.44	578.41
610.889	536.01
611.339	533.01
611.788	518.91
612.238	525.61
612.687	535.11
613.136	530.81
613.586	533.01
614.035	529.11
614.484	544.61
614.933	529.81
615.383	538.91
615.832	529.01
616.281	519.41
616.73	504.81
617.179	500.61
617.628	485.91
618.077	473.81
618.526	471.81
618.975	459.91
619.424	462.31
619.873	463.01
620.322	466.01
620.771	458.01
621.22	451.81
621.669	442.11
622.118	447.01
622.567	433.11
623.015	419.71
623.464	424.41
623.913	417.61
624.361	412.01
624.81	405.71
625.259	416.41
625.707	422.01
626.156	416.11
626.604	433.71
627.053	415.61
627.501	409.11
627.95	426.11
628.398	433.91
628.847	424.11
629.295	424.71
629.744	427.21
630.192	421.21
630.64	423.81
631.089	407.91
631.537	390.71
631.985	392.01
632.433	391.61
632.881	381.41
633.33	387.41
633.778	383.41
634.226	383.91
634.674	387.41
635.122	387.21
635.57	396.11
636.018	423.61
636.466	408.21
636.914	407.91
637.362	412.71
637.81	421.51
638.258	434.71
638.705	421.41
639.153	444.51
639.601	449.61
640.049	461.41
640.497	490.91
640.944	514.31
641.392	478.31
641.84	452.31
642.287	428.01
642.735	408.91
643.182	419.41
643.63	407.21
644.078	410.41
644.525	423.91
644.973	420.31
645.42	426.51
645.867	443.61
646.315	460.51
646.762	462.91
647.21	493.11
647.657	508.91
648.104	533.01
648.551	537.71
648.999	574.71
649.446	628.81
649.893	677.61
650.34	777.61
650.787	920.71
651.234	1130.31
651.682	1446.51
652.129	1930.01
652.576	2707.01
653.023	3968.61
653.47	5484.01
653.917	6934.21
654.363	8148.51
654.81	9246.91
655.257	8814.11
655.704	5796.31
656.151	3442.51
656.598	2250.71
657.044	1621.11
657.491	1255.01
657.938	994.81
658.385	846.01
658.831	739.21
659.278	651.11
659.724	597.01
660.171	549.01
660.618	502.81
661.064	476.41
661.511	455.11
661.957	444.31
662.404	427.61
662.85	451.81
663.296	429.41
663.743	401.51
664.189	376.51
664.635	381.91
665.082	382.01
665.528	372.91
665.974	369.21
666.42	361.71
666.867	360.31
667.313	339.41
667.759	330.91
668.205	322.01
668.651	322.91
669.097	317.51
669.543	315.31
669.989	315.21
670.435	326.21
670.881	322.31
671.327	319.61
671.773	339.71
672.219	347.41
672.665	390.11
673.11	418.81
673.556	459.61
674.002	493.31
674.448	473.11
674.893	404.81
675.339	342.01
675.785	318.21
676.23	300.11
676.676	274.41
677.122	277.41
677.567	274.41
678.013	264.81
678.458	257.31
678.904	256.61
679.349	241.51
679.794	254.51
680.24	245.01
680.685	244.01
681.131	249.51
681.576	250.91
682.021	259.21
682.466	244.01
682.912	247.51
683.357	250.91
683.802	265.41
684.247	282.61
684.692	316.21
685.137	352.91
685.583	387.11
686.028	414.51
686.473	368.51
686.918	315.01
687.363	298.11
687.807	279.51
688.252	260.51
688.697	256.21
689.142	235.31
689.587	238.01
690.032	219.91
690.477	240.11
690.921	249.81
691.366	271.41
691.811	282.31
692.255	307.71
692.7	330.01
693.145	352.91
693.589	477.41
694.034	782.71
694.478	1087.91
694.923	1284.21
695.367	1708.31
695.812	897.41
696.256	358.11
696.701	261.61
697.145	241.41
697.59	229.31
698.034	226.21
698.478	234.91
698.922	224.51
699.367	231.91
699.811	246.11
700.255	249.91
700.699	269.01
701.143	294.81
701.588	339.11
702.032	368.81
702.476	364.01
702.92	349.81
703.364	342.91
703.808	439.71
704.252	710.11
704.696	1020.91
705.14	1241.01
705.584	1600.01
706.027	776.11
706.471	378.41
706.915	276.01
707.359	248.71
707.803	232.21
708.246	221.51
708.69	221.11
709.134	220.51
709.577	221.81
710.021	220.11
710.465	217.31
710.908	211.51
711.352	213.51
711.795	215.51
712.239	244.01
712.682	261.11
713.126	286.21
713.569	325.01
714.012	256.41
714.456	221.41
714.899	204.91
715.342	191.81
715.786	174.91
716.229	179.61
716.672	176.81
717.115	176.91
717.558	174.51
718.002	170.21
718.445	188.81
718.888	207.81
719.331	209.11
719.774	225.51
720.217	213.61
720.66	196.61
721.103	186.11
721.546	184.31
721.989	178.01
722.432	164.91
722.874	168.61
723.317	156.31
723.76	161.91
724.203	174.41
724.645	219.41
725.088	304.41
725.531	395.51
725.974	461.81
726.416	395.11
726.859	217.21
727.301	174.01
727.744	168.21
728.187	166.61
728.629	169.71
729.071	167.21
729.514	185.81
729.956	189.71
730.399	197.91
730.841	205.71
731.283	197.81
731.726	193.41
732.168	186.81
732.61	186.91
733.053	195.31
733.495	212.71
733.937	241.31
734.379	275.41
734.821	307.41
735.263	381.31
735.705	569.61
736.148	1071.31
736.59	1853.91
737.032	2299.41
737.474	1875.31
737.916	593.81
738.357	308.01
738.799	239.41
739.241	206.61
739.683	202.31
740.125	206.51
740.567	208.91
741.008	225.01
741.45	227.61
741.892	220.61
742.334	245.81
742.775	263.71
743.217	254.71
743.658	193.41
744.1	174.81
744.542	187.01
744.983	228.01
745.425	253.61
745.866	260.11
746.307	208.41
746.749	196.11
747.19	222.11
747.632	315.51
748.073	591.81
748.514	1282.81
748.956	2048.71
749.397	2592.71
749.838	2155.01
750.279	2243.81
750.72	1128.21
751.162	398.71
751.603	233.31
752.044	177.21
752.485	149.01
752.926	143.61
753.367	139.81
753.808	136.01
754.249	135.11
754.69	126.91
755.131	128.41
755.572	124.41
756.013	128.41
756.453	134.01
756.894	130.71
757.335	133.81
757.776	136.91
758.216	134.91
758.657	138.41
759.098	138.21
759.538	157.31
759.979	181.51
760.42	254.71
760.86	488.01
761.301	1257.31
761.741	3147.31
762.182	4968.81
762.622	3529.01
763.063	997.21
763.503	392.31
763.943	232.21
764.384	192.61
764.824	182.31
765.264	181.51
765.705	158.61
766.145	124.31
766.585	119.91
767.025	112.21
767.465	117.11
767.906	125.01
768.346	142.01
768.786	150.81
769.226	147.41
769.666	207.21
770.106	410.41
770.546	1057.51
770.986	1960.41
771.426	1817.21
771.866	588.11
772.306	233.51
772.745	143.31
773.185	114.91
773.625	107.51
774.065	106.01
774.505	113.11
774.944	145.21
775.384	263.51
775.824	455.41
776.263	455.51
776.703	213.51
777.142	118.91
777.582	88.21
778.021	89.31
778.461	85.61
778.9	88.81
779.34	86.51
779.779	71.11
780.219	72.51
780.658	69.51
781.097	71.31
781.537	72.01
781.976	72.41
782.415	71.61
782.855	75.11
783.294	66.21
783.733	70.81
784.172	72.51
784.611	69.41
785.05	69.31
785.489	70.71
785.928	75.01
786.367	88.21
786.806	85.71
787.245	90.81
787.684	95.51
788.123	98.91
788.562	89.61
789.001	88.11
789.44	87.21
789.879	76.11
790.317	84.21
790.756	87.31
791.195	87.21
791.634	107.61
792.072	145.91
792.511	244.71
792.95	672.11
793.388	1544.41
793.827	1472.91
794.265	495.01
794.704	198.41
795.142	130.51
795.581	107.71
796.019	95.41
796.458	99.41
796.896	84.01
797.334	89.81
797.773	104.51
798.211	148.61
798.649	295.11
799.087	717.81
799.526	1146.51
799.964	1465.91
800.402	1541.91
800.84	574.21
801.278	215.01
801.716	132.21
802.154	108.41
802.592	103.31
803.03	96.11
803.468	92.61
803.906	99.71
804.344	108.51
804.782	100.51
805.22	94.11
805.658	87.31
806.096	104.41
806.533	110.31
806.971	124.31
807.409	152.41
807.847	223.41
808.284	450.71
808.722	1304.21
809.16	2484.51
809.597	2286.11
810.035	4079.41
810.472	4632.61
810.91	1635.71
811.347	595.71
811.785	301.61
812.222	186.61
812.66	141.51
813.097	121.01
813.535	104.41
813.972	91.91
814.409	85.41
814.846	77.31
815.284	79.71
815.721	68.51
816.158	73.91
816.595	75.01
817.032	111.91
817.47	139.71
817.907	110.11
818.344	67.41
818.781	70.11
819.218	68.81
819.655	86.01
820.092	145.61
820.529	167.21
820.966	138.01
821.403	94.91
821.839	71.71
822.276	74.61
822.713	86.51
823.15	105.01
823.587	92.21
824.023	100.71
824.46	200.71
824.897	624.91
825.333	1025.91
825.77	442.81
826.206	167.71
826.643	100.91
827.08	71.01
827.516	61.71
827.953	56.91
828.389	60.21
828.825	51.11
829.262	46.41
829.698	42.11
830.135	47.81
830.571	43.81
831.007	42.81
831.443	43.71
831.88	41.01
832.316	40.51
832.752	43.11
833.188	43.21
833.624	39.91
834.06	47.81
834.497	48.21
834.933	48.11
835.369	53.81
835.805	49.41
836.241	47.91
836.677	56.21
837.112	69.01
837.548	62.61
837.984	93.61
838.42	141.41
838.856	344.71
839.292	1090.91
839.727	1768.51
840.163	813.61
840.599	667.01
841.034	1500.31
841.47	1654.11
841.906	598.61
842.341	245.21
842.777	144.31
843.212	147.71
843.648	149.11
844.083	82.91
844.519	57.61
844.954	45.31
845.39	35.21
845.825	36.01
846.261	39.11
846.696	33.91
847.131	33.91
847.566	40.21
848.002	33.91
848.437	40.11
848.872	34.61
849.307	43.51
849.742	54.41
850.177	121.31
850.613	394.91
851.048	658.51
851.483	279.11
851.918	108.51
852.353	53.01
852.788	38.21
853.223	34.11
853.657	34.51
854.092	32.71
854.527	27.51
854.962	29.91
855.397	29.91
855.832	36.71
856.266	28.01
856.701	25.31
857.136	27.81
857.57	26.61
858.005	31.21
858.44	43.51
858.874	31.61
859.309	29.91
859.743	22.31
860.178	30.41
860.612	22.01
861.047	35.51
861.481	46.91
861.915	62.01
862.35	38.41
862.784	22.01
863.218	26.21
863.653	26.11
864.087	33.61
864.521	41.91
864.955	44.61
865.39	104.71
865.824	124.71
866.258	77.91
866.692	132.61
867.126	149.81
867.56	90.61
867.994	39.81
868.428	27.11
868.862	34.71
869.296	43.51
869.73	41.61
870.164	42.21
870.598	37.81
871.031	24.21
871.465	23.31
871.899	21.01
872.333	16.61
872.766	20.81
873.2	13.71
873.634	24.51
874.067	16.81
874.501	19.91
874.935	26.81
875.368	20.91
875.802	14.41
876.235	18.31
876.669	10.01
877.102	13.61
877.535	15.11
877.969	12.21
878.402	14.41
878.836	17.81
879.269	16.31
879.702	19.11
880.135	10.41
880.569	8.71
881.002	14.61
881.435	14.81
881.868	10.41
882.301	15.81
882.734	13.31
883.167	15.51
883.601	14.51
884.034	16.01
884.467	7.51
884.899	15.01
885.332	12.41
885.765	4.61
886.198	8.51
886.631	10.31
887.064	15.21
887.497	12.51
887.929	17.51
888.362	6.81
888.795	5.51
889.228	13.51
889.66	14.51
890.093	6.71
890.526	7.21
890.958	10.91
891.391	12.81
891.823	19.31
892.256	14.31
892.688	3.11
893.121	6.81
893.553	9.71
893.985	18.71
894.418	11.81
894.85	6.01
895.282	12.51
895.715	6.71
896.147	12.21
896.579	9.01
897.011	9.71
897.444	11.41
897.876	4.11
898.308	10.01
898.74	4.11
899.172	7.81
899.604	20.81
900.036	15.81
900.468	9.21
900.9	11.21
901.332	17.71
901.764	11.01
902.196	18.31
902.628	6.11
903.06	10.51
903.491	18.21
903.923	13.71
904.355	15.91
904.787	17.71
905.218	16.71
905.65	9.81
906.082	5.61
906.513	2.71
906.945	7.51
907.376	7.81
907.808	13.51
908.239	14.41
908.671	8.31
909.102	14.91
909.534	18.91
909.965	37.01
910.397	64.41
910.828	229.31
911.259	365.91
911.691	167.41
912.122	78.71
912.553	39.91
912.984	22.51
913.415	18.91
913.847	20.31
914.278	7.01
914.709	7.61
915.14	14.61
915.571	12.61
916.002	2.81
916.433	14.51
916.864	14.91
917.295	7.91
917.726	16.91
918.157	9.41
918.587	27.71
919.018	13.61
919.449	17.51
919.88	18.31
920.311	27.41
920.741	31.31
921.172	123.51
921.603	118.41
922.033	52.01
922.464	33.21
922.895	13.61
923.325	14.01
923.756	5.71
924.186	-2.79
924.617	8.91
925.047	12.11
925.478	14.71
925.908	12.71
926.338	5.41
926.769	7.01
927.199	16.61
927.629	3.21
928.06	10.41
928.49	7.41
928.92	6.91
929.35	8.91
929.78	10.01
930.21	6.11
930.641	5.61
931.071	7.81
931.501	6.61
931.931	6.11
932.361	7.81
932.791	0.51
933.221	4.91
933.651	2.21
934.08	10.51
934.51	29.31
934.94	3.91
935.37	7.61
935.8	5.31
936.229	4.01
936.659	5.71
937.089	6.71
937.519	16.01
937.948	18.41
938.378	12.21
938.807	0.31
939.237	-0.39
939.666	5.21
940.096	-8.39
940.525	-3.69
940.955	2.51
941.384	7.31
941.814	-3.69
942.243	0.81
942.672	0.41
943.102	-7.79
943.531	-4.59
943.96	0.81
944.39	0.11
944.819	-2.69
945.248	-0.19
945.677	-0.19
946.106	7.31
946.535	3.41
946.964	-1.89
947.393	3.61
947.822	-2.89
948.251	-7.29
948.68	0.11
949.109	2.31
949.538	-1.39
949.967	0.31
950.396	-2.39
950.825	-3.69
951.254	-4.89
951.682	-6.49
952.111	2.71
952.54	7.81
952.969	-6.29
953.397	-9.89
953.826	3.01
954.254	-3.99
954.683	0.71
955.112	-5.99
955.54	-2.79
955.969	-1.99
956.397	0.81
956.826	-1.29
957.254	9.81
957.682	-4.39
958.111	4.31
958.539	-4.29
958.967	1.11
959.396	-3.49
959.824	-0.19
960.252	0.31
960.68	-5.79
961.109	-7.69
961.537	-4.99
961.965	-2.59
962.393	-7.99
962.821	-3.19
963.249	-1.69
963.677	0.71
964.105	1.51
964.533	28.41
964.961	31.31
965.389	19.21
965.817	3.51
966.245	1.31
966.672	-2.29
967.1	-7.69
967.528	2.11
967.956	-5.99
968.383	-2.79
968.811	-10.19
969.239	-2.99
969.666	-5.99
970.094	-0.59
970.522	-2.59
970.949	-5.29
971.377	-10.19
971.804	-5.49
972.232	-3.49
972.659	-4.09
973.087	-2.09
973.514	-2.69
973.941	-6.99
974.369	4.51
974.796	-0.39
975.223	-0.89
975.651	-2.19
976.078	-2.09
976.505	-4.69
976.932	0.51
977.359	8.91
977.786	10.51
978.214	-1.39
978.641	-2.19
979.068	-3.79
979.495	-8.29
979.922	-1.29
980.349	-4.89
980.776	0.61
981.202	-2.49
981.629	4.81
982.056	4.01
982.483	-0.99
982.91	-2.39
983.337	-6.59
983.763	-3.09
984.19	-5.89
984.617	-6.29
985.043	-10.69
985.47	-3.29
985.897	0.21
986.323	-10.39
986.75	6.91
987.176	-1.69
987.603	-0.19
988.029	-2.69
988.456	-4.79
988.882	-0.59
989.308	-15.69
989.735	-4.69
990.161	4.11
990.587	-1.89
991.014	-0.09
991.44	7.71
991.866	1.21
992.292	-1.59
992.719	-4.29
993.145	2.01
993.571	-7.89
993.997	-1.89
994.423	1.91
994.849	-2.19
995.275	0.61
995.701	-3.49
996.127	-7.59
996.553	0.11
996.979	-6.49
997.405	-7.79
997.83	-12.39
998.256	-9.99
998.682	0.91
999.108	-6.89
999.534	-0.99
999.959	-5.89
1000.385	3.61
1000.811	1.21
1001.236	-12.39
1001.662	-8.09
1002.087	-6.99
1002.513	1.31
1002.938	8.21
1003.364	-3.79
1003.789	-1.09
1004.215	-0.19
1004.64	-5.59
1005.066	4.61
1005.491	-3.59
1005.916	-2.59
1006.342	-5.39
1006.767	-10.19
1007.192	3.61
1007.617	-6.09
1008.042	-3.79
1008.468	-7.49
1008.893	-4.19
1009.318	-8.69
1009.743	-7.39
1010.168	2.31
1010.593	1.21
1011.018	-4.69
1011.443	-1.99
1011.868	0.11
1012.293	-6.09
1012.718	-5.49
1013.143	1.71
1013.567	5.11
1013.992	-3.59
1014.417	-12.39
1014.842	2.11
1015.267	-6.39
1015.691	-6.59
1016.116	2.21
1016.541	3.71
1016.965	5.51
1017.39	5.81
1017.814	3.11
1018.239	1.11
1018.663	-5.99
1019.088	-8.49
1019.512	-10.89
1019.937	-4.69
1020.361	-4.99
1020.785	-7.49
1021.21	-3.19
1021.634	-7.99
1022.058	-0.49
1022.483	-0.29
1022.907	-5.19
1023.331	-3.69
1023.755	-0.59
1024.179	-1.69
1024.604	-8.79
1025.028	-7.99
1025.452	-5.89
1025.876	5.31
1026.3	0.61
1026.724	-5.99
1027.148	-10.99
1027.572	-5.69
1027.996	-3.79
1028.42	5.31
1028.843	-4.09
1029.267	-2.99
1029.691	-5.19
1030.115	-6.99
1030.539	-10.19
1030.962	-7.99
1031.386	-13.09
1031.81	-3.49
1032.233	-2.99
1032.657	1.71
1033.08	-5.69
1033.504	1.31
1033.927	-3.59
1034.351	-2.09
1034.774	-0.49
1035.198	-3.49
1035.621	-3.59
1036.045	-11.09
1036.468	-0.09
1036.891	-12.79
1037.315	-7.59
1037.738	-10.49
1038.161	-0.99
1038.584	-9.09
1039.008	-6.39
1039.431	-2.49
1039.854	-3.99
1040.277	-11.09
1040.7	-7.09
1041.123	2.41
1041.546	-4.59
1041.969	-11.39
1042.392	-3.89
1042.815	0.11
1043.238	-1.49
1043.661	4.81
1044.084	-3.79
1044.507	-5.49
1044.93	-6.19
1045.352	-8.19
1045.775	-1.69
1046.198	-0.59
1046.621	-2.59
1047.043	4.81
1047.466	6.61
1047.889	-4.99
1048.311	-3.89
1048.734	-6.39
1049.156	0.71
1049.579	-1.99
1050.001	-8.49
1050.424	-2.79
1050.846	-5.39
1051.269	-10.49
1051.691	-9.09
1052.113	-2.29
1052.536	-0.69
1052.958	-4.99
1053.38	-2.19
1053.802	-3.99
1054.225	0.11
1054.647	-6.89
1055.069	-5.39
1055.491	2.61
1055.913	-6.79
1056.335	-1.29
1056.757	-9.29
1057.179	-10.89
1057.601	-1.89
1058.023	-4.49
1058.445	1.61
1058.867	-2.09
1059.289	-4.19
1059.711	-8.09
1060.133	-0.99
1060.555	-1.69
1060.976	-5.39
1061.398	-5.29
1061.82	-8.49
1062.241	-4.69
1062.663	-7.79
1063.085	-3.69
1063.506	-0.09
1063.928	-3.19
1064.35	-3.19
1064.771	-11.89
1065.193	-4.39
1065.614	-8.49
1066.035	-2.39
1066.457	-5.29
1066.878	-4.09
1067.3	-5.89
1067.721	-14.09
1068.142	-7.69
1068.564	-3.89
1068.985	-11.09
1069.406	-9.29
1069.827	-1.19
1070.248	-5.99
1070.67	-6.29
1071.091	-7.69
1071.512	-2.09
1071.933	-0.09
1072.354	-4.29
1072.775	-2.99
1073.196	-4.19
1073.617	-5.99
1074.038	-5.89
1074.459	-3.09
1074.88	-5.89
1075.3	-3.39
1075.721	-4.99
1076.142	1.71
1076.563	-3.89
1076.983	-11.29
1077.404	-9.49
1077.825	-12.69
1078.246	-4.79
1078.666	-9.29
1079.087	-6.49
1079.507	-4.69
1079.928	4.61
1080.348	3.21
1080.769	-6.29
1081.189	-1.99
1081.61	-1.79
1082.03	-5.99
1082.451	-9.29
1082.871	-3.39
1083.291	-4.49
1083.711	-9.19
1084.132	-5.59
1084.552	-8.59
1084.972	-3.29
1085.392	-9.39
1085.813	-12.79
1086.233	-4.49
1086.653	-7.89
1087.073	-4.29
1087.493	-3.19
1087.913	-7.19
1088.333	-6.99
1088.753	-7.79
1089.173	-0.89
1089.593	1.91
1090.013	0.71
1090.433	-3.99
1090.852	-3.79
1091.272	1.21
1091.692	-0.39
1092.112	4.31
1092.531	-8.09
1092.951	-17.59
1093.371	-3.19
1093.79	2.71
1094.21	-3.89
1094.63	1.81
1095.049	-5.89
1095.469	-3.39
1095.888	-3.79
1096.308	0.21
1096.727	5.91
1097.146	-6.19
1097.566	2.91
1097.985	-7.49
1098.405	-2.59
1098.824	-5.99
1099.243	-5.99
1099.662	-7.29
1100.082	-6.39
1100.501	-3.79
1100.92	-4.09
1101.339	-0.49
1101.758	-4.59
