Data from 20171114-ORNL-Ar_H_NY_Subt18_08-04-03-154.txt Node
Date: Tue Nov 14 08:04:03 EST 2017
User: Ender
Spectrometer: HR+D1039
Trigger mode: 0
Integration Time (sec): 2.730000E-2
Scans to average: 10
Electric dark correction enabled: true
Nonlinearity correction enabled: false
Boxcar width: 0
XAxis mode: Wavelengths
Number of Pixels in Spectrum: 2048
>>>>>Begin Spectral Data<<<<<
187.836	-2.34
188.309	-2.34
188.782	-2.34
189.255	2.06
189.728	-3.34
190.201	4.86
190.674	0.06
191.147	0.36
191.619	-6.74
192.092	-5.04
192.565	3.96
193.038	-1.24
193.511	-2.54
193.984	1.46
194.456	3.46
194.929	1.16
195.402	4.16
195.874	-0.24
196.347	4.86
196.82	-3.34
197.292	9.36
197.765	-3.74
198.237	-5.54
198.71	1.96
199.182	1.36
199.655	2.06
200.127	0.36
200.6	-1.04
201.072	-3.04
201.544	-5.94
202.017	2.46
202.489	4.06
202.961	1.56
203.433	-2.64
203.906	-3.04
204.378	-4.34
204.85	-6.34
205.322	-12.74
205.794	0.16
206.266	-5.04
206.739	-7.34
207.211	4.46
207.683	-10.94
208.155	-6.14
208.627	-5.64
209.099	-0.04
209.57	-11.94
210.042	-7.64
210.514	-5.14
210.986	-1.14
211.458	-8.74
211.93	-4.84
212.402	3.96
212.873	-12.54
213.345	-5.64
213.817	-13.84
214.288	-6.04
214.76	-16.24
215.232	-2.54
215.703	-8.04
216.175	-5.14
216.646	-3.34
217.118	-6.64
217.589	-5.84
218.061	1.36
218.532	-5.24
219.004	-5.64
219.475	-4.94
219.946	0.56
220.418	-4.94
220.889	0.16
221.36	-5.74
221.832	-3.74
222.303	-4.74
222.774	2.06
223.245	-10.54
223.717	0.06
224.188	-5.54
224.659	-9.24
225.13	-7.34
225.601	-4.54
226.072	1.06
226.543	-1.14
227.014	3.56
227.485	2.56
227.956	-11.14
228.427	-4.34
228.898	-6.44
229.369	1.86
229.839	-5.84
230.31	-5.74
230.781	4.06
231.252	1.46
231.722	-3.74
232.193	-6.94
232.664	-4.54
233.135	-7.24
233.605	-2.64
234.076	-7.04
234.546	0.96
235.017	5.06
235.487	-1.34
235.958	-2.94
236.428	-2.84
236.899	3.06
237.369	1.66
237.84	-2.04
238.31	2.26
238.78	3.16
239.251	-4.14
239.721	4.86
240.191	-1.24
240.662	1.06
241.132	0.96
241.602	0.56
242.072	4.56
242.542	6.86
243.013	0.46
243.483	-2.64
243.953	0.56
244.423	-3.54
244.893	-2.34
245.363	1.36
245.833	2.06
246.303	-4.64
246.773	6.06
247.243	4.16
247.712	-3.34
248.182	4.06
248.652	-0.64
249.122	-4.64
249.592	0.46
250.061	11.06
250.531	25.26
251.001	12.76
251.471	18.56
251.94	15.76
252.41	1.06
252.879	1.36
253.349	12.56
253.818	6.36
254.288	2.36
254.757	-4.84
255.227	-0.14
255.696	-1.74
256.166	8.36
256.635	10.76
257.105	3.76
257.574	4.16
258.043	1.46
258.513	6.16
258.982	7.66
259.451	-2.64
259.92	10.16
260.389	6.56
260.859	9.96
261.328	5.76
261.797	16.06
262.266	2.76
262.735	4.26
263.204	-2.64
263.673	2.26
264.142	2.56
264.611	-5.54
265.08	-2.04
265.549	-3.74
266.018	-1.14
266.487	-10.14
266.955	-3.34
267.424	-1.04
267.893	-1.44
268.362	-2.74
268.83	4.46
269.299	13.26
269.768	2.46
270.236	0.56
270.705	1.36
271.174	6.06
271.642	-0.44
272.111	1.36
272.579	13.06
273.048	13.76
273.516	17.16
273.985	14.66
274.453	11.26
274.922	9.46
275.39	9.56
275.858	-2.24
276.327	5.16
276.795	12.26
277.263	3.86
277.731	12.86
278.2	30.16
278.668	41.26
279.136	35.26
279.604	12.46
280.072	5.76
280.54	12.16
281.008	2.56
281.477	7.36
281.945	4.36
282.413	11.46
282.881	9.86
283.348	4.96
283.816	13.36
284.284	12.96
284.752	17.66
285.22	10.36
285.688	8.76
286.156	11.46
286.623	28.16
287.091	35.76
287.559	18.66
288.026	12.16
288.494	12.06
288.962	4.76
289.429	8.26
289.897	15.96
290.364	11.66
290.832	14.46
291.3	5.16
291.767	7.86
292.234	10.56
292.702	9.46
293.169	13.86
293.637	10.06
294.104	12.76
294.571	6.16
295.039	9.86
295.506	8.06
295.973	13.96
296.44	10.76
296.908	10.26
297.375	11.36
297.842	15.16
298.309	7.36
298.776	3.16
299.243	11.56
299.71	9.46
300.177	7.06
300.644	22.56
301.111	12.16
301.578	15.16
302.045	1.96
302.512	18.96
302.979	10.46
303.446	10.76
303.913	13.76
304.379	11.96
304.846	21.26
305.313	9.66
305.78	15.36
306.246	17.16
306.713	21.06
307.18	16.66
307.646	23.36
308.113	23.16
308.579	14.56
309.046	18.76
309.512	19.86
309.979	9.56
310.445	17.76
310.912	22.16
311.378	21.26
311.845	18.86
312.311	21.26
312.777	23.96
313.244	21.66
313.71	22.16
314.176	22.56
314.642	19.26
315.109	19.86
315.575	24.56
316.041	28.96
316.507	23.16
316.973	29.16
317.439	26.86
317.905	23.36
318.371	30.76
318.837	27.06
319.303	24.56
319.769	21.36
320.235	24.16
320.701	22.86
321.167	23.16
321.633	25.46
322.099	24.96
322.564	33.36
323.03	28.26
323.496	29.06
323.962	29.36
324.427	25.76
324.893	34.96
325.359	33.36
325.824	34.06
326.29	21.96
326.755	28.66
327.221	31.86
327.686	35.36
328.152	36.26
328.617	31.26
329.083	31.66
329.548	37.36
330.014	36.56
330.479	32.26
330.944	35.56
331.41	32.16
331.875	32.66
332.34	32.06
332.805	32.66
333.271	36.76
333.736	31.46
334.201	38.06
334.666	40.16
335.131	42.76
335.596	38.36
336.061	36.16
336.526	37.56
336.991	36.46
337.456	41.46
337.921	35.96
338.386	35.26
338.851	35.66
339.316	43.16
339.781	27.66
340.246	46.16
340.711	39.86
341.175	42.96
341.64	34.26
342.105	37.76
342.569	43.26
343.034	45.56
343.499	48.56
343.963	32.06
344.428	57.56
344.893	45.66
345.357	45.46
345.822	49.76
346.286	53.66
346.751	56.46
347.215	56.76
347.679	50.06
348.144	74.46
348.608	65.76
349.073	49.96
349.537	66.76
350.001	54.16
350.465	68.96
350.93	61.76
351.394	64.06
351.858	56.76
352.322	70.76
352.786	64.86
353.25	72.16
353.715	83.66
354.179	76.56
354.643	95.46
355.107	93.16
355.571	80.16
356.035	83.86
356.498	87.66
356.962	90.56
357.426	97.56
357.89	87.76
358.354	71.76
358.818	70.96
359.281	64.46
359.745	66.96
360.209	61.96
360.673	55.76
361.136	60.36
361.6	75.46
362.064	68.56
362.527	68.36
362.991	75.26
363.454	66.96
363.918	62.76
364.381	61.26
364.845	67.16
365.308	73.36
365.772	75.86
366.235	72.26
366.698	69.16
367.162	67.86
367.625	70.76
368.088	66.36
368.552	78.26
369.015	76.06
369.478	76.66
369.941	80.86
370.404	84.16
370.867	88.76
371.331	88.36
371.794	91.06
372.257	94.56
372.72	96.16
373.183	86.76
373.646	94.16
374.109	86.16
374.572	87.36
375.035	87.36
375.497	94.56
375.96	93.06
376.423	90.46
376.886	101.96
377.349	91.46
377.811	83.96
378.274	86.96
378.737	95.36
379.199	97.76
379.662	97.26
380.125	102.86
380.587	98.86
381.05	110.06
381.512	105.76
381.975	115.56
382.437	100.26
382.9	109.86
383.362	103.16
383.825	116.66
384.287	122.86
384.75	122.06
385.212	115.76
385.674	110.76
386.136	111.06
386.599	105.96
387.061	107.86
387.523	107.46
387.985	112.26
388.447	126.16
388.91	121.36
389.372	130.66
389.834	127.36
390.296	127.56
390.758	130.66
391.22	137.76
391.682	179.26
392.144	238.66
392.606	192.46
393.068	143.76
393.529	142.46
393.991	132.36
394.453	123.66
394.915	131.06
395.377	160.06
395.838	174.86
396.3	136.16
396.762	121.46
397.224	116.56
397.685	111.86
398.147	110.96
398.608	110.26
399.07	115.66
399.531	115.46
399.993	123.96
400.454	136.56
400.916	129.46
401.377	127.96
401.839	126.76
402.3	135.46
402.762	141.06
403.223	157.46
403.684	153.66
404.145	145.86
404.607	139.06
405.068	134.46
405.529	147.36
405.99	154.36
406.451	146.66
406.913	150.56
407.374	146.16
407.835	146.96
408.296	150.16
408.757	148.76
409.218	157.86
409.679	154.56
410.14	153.46
410.601	153.76
411.062	161.86
411.522	164.86
411.983	166.26
412.444	155.16
412.905	156.46
413.366	162.26
413.826	180.36
414.287	197.06
414.748	238.96
415.208	219.46
415.669	193.06
416.13	186.56
416.59	178.86
417.051	192.26
417.511	190.06
417.972	212.06
418.432	219.36
418.893	263.86
419.353	233.96
419.814	178.96
420.274	164.76
420.734	163.46
421.195	178.26
421.655	172.76
422.115	165.66
422.576	169.56
423.036	173.16
423.496	182.06
423.956	194.26
424.416	203.76
424.876	236.46
425.336	228.36
425.797	228.66
426.257	220.06
426.717	205.96
427.177	204.76
427.637	196.26
428.097	203.76
428.556	215.26
429.016	240.36
429.476	230.86
429.936	235.26
430.396	240.96
430.856	255.16
431.315	273.56
431.775	303.96
432.235	325.56
432.694	314.86
433.154	302.86
433.614	320.16
434.073	290.46
434.533	249.86
434.993	239.36
435.452	243.66
435.912	250.06
436.371	250.16
436.83	233.96
437.29	234.56
437.749	211.36
438.209	208.56
438.668	226.36
439.127	241.36
439.587	233.36
440.046	209.56
440.505	224.96
440.964	231.96
441.424	260.76
441.883	256.26
442.342	223.36
442.801	194.76
443.26	197.26
443.719	196.76
444.178	192.56
444.637	188.86
445.096	201.46
445.555	203.46
446.014	197.56
446.473	194.66
446.932	206.06
447.391	206.16
447.849	201.76
448.308	188.96
448.767	187.76
449.226	204.66
449.685	209.26
450.143	215.16
450.602	210.36
451.061	202.86
451.519	206.26
451.978	206.06
452.436	196.76
452.895	213.06
453.353	213.36
453.812	213.26
454.27	207.66
454.729	205.76
455.187	207.36
455.646	208.66
456.104	220.46
456.562	223.16
457.021	228.86
457.479	230.46
457.937	230.26
458.395	228.06
458.854	214.86
459.312	225.76
459.77	231.06
460.228	220.46
460.686	215.56
461.144	224.16
461.602	216.46
462.06	215.46
462.518	224.36
462.976	226.76
463.434	226.66
463.892	227.56
464.35	238.06
464.808	253.36
465.266	235.96
465.724	236.06
466.181	239.56
466.639	238.66
467.097	255.86
467.555	268.06
468.012	262.96
468.47	272.06
468.928	286.16
469.385	297.46
469.843	292.16
470.3	298.56
470.758	311.06
471.215	315.66
471.673	328.86
472.13	343.16
472.588	350.96
473.045	327.86
473.503	333.46
473.96	349.86
474.417	350.76
474.875	367.86
475.332	405.36
475.789	396.16
476.246	407.06
476.704	408.66
477.161	432.16
477.618	444.26
478.075	477.66
478.532	526.26
478.989	574.86
479.446	660.56
479.903	659.16
480.36	697.56
480.817	742.66
481.274	835.66
481.731	925.56
482.188	1005.36
482.645	1123.66
483.102	1213.76
483.558	1332.26
484.015	1387.66
484.472	1373.06
484.929	1327.76
485.385	1287.76
485.842	1240.86
486.299	1187.96
486.755	1109.56
487.212	940.36
487.668	806.86
488.125	754.66
488.582	686.66
489.038	658.56
489.494	614.46
489.951	600.26
490.407	582.76
490.864	557.16
491.32	560.56
491.776	554.56
492.233	558.86
492.689	531.86
493.145	524.96
493.602	518.96
494.058	527.86
494.514	530.36
494.97	548.46
495.426	551.36
495.882	532.26
496.338	523.36
496.794	537.36
497.251	535.86
497.707	534.86
498.163	537.86
498.618	546.36
499.074	554.96
499.53	572.16
499.986	568.56
500.442	549.96
500.898	539.86
501.354	531.36
501.809	536.26
502.265	545.76
502.721	567.56
503.177	572.86
503.632	563.16
504.088	573.26
504.543	598.36
504.999	588.76
505.455	558.56
505.91	550.06
506.366	541.26
506.821	538.66
507.277	532.26
507.732	542.56
508.187	542.36
508.643	543.96
509.098	543.76
509.553	557.76
510.009	562.06
510.464	578.66
510.919	586.36
511.375	594.76
511.83	598.46
512.285	612.36
512.74	644.96
513.195	658.26
513.65	655.86
514.105	650.86
514.56	657.96
515.015	671.16
515.47	690.36
515.925	670.76
516.38	667.66
516.835	675.46
517.29	677.66
517.745	662.86
518.2	651.26
518.655	636.36
519.109	623.16
519.564	623.16
520.019	617.36
520.474	609.26
520.928	613.26
521.383	615.56
521.838	588.76
522.292	599.96
522.747	597.66
523.201	598.46
523.656	588.36
524.11	586.26
524.565	581.46
525.019	586.06
525.474	592.16
525.928	594.56
526.382	594.86
526.837	584.26
527.291	590.96
527.745	579.16
528.2	576.06
528.654	594.56
529.108	566.26
529.562	580.46
530.016	586.16
530.47	589.06
530.925	577.06
531.379	585.36
531.833	590.76
532.287	588.56
532.741	588.06
533.195	578.96
533.649	588.26
534.103	599.26
534.556	586.46
535.01	591.76
535.464	598.06
535.918	597.76
536.372	594.46
536.826	602.06
537.279	586.66
537.733	591.06
538.187	590.96
538.64	593.26
539.094	595.16
539.548	609.16
540.001	596.46
540.455	603.26
540.908	609.76
541.362	611.56
541.815	622.56
542.269	626.66
542.722	635.16
543.175	629.76
543.629	642.16
544.082	647.16
544.536	654.86
544.989	646.76
545.442	652.86
545.895	649.56
546.349	655.46
546.802	652.56
547.255	655.46
547.708	664.46
548.161	659.16
548.614	680.36
549.067	679.66
549.52	673.16
549.973	668.66
550.426	660.56
550.879	654.66
551.332	657.46
551.785	658.16
552.238	662.46
552.691	666.36
553.144	674.46
553.596	697.16
554.049	693.26
554.502	726.36
554.955	746.56
555.407	749.46
555.86	736.46
556.313	731.66
556.765	713.96
557.218	716.26
557.67	713.36
558.123	715.86
558.576	705.56
559.028	715.66
559.48	716.46
559.933	718.86
560.385	685.56
560.838	665.06
561.29	633.16
561.742	641.26
562.195	610.46
562.647	621.96
563.099	625.26
563.551	625.76
564.004	640.96
564.456	614.56
564.908	622.26
565.36	592.96
565.812	584.56
566.264	576.36
566.716	581.36
567.168	571.66
567.62	576.26
568.072	567.36
568.524	555.36
568.976	555.66
569.428	543.86
569.88	542.16
570.332	551.06
570.784	547.66
571.235	550.66
571.687	553.16
572.139	563.06
572.59	562.86
573.042	565.56
573.494	565.56
573.945	556.46
574.397	544.96
574.849	551.76
575.3	553.86
575.752	541.36
576.203	542.56
576.655	535.16
577.106	525.86
577.557	521.46
578.009	522.36
578.46	529.96
578.912	526.46
579.363	528.26
579.814	522.56
580.265	519.46
580.717	521.56
581.168	529.36
581.619	531.16
582.07	542.26
582.521	529.06
582.972	538.26
583.423	534.36
583.875	532.76
584.326	548.86
584.777	584.36
585.227	652.86
585.678	712.46
586.129	786.86
586.58	845.26
587.031	910.86
587.482	1045.06
587.933	1190.46
588.384	1024.26
588.834	768.46
589.285	634.16
589.736	618.36
590.186	605.96
590.637	599.66
591.088	580.66
591.538	580.36
591.989	578.66
592.439	562.46
592.89	566.66
593.34	550.96
593.791	553.16
594.241	548.86
594.692	549.76
595.142	544.96
595.593	538.86
596.043	552.86
596.493	553.16
596.943	551.06
597.394	562.56
597.844	553.36
598.294	563.76
598.744	582.56
599.195	601.46
599.645	628.56
600.095	660.66
600.545	695.16
600.995	740.26
601.445	786.56
601.895	842.86
602.345	877.86
602.795	866.46
603.245	823.76
603.695	793.16
604.145	740.06
604.594	706.66
605.044	666.16
605.494	602.96
605.944	576.06
606.393	565.96
606.843	553.66
607.293	556.96
607.743	554.06
608.192	565.36
608.642	569.26
609.091	585.16
609.541	578.26
609.99	575.46
610.44	579.06
610.889	538.46
611.339	533.46
611.788	525.86
612.238	535.06
612.687	550.46
613.136	542.66
613.586	556.56
614.035	561.36
614.484	568.16
614.933	577.36
615.383	559.26
615.832	556.46
616.281	545.96
616.73	527.46
617.179	504.76
617.628	492.96
618.077	482.86
618.526	472.86
618.975	468.26
619.424	469.86
619.873	464.36
620.322	466.46
620.771	467.96
621.22	456.86
621.669	452.76
622.118	446.96
622.567	443.16
623.015	426.36
623.464	425.86
623.913	423.46
624.361	415.06
624.81	412.86
625.259	427.96
625.707	412.26
626.156	417.66
626.604	429.76
627.053	427.36
627.501	420.26
627.95	420.66
628.398	433.56
628.847	420.36
629.295	429.36
629.744	437.06
630.192	429.36
630.64	411.46
631.089	423.06
631.537	420.36
631.985	429.76
632.433	434.56
632.881	438.36
633.33	470.26
633.778	444.76
634.226	413.46
634.674	419.76
635.122	424.56
635.57	433.46
636.018	460.06
636.466	431.06
636.914	416.06
637.362	423.36
637.81	420.36
638.258	429.86
638.705	429.56
639.153	457.96
639.601	461.36
640.049	469.16
640.497	504.86
640.944	519.36
641.392	476.56
641.84	456.56
642.287	430.56
642.735	417.76
643.182	419.96
643.63	418.96
644.078	423.26
644.525	435.36
644.973	439.66
645.42	459.06
645.867	452.16
646.315	469.66
646.762	491.96
647.21	502.96
647.657	520.66
648.104	549.26
648.551	564.86
648.999	608.56
649.446	670.56
649.893	729.56
650.34	830.96
650.787	991.36
651.234	1248.16
651.682	1595.46
652.129	2173.16
652.576	3131.66
653.023	4621.06
653.47	6475.96
653.917	8177.26
654.363	9619.36
654.81	10917.26
655.257	10381.76
655.704	6756.96
656.151	3918.16
656.598	2537.66
657.044	1803.96
657.491	1375.36
657.938	1097.46
658.385	910.76
658.831	792.46
659.278	707.36
659.724	626.86
660.171	575.06
660.618	525.56
661.064	498.36
661.511	474.06
661.957	461.36
662.404	452.16
662.85	457.06
663.296	441.76
663.743	402.86
664.189	397.76
664.635	388.56
665.082	377.26
665.528	384.46
665.974	374.46
666.42	372.46
666.867	364.86
667.313	355.86
667.759	342.56
668.205	353.96
668.651	354.66
669.097	356.86
669.543	374.06
669.989	342.36
670.435	329.46
670.881	319.76
671.327	325.96
671.773	346.96
672.219	347.66
672.665	394.56
673.11	418.66
673.556	453.56
674.002	487.06
674.448	485.16
674.893	394.26
675.339	345.26
675.785	325.36
676.23	302.36
676.676	275.16
677.122	272.96
677.567	271.96
678.013	264.86
678.458	253.76
678.904	253.46
679.349	253.66
679.794	261.56
680.24	250.46
680.685	250.56
681.131	243.56
681.576	252.56
682.021	252.96
682.466	240.06
682.912	244.46
683.357	252.96
683.802	272.46
684.247	293.96
684.692	325.86
685.137	355.86
685.583	384.06
686.028	411.56
686.473	383.06
686.918	317.86
687.363	298.56
687.807	283.36
688.252	268.56
688.697	258.06
689.142	241.56
689.587	248.46
690.032	238.56
690.477	249.86
690.921	243.96
691.366	278.36
691.811	282.26
692.255	317.96
692.7	336.86
693.145	353.36
693.589	483.56
694.034	789.26
694.478	1106.26
694.923	1285.16
695.367	1717.76
695.812	892.66
696.256	362.76
696.701	261.66
697.145	246.56
697.59	238.86
698.034	230.46
698.478	238.66
698.922	231.96
699.367	228.06
699.811	245.36
700.255	249.46
700.699	269.16
701.143	310.16
701.588	345.16
702.032	381.76
702.476	382.26
702.92	359.06
703.364	350.66
703.808	440.76
704.252	716.16
704.696	1033.56
705.14	1234.86
705.584	1618.36
706.027	786.56
706.471	385.76
706.915	285.96
707.359	255.56
707.803	229.46
708.246	223.46
708.69	216.66
709.134	229.56
709.577	221.56
710.021	227.16
710.465	217.36
710.908	213.16
711.352	216.16
711.795	226.66
712.239	248.16
712.682	269.26
713.126	298.46
713.569	340.56
714.012	262.46
714.456	232.06
714.899	214.46
715.342	197.36
715.786	189.56
716.229	187.56
716.672	186.76
717.115	174.56
717.558	172.26
718.002	187.66
718.445	186.06
718.888	207.96
719.331	212.26
719.774	221.16
720.217	220.86
720.66	199.06
721.103	198.76
721.546	184.46
721.989	184.56
722.432	162.36
722.874	164.86
723.317	158.36
723.76	170.76
724.203	189.06
724.645	219.96
725.088	311.86
725.531	411.96
725.974	472.66
726.416	396.76
726.859	221.36
727.301	177.66
727.744	174.26
728.187	167.86
728.629	168.36
729.071	175.96
729.514	186.46
729.956	198.66
730.399	203.86
730.841	209.46
731.283	192.46
731.726	190.86
732.168	178.66
732.61	193.66
733.053	207.76
733.495	215.66
733.937	247.86
734.379	288.76
734.821	304.16
735.263	383.76
735.705	581.46
736.148	1101.66
736.59	1825.86
737.032	2292.56
737.474	1878.66
737.916	588.56
738.357	307.76
738.799	235.46
739.241	211.66
739.683	201.76
740.125	207.26
740.567	210.06
741.008	232.46
741.45	234.66
741.892	226.46
742.334	255.06
742.775	266.26
743.217	254.96
743.658	196.26
744.1	178.96
744.542	187.66
744.983	230.66
745.425	254.26
745.866	253.96
746.307	207.06
746.749	203.76
747.19	222.46
747.632	310.36
748.073	602.56
748.514	1295.76
748.956	2076.56
749.397	2606.86
749.838	2161.86
750.279	2237.66
750.72	1124.36
751.162	400.96
751.603	228.56
752.044	182.06
752.485	154.76
752.926	152.56
753.367	146.76
753.808	145.96
754.249	134.66
754.69	128.06
755.131	122.76
755.572	126.46
756.013	125.16
756.453	131.06
756.894	134.06
757.335	138.56
757.776	143.46
758.216	140.16
758.657	139.06
759.098	144.06
759.538	158.56
759.979	180.76
760.42	254.76
760.86	483.36
761.301	1272.96
761.741	3184.76
762.182	4979.76
762.622	3508.26
763.063	978.46
763.503	395.46
763.943	250.56
764.384	237.06
764.824	290.66
765.264	315.46
765.705	211.36
766.145	147.36
766.585	128.96
767.025	127.06
767.465	129.26
767.906	171.86
768.346	232.76
768.786	248.46
769.226	179.06
769.666	218.76
770.106	419.76
770.546	1078.76
770.986	1968.76
771.426	1803.56
771.866	586.06
772.306	235.86
772.745	146.46
773.185	124.56
773.625	121.26
774.065	120.86
774.505	140.96
774.944	207.26
775.384	445.26
775.824	855.96
776.263	870.16
776.703	357.06
777.142	156.86
777.582	116.16
778.021	99.66
778.461	88.66
778.9	98.26
779.34	92.16
779.779	89.06
780.219	76.56
780.658	71.16
781.097	76.16
781.537	87.96
781.976	75.76
782.415	72.96
782.855	69.16
783.294	69.96
783.733	73.16
784.172	75.76
784.611	72.26
785.05	73.66
785.489	74.86
785.928	79.76
786.367	87.86
786.806	89.36
787.245	99.56
787.684	92.86
788.123	112.16
788.562	89.76
789.001	86.56
789.44	84.36
789.879	80.96
790.317	83.26
790.756	84.56
791.195	95.26
791.634	102.06
792.072	147.16
792.511	249.86
792.95	681.66
793.388	1582.76
793.827	1492.26
794.265	494.96
794.704	206.56
795.142	139.96
795.581	106.06
796.019	98.76
796.458	92.26
796.896	91.96
797.334	91.26
797.773	105.36
798.211	152.26
798.649	302.06
799.087	725.86
799.526	1152.26
799.964	1464.96
800.402	1543.26
800.84	557.86
801.278	220.56
801.716	128.76
802.154	109.66
802.592	100.56
803.03	104.06
803.468	94.16
803.906	96.56
804.344	109.36
804.782	99.66
805.22	89.06
805.658	92.26
806.096	108.46
806.533	112.86
806.971	120.76
807.409	159.46
807.847	220.86
808.284	462.26
808.722	1331.36
809.16	2489.56
809.597	2265.16
810.035	4055.86
810.472	4589.06
810.91	1618.36
811.347	590.86
811.785	300.06
812.222	184.56
812.66	141.06
813.097	113.86
813.535	99.46
813.972	97.36
814.409	83.26
814.846	75.36
815.284	84.26
815.721	71.66
816.158	66.76
816.595	81.76
817.032	126.16
817.47	144.56
817.907	127.96
818.344	105.26
818.781	84.16
819.218	70.96
819.655	88.16
820.092	142.06
820.529	173.76
820.966	135.46
821.403	98.36
821.839	78.16
822.276	72.16
822.713	85.86
823.15	97.26
823.587	89.26
824.023	109.16
824.46	201.36
824.897	638.36
825.333	1041.36
825.77	439.86
826.206	163.86
826.643	96.86
827.08	77.76
827.516	58.06
827.953	52.16
828.389	56.86
828.825	51.36
829.262	47.96
829.698	45.16
830.135	42.06
830.571	44.06
831.007	45.56
831.443	44.86
831.88	34.16
832.316	41.26
832.752	45.66
833.188	47.66
833.624	40.56
834.06	46.46
834.497	47.26
834.933	54.76
835.369	58.76
835.805	40.86
836.241	54.06
836.677	58.46
837.112	66.46
837.548	70.16
837.984	99.46
838.42	137.76
838.856	343.76
839.292	1107.96
839.727	1777.36
840.163	817.66
840.599	668.66
841.034	1522.36
841.47	1690.46
841.906	593.66
842.341	243.56
842.777	168.16
843.212	223.16
843.648	226.16
844.083	105.56
844.519	65.86
844.954	58.66
845.39	40.26
845.825	38.06
846.261	38.36
846.696	39.76
847.131	40.86
847.566	48.86
848.002	41.66
848.437	37.86
848.872	43.06
849.307	41.56
849.742	56.66
850.177	122.06
850.613	392.76
851.048	661.96
851.483	281.66
851.918	107.26
852.353	55.66
852.788	48.76
853.223	39.56
853.657	41.76
854.092	33.26
854.527	27.36
854.962	21.76
855.397	35.06
855.832	40.26
856.266	22.06
856.701	30.56
857.136	27.36
857.57	30.46
858.005	36.76
858.44	43.46
858.874	30.66
859.309	38.66
859.743	24.06
860.178	33.46
860.612	29.86
861.047	38.76
861.481	49.66
861.915	52.86
862.35	32.46
862.784	21.86
863.218	28.46
863.653	26.16
864.087	32.46
864.521	36.76
864.955	51.86
865.39	106.36
865.824	128.26
866.258	78.66
866.692	122.06
867.126	143.76
867.56	85.16
867.994	35.76
868.428	30.06
868.862	35.16
869.296	45.66
869.73	46.86
870.164	46.56
870.598	32.36
871.031	28.46
871.465	28.46
871.899	22.56
872.333	16.76
872.766	14.26
873.2	23.16
873.634	22.66
874.067	21.76
874.501	18.06
874.935	28.66
875.368	23.56
875.802	19.36
876.235	18.16
876.669	13.16
877.102	14.26
877.535	21.16
877.969	14.56
878.402	18.76
878.836	17.96
879.269	16.96
879.702	19.86
880.135	17.96
880.569	17.96
881.002	15.56
881.435	12.46
881.868	11.06
882.301	11.06
882.734	6.56
883.167	10.36
883.601	9.16
884.034	19.66
884.467	7.06
884.899	14.56
885.332	12.46
885.765	9.46
886.198	12.66
886.631	12.26
887.064	9.86
887.497	9.96
887.929	19.86
888.362	8.16
888.795	4.06
889.228	18.56
889.66	13.76
890.093	8.26
890.526	12.96
890.958	10.26
891.391	11.16
891.823	19.66
892.256	10.86
892.688	7.76
893.121	10.26
893.553	12.46
893.985	16.66
894.418	16.16
894.85	6.06
895.282	14.46
895.715	17.06
896.147	11.06
896.579	15.36
897.011	11.06
897.444	15.26
897.876	6.06
898.308	17.36
898.74	10.96
899.172	9.26
899.604	16.56
900.036	16.86
900.468	11.46
900.9	8.26
901.332	10.96
901.764	6.86
902.196	9.96
902.628	12.36
903.06	11.26
903.491	23.76
903.923	18.66
904.355	11.16
904.787	15.76
905.218	11.66
905.65	16.66
906.082	10.86
906.513	12.36
906.945	12.86
907.376	10.36
907.808	19.16
908.239	16.46
908.671	11.06
909.102	12.36
909.534	16.76
909.965	38.36
910.397	71.96
910.828	234.46
911.259	373.66
911.691	159.96
912.122	83.56
912.553	39.56
912.984	29.06
913.415	18.76
913.847	26.46
914.278	10.86
914.709	10.16
915.14	13.26
915.571	5.76
916.002	5.86
916.433	9.16
916.864	16.36
917.295	6.76
917.726	15.96
918.157	11.56
918.587	23.96
919.018	16.56
919.449	17.76
919.88	19.76
920.311	18.46
920.741	30.16
921.172	120.86
921.603	112.46
922.033	46.36
922.464	34.36
922.895	15.76
923.325	14.26
923.756	12.96
924.186	12.56
924.617	15.76
925.047	31.76
925.478	38.86
925.908	31.76
926.338	18.26
926.769	14.46
927.199	13.76
927.629	9.96
928.06	9.16
928.49	8.26
928.92	10.56
929.35	10.56
929.78	10.36
930.21	6.06
930.641	4.76
931.071	13.06
931.501	8.66
931.931	7.26
932.361	11.36
932.791	5.46
933.221	2.56
933.651	1.66
934.08	14.26
934.51	24.56
934.94	11.06
935.37	6.06
935.8	5.36
936.229	4.06
936.659	11.16
937.089	4.56
937.519	12.96
937.948	21.96
938.378	11.76
938.807	3.56
939.237	0.66
939.666	8.06
940.096	-10.74
940.525	-0.94
940.955	3.66
941.384	1.66
941.814	-8.34
942.243	-2.24
942.672	-4.34
943.102	-2.94
943.531	-2.44
943.96	3.86
944.39	3.46
944.819	3.56
945.248	4.06
945.677	-0.64
946.106	-1.54
946.535	5.56
946.964	-4.74
947.393	2.86
947.822	6.26
948.251	-3.44
948.68	1.66
949.109	3.46
949.538	4.26
949.967	-2.84
950.396	0.86
950.825	-3.94
951.254	1.76
951.682	-4.14
952.111	2.86
952.54	11.06
952.969	0.86
953.397	-9.34
953.826	-0.04
954.254	-3.14
954.683	-1.34
955.112	-4.14
955.54	-0.64
955.969	-2.04
956.397	-1.04
956.826	-1.84
957.254	3.96
957.682	2.36
958.111	3.26
958.539	0.16
958.967	1.96
959.396	-2.24
959.824	-0.24
960.252	2.46
960.68	-4.94
961.109	-7.64
961.537	-11.34
961.965	-1.14
962.393	-0.24
962.821	-8.64
963.249	1.16
963.677	1.46
964.105	-1.74
964.533	31.86
964.961	34.36
965.389	11.16
965.817	5.46
966.245	-3.84
966.672	-2.04
967.1	-7.84
967.528	0.46
967.956	-0.84
968.383	1.86
968.811	-0.54
969.239	-2.54
969.666	0.96
970.094	-1.24
970.522	2.96
970.949	-0.54
971.377	-3.24
971.804	-4.54
972.232	-6.14
972.659	-2.64
973.087	-6.94
973.514	4.56
973.941	-4.24
974.369	0.96
974.796	-5.54
975.223	1.96
975.651	-3.74
976.078	3.76
976.505	1.86
976.932	-4.64
977.359	11.16
977.786	11.66
978.214	-1.34
978.641	-4.94
979.068	0.86
979.495	-3.24
979.922	0.46
980.349	-9.74
980.776	0.56
981.202	-9.24
981.629	1.66
982.056	7.36
982.483	-5.54
982.91	6.76
983.337	0.66
983.763	6.66
984.19	-5.14
984.617	-5.14
985.043	-10.94
985.47	2.06
985.897	-1.14
986.323	-8.44
986.75	5.46
987.176	0.46
987.603	-2.34
988.029	3.36
988.456	-2.44
988.882	-1.74
989.308	-12.84
989.735	-1.64
990.161	3.06
990.587	-4.44
991.014	-1.04
991.44	1.16
991.866	-0.94
992.292	-7.34
992.719	3.36
993.145	-1.54
993.571	-4.14
993.997	-8.74
994.423	-5.34
994.849	-3.84
995.275	2.46
995.701	-1.64
996.127	-0.94
996.553	3.56
996.979	-3.04
997.405	-1.44
997.83	-5.84
998.256	-5.64
998.682	-7.84
999.108	-9.24
999.534	-5.24
999.959	-5.54
1000.385	-3.44
1000.811	0.96
1001.236	-6.54
1001.662	-9.34
1002.087	-10.74
1002.513	1.76
1002.938	4.46
1003.364	-7.94
1003.789	-0.14
1004.215	1.46
1004.64	1.16
1005.066	4.86
1005.491	-2.64
1005.916	-1.94
1006.342	-3.34
1006.767	-1.34
1007.192	6.06
1007.617	-4.34
1008.042	-11.54
1008.468	-9.64
1008.893	3.06
1009.318	-5.74
1009.743	-5.24
1010.168	2.16
1010.593	1.16
1011.018	-1.84
1011.443	-5.44
1011.868	4.56
1012.293	2.56
1012.718	-4.24
1013.143	2.36
1013.567	8.56
1013.992	-2.34
1014.417	-13.14
1014.842	-0.14
1015.267	-6.24
1015.691	3.06
1016.116	4.76
1016.541	-1.84
1016.965	1.66
1017.39	2.86
1017.814	-4.94
1018.239	-3.04
1018.663	-12.24
1019.088	-7.64
1019.512	-9.24
1019.937	3.26
1020.361	-1.44
1020.785	-4.74
1021.21	-4.44
1021.634	-3.24
1022.058	-1.24
1022.483	1.96
1022.907	-3.14
1023.331	-5.84
1023.755	-6.74
1024.179	-3.24
1024.604	-2.44
1025.028	-10.04
1025.452	-8.94
1025.876	-0.64
1026.3	-1.74
1026.724	-10.74
1027.148	-8.74
1027.572	-7.94
1027.996	-1.54
1028.42	-3.74
1028.843	-5.54
1029.267	-5.04
1029.691	-0.24
1030.115	-2.44
1030.539	0.06
1030.962	-4.54
1031.386	-10.64
1031.81	6.06
1032.233	0.16
1032.657	3.16
1033.08	-2.04
1033.504	1.66
1033.927	-6.54
1034.351	3.86
1034.774	-6.54
1035.198	0.96
1035.621	-4.54
1036.045	-4.34
1036.468	2.46
1036.891	-13.04
1037.315	0.06
1037.738	-16.94
1038.161	2.76
1038.584	-12.34
1039.008	-5.74
1039.431	-4.14
1039.854	-3.94
1040.277	-4.84
1040.7	-7.84
1041.123	-1.94
1041.546	-6.04
1041.969	0.06
1042.392	-7.54
1042.815	-3.44
1043.238	-0.24
1043.661	-2.74
1044.084	-11.24
1044.507	-5.14
1044.93	-5.44
1045.352	-8.44
1045.775	-1.04
1046.198	-7.84
1046.621	-2.24
1047.043	6.96
1047.466	3.66
1047.889	-5.04
1048.311	-4.24
1048.734	-7.24
1049.156	-1.04
1049.579	-0.24
1050.001	-1.04
1050.424	-2.94
1050.846	-9.64
1051.269	0.56
1051.691	-5.34
1052.113	-6.04
1052.536	0.76
1052.958	-0.74
1053.38	0.46
1053.802	-10.14
1054.225	0.66
1054.647	-7.14
1055.069	-3.74
1055.491	0.86
1055.913	-5.34
1056.335	0.16
1056.757	-2.64
1057.179	-1.54
1057.601	-2.84
1058.023	-2.54
1058.445	1.96
1058.867	0.26
1059.289	-3.44
1059.711	-10.14
1060.133	-4.64
1060.555	-1.24
1060.976	-11.04
1061.398	-9.64
1061.82	-9.64
1062.241	-7.44
1062.663	-6.14
1063.085	0.46
1063.506	-0.64
1063.928	-2.74
1064.35	-1.64
1064.771	-11.74
1065.193	-2.14
1065.614	-9.84
1066.035	-1.04
1066.457	-4.24
1066.878	-0.74
1067.3	-13.24
1067.721	-2.84
1068.142	-7.74
1068.564	-5.14
1068.985	1.76
1069.406	-1.44
1069.827	-5.34
1070.248	-0.94
1070.67	-10.24
1071.091	-5.74
1071.512	-2.64
1071.933	-1.24
1072.354	-10.24
1072.775	-9.94
1073.196	-9.64
1073.617	-5.64
1074.038	-6.64
1074.459	-3.84
1074.88	-6.14
1075.3	-2.24
1075.721	-4.04
1076.142	-0.94
1076.563	-2.04
1076.983	-9.54
1077.404	-11.14
1077.825	-7.94
1078.246	-7.24
1078.666	-10.24
1079.087	-0.44
1079.507	-2.84
1079.928	-0.34
1080.348	-0.64
1080.769	-4.34
1081.189	0.96
1081.61	-3.64
1082.03	-4.54
1082.451	-7.44
1082.871	-3.54
1083.291	-6.54
1083.711	-8.84
1084.132	-1.34
1084.552	-5.04
1084.972	-6.44
1085.392	-10.54
1085.813	-6.24
1086.233	-5.94
1086.653	-7.74
1087.073	-7.14
1087.493	-6.64
1087.913	-2.74
1088.333	-8.94
1088.753	-4.24
1089.173	4.76
1089.593	-3.64
1090.013	0.66
1090.433	-2.44
1090.852	-4.54
1091.272	-3.04
1091.692	-7.04
1092.112	-3.74
1092.531	-7.04
1092.951	-8.04
1093.371	-4.74
1093.79	-0.74
1094.21	-4.44
1094.63	-2.34
1095.049	-4.04
1095.469	3.06
1095.888	1.26
1096.308	-2.44
1096.727	3.56
1097.146	-3.54
1097.566	1.46
1097.985	-10.74
1098.405	0.06
1098.824	-7.64
1099.243	-4.54
1099.662	-6.74
1100.082	-1.94
1100.501	0.76
1100.92	-11.14
1101.339	-5.74
1101.758	-6.64
