Data from 20171114-ORNL-Ar_H_NY_Subt18_08-05-04-847.txt Node
Date: Tue Nov 14 08:05:04 EST 2017
User: Ender
Spectrometer: HR+D1039
Trigger mode: 0
Integration Time (sec): 2.730000E-2
Scans to average: 10
Electric dark correction enabled: true
Nonlinearity correction enabled: false
Boxcar width: 0
XAxis mode: Wavelengths
Number of Pixels in Spectrum: 2048
>>>>>Begin Spectral Data<<<<<
187.836	-6.37
188.309	-6.37
188.782	-6.37
189.255	1.93
189.728	-0.57
190.201	7.83
190.674	0.33
191.147	3.43
191.619	-5.17
192.092	6.93
192.565	1.73
193.038	2.93
193.511	-1.17
193.984	-2.77
194.456	-5.97
194.929	2.33
195.402	-4.97
195.874	-0.47
196.347	1.43
196.82	-8.07
197.292	4.43
197.765	4.13
198.237	1.23
198.71	2.73
199.182	-2.27
199.655	2.33
200.127	5.43
200.6	-1.07
201.072	-5.97
201.544	-3.57
202.017	-6.37
202.489	7.43
202.961	-3.87
203.433	-1.77
203.906	-8.07
204.378	-3.27
204.85	-3.57
205.322	-5.57
205.794	1.53
206.266	1.23
206.739	-10.57
207.211	-0.57
207.683	-5.37
208.155	-8.37
208.627	-6.37
209.099	-4.97
209.57	-6.77
210.042	-3.77
210.514	-2.07
210.986	2.63
211.458	-10.87
211.93	-6.47
212.402	0.93
212.873	-3.67
213.345	-8.77
213.817	-11.87
214.288	-4.77
214.76	-10.07
215.232	-3.77
215.703	-4.07
216.175	-0.17
216.646	-6.77
217.118	-4.57
217.589	-3.37
218.061	-1.07
218.532	-4.77
219.004	-6.67
219.475	-0.57
219.946	-2.17
220.418	-4.27
220.889	2.13
221.36	-0.07
221.832	0.63
222.303	-4.17
222.774	0.43
223.245	-8.37
223.717	-4.47
224.188	-3.67
224.659	-7.27
225.13	-8.77
225.601	0.93
226.072	2.83
226.543	0.93
227.014	0.63
227.485	0.73
227.956	1.33
228.427	-7.27
228.898	5.53
229.369	5.13
229.839	-1.27
230.31	-2.37
230.781	4.93
231.252	-1.67
231.722	1.03
232.193	1.73
232.664	-3.97
233.135	-0.17
233.605	-3.97
234.076	-5.97
234.546	1.23
235.017	6.93
235.487	2.83
235.958	-0.27
236.428	-4.47
236.899	4.73
237.369	6.13
237.84	2.73
238.31	13.23
238.78	8.83
239.251	3.73
239.721	1.33
240.191	2.03
240.662	0.63
241.132	7.23
241.602	-4.17
242.072	8.33
242.542	9.73
243.013	4.93
243.483	3.83
243.953	2.53
244.423	-0.27
244.893	0.43
245.363	3.43
245.833	2.63
246.303	0.23
246.773	6.63
247.243	0.63
247.712	4.73
248.182	11.53
248.652	11.83
249.122	4.73
249.592	18.23
250.061	22.63
250.531	35.23
251.001	20.53
251.471	24.63
251.94	19.23
252.41	5.63
252.879	1.23
253.349	14.93
253.818	14.03
254.288	8.23
254.757	5.23
255.227	2.53
255.696	5.83
256.166	11.13
256.635	7.43
257.105	9.23
257.574	13.63
258.043	11.23
258.513	12.43
258.982	18.53
259.451	12.13
259.92	16.43
260.389	15.73
260.859	13.83
261.328	10.13
261.797	20.63
262.266	11.73
262.735	15.43
263.204	9.13
263.673	7.33
264.142	9.13
264.611	5.13
265.08	6.43
265.549	7.43
266.018	7.83
266.487	2.03
266.955	-1.67
267.424	6.03
267.893	6.63
268.362	2.23
268.83	7.93
269.299	12.33
269.768	13.13
270.236	13.93
270.705	11.73
271.174	12.03
271.642	13.93
272.111	11.53
272.579	17.73
273.048	22.93
273.516	33.43
273.985	27.63
274.453	27.63
274.922	26.33
275.39	17.13
275.858	13.33
276.327	14.33
276.795	22.03
277.263	15.93
277.731	33.63
278.2	56.33
278.668	65.43
279.136	48.83
279.604	27.43
280.072	16.73
280.54	17.33
281.008	13.73
281.477	16.43
281.945	14.33
282.413	19.33
282.881	15.23
283.348	12.43
283.816	19.53
284.284	21.43
284.752	28.53
285.22	18.93
285.688	21.43
286.156	19.13
286.623	50.83
287.091	56.03
287.559	34.13
288.026	16.13
288.494	19.53
288.962	6.43
289.429	12.23
289.897	18.43
290.364	15.23
290.832	21.23
291.3	15.53
291.767	20.23
292.234	21.93
292.702	17.53
293.169	20.33
293.637	28.43
294.104	20.53
294.571	16.23
295.039	19.13
295.506	14.33
295.973	28.33
296.44	14.03
296.908	21.13
297.375	19.33
297.842	26.23
298.309	23.63
298.776	22.23
299.243	24.83
299.71	18.63
300.177	24.73
300.644	23.83
301.111	20.63
301.578	24.03
302.045	19.33
302.512	23.23
302.979	29.63
303.446	25.93
303.913	28.23
304.379	20.03
304.846	33.13
305.313	28.83
305.78	23.53
306.246	25.83
306.713	35.03
307.18	32.43
307.646	35.23
308.113	27.03
308.579	30.03
309.046	32.63
309.512	33.03
309.979	19.93
310.445	35.13
310.912	35.63
311.378	25.23
311.845	34.53
312.311	30.83
312.777	41.73
313.244	33.83
313.71	51.53
314.176	38.93
314.642	33.73
315.109	33.83
315.575	39.23
316.041	41.83
316.507	34.23
316.973	41.03
317.439	36.83
317.905	43.53
318.371	37.63
318.837	34.63
319.303	40.73
319.769	39.53
320.235	36.73
320.701	42.13
321.167	36.03
321.633	39.33
322.099	43.33
322.564	46.43
323.03	49.43
323.496	44.53
323.962	49.23
324.427	38.63
324.893	43.73
325.359	47.13
325.824	41.33
326.29	45.43
326.755	41.23
327.221	52.33
327.686	43.83
328.152	55.63
328.617	43.53
329.083	52.03
329.548	54.83
330.014	49.53
330.479	44.53
330.944	48.73
331.41	45.83
331.875	46.13
332.34	44.73
332.805	45.93
333.271	45.63
333.736	51.93
334.201	56.13
334.666	56.23
335.131	57.03
335.596	56.73
336.061	54.03
336.526	48.03
336.991	55.03
337.456	56.63
337.921	52.03
338.386	51.63
338.851	52.93
339.316	53.43
339.781	54.43
340.246	58.73
340.711	57.33
341.175	54.13
341.64	43.33
342.105	55.53
342.569	54.33
343.034	58.53
343.499	56.83
343.963	56.93
344.428	65.53
344.893	62.63
345.357	64.13
345.822	63.33
346.286	76.13
346.751	80.93
347.215	70.13
347.679	79.83
348.144	107.13
348.608	90.43
349.073	76.43
349.537	81.13
350.001	82.33
350.465	90.93
350.93	86.73
351.394	88.03
351.858	80.03
352.322	91.63
352.786	82.03
353.25	109.23
353.715	112.43
354.179	109.13
354.643	123.43
355.107	129.13
355.571	107.83
356.035	104.13
356.498	113.73
356.962	125.03
357.426	140.23
357.89	125.23
358.354	96.73
358.818	83.03
359.281	81.43
359.745	87.73
360.209	79.63
360.673	81.63
361.136	84.83
361.6	96.53
362.064	80.03
362.527	85.03
362.991	98.63
363.454	83.23
363.918	80.83
364.381	78.63
364.845	88.73
365.308	88.83
365.772	86.23
366.235	87.63
366.698	82.13
367.162	86.23
367.625	90.83
368.088	80.23
368.552	89.13
369.015	88.73
369.478	95.43
369.941	102.23
370.404	99.63
370.867	109.93
371.331	107.13
371.794	113.93
372.257	109.03
372.72	119.13
373.183	111.53
373.646	105.13
374.109	107.23
374.572	112.13
375.035	107.13
375.497	111.03
375.96	109.43
376.423	104.53
376.886	117.63
377.349	109.03
377.811	107.23
378.274	110.23
378.737	109.13
379.199	110.83
379.662	109.13
380.125	121.93
380.587	126.03
381.05	122.93
381.512	126.43
381.975	133.83
382.437	126.73
382.9	128.43
383.362	135.53
383.825	139.73
384.287	151.53
384.75	142.73
385.212	136.83
385.674	139.23
386.136	135.33
386.599	120.73
387.061	130.33
387.523	129.83
387.985	134.23
388.447	140.23
388.91	138.03
389.372	157.83
389.834	149.53
390.296	139.83
390.758	149.33
391.22	166.43
391.682	209.93
392.144	287.33
392.606	223.53
393.068	164.03
393.529	165.73
393.991	160.13
394.453	143.23
394.915	157.33
395.377	186.23
395.838	208.53
396.3	152.13
396.762	147.43
397.224	126.53
397.685	129.73
398.147	128.13
398.608	127.13
399.07	126.53
399.531	138.93
399.993	145.53
400.454	154.63
400.916	153.53
401.377	146.23
401.839	153.73
402.3	153.83
402.762	167.53
403.223	177.53
403.684	171.13
404.145	166.33
404.607	160.83
405.068	166.83
405.529	166.03
405.99	190.93
406.451	174.43
406.913	167.53
407.374	164.83
407.835	166.13
408.296	169.83
408.757	170.33
409.218	181.63
409.679	181.93
410.14	174.33
410.601	184.53
411.062	181.83
411.522	192.73
411.983	183.63
412.444	178.03
412.905	186.23
413.366	184.63
413.826	195.03
414.287	215.33
414.748	267.03
415.208	248.13
415.669	213.33
416.13	205.43
416.59	200.33
417.051	217.13
417.511	219.03
417.972	235.53
418.432	242.33
418.893	284.03
419.353	254.83
419.814	194.83
420.274	176.33
420.734	177.53
421.195	190.13
421.655	193.83
422.115	189.73
422.576	196.43
423.036	195.93
423.496	206.13
423.956	214.13
424.416	224.03
424.876	266.23
425.336	264.23
425.797	264.63
426.257	248.63
426.717	234.93
427.177	229.33
427.637	220.53
428.097	237.23
428.556	247.13
429.016	267.03
429.476	253.83
429.936	275.43
430.396	270.93
430.856	286.63
431.315	309.53
431.775	347.83
432.235	369.33
432.694	346.33
433.154	357.93
433.614	383.43
434.073	331.83
434.533	276.73
434.993	261.83
435.452	277.43
435.912	295.73
436.371	283.43
436.83	275.03
437.29	268.23
437.749	243.03
438.209	240.13
438.668	266.73
439.127	284.73
439.587	262.43
440.046	243.93
440.505	256.73
440.964	276.73
441.424	313.43
441.883	299.33
442.342	255.13
442.801	219.83
443.26	223.43
443.719	222.73
444.178	220.33
444.637	201.23
445.096	216.93
445.555	214.43
446.014	220.03
446.473	223.13
446.932	220.23
447.391	225.13
447.849	225.73
448.308	216.23
448.767	223.23
449.226	238.33
449.685	235.73
450.143	247.43
450.602	240.53
451.061	232.13
451.519	226.93
451.978	227.23
452.436	233.33
452.895	244.63
453.353	258.43
453.812	238.43
454.27	238.43
454.729	239.43
455.187	236.03
455.646	249.03
456.104	249.83
456.562	255.53
457.021	255.63
457.479	257.63
457.937	272.23
458.395	249.73
458.854	247.33
459.312	256.43
459.77	275.43
460.228	249.73
460.686	239.53
461.144	251.73
461.602	243.33
462.06	241.93
462.518	246.73
462.976	249.43
463.434	265.03
463.892	263.63
464.35	274.23
464.808	285.13
465.266	267.23
465.724	263.23
466.181	269.63
466.639	272.23
467.097	286.03
467.555	292.23
468.012	296.33
468.47	310.43
468.928	325.03
469.385	339.23
469.843	346.73
470.3	346.63
470.758	356.93
471.215	380.13
471.673	404.53
472.13	402.83
472.588	413.53
473.045	368.13
473.503	381.53
473.96	397.83
474.417	394.33
474.875	431.43
475.332	476.13
475.789	454.03
476.246	459.03
476.704	479.53
477.161	502.73
477.618	515.23
478.075	554.23
478.532	615.83
478.989	688.83
479.446	791.93
479.903	761.43
480.36	799.13
480.817	857.13
481.274	955.63
481.731	1068.03
482.188	1157.03
482.645	1288.13
483.102	1399.53
483.558	1521.43
484.015	1576.23
484.472	1557.03
484.929	1508.43
485.385	1472.73
485.842	1428.63
486.299	1364.43
486.755	1291.03
487.212	1091.43
487.668	925.93
488.125	843.83
488.582	771.63
489.038	738.53
489.494	716.33
489.951	684.03
490.407	671.63
490.864	652.13
491.32	650.43
491.776	639.43
492.233	638.33
492.689	609.33
493.145	596.63
493.602	589.63
494.058	604.33
494.514	612.43
494.97	628.93
495.426	636.23
495.882	617.13
496.338	609.33
496.794	613.43
497.251	617.03
497.707	629.53
498.163	635.13
498.618	641.13
499.074	638.03
499.53	668.13
499.986	673.83
500.442	652.43
500.898	625.83
501.354	614.23
501.809	625.23
502.265	636.23
502.721	660.63
503.177	653.83
503.632	663.13
504.088	671.93
504.543	707.13
504.999	706.23
505.455	648.13
505.91	630.03
506.366	629.73
506.821	624.63
507.277	625.33
507.732	614.83
508.187	617.83
508.643	627.63
509.098	621.93
509.553	647.33
510.009	663.83
510.464	670.23
510.919	677.03
511.375	684.43
511.83	705.43
512.285	714.63
512.74	747.73
513.195	785.43
513.65	767.33
514.105	762.43
514.56	765.33
515.015	789.03
515.47	792.33
515.925	785.43
516.38	788.13
516.835	787.43
517.29	774.93
517.745	771.13
518.2	761.03
518.655	740.33
519.109	745.83
519.564	735.03
520.019	720.03
520.474	717.13
520.928	720.93
521.383	717.73
521.838	698.93
522.292	710.93
522.747	703.53
523.201	695.73
523.656	695.53
524.11	680.83
524.565	675.53
525.019	680.43
525.474	696.43
525.928	697.03
526.382	690.73
526.837	690.23
527.291	693.83
527.745	692.33
528.2	697.53
528.654	677.93
529.108	683.53
529.562	680.33
530.016	685.53
530.47	687.83
530.925	680.03
531.379	689.43
531.833	701.43
532.287	692.63
532.741	698.13
533.195	694.83
533.649	713.73
534.103	720.53
534.556	698.63
535.01	698.73
535.464	704.33
535.918	714.23
536.372	716.93
536.826	713.83
537.279	699.93
537.733	701.93
538.187	716.63
538.64	714.13
539.094	711.43
539.548	724.63
540.001	717.83
540.455	711.23
540.908	718.63
541.362	732.53
541.815	733.53
542.269	742.63
542.722	749.93
543.175	755.63
543.629	757.43
544.082	772.23
544.536	782.03
544.989	766.73
545.442	782.73
545.895	782.43
546.349	780.43
546.802	770.83
547.255	781.63
547.708	782.03
548.161	799.93
548.614	811.23
549.067	813.03
549.52	807.53
549.973	788.43
550.426	797.73
550.879	773.43
551.332	783.63
551.785	796.53
552.238	797.43
552.691	805.03
553.144	812.83
553.596	833.93
554.049	847.03
554.502	871.93
554.955	893.53
555.407	895.03
555.86	884.83
556.313	876.93
556.765	872.63
557.218	865.63
557.67	874.23
558.123	861.93
558.576	856.23
559.028	860.53
559.48	872.13
559.933	860.83
560.385	819.23
560.838	779.83
561.29	757.13
561.742	765.93
562.195	747.43
562.647	744.93
563.099	757.53
563.551	753.03
564.004	761.13
564.456	756.13
564.908	749.43
565.36	726.53
565.812	712.33
566.264	706.53
566.716	717.53
567.168	704.93
567.62	712.93
568.072	684.43
568.524	673.53
568.976	666.93
569.428	654.93
569.88	658.23
570.332	658.73
570.784	667.53
571.235	667.83
571.687	668.93
572.139	682.33
572.59	686.03
573.042	684.83
573.494	691.43
573.945	695.03
574.397	666.63
574.849	672.53
575.3	676.73
575.752	660.73
576.203	673.23
576.655	662.73
577.106	654.93
577.557	642.83
578.009	656.23
578.46	653.63
578.912	644.83
579.363	648.23
579.814	657.23
580.265	645.03
580.717	648.63
581.168	651.03
581.619	664.23
582.07	662.13
582.521	655.53
582.972	656.73
583.423	657.53
583.875	659.83
584.326	674.53
584.777	713.83
585.227	784.63
585.678	873.63
586.129	960.73
586.58	1022.83
587.031	1098.73
587.482	1248.83
587.933	1417.23
588.384	1243.13
588.834	921.53
589.285	779.03
589.736	757.23
590.186	742.33
590.637	743.53
591.088	716.63
591.538	715.43
591.989	707.53
592.439	699.53
592.89	681.53
593.34	683.83
593.791	693.33
594.241	673.13
594.692	670.23
595.142	675.53
595.593	670.53
596.043	677.93
596.493	685.53
596.943	683.13
597.394	694.93
597.844	696.73
598.294	690.53
598.744	712.23
599.195	737.53
599.645	776.23
600.095	815.93
600.545	871.83
600.995	922.63
601.445	984.53
601.895	1041.73
602.345	1082.53
602.795	1070.83
603.245	1019.93
603.695	967.53
604.145	918.93
604.594	872.13
605.044	824.33
605.494	752.53
605.944	725.13
606.393	717.73
606.843	702.13
607.293	702.13
607.743	698.93
608.192	711.43
608.642	722.73
609.091	732.43
609.541	734.13
609.99	730.53
610.44	733.13
610.889	682.73
611.339	664.03
611.788	645.33
612.238	666.83
612.687	697.23
613.136	681.63
613.586	700.43
614.035	699.33
614.484	708.33
614.933	715.13
615.383	714.03
615.832	704.83
616.281	688.83
616.73	650.93
617.179	636.43
617.628	619.13
618.077	611.33
618.526	583.23
618.975	587.83
619.424	580.53
619.873	578.23
620.322	587.83
620.771	581.13
621.22	570.33
621.669	560.43
622.118	556.83
622.567	546.83
623.015	542.63
623.464	542.43
623.913	531.93
624.361	524.83
624.81	519.13
625.259	525.73
625.707	528.33
626.156	519.43
626.604	538.63
627.053	531.33
627.501	533.13
627.95	541.83
628.398	538.33
628.847	542.93
629.295	530.53
629.744	538.93
630.192	534.43
630.64	537.53
631.089	532.23
631.537	536.23
631.985	560.03
632.433	561.43
632.881	565.33
633.33	611.43
633.778	597.23
634.226	532.93
634.674	531.83
635.122	541.93
635.57	561.93
636.018	587.03
636.466	545.73
636.914	518.83
637.362	540.93
637.81	536.43
638.258	535.73
638.705	536.63
639.153	570.73
639.601	576.53
640.049	598.53
640.497	626.03
640.944	654.03
641.392	606.53
641.84	569.93
642.287	548.83
642.735	531.43
643.182	528.03
643.63	540.23
644.078	545.93
644.525	553.93
644.973	557.23
645.42	560.23
645.867	574.83
646.315	593.43
646.762	622.03
647.21	649.63
647.657	680.03
648.104	699.03
648.551	724.13
648.999	781.93
649.446	857.63
649.893	933.73
650.34	1079.83
650.787	1290.43
651.234	1613.13
651.682	2077.23
652.129	2830.13
652.576	4054.03
653.023	5987.53
653.47	8271.73
653.917	10423.63
654.363	12149.13
654.81	13583.53
655.257	12947.43
655.704	8386.83
656.151	4974.63
656.598	3217.23
657.044	2278.23
657.491	1749.43
657.938	1402.43
658.385	1164.83
658.831	1020.83
659.278	901.53
659.724	798.13
660.171	733.73
660.618	688.53
661.064	651.93
661.511	624.83
661.957	605.93
662.404	597.93
662.85	602.03
663.296	580.83
663.743	528.33
664.189	501.93
664.635	489.73
665.082	496.13
665.528	495.63
665.974	486.73
666.42	476.63
666.867	482.63
667.313	453.13
667.759	443.93
668.205	446.23
668.651	452.93
669.097	452.83
669.543	463.53
669.989	443.03
670.435	414.83
670.881	414.33
671.327	415.13
671.773	433.93
672.219	452.83
672.665	498.13
673.11	538.03
673.556	584.73
674.002	613.13
674.448	608.23
674.893	505.33
675.339	445.33
675.785	408.23
676.23	388.03
676.676	363.43
677.122	354.23
677.567	345.43
678.013	342.03
678.458	338.43
678.904	335.53
679.349	324.03
679.794	334.33
680.24	325.23
680.685	322.83
681.131	322.63
681.576	325.13
682.021	328.03
682.466	324.93
682.912	322.33
683.357	332.83
683.802	349.13
684.247	376.63
684.692	420.33
685.137	455.83
685.583	492.43
686.028	512.03
686.473	480.83
686.918	418.83
687.363	377.03
687.807	363.23
688.252	333.53
688.697	332.23
689.142	310.53
689.587	307.53
690.032	298.73
690.477	315.63
690.921	316.53
691.366	355.63
691.811	370.13
692.255	397.63
692.7	427.23
693.145	455.23
693.589	630.33
694.034	1007.33
694.478	1395.33
694.923	1623.73
695.367	2112.13
695.812	1104.03
696.256	459.33
696.701	342.23
697.145	317.93
697.59	307.73
698.034	296.53
698.478	304.03
698.922	293.93
699.367	307.03
699.811	300.83
700.255	318.13
700.699	359.03
701.143	393.63
701.588	441.63
702.032	472.43
702.476	464.23
702.92	450.53
703.364	443.13
703.808	571.83
704.252	932.13
704.696	1325.53
705.14	1551.93
705.584	1984.73
706.027	988.43
706.471	479.73
706.915	373.23
707.359	327.53
707.803	297.63
708.246	287.63
708.69	282.33
709.134	286.43
709.577	284.93
710.021	293.63
710.465	284.13
710.908	275.13
711.352	273.43
711.795	285.53
712.239	310.53
712.682	354.53
713.126	383.43
713.569	431.13
714.012	341.03
714.456	298.03
714.899	278.73
715.342	255.63
715.786	241.73
716.229	241.73
716.672	238.43
717.115	227.13
717.558	231.13
718.002	236.63
718.445	240.63
718.888	264.73
719.331	273.33
719.774	286.43
720.217	282.93
720.66	271.43
721.103	243.03
721.546	234.13
721.989	231.83
722.432	207.53
722.874	216.73
723.317	209.33
723.76	218.43
724.203	236.53
724.645	287.53
725.088	397.43
725.531	512.63
725.974	605.53
726.416	507.33
726.859	280.83
727.301	231.93
727.744	214.13
728.187	209.63
728.629	224.43
729.071	226.73
729.514	235.53
729.956	252.73
730.399	255.53
730.841	257.83
731.283	246.73
731.726	251.03
732.168	244.23
732.61	236.93
733.053	259.23
733.495	286.43
733.937	320.93
734.379	363.23
734.821	393.63
735.263	480.73
735.705	742.83
736.148	1397.93
736.59	2343.73
737.032	2839.93
737.474	2312.03
737.916	748.33
738.357	399.33
738.799	301.83
739.241	271.43
739.683	253.03
740.125	262.73
740.567	271.23
741.008	295.13
741.45	288.73
741.892	295.73
742.334	316.43
742.775	328.83
743.217	315.13
743.658	242.43
744.1	235.73
744.542	239.73
744.983	278.73
745.425	314.03
745.866	316.33
746.307	254.53
746.749	256.63
747.19	289.93
747.632	408.33
748.073	765.83
748.514	1655.63
748.956	2602.83
749.397	3262.93
749.838	2705.93
750.279	2747.43
750.72	1385.63
751.162	502.83
751.603	291.03
752.044	230.83
752.485	196.93
752.926	191.63
753.367	190.73
753.808	176.43
754.249	179.13
754.69	178.23
755.131	168.13
755.572	166.03
756.013	163.03
756.453	163.53
756.894	171.53
757.335	173.33
757.776	179.93
758.216	177.83
758.657	180.53
759.098	183.93
759.538	208.13
759.979	244.93
760.42	336.23
760.86	622.13
761.301	1606.83
761.741	3960.53
762.182	6004.93
762.622	4238.03
763.063	1209.93
763.503	493.33
763.943	314.53
764.384	302.03
764.824	362.73
765.264	400.53
765.705	278.93
766.145	188.93
766.585	179.83
767.025	164.23
767.465	171.63
767.906	221.03
768.346	285.53
768.786	306.33
769.226	229.63
769.666	279.23
770.106	543.93
770.546	1378.13
770.986	2429.73
771.426	2211.83
771.866	733.13
772.306	302.43
772.745	196.53
773.185	157.73
773.625	159.23
774.065	155.43
774.505	180.93
774.944	266.03
775.384	575.83
775.824	1095.23
776.263	1080.13
776.703	459.33
777.142	198.83
777.582	150.53
778.021	124.53
778.461	129.93
778.9	124.63
779.34	130.03
779.779	110.83
780.219	101.03
780.658	100.63
781.097	104.63
781.537	102.33
781.976	97.73
782.415	99.23
782.855	97.03
783.294	100.03
783.733	103.53
784.172	96.33
784.611	93.33
785.05	99.63
785.489	104.13
785.928	106.33
786.367	104.33
786.806	107.33
787.245	119.03
787.684	121.23
788.123	135.43
788.562	121.23
789.001	112.63
789.44	109.53
789.879	109.93
790.317	108.43
790.756	117.83
791.195	115.03
791.634	139.73
792.072	185.63
792.511	321.63
792.95	874.83
793.388	1951.93
793.827	1807.23
794.265	620.33
794.704	251.63
795.142	162.43
795.581	141.23
796.019	123.23
796.458	120.03
796.896	108.03
797.334	119.13
797.773	140.63
798.211	195.53
798.649	387.33
799.087	916.43
799.526	1457.23
799.964	1826.23
800.402	1881.83
800.84	695.03
801.278	264.33
801.716	168.73
802.154	140.53
802.592	132.93
803.03	121.73
803.468	121.63
803.906	132.33
804.344	134.33
804.782	130.53
805.22	121.33
805.658	115.93
806.096	134.83
806.533	140.13
806.971	153.73
807.409	194.43
807.847	278.63
808.284	582.73
808.722	1669.33
809.16	3023.23
809.597	2813.13
810.035	4896.23
810.472	5421.23
810.91	1928.43
811.347	726.13
811.785	369.93
812.222	232.03
812.66	175.63
813.097	158.93
813.535	130.03
813.972	118.93
814.409	111.23
814.846	103.73
815.284	106.23
815.721	93.83
816.158	91.93
816.595	109.03
817.032	157.53
817.47	186.13
817.907	150.33
818.344	126.83
818.781	110.63
819.218	93.53
819.655	113.73
820.092	172.63
820.529	196.33
820.966	168.63
821.403	125.03
821.839	101.53
822.276	93.83
822.713	116.83
823.15	127.93
823.587	107.33
824.023	133.83
824.46	262.23
824.897	806.13
825.333	1257.93
825.77	536.03
826.206	210.13
826.643	119.93
827.08	91.43
827.516	78.13
827.953	66.93
828.389	76.73
828.825	68.63
829.262	59.43
829.698	61.73
830.135	57.73
830.571	55.83
831.007	51.23
831.443	56.33
831.88	57.73
832.316	57.43
832.752	56.13
833.188	60.13
833.624	56.53
834.06	63.03
834.497	65.03
834.933	64.73
835.369	72.93
835.805	58.43
836.241	74.63
836.677	77.33
837.112	82.43
837.548	99.63
837.984	122.33
838.42	172.63
838.856	444.23
839.292	1370.83
839.727	2145.03
840.163	991.53
840.599	830.63
841.034	1844.93
841.47	1993.03
841.906	716.23
842.341	309.63
842.777	201.63
843.212	276.03
843.648	283.03
844.083	137.93
844.519	88.13
844.954	72.73
845.39	54.03
845.825	54.13
846.261	53.63
846.696	53.43
847.131	46.93
847.566	50.13
848.002	44.43
848.437	46.53
848.872	58.73
849.307	54.13
849.742	72.33
850.177	160.13
850.613	495.83
851.048	819.03
851.483	346.43
851.918	141.13
852.353	71.03
852.788	54.73
853.223	47.23
853.657	53.23
854.092	43.03
854.527	40.83
854.962	33.93
855.397	47.23
855.832	48.83
856.266	38.63
856.701	38.73
857.136	31.63
857.57	41.83
858.005	44.73
858.44	57.73
858.874	44.33
859.309	51.73
859.743	39.13
860.178	39.83
860.612	43.63
861.047	46.13
861.481	61.63
861.915	65.13
862.35	52.63
862.784	29.23
863.218	38.73
863.653	29.03
864.087	44.13
864.521	50.43
864.955	61.93
865.39	144.93
865.824	164.03
866.258	107.53
866.692	145.83
867.126	161.03
867.56	98.83
867.994	49.43
868.428	37.23
868.862	33.33
869.296	48.53
869.73	58.13
870.164	44.53
870.598	43.53
871.031	35.93
871.465	22.83
871.899	35.13
872.333	24.63
872.766	22.13
873.2	26.33
873.634	25.43
874.067	21.23
874.501	23.23
874.935	38.93
875.368	33.43
875.802	26.33
876.235	26.83
876.669	26.03
877.102	23.33
877.535	29.93
877.969	19.73
878.402	21.63
878.836	17.63
879.269	23.83
879.702	22.03
880.135	27.33
880.569	26.33
881.002	29.63
881.435	22.63
881.868	19.93
882.301	23.73
882.734	19.93
883.167	23.63
883.601	22.33
884.034	22.93
884.467	15.03
884.899	16.53
885.332	17.03
885.765	13.13
886.198	13.43
886.631	19.93
887.064	16.53
887.497	18.73
887.929	19.53
888.362	15.43
888.795	10.43
889.228	16.83
889.66	19.43
890.093	18.03
890.526	16.73
890.958	15.23
891.391	21.33
891.823	20.23
892.256	15.23
892.688	17.93
893.121	11.53
893.553	9.73
893.985	19.83
894.418	24.93
894.85	11.13
895.282	22.63
895.715	14.43
896.147	16.83
896.579	19.63
897.011	10.33
897.444	16.93
897.876	12.93
898.308	19.33
898.74	16.53
899.172	12.83
899.604	23.83
900.036	22.13
900.468	15.93
900.9	14.93
901.332	18.83
901.764	10.03
902.196	17.73
902.628	13.23
903.06	14.13
903.491	26.43
903.923	21.03
904.355	16.43
904.787	22.03
905.218	20.93
905.65	23.13
906.082	16.73
906.513	12.03
906.945	16.63
907.376	16.43
907.808	19.23
908.239	20.93
908.671	16.33
909.102	22.13
909.534	18.93
909.965	42.43
910.397	78.73
910.828	289.73
911.259	451.73
911.691	206.03
912.122	98.93
912.553	41.73
912.984	29.23
913.415	27.93
913.847	26.33
914.278	18.43
914.709	11.23
915.14	14.83
915.571	15.13
916.002	15.43
916.433	16.43
916.864	20.73
917.295	8.83
917.726	23.43
918.157	19.63
918.587	27.03
919.018	20.13
919.449	14.43
919.88	19.63
920.311	30.03
920.741	40.53
921.172	157.23
921.603	139.73
922.033	61.33
922.464	39.83
922.895	19.53
923.325	21.53
923.756	22.73
924.186	15.13
924.617	28.33
925.047	34.13
925.478	52.03
925.908	43.43
926.338	25.23
926.769	18.03
927.199	26.33
927.629	5.73
928.06	8.33
928.49	14.73
928.92	11.63
929.35	9.43
929.78	9.23
930.21	9.73
930.641	7.53
931.071	11.03
931.501	5.23
931.931	11.43
932.361	12.23
932.791	1.93
933.221	8.23
933.651	5.03
934.08	17.63
934.51	25.93
934.94	14.43
935.37	9.53
935.8	12.23
936.229	9.93
936.659	5.33
937.089	2.83
937.519	13.73
937.948	23.33
938.378	20.03
938.807	15.03
939.237	2.53
939.666	9.43
940.096	-2.97
940.525	-0.37
940.955	3.53
941.384	5.93
941.814	-1.27
942.243	0.13
942.672	6.43
943.102	0.13
943.531	0.53
943.96	7.63
944.39	5.73
944.819	-1.17
945.248	-1.07
945.677	7.23
946.106	8.93
946.535	6.73
946.964	1.83
947.393	-1.77
947.822	1.13
948.251	-2.97
948.68	6.23
949.109	12.13
949.538	2.23
949.967	2.53
950.396	2.63
950.825	-0.47
951.254	-2.97
951.682	-0.57
952.111	6.33
952.54	6.73
952.969	-2.57
953.397	-0.07
953.826	1.63
954.254	-4.37
954.683	0.03
955.112	-9.37
955.54	5.13
955.969	2.03
956.397	3.13
956.826	-2.17
957.254	6.03
957.682	4.93
958.111	9.13
958.539	3.43
958.967	1.53
959.396	2.03
959.824	3.13
960.252	4.83
960.68	-5.17
961.109	-3.67
961.537	-2.67
961.965	1.93
962.393	5.63
962.821	-1.27
963.249	4.53
963.677	7.73
964.105	8.63
964.533	41.13
964.961	35.43
965.389	15.63
965.817	10.13
966.245	2.93
966.672	-0.37
967.1	-5.67
967.528	-3.17
967.956	-2.27
968.383	0.63
968.811	0.93
969.239	-0.27
969.666	-2.17
970.094	-2.27
970.522	4.33
970.949	0.83
971.377	-3.77
971.804	0.93
972.232	-1.67
972.659	-2.17
973.087	-2.37
973.514	-5.87
973.941	-3.57
974.369	2.13
974.796	-0.47
975.223	3.23
975.651	-5.07
976.078	1.03
976.505	2.53
976.932	0.13
977.359	6.03
977.786	17.93
978.214	3.63
978.641	-0.17
979.068	2.13
979.495	-0.07
979.922	0.03
980.349	-0.87
980.776	-1.27
981.202	-0.07
981.629	5.03
982.056	3.53
982.483	-3.67
982.91	6.43
983.337	-6.07
983.763	5.83
984.19	-3.47
984.617	-4.67
985.043	-7.17
985.47	-0.57
985.897	-5.47
986.323	-8.67
986.75	9.43
987.176	3.83
987.603	-1.87
988.029	-1.37
988.456	-4.57
988.882	4.13
989.308	0.43
989.735	-4.07
990.161	4.73
990.587	-3.27
991.014	-0.67
991.44	10.63
991.866	1.93
992.292	1.53
992.719	-1.37
993.145	4.93
993.571	-5.67
993.997	0.03
994.423	-2.97
994.849	-5.07
995.275	-2.77
995.701	3.53
996.127	-4.47
996.553	0.03
996.979	-5.77
997.405	-0.07
997.83	-6.57
998.256	-7.17
998.682	-7.17
999.108	-5.77
999.534	1.53
999.959	2.23
1000.385	-2.77
1000.811	-0.77
1001.236	-6.47
1001.662	-2.87
1002.087	-7.77
1002.513	-0.37
1002.938	-0.27
1003.364	-7.17
1003.789	2.53
1004.215	7.53
1004.64	0.83
1005.066	1.13
1005.491	0.53
1005.916	1.03
1006.342	3.13
1006.767	-6.47
1007.192	2.13
1007.617	-1.77
1008.042	-4.67
1008.468	-7.07
1008.893	1.03
1009.318	0.93
1009.743	-0.97
1010.168	1.63
1010.593	1.23
1011.018	-10.97
1011.443	-2.47
1011.868	4.33
1012.293	-5.97
1012.718	-8.87
1013.143	-0.37
1013.567	0.83
1013.992	1.23
1014.417	-11.57
1014.842	0.73
1015.267	-2.57
1015.691	-5.17
1016.116	-1.47
1016.541	1.73
1016.965	-5.77
1017.39	8.03
1017.814	-0.37
1018.239	1.83
1018.663	-3.17
1019.088	-2.77
1019.512	-2.87
1019.937	-1.07
1020.361	-3.27
1020.785	-11.17
1021.21	-2.27
1021.634	1.73
1022.058	0.53
1022.483	6.23
1022.907	-2.37
1023.331	-8.27
1023.755	-4.97
1024.179	3.33
1024.604	-5.37
1025.028	-7.47
1025.452	-8.77
1025.876	5.03
1026.3	3.13
1026.724	-5.17
1027.148	-6.37
1027.572	-2.47
1027.996	-4.77
1028.42	-0.57
1028.843	-2.37
1029.267	-3.77
1029.691	1.63
1030.115	-9.37
1030.539	-7.57
1030.962	-2.57
1031.386	-13.87
1031.81	8.93
1032.233	1.53
1032.657	-1.57
1033.08	-0.07
1033.504	-2.67
1033.927	-3.57
1034.351	-2.97
1034.774	-3.37
1035.198	-2.87
1035.621	-3.77
1036.045	-4.47
1036.468	2.63
1036.891	-13.77
1037.315	-6.97
1037.738	-6.77
1038.161	3.93
1038.584	-8.47
1039.008	-5.07
1039.431	-0.27
1039.854	-4.57
1040.277	-8.57
1040.7	-11.27
1041.123	3.53
1041.546	-3.07
1041.969	-5.57
1042.392	-7.37
1042.815	3.03
1043.238	2.73
1043.661	5.13
1044.084	-8.07
1044.507	-5.87
1044.93	-3.87
1045.352	-1.27
1045.775	-3.77
1046.198	-4.17
1046.621	3.43
1047.043	-0.87
1047.466	5.53
1047.889	1.03
1048.311	-6.87
1048.734	3.63
1049.156	0.03
1049.579	-2.87
1050.001	-2.47
1050.424	4.63
1050.846	3.23
1051.269	2.33
1051.691	-5.17
1052.113	-3.77
1052.536	1.83
1052.958	-3.77
1053.38	-9.27
1053.802	-7.27
1054.225	3.43
1054.647	-10.67
1055.069	-0.97
1055.491	1.43
1055.913	-10.37
1056.335	-2.57
1056.757	-9.47
1057.179	-10.67
1057.601	-3.17
1058.023	-1.47
1058.445	-3.47
1058.867	-1.77
1059.289	-0.07
1059.711	-8.57
1060.133	0.93
1060.555	-8.97
1060.976	-6.37
1061.398	-6.57
1061.82	-5.87
1062.241	-5.07
1062.663	-3.27
1063.085	-1.67
1063.506	0.43
1063.928	-10.47
1064.35	-8.37
1064.771	-5.57
1065.193	-8.57
1065.614	-7.57
1066.035	-0.47
1066.457	-2.97
1066.878	2.73
1067.3	-0.07
1067.721	-0.97
1068.142	-2.87
1068.564	0.53
1068.985	-9.37
1069.406	-12.77
1069.827	-3.17
1070.248	-0.27
1070.67	-2.27
1071.091	-3.97
1071.512	-2.47
1071.933	-4.47
1072.354	-2.27
1072.775	0.13
1073.196	-5.87
1073.617	2.53
1074.038	-3.67
1074.459	-0.47
1074.88	-9.27
1075.3	-2.17
1075.721	-3.77
1076.142	3.23
1076.563	1.93
1076.983	-3.87
1077.404	-2.97
1077.825	-8.47
1078.246	-5.97
1078.666	-8.07
1079.087	0.63
1079.507	-6.37
1079.928	4.53
1080.348	2.23
1080.769	1.33
1081.189	0.13
1081.61	-0.17
1082.03	-2.77
1082.451	-3.27
1082.871	-3.67
1083.291	-4.77
1083.711	-10.37
1084.132	3.63
1084.552	-4.97
1084.972	-7.67
1085.392	-6.87
1085.813	-12.07
1086.233	-6.47
1086.653	-1.47
1087.073	-2.97
1087.493	-8.67
1087.913	-1.07
1088.333	-7.47
1088.753	-6.17
1089.173	4.73
1089.593	-0.07
1090.013	2.73
1090.433	5.43
1090.852	-3.97
1091.272	-0.27
1091.692	-4.37
1092.112	-0.57
1092.531	-8.87
1092.951	-16.67
1093.371	-2.37
1093.79	-2.57
1094.21	-5.87
1094.63	-2.57
1095.049	-5.17
1095.469	-7.57
1095.888	-0.27
1096.308	2.93
1096.727	6.73
1097.146	-4.97
1097.566	3.23
1097.985	-3.27
1098.405	2.93
1098.824	-5.47
1099.243	-2.27
1099.662	-8.47
1100.082	-1.67
1100.501	5.13
1100.92	-6.27
1101.339	-5.07
1101.758	-1.17
