Data from 20171114-ORNL-Ar_H_NY_Subt18_08-08-17-295.txt Node
Date: Tue Nov 14 08:08:17 EST 2017
User: Ender
Spectrometer: HR+D1039
Trigger mode: 0
Integration Time (sec): 2.730000E-2
Scans to average: 10
Electric dark correction enabled: true
Nonlinearity correction enabled: false
Boxcar width: 0
XAxis mode: Wavelengths
Number of Pixels in Spectrum: 2048
>>>>>Begin Spectral Data<<<<<
187.836	-4.79
188.309	-4.79
188.782	-4.79
189.255	3.31
189.728	1.21
190.201	3.31
190.674	2.91
191.147	-0.69
191.619	-6.99
192.092	0.71
192.565	1.81
193.038	3.01
193.511	1.61
193.984	0.11
194.456	-2.29
194.929	1.51
195.402	-2.89
195.874	-1.89
196.347	1.21
196.82	-7.59
197.292	2.01
197.765	2.61
198.237	-5.89
198.71	-2.09
199.182	4.31
199.655	0.51
200.127	4.61
200.6	-4.19
201.072	-3.09
201.544	-0.89
202.017	-2.49
202.489	5.71
202.961	1.81
203.433	-8.09
203.906	-1.89
204.378	-9.79
204.85	-8.39
205.322	-7.59
205.794	0.31
206.266	-4.89
206.739	-2.39
207.211	0.11
207.683	-12.29
208.155	-3.99
208.627	-7.39
209.099	-7.59
209.57	-10.09
210.042	-5.39
210.514	-0.99
210.986	-0.99
211.458	-7.19
211.93	0.21
212.402	2.31
212.873	-7.99
213.345	-13.19
213.817	-14.89
214.288	1.11
214.76	-15.89
215.232	-2.89
215.703	-3.99
216.175	-9.09
216.646	-3.69
217.118	-6.59
217.589	-4.79
218.061	-1.89
218.532	-1.79
219.004	-0.99
219.475	-4.39
219.946	-2.29
220.418	-5.49
220.889	5.21
221.36	3.91
221.832	-5.19
222.303	-12.49
222.774	2.21
223.245	-8.79
223.717	0.11
224.188	1.01
224.659	-5.09
225.13	-3.19
225.601	1.91
226.072	5.11
226.543	-1.19
227.014	-5.49
227.485	-1.99
227.956	-7.19
228.427	0.31
228.898	1.11
229.369	6.81
229.839	-4.59
230.31	-8.89
230.781	0.21
231.252	-2.39
231.722	-5.99
232.193	-0.49
232.664	-0.29
233.135	2.91
233.605	1.01
234.076	-1.69
234.546	2.91
235.017	3.71
235.487	-1.99
235.958	-0.49
236.428	-5.89
236.899	5.31
237.369	5.11
237.84	1.81
238.31	3.21
238.78	3.51
239.251	-2.69
239.721	-0.09
240.191	4.01
240.662	-1.29
241.132	-3.09
241.602	-1.09
242.072	3.01
242.542	7.51
243.013	-0.79
243.483	4.21
243.953	7.61
244.423	-0.89
244.893	-0.69
245.363	4.51
245.833	3.61
246.303	-3.39
246.773	4.61
247.243	4.61
247.712	2.21
248.182	10.81
248.652	6.31
249.122	-1.69
249.592	7.91
250.061	20.11
250.531	32.41
251.001	17.41
251.471	21.91
251.94	22.71
252.41	7.31
252.879	5.01
253.349	15.31
253.818	11.41
254.288	5.01
254.757	1.61
255.227	1.61
255.696	3.31
256.166	8.21
256.635	11.91
257.105	8.01
257.574	4.81
258.043	9.31
258.513	11.41
258.982	12.31
259.451	7.81
259.92	17.91
260.389	12.91
260.859	15.01
261.328	11.61
261.797	19.01
262.266	10.11
262.735	15.71
263.204	3.81
263.673	-0.09
264.142	3.91
264.611	-1.09
265.08	1.21
265.549	4.01
266.018	9.41
266.487	-3.69
266.955	1.91
267.424	4.11
267.893	5.21
268.362	3.21
268.83	5.31
269.299	9.81
269.768	6.31
270.236	8.51
270.705	4.31
271.174	5.51
271.642	4.81
272.111	7.01
272.579	19.21
273.048	26.81
273.516	31.81
273.985	24.01
274.453	21.61
274.922	19.01
275.39	13.91
275.858	2.71
276.327	11.91
276.795	17.31
277.263	14.81
277.731	34.41
278.2	53.51
278.668	51.81
279.136	40.21
279.604	15.71
280.072	11.41
280.54	14.61
281.008	13.31
281.477	9.01
281.945	15.41
282.413	20.71
282.881	19.01
283.348	5.01
283.816	13.21
284.284	16.71
284.752	23.91
285.22	13.91
285.688	19.41
286.156	17.71
286.623	44.31
287.091	51.11
287.559	30.51
288.026	20.41
288.494	8.01
288.962	11.31
289.429	10.71
289.897	18.71
290.364	14.81
290.832	16.51
291.3	11.31
291.767	17.11
292.234	19.91
292.702	13.01
293.169	23.91
293.637	25.51
294.104	21.21
294.571	8.51
295.039	13.11
295.506	13.01
295.973	17.41
296.44	14.21
296.908	15.21
297.375	15.21
297.842	17.01
298.309	15.31
298.776	13.81
299.243	21.21
299.71	15.81
300.177	22.41
300.644	23.91
301.111	30.51
301.578	26.31
302.045	18.61
302.512	21.81
302.979	18.81
303.446	22.81
303.913	24.01
304.379	20.41
304.846	34.21
305.313	24.21
305.78	23.51
306.246	30.31
306.713	26.31
307.18	27.81
307.646	24.71
308.113	24.81
308.579	18.51
309.046	24.71
309.512	27.81
309.979	19.11
310.445	25.41
310.912	35.71
311.378	31.31
311.845	32.01
312.311	35.41
312.777	29.51
313.244	28.91
313.71	35.31
314.176	28.21
314.642	26.61
315.109	33.01
315.575	32.91
316.041	35.91
316.507	35.91
316.973	36.91
317.439	31.01
317.905	34.31
318.371	37.51
318.837	39.01
319.303	36.41
319.769	31.21
320.235	33.21
320.701	34.31
321.167	33.71
321.633	36.91
322.099	39.01
322.564	45.61
323.03	46.41
323.496	42.21
323.962	40.51
324.427	36.51
324.893	45.21
325.359	38.11
325.824	38.01
326.29	40.71
326.755	40.91
327.221	41.51
327.686	44.81
328.152	50.01
328.617	43.41
329.083	45.21
329.548	50.91
330.014	43.91
330.479	40.21
330.944	38.11
331.41	41.11
331.875	47.51
332.34	43.11
332.805	46.51
333.271	43.51
333.736	45.91
334.201	53.21
334.666	47.81
335.131	48.21
335.596	45.21
336.061	45.11
336.526	41.81
336.991	55.41
337.456	57.81
337.921	55.31
338.386	42.91
338.851	40.81
339.316	48.91
339.781	45.81
340.246	53.11
340.711	42.61
341.175	48.81
341.64	44.91
342.105	53.61
342.569	55.31
343.034	60.41
343.499	50.71
343.963	50.21
344.428	66.71
344.893	64.31
345.357	62.41
345.822	64.91
346.286	64.41
346.751	75.21
347.215	73.41
347.679	73.11
348.144	98.11
348.608	83.81
349.073	75.31
349.537	75.81
350.001	74.51
350.465	86.91
350.93	79.31
351.394	81.81
351.858	77.01
352.322	83.51
352.786	83.81
353.25	98.31
353.715	114.21
354.179	107.31
354.643	124.11
355.107	137.81
355.571	114.31
356.035	106.81
356.498	117.61
356.962	128.61
357.426	129.81
357.89	117.71
358.354	91.91
358.818	86.01
359.281	81.31
359.745	77.11
360.209	77.61
360.673	77.41
361.136	83.51
361.6	89.51
362.064	87.51
362.527	78.41
362.991	94.51
363.454	79.91
363.918	79.11
364.381	81.81
364.845	88.81
365.308	85.31
365.772	92.21
366.235	91.31
366.698	88.21
367.162	83.61
367.625	84.91
368.088	93.81
368.552	93.21
369.015	94.31
369.478	93.91
369.941	102.71
370.404	98.31
370.867	104.61
371.331	116.91
371.794	115.01
372.257	118.11
372.72	121.91
373.183	112.21
373.646	100.31
374.109	105.71
374.572	107.91
375.035	106.51
375.497	112.61
375.96	106.41
376.423	110.71
376.886	118.91
377.349	110.41
377.811	100.31
378.274	108.01
378.737	107.71
379.199	118.81
379.662	115.91
380.125	120.81
380.587	116.11
381.05	131.31
381.512	130.31
381.975	139.21
382.437	133.11
382.9	134.91
383.362	136.21
383.825	148.51
384.287	149.81
384.75	144.21
385.212	146.71
385.674	152.81
386.136	146.21
386.599	124.81
387.061	131.91
387.523	140.71
387.985	141.41
388.447	144.31
388.91	151.71
389.372	166.71
389.834	158.81
390.296	151.11
390.758	157.61
391.22	171.11
391.682	224.71
392.144	310.71
392.606	239.51
393.068	176.01
393.529	174.81
393.991	158.91
394.453	155.11
394.915	164.41
395.377	203.71
395.838	222.71
396.3	160.71
396.762	146.81
397.224	144.71
397.685	134.61
398.147	136.81
398.608	128.61
399.07	133.51
399.531	136.31
399.993	148.71
400.454	162.01
400.916	150.81
401.377	148.11
401.839	152.71
402.3	154.31
402.762	174.71
403.223	189.61
403.684	181.71
404.145	167.81
404.607	171.31
405.068	168.21
405.529	183.01
405.99	193.91
406.451	180.31
406.913	180.31
407.374	172.91
407.835	168.81
408.296	174.91
408.757	176.51
409.218	197.01
409.679	183.01
410.14	175.61
410.601	185.61
411.062	191.91
411.522	205.31
411.983	197.31
412.444	185.61
412.905	184.81
413.366	187.91
413.826	195.71
414.287	222.61
414.748	269.51
415.208	257.81
415.669	215.71
416.13	219.31
416.59	212.31
417.051	222.71
417.511	224.31
417.972	247.41
418.432	251.61
418.893	294.71
419.353	258.31
419.814	207.91
420.274	188.11
420.734	192.11
421.195	207.31
421.655	203.51
422.115	207.71
422.576	205.51
423.036	197.51
423.496	212.51
423.956	223.71
424.416	238.51
424.876	272.41
425.336	263.21
425.797	271.51
426.257	267.11
426.717	246.91
427.177	235.01
427.637	229.81
428.097	241.21
428.556	257.01
429.016	275.91
429.476	276.51
429.936	281.11
430.396	285.41
430.856	303.61
431.315	324.71
431.775	369.51
432.235	394.21
432.694	365.51
433.154	373.71
433.614	414.81
434.073	354.61
434.533	301.51
434.993	280.51
435.452	296.31
435.912	304.21
436.371	296.61
436.83	290.31
437.29	283.31
437.749	255.21
438.209	257.91
438.668	285.01
439.127	296.11
439.587	277.01
440.046	252.51
440.505	275.51
440.964	290.91
441.424	331.11
441.883	314.51
442.342	263.91
442.801	236.41
443.26	224.11
443.719	237.31
444.178	232.61
444.637	221.51
445.096	227.41
445.555	229.41
446.014	237.21
446.473	228.01
446.932	239.21
447.391	233.51
447.849	243.91
448.308	225.81
448.767	234.31
449.226	244.61
449.685	243.51
450.143	255.51
450.602	237.11
451.061	227.81
451.519	242.81
451.978	243.31
452.436	242.31
452.895	247.41
453.353	260.41
453.812	244.61
454.27	249.81
454.729	249.21
455.187	251.11
455.646	254.61
456.104	262.01
456.562	268.51
457.021	273.81
457.479	272.91
457.937	287.61
458.395	272.11
458.854	253.51
459.312	267.41
459.77	286.71
460.228	269.41
460.686	253.51
461.144	261.61
461.602	253.31
462.06	250.21
462.518	267.41
462.976	263.51
463.434	270.51
463.892	279.71
464.35	282.61
464.808	303.41
465.266	268.21
465.724	270.91
466.181	283.11
466.639	277.41
467.097	296.81
467.555	306.61
468.012	306.81
468.47	309.91
468.928	339.71
469.385	352.11
469.843	362.11
470.3	363.01
470.758	370.21
471.215	404.01
471.673	417.71
472.13	410.91
472.588	434.41
473.045	382.01
473.503	393.21
473.96	407.31
474.417	410.51
474.875	446.11
475.332	491.21
475.789	477.11
476.246	469.21
476.704	501.51
477.161	520.01
477.618	533.81
478.075	568.61
478.532	633.11
478.989	706.51
479.446	827.11
479.903	791.41
480.36	823.41
480.817	877.11
481.274	978.61
481.731	1089.61
482.188	1183.71
482.645	1321.91
483.102	1425.31
483.558	1573.51
484.015	1631.31
484.472	1588.61
484.929	1533.71
485.385	1495.11
485.842	1443.11
486.299	1372.91
486.755	1318.81
487.212	1111.11
487.668	943.51
488.125	863.41
488.582	788.51
489.038	747.31
489.494	726.71
489.951	701.31
490.407	677.81
490.864	653.51
491.32	649.41
491.776	655.71
492.233	670.31
492.689	630.01
493.145	620.71
493.602	613.31
494.058	628.91
494.514	630.31
494.97	642.71
495.426	655.51
495.882	626.91
496.338	624.31
496.794	634.51
497.251	632.81
497.707	644.61
498.163	653.01
498.618	652.01
499.074	653.81
499.53	691.51
499.986	681.21
500.442	664.01
500.898	640.11
501.354	645.11
501.809	645.81
502.265	650.81
502.721	673.51
503.177	688.21
503.632	675.31
504.088	692.71
504.543	734.91
504.999	724.61
505.455	661.41
505.91	629.91
506.366	641.61
506.821	638.01
507.277	645.01
507.732	645.41
508.187	628.31
508.643	641.01
509.098	641.61
509.553	671.61
510.009	673.81
510.464	681.71
510.919	692.61
511.375	714.51
511.83	724.61
512.285	731.31
512.74	774.21
513.195	795.21
513.65	778.41
514.105	782.81
514.56	790.31
515.015	814.11
515.47	817.91
515.925	806.71
516.38	798.91
516.835	810.11
517.29	793.31
517.745	788.21
518.2	777.51
518.655	758.71
519.109	754.01
519.564	757.81
520.019	743.51
520.474	743.31
520.928	738.31
521.383	728.21
521.838	725.51
522.292	722.91
522.747	715.51
523.201	710.81
523.656	711.11
524.11	710.61
524.565	709.21
525.019	703.41
525.474	719.71
525.928	708.41
526.382	716.21
526.837	709.21
527.291	715.71
527.745	699.51
528.2	714.21
528.654	710.41
529.108	706.81
529.562	704.61
530.016	690.51
530.47	700.91
530.925	712.51
531.379	719.11
531.833	723.61
532.287	717.11
532.741	717.61
533.195	714.61
533.649	722.21
534.103	725.01
534.556	713.41
535.01	711.71
535.464	716.21
535.918	721.91
536.372	730.81
536.826	733.71
537.279	722.11
537.733	721.71
538.187	719.71
538.64	737.51
539.094	726.21
539.548	744.71
540.001	739.91
540.455	739.51
540.908	747.11
541.362	748.01
541.815	763.21
542.269	773.11
542.722	764.81
543.175	782.31
543.629	791.11
544.082	795.31
544.536	798.21
544.989	794.01
545.442	806.21
545.895	809.61
546.349	806.91
546.802	803.61
547.255	813.01
547.708	820.41
548.161	825.01
548.614	841.51
549.067	838.81
549.52	839.61
549.973	826.31
550.426	823.01
550.879	808.61
551.332	822.51
551.785	820.01
552.238	835.21
552.691	833.91
553.144	847.01
553.596	861.41
554.049	880.11
554.502	915.01
554.955	931.01
555.407	919.51
555.86	919.21
556.313	903.51
556.765	901.01
557.218	894.51
557.67	898.51
558.123	892.61
558.576	887.41
559.028	887.11
559.48	895.81
559.933	876.01
560.385	857.61
560.838	818.91
561.29	794.41
561.742	805.21
562.195	780.21
562.647	787.21
563.099	791.61
563.551	792.21
564.004	805.91
564.456	784.11
564.908	773.91
565.36	762.51
565.812	741.41
566.264	742.61
566.716	750.71
567.168	730.61
567.62	737.01
568.072	715.51
568.524	713.31
568.976	705.01
569.428	693.01
569.88	695.41
570.332	699.31
570.784	697.51
571.235	704.21
571.687	706.21
572.139	714.21
572.59	734.51
573.042	728.11
573.494	720.01
573.945	709.91
574.397	698.11
574.849	705.11
575.3	701.01
575.752	700.81
576.203	684.81
576.655	705.91
577.106	684.51
577.557	679.31
578.009	691.51
578.46	687.21
578.912	675.91
579.363	682.61
579.814	682.81
580.265	669.81
580.717	681.21
581.168	683.51
581.619	688.91
582.07	701.51
582.521	687.41
582.972	683.71
583.423	695.11
583.875	699.91
584.326	717.11
584.777	759.91
585.227	843.41
585.678	932.91
586.129	1034.61
586.58	1095.71
587.031	1178.81
587.482	1319.71
587.933	1521.71
588.384	1329.11
588.834	993.51
589.285	826.31
589.736	799.01
590.186	795.61
590.637	790.01
591.088	764.51
591.538	747.51
591.989	749.61
592.439	747.91
592.89	740.51
593.34	730.81
593.791	723.21
594.241	722.31
594.692	734.61
595.142	724.11
595.593	722.11
596.043	723.21
596.493	738.51
596.943	740.71
597.394	746.01
597.844	735.61
598.294	744.01
598.744	772.41
599.195	788.91
599.645	843.61
600.095	878.41
600.545	942.41
600.995	995.51
601.445	1053.91
601.895	1114.21
602.345	1160.51
602.795	1142.61
603.245	1088.81
603.695	1039.41
604.145	982.21
604.594	929.91
605.044	864.51
605.494	816.81
605.944	769.71
606.393	759.51
606.843	748.71
607.293	745.81
607.743	745.01
608.192	775.81
608.642	777.31
609.091	776.21
609.541	788.91
609.99	791.91
610.44	778.51
610.889	741.01
611.339	719.91
611.788	703.81
612.238	720.71
612.687	737.71
613.136	741.71
613.586	760.41
614.035	758.51
614.484	768.91
614.933	771.61
615.383	768.01
615.832	749.51
616.281	746.91
616.73	711.71
617.179	684.51
617.628	662.91
618.077	641.81
618.526	640.81
618.975	635.01
619.424	625.51
619.873	625.51
620.322	635.81
620.771	615.71
621.22	616.61
621.669	606.71
622.118	606.71
622.567	594.81
623.015	579.51
623.464	587.31
623.913	581.71
624.361	558.31
624.81	564.21
625.259	566.71
625.707	566.91
626.156	563.71
626.604	582.91
627.053	585.31
627.501	581.21
627.95	582.21
628.398	593.11
628.847	582.61
629.295	587.51
629.744	598.11
630.192	576.31
630.64	581.11
631.089	587.61
631.537	596.61
631.985	602.91
632.433	620.41
632.881	631.31
633.33	682.71
633.778	662.31
634.226	590.71
634.674	591.21
635.122	598.11
635.57	609.41
636.018	656.81
636.466	597.01
636.914	570.61
637.362	584.11
637.81	583.51
638.258	596.51
638.705	595.71
639.153	629.61
639.601	632.91
640.049	660.91
640.497	688.51
640.944	723.21
641.392	660.31
641.84	625.91
642.287	610.41
642.735	584.21
643.182	594.81
643.63	589.21
644.078	581.41
644.525	599.51
644.973	620.81
645.42	614.31
645.867	636.41
646.315	665.01
646.762	681.81
647.21	714.31
647.657	729.41
648.104	764.61
648.551	801.01
648.999	858.41
649.446	952.61
649.893	1052.61
650.34	1193.61
650.787	1429.91
651.234	1789.61
651.682	2347.11
652.129	3232.51
652.576	4650.51
653.023	6844.31
653.47	9332.21
653.917	11577.51
654.363	13231.61
654.81	14550.61
655.257	13841.01
655.704	9078.71
656.151	5375.21
656.598	3483.71
657.044	2463.11
657.491	1890.21
657.938	1515.81
658.385	1274.31
658.831	1108.81
659.278	985.71
659.724	883.31
660.171	808.81
660.618	737.11
661.064	714.41
661.511	689.81
661.957	666.21
662.404	659.91
662.85	669.81
663.296	645.91
663.743	578.51
664.189	560.01
664.635	555.61
665.082	547.91
665.528	542.11
665.974	542.31
666.42	519.11
666.867	522.71
667.313	501.31
667.759	495.51
668.205	490.91
668.651	495.91
669.097	495.01
669.543	521.31
669.989	487.71
670.435	462.41
670.881	457.61
671.327	461.61
671.773	491.01
672.219	508.81
672.665	561.81
673.11	602.91
673.556	642.61
674.002	680.91
674.448	667.21
674.893	561.41
675.339	488.61
675.785	454.61
676.23	430.31
676.676	398.01
677.122	396.31
677.567	381.11
678.013	376.21
678.458	365.31
678.904	373.41
679.349	356.71
679.794	365.81
680.24	365.51
680.685	356.51
681.131	355.71
681.576	354.81
682.021	364.71
682.466	358.31
682.912	350.41
683.357	360.81
683.802	389.01
684.247	427.41
684.692	468.61
685.137	519.41
685.583	558.21
686.028	579.61
686.473	537.31
686.918	453.01
687.363	430.71
687.807	400.81
688.252	383.01
688.697	364.81
689.142	350.21
689.587	344.71
690.032	332.11
690.477	353.01
690.921	366.41
691.366	395.51
691.811	417.61
692.255	450.41
692.7	473.81
693.145	521.91
693.589	736.21
694.034	1195.41
694.478	1582.31
694.923	1765.91
695.367	2301.81
695.812	1220.61
696.256	514.01
696.701	380.11
697.145	354.11
697.59	344.51
698.034	334.41
698.478	336.91
698.922	338.21
699.367	334.31
699.811	351.11
700.255	357.41
700.699	401.01
701.143	440.41
701.588	492.01
702.032	529.11
702.476	535.11
702.92	500.71
703.364	494.01
703.808	667.51
704.252	1087.91
704.696	1507.51
705.14	1701.61
705.584	2156.91
706.027	1087.91
706.471	536.71
706.915	408.71
707.359	365.51
707.803	330.11
708.246	315.41
708.69	325.41
709.134	322.81
709.577	327.41
710.021	324.71
710.465	306.41
710.908	311.91
711.352	309.31
711.795	322.21
712.239	369.81
712.682	400.21
713.126	431.91
713.569	476.81
714.012	379.41
714.456	328.71
714.899	307.71
715.342	284.31
715.786	268.61
716.229	271.11
716.672	262.01
717.115	262.01
717.558	257.11
718.002	264.01
718.445	267.31
718.888	295.51
719.331	304.31
719.774	319.51
720.217	323.21
720.66	294.71
721.103	270.41
721.546	262.81
721.989	257.71
722.432	246.51
722.874	246.11
723.317	238.71
723.76	244.91
724.203	268.51
724.645	336.11
725.088	465.91
725.531	593.11
725.974	656.91
726.416	565.91
726.859	313.21
727.301	256.31
727.744	243.61
728.187	236.41
728.629	251.11
729.071	254.81
729.514	264.31
729.956	277.51
730.399	296.51
730.841	297.41
731.283	288.11
731.726	274.21
732.168	267.01
732.61	281.81
733.053	302.11
733.495	327.31
733.937	366.71
734.379	407.91
734.821	455.41
735.263	571.91
735.705	883.01
736.148	1661.21
736.59	2674.81
737.032	3093.21
737.474	2520.91
737.916	830.41
738.357	436.21
738.799	341.61
739.241	313.71
739.683	292.31
740.125	302.21
740.567	307.11
741.008	320.41
741.45	320.61
741.892	330.01
742.334	361.21
742.775	361.01
743.217	352.61
743.658	277.21
744.1	261.91
744.542	277.81
744.983	322.81
745.425	350.61
745.866	352.01
746.307	293.71
746.749	294.91
747.19	338.31
747.632	477.01
748.073	939.01
748.514	1974.11
748.956	2920.41
749.397	3675.61
749.838	3043.21
750.279	2978.81
750.72	1528.31
751.162	566.91
751.603	329.71
752.044	261.61
752.485	225.71
752.926	218.11
753.367	205.71
753.808	201.71
754.249	191.11
754.69	194.71
755.131	189.31
755.572	187.61
756.013	183.01
756.453	182.41
756.894	194.51
757.335	200.31
757.776	200.31
758.216	204.41
758.657	204.31
759.098	205.61
759.538	234.01
759.979	277.71
760.42	390.71
760.86	750.51
761.301	1964.01
761.741	4629.91
762.182	6482.11
762.622	4543.01
763.063	1338.11
763.503	556.01
763.943	358.01
764.384	354.61
764.824	414.81
765.264	443.71
765.705	319.11
766.145	217.01
766.585	192.81
767.025	193.91
767.465	194.61
767.906	253.61
768.346	323.91
768.786	349.81
769.226	268.41
769.666	338.11
770.106	665.41
770.546	1640.81
770.986	2682.01
771.426	2388.61
771.866	807.31
772.306	335.81
772.745	214.51
773.185	185.21
773.625	179.21
774.065	170.41
774.505	200.41
774.944	326.41
775.384	703.51
775.824	1222.51
776.263	1179.21
776.703	508.41
777.142	226.21
777.582	161.01
778.021	143.81
778.461	146.61
778.9	142.71
779.34	143.01
779.779	125.41
780.219	114.71
780.658	110.01
781.097	117.11
781.537	123.01
781.976	112.11
782.415	112.21
782.855	110.71
783.294	106.91
783.733	113.71
784.172	110.81
784.611	103.11
785.05	110.51
785.489	116.91
785.928	116.91
786.367	126.01
786.806	121.21
787.245	132.11
787.684	144.81
788.123	151.91
788.562	138.31
789.001	131.71
789.44	123.91
789.879	122.01
790.317	123.81
790.756	132.81
791.195	134.01
791.634	154.31
792.072	208.61
792.511	388.91
792.95	1074.31
793.388	2198.01
793.827	1950.21
794.265	696.51
794.704	294.51
795.142	188.91
795.581	154.21
796.019	137.21
796.458	133.11
796.896	130.41
797.334	134.71
797.773	160.71
798.211	231.01
798.649	466.01
799.087	1065.51
799.526	1648.41
799.964	2070.41
800.402	2015.91
800.84	777.41
801.278	317.91
801.716	196.41
802.154	155.01
802.592	150.81
803.03	148.01
803.468	136.01
803.906	144.31
804.344	155.41
804.782	146.71
805.22	136.31
805.658	132.31
806.096	151.41
806.533	161.31
806.971	185.61
807.409	223.81
807.847	332.01
808.284	707.31
808.722	1956.41
809.16	3336.41
809.597	3254.81
810.035	5592.81
810.472	5745.41
810.91	2104.21
811.347	812.71
811.785	414.91
812.222	257.51
812.66	195.81
813.097	167.91
813.535	137.91
813.972	136.41
814.409	127.81
814.846	111.41
815.284	114.01
815.721	109.01
816.158	113.01
816.595	121.11
817.032	188.71
817.47	203.31
817.907	166.71
818.344	155.01
818.781	121.51
819.218	107.41
819.655	130.41
820.092	192.51
820.529	223.71
820.966	181.91
821.403	137.81
821.839	112.81
822.276	102.61
822.713	128.01
823.15	137.21
823.587	122.71
824.023	153.11
824.46	322.51
824.897	939.11
825.333	1364.41
825.77	588.21
826.206	240.51
826.643	143.51
827.08	106.61
827.516	90.71
827.953	77.41
828.389	77.91
828.825	74.91
829.262	68.61
829.698	67.11
830.135	66.61
830.571	68.61
831.007	66.11
831.443	68.41
831.88	66.01
832.316	71.71
832.752	74.11
833.188	69.51
833.624	62.81
834.06	70.21
834.497	78.61
834.933	72.31
835.369	85.61
835.805	78.31
836.241	81.91
836.677	91.51
837.112	96.81
837.548	107.11
837.984	139.61
838.42	215.31
838.856	525.01
839.292	1569.91
839.727	2325.41
840.163	1077.21
840.599	972.31
841.034	2084.71
841.47	2113.51
841.906	774.91
842.341	346.31
842.777	235.11
843.212	319.01
843.648	311.41
844.083	155.41
844.519	101.71
844.954	83.11
845.39	58.31
845.825	58.71
846.261	57.81
846.696	55.21
847.131	62.71
847.566	64.11
848.002	52.41
848.437	61.31
848.872	65.51
849.307	63.71
849.742	88.71
850.177	192.01
850.613	574.01
851.048	882.51
851.483	387.01
851.918	157.81
852.353	90.21
852.788	67.41
853.223	64.61
853.657	51.31
854.092	52.51
854.527	45.21
854.962	36.81
855.397	45.51
855.832	49.31
856.266	43.11
856.701	46.41
857.136	37.61
857.57	45.21
858.005	50.01
858.44	57.31
858.874	50.61
859.309	54.21
859.743	40.01
860.178	48.11
860.612	43.11
861.047	56.11
861.481	67.91
861.915	69.01
862.35	54.71
862.784	40.21
863.218	46.61
863.653	33.51
864.087	52.21
864.521	51.41
864.955	75.91
865.39	161.11
865.824	174.61
866.258	119.41
866.692	167.81
867.126	168.91
867.56	106.51
867.994	57.61
868.428	38.71
868.862	49.41
869.296	57.01
869.73	59.11
870.164	53.81
870.598	45.21
871.031	40.11
871.465	36.21
871.899	30.41
872.333	31.51
872.766	22.51
873.2	25.71
873.634	34.71
874.067	24.51
874.501	31.91
874.935	33.31
875.368	29.21
875.802	30.21
876.235	21.31
876.669	29.01
877.102	24.31
877.535	27.61
877.969	24.01
878.402	30.01
878.836	22.21
879.269	26.31
879.702	25.41
880.135	24.01
880.569	25.81
881.002	26.81
881.435	24.11
881.868	17.21
882.301	23.61
882.734	20.31
883.167	24.81
883.601	22.21
884.034	28.61
884.467	12.41
884.899	22.01
885.332	15.31
885.765	14.91
886.198	23.91
886.631	23.11
887.064	16.61
887.497	22.31
887.929	27.31
888.362	18.31
888.795	13.41
889.228	23.81
889.66	20.01
890.093	17.31
890.526	14.81
890.958	16.31
891.391	16.71
891.823	19.11
892.256	21.21
892.688	19.21
893.121	20.91
893.553	11.91
893.985	22.31
894.418	21.61
894.85	8.91
895.282	18.61
895.715	18.51
896.147	21.51
896.579	16.91
897.011	12.91
897.444	19.71
897.876	16.21
898.308	19.01
898.74	16.41
899.172	13.21
899.604	26.91
900.036	18.61
900.468	19.41
900.9	19.91
901.332	19.71
901.764	14.61
902.196	17.71
902.628	16.91
903.06	14.41
903.491	31.21
903.923	27.91
904.355	24.81
904.787	22.81
905.218	21.01
905.65	22.01
906.082	11.61
906.513	17.01
906.945	17.71
907.376	17.41
907.808	20.41
908.239	26.81
908.671	20.21
909.102	20.71
909.534	24.41
909.965	50.21
910.397	91.61
910.828	327.31
911.259	475.51
911.691	224.71
912.122	107.41
912.553	52.81
912.984	38.51
913.415	30.21
913.847	25.31
914.278	19.91
914.709	10.21
915.14	21.91
915.571	18.11
916.002	14.21
916.433	21.31
916.864	15.61
917.295	12.41
917.726	18.51
918.157	15.11
918.587	25.31
919.018	20.31
919.449	18.51
919.88	20.21
920.311	34.71
920.741	49.71
921.172	170.71
921.603	159.51
922.033	74.21
922.464	52.11
922.895	26.11
923.325	25.71
923.756	19.11
924.186	22.01
924.617	31.31
925.047	43.01
925.478	53.61
925.908	44.61
926.338	23.71
926.769	22.61
927.199	20.41
927.629	18.01
928.06	20.41
928.49	20.01
928.92	17.01
929.35	16.01
929.78	16.21
930.21	4.91
930.641	4.31
931.071	11.41
931.501	6.11
931.931	12.91
932.361	7.21
932.791	6.71
933.221	4.31
933.651	5.41
934.08	18.31
934.51	27.21
934.94	8.51
935.37	8.11
935.8	11.61
936.229	5.91
936.659	11.81
937.089	4.01
937.519	16.11
937.948	22.71
938.378	16.81
938.807	2.71
939.237	12.01
939.666	11.41
940.096	-2.99
940.525	5.31
940.955	6.71
941.384	5.81
941.814	0.41
942.243	0.01
942.672	8.31
943.102	5.31
943.531	2.61
943.96	2.91
944.39	2.61
944.819	4.71
945.248	7.61
945.677	-1.19
946.106	4.51
946.535	2.71
946.964	6.31
947.393	4.51
947.822	3.01
948.251	-1.09
948.68	8.01
949.109	7.91
949.538	7.31
949.967	3.51
950.396	3.91
950.825	-6.09
951.254	-1.09
951.682	-2.89
952.111	5.31
952.54	2.61
952.969	-4.19
953.397	-1.09
953.826	9.71
954.254	-4.89
954.683	3.81
955.112	-5.09
955.54	2.61
955.969	-2.79
956.397	4.61
956.826	-1.99
957.254	5.61
957.682	1.91
958.111	6.51
958.539	5.21
958.967	1.61
959.396	-0.29
959.824	-1.69
960.252	0.11
960.68	-5.89
961.109	-6.19
961.537	-2.39
961.965	1.71
962.393	3.71
962.821	-2.99
963.249	-4.69
963.677	6.21
964.105	6.71
964.533	45.01
964.961	46.31
965.389	21.01
965.817	6.81
966.245	3.21
966.672	3.61
967.1	-11.49
967.528	4.71
967.956	3.01
968.383	0.21
968.811	-0.29
969.239	1.31
969.666	-5.19
970.094	0.01
970.522	2.71
970.949	-0.29
971.377	0.01
971.804	2.11
972.232	-4.89
972.659	-1.79
973.087	-2.19
973.514	0.71
973.941	-4.79
974.369	5.71
974.796	5.71
975.223	-2.99
975.651	-3.49
976.078	3.41
976.505	-2.59
976.932	0.71
977.359	12.61
977.786	15.61
978.214	3.41
978.641	1.91
979.068	1.41
979.495	-1.29
979.922	-0.49
980.349	2.81
980.776	3.41
981.202	2.61
981.629	3.11
982.056	3.31
982.483	-0.19
982.91	10.41
983.337	-6.99
983.763	4.21
984.19	-7.19
984.617	-1.99
985.043	-5.19
985.47	1.71
985.897	-0.69
986.323	-7.99
986.75	6.11
987.176	-1.59
987.603	-1.59
988.029	-0.59
988.456	-3.89
988.882	0.31
989.308	-6.89
989.735	-4.99
990.161	1.81
990.587	-8.39
991.014	3.81
991.44	13.71
991.866	0.51
992.292	-3.19
992.719	3.61
993.145	5.01
993.571	-4.39
993.997	0.51
994.423	-2.29
994.849	-5.09
995.275	2.11
995.701	1.91
996.127	0.11
996.553	-2.69
996.979	-2.89
997.405	-3.09
997.83	-8.69
998.256	-10.29
998.682	-5.19
999.108	-7.79
999.534	3.51
999.959	0.11
1000.385	-6.49
1000.811	-0.79
1001.236	-10.69
1001.662	-8.89
1002.087	-11.09
1002.513	1.21
1002.938	0.31
1003.364	3.11
1003.789	-1.69
1004.215	-4.69
1004.64	2.31
1005.066	0.11
1005.491	1.21
1005.916	2.81
1006.342	-3.39
1006.767	-9.59
1007.192	0.51
1007.617	-5.19
1008.042	-0.79
1008.468	-5.19
1008.893	-3.39
1009.318	-2.19
1009.743	3.41
1010.168	5.01
1010.593	-1.49
1011.018	-6.29
1011.443	-4.99
1011.868	0.71
1012.293	-2.49
1012.718	-0.59
1013.143	3.51
1013.567	0.71
1013.992	-1.69
1014.417	-13.09
1014.842	2.71
1015.267	-1.09
1015.691	-4.89
1016.116	8.41
1016.541	-2.09
1016.965	1.31
1017.39	0.61
1017.814	-4.49
1018.239	-1.59
1018.663	-2.69
1019.088	-16.19
1019.512	-0.19
1019.937	4.61
1020.361	-5.49
1020.785	-8.69
1021.21	-6.79
1021.634	2.41
1022.058	-3.59
1022.483	2.61
1022.907	-3.09
1023.331	-6.29
1023.755	-3.99
1024.179	1.51
1024.604	-8.69
1025.028	-6.19
1025.452	-3.69
1025.876	-1.89
1026.3	-0.69
1026.724	-8.99
1027.148	-4.19
1027.572	-0.39
1027.996	-9.69
1028.42	-3.29
1028.843	-1.29
1029.267	-6.09
1029.691	-0.89
1030.115	-5.79
1030.539	-6.39
1030.962	-1.79
1031.386	-6.89
1031.81	2.01
1032.233	1.41
1032.657	-2.99
1033.08	-1.59
1033.504	-3.49
1033.927	-0.49
1034.351	6.41
1034.774	-5.99
1035.198	-1.89
1035.621	-8.59
1036.045	-6.59
1036.468	0.11
1036.891	-3.39
1037.315	-6.39
1037.738	-10.39
1038.161	0.61
1038.584	-7.29
1039.008	-8.29
1039.431	-5.09
1039.854	2.51
1040.277	-5.19
1040.7	-7.09
1041.123	1.51
1041.546	-6.39
1041.969	-4.49
1042.392	-3.69
1042.815	-4.19
1043.238	0.31
1043.661	1.91
1044.084	-3.59
1044.507	-6.19
1044.93	-8.69
1045.352	-5.39
1045.775	1.41
1046.198	-0.49
1046.621	0.81
1047.043	-0.99
1047.466	5.81
1047.889	-4.59
1048.311	-5.99
1048.734	4.61
1049.156	-4.09
1049.579	0.51
1050.001	1.11
1050.424	1.21
1050.846	-3.39
1051.269	-4.59
1051.691	-9.59
1052.113	-5.49
1052.536	-2.59
1052.958	-3.69
1053.38	-1.89
1053.802	-13.79
1054.225	3.01
1054.647	-5.09
1055.069	-3.69
1055.491	8.31
1055.913	-2.99
1056.335	-0.19
1056.757	-2.39
1057.179	-5.89
1057.601	-0.09
1058.023	-7.89
1058.445	-2.19
1058.867	-10.19
1059.289	-4.59
1059.711	-2.09
1060.133	-2.49
1060.555	-8.09
1060.976	-3.29
1061.398	0.81
1061.82	-8.09
1062.241	-2.29
1062.663	-6.99
1063.085	-4.69
1063.506	-3.39
1063.928	-3.99
1064.35	-0.99
1064.771	-12.79
1065.193	-5.59
1065.614	-8.29
1066.035	-3.09
1066.457	-2.39
1066.878	2.11
1067.3	-6.29
1067.721	-3.09
1068.142	-3.89
1068.564	-6.29
1068.985	-4.79
1069.406	-4.39
1069.827	-4.09
1070.248	2.71
1070.67	-5.49
1071.091	-6.89
1071.512	-5.99
1071.933	-8.19
1072.354	-7.19
1072.775	-3.39
1073.196	-8.29
1073.617	-5.69
1074.038	-12.69
1074.459	-6.09
1074.88	-8.49
1075.3	-0.99
1075.721	-9.09
1076.142	-0.69
1076.563	-0.99
1076.983	-12.89
1077.404	-6.99
1077.825	-17.89
1078.246	-4.69
1078.666	-6.99
1079.087	-6.29
1079.507	-4.39
1079.928	-1.89
1080.348	2.41
1080.769	-5.49
1081.189	-0.99
1081.61	0.51
1082.03	-4.89
1082.451	-6.99
1082.871	0.31
1083.291	-7.49
1083.711	-8.89
1084.132	-2.59
1084.552	-7.39
1084.972	2.21
1085.392	-6.99
1085.813	-5.69
1086.233	-5.99
1086.653	-7.09
1087.073	-3.09
1087.493	-7.49
1087.913	-6.29
1088.333	-9.69
1088.753	-1.59
1089.173	4.41
1089.593	-4.59
1090.013	2.41
1090.433	-1.89
1090.852	-0.99
1091.272	-2.09
1091.692	0.11
1092.112	-5.09
1092.531	-3.69
1092.951	-18.19
1093.371	-6.39
1093.79	7.71
1094.21	-12.09
1094.63	-5.09
1095.049	-4.19
1095.469	-0.29
1095.888	-2.19
1096.308	4.11
1096.727	2.41
1097.146	-1.39
1097.566	0.11
1097.985	-4.49
1098.405	4.21
1098.824	-4.29
1099.243	-5.59
1099.662	-12.29
1100.082	-5.79
1100.501	0.21
1100.92	-10.89
1101.339	-4.49
1101.758	-5.09
