Data from 20171114-ORNL-Ar_H_NY_Subt18_08-06-07-358.txt Node
Date: Tue Nov 14 08:06:07 EST 2017
User: Ender
Spectrometer: HR+D1039
Trigger mode: 0
Integration Time (sec): 2.730000E-2
Scans to average: 10
Electric dark correction enabled: true
Nonlinearity correction enabled: false
Boxcar width: 0
XAxis mode: Wavelengths
Number of Pixels in Spectrum: 2048
>>>>>Begin Spectral Data<<<<<
187.836	-4.31
188.309	-4.31
188.782	-4.31
189.255	-0.81
189.728	-2.01
190.201	6.09
190.674	-1.01
191.147	3.89
191.619	-0.61
192.092	3.79
192.565	1.59
193.038	-4.31
193.511	-2.11
193.984	-0.21
194.456	-0.51
194.929	1.89
195.402	-1.01
195.874	-0.41
196.347	-3.51
196.82	-8.01
197.292	9.09
197.765	-7.71
198.237	-8.61
198.71	1.89
199.182	-3.91
199.655	-1.71
200.127	-0.81
200.6	-5.41
201.072	-1.81
201.544	-4.71
202.017	-1.41
202.489	1.99
202.961	-3.81
203.433	-2.61
203.906	-5.41
204.378	-5.11
204.85	-6.41
205.322	-8.91
205.794	-1.81
206.266	-7.61
206.739	-6.51
207.211	1.49
207.683	-5.41
208.155	-11.91
208.627	-5.71
209.099	-2.51
209.57	-10.51
210.042	0.69
210.514	-6.61
210.986	-4.01
211.458	-12.01
211.93	-0.91
212.402	1.59
212.873	-1.91
213.345	-8.21
213.817	-18.31
214.288	-9.61
214.76	-6.71
215.232	-3.51
215.703	1.99
216.175	3.59
216.646	-1.11
217.118	-5.11
217.589	-10.21
218.061	-0.11
218.532	-6.41
219.004	1.29
219.475	-2.91
219.946	-0.91
220.418	-11.31
220.889	3.49
221.36	1.99
221.832	-0.41
222.303	-8.61
222.774	-4.71
223.245	-6.81
223.717	-4.81
224.188	-2.41
224.659	-6.61
225.13	-4.61
225.601	-6.91
226.072	-7.21
226.543	-1.41
227.014	5.69
227.485	-0.21
227.956	-6.01
228.427	-4.61
228.898	-2.41
229.369	1.69
229.839	-0.21
230.31	-11.31
230.781	4.09
231.252	-1.61
231.722	-2.31
232.193	-3.31
232.664	0.19
233.135	5.59
233.605	-2.91
234.076	-7.91
234.546	0.59
235.017	-0.11
235.487	2.49
235.958	-2.51
236.428	-0.61
236.899	0.99
237.369	0.29
237.84	-6.91
238.31	4.39
238.78	-1.51
239.251	-4.61
239.721	1.19
240.191	-1.51
240.662	-8.91
241.132	0.29
241.602	-6.01
242.072	-2.31
242.542	6.59
243.013	2.49
243.483	5.69
243.953	-1.21
244.423	0.29
244.893	-2.81
245.363	5.59
245.833	5.19
246.303	-2.51
246.773	6.89
247.243	5.49
247.712	4.09
248.182	6.09
248.652	7.79
249.122	-2.81
249.592	12.99
250.061	20.89
250.531	29.09
251.001	13.99
251.471	24.89
251.94	18.79
252.41	7.09
252.879	-1.91
253.349	6.39
253.818	7.09
254.288	5.09
254.757	6.99
255.227	-0.31
255.696	1.89
256.166	9.49
256.635	8.39
257.105	9.89
257.574	6.09
258.043	11.09
258.513	10.99
258.982	14.19
259.451	4.99
259.92	14.29
260.389	10.19
260.859	11.49
261.328	15.39
261.797	17.19
262.266	13.49
262.735	14.09
263.204	6.09
263.673	-0.51
264.142	8.89
264.611	-1.61
265.08	-3.41
265.549	-0.41
266.018	3.99
266.487	1.99
266.955	-2.71
267.424	5.69
267.893	5.99
268.362	-3.01
268.83	0.79
269.299	7.79
269.768	4.99
270.236	4.49
270.705	5.49
271.174	2.09
271.642	9.19
272.111	7.79
272.579	18.89
273.048	19.29
273.516	27.99
273.985	26.99
274.453	26.69
274.922	21.49
275.39	12.19
275.858	8.49
276.327	13.69
276.795	21.09
277.263	9.89
277.731	34.49
278.2	57.69
278.668	61.49
279.136	48.49
279.604	20.19
280.072	14.79
280.54	8.69
281.008	8.29
281.477	14.39
281.945	15.09
282.413	15.39
282.881	15.69
283.348	9.49
283.816	13.59
284.284	17.79
284.752	25.89
285.22	14.59
285.688	18.39
286.156	12.99
286.623	50.09
287.091	50.29
287.559	29.39
288.026	13.19
288.494	16.49
288.962	9.29
289.429	10.09
289.897	17.99
290.364	18.49
290.832	21.39
291.3	18.99
291.767	15.99
292.234	19.89
292.702	15.99
293.169	22.19
293.637	21.39
294.104	27.19
294.571	14.19
295.039	12.99
295.506	14.99
295.973	23.49
296.44	18.49
296.908	21.49
297.375	18.49
297.842	18.09
298.309	16.39
298.776	16.69
299.243	21.99
299.71	13.29
300.177	20.69
300.644	21.29
301.111	22.49
301.578	29.89
302.045	23.69
302.512	21.09
302.979	21.49
303.446	24.49
303.913	16.89
304.379	19.39
304.846	26.89
305.313	28.39
305.78	22.29
306.246	23.79
306.713	28.89
307.18	27.99
307.646	33.09
308.113	25.89
308.579	24.39
309.046	21.19
309.512	24.69
309.979	22.19
310.445	28.09
310.912	31.99
311.378	32.79
311.845	28.79
312.311	34.59
312.777	31.59
313.244	30.89
313.71	37.49
314.176	28.49
314.642	34.29
315.109	29.89
315.575	30.99
316.041	37.79
316.507	30.79
316.973	38.79
317.439	36.59
317.905	39.19
318.371	36.79
318.837	29.09
319.303	36.99
319.769	39.49
320.235	39.19
320.701	32.49
321.167	41.49
321.633	32.49
322.099	38.39
322.564	50.09
323.03	42.09
323.496	43.19
323.962	41.69
324.427	35.09
324.893	41.49
325.359	40.29
325.824	35.69
326.29	37.39
326.755	39.39
327.221	42.99
327.686	47.39
328.152	50.89
328.617	45.39
329.083	47.09
329.548	56.39
330.014	50.39
330.479	42.79
330.944	46.29
331.41	38.69
331.875	44.49
332.34	50.49
332.805	47.19
333.271	49.39
333.736	51.29
334.201	52.89
334.666	54.19
335.131	53.19
335.596	56.19
336.061	54.49
336.526	42.79
336.991	51.09
337.456	57.39
337.921	53.99
338.386	39.69
338.851	40.49
339.316	47.19
339.781	47.99
340.246	55.59
340.711	46.29
341.175	58.39
341.64	46.29
342.105	51.49
342.569	58.89
343.034	67.49
343.499	58.59
343.963	56.39
344.428	65.79
344.893	67.49
345.357	59.59
345.822	65.79
346.286	65.19
346.751	76.19
347.215	67.59
347.679	73.89
348.144	96.49
348.608	86.19
349.073	74.79
349.537	80.19
350.001	80.89
350.465	90.09
350.93	79.79
351.394	80.89
351.858	76.09
352.322	89.39
352.786	83.79
353.25	105.49
353.715	113.79
354.179	98.89
354.643	124.49
355.107	134.19
355.571	108.39
356.035	112.99
356.498	119.89
356.962	127.09
357.426	133.49
357.89	118.09
358.354	93.39
358.818	80.89
359.281	89.29
359.745	75.89
360.209	70.29
360.673	73.29
361.136	75.59
361.6	83.19
362.064	83.49
362.527	86.39
362.991	90.79
363.454	81.49
363.918	81.39
364.381	87.49
364.845	89.29
365.308	84.19
365.772	95.39
366.235	82.79
366.698	84.29
367.162	81.39
367.625	92.59
368.088	95.39
368.552	98.09
369.015	92.69
369.478	102.09
369.941	107.89
370.404	99.09
370.867	105.09
371.331	111.79
371.794	110.39
372.257	112.69
372.72	121.49
373.183	117.69
373.646	102.59
374.109	103.79
374.572	110.99
375.035	113.49
375.497	107.69
375.96	111.09
376.423	101.69
376.886	113.19
377.349	116.99
377.811	104.79
378.274	107.49
378.737	109.09
379.199	110.59
379.662	116.49
380.125	122.89
380.587	124.79
381.05	118.59
381.512	129.09
381.975	139.99
382.437	132.59
382.9	118.69
383.362	133.69
383.825	147.69
384.287	152.69
384.75	141.79
385.212	134.79
385.674	144.39
386.136	142.79
386.599	131.09
387.061	129.39
387.523	129.29
387.985	146.19
388.447	140.89
388.91	153.79
389.372	162.69
389.834	152.99
390.296	140.79
390.758	158.49
391.22	165.69
391.682	216.59
392.144	296.69
392.606	236.29
393.068	172.89
393.529	164.19
393.991	163.69
394.453	159.69
394.915	157.49
395.377	195.99
395.838	220.79
396.3	159.39
396.762	143.49
397.224	139.19
397.685	132.69
398.147	132.29
398.608	128.19
399.07	132.69
399.531	138.19
399.993	148.09
400.454	152.59
400.916	144.19
401.377	146.99
401.839	156.29
402.3	156.19
402.762	163.99
403.223	187.29
403.684	169.89
404.145	162.29
404.607	165.99
405.068	166.09
405.529	171.19
405.99	190.09
406.451	183.89
406.913	182.39
407.374	171.89
407.835	170.59
408.296	171.19
408.757	174.79
409.218	190.69
409.679	180.29
410.14	183.69
410.601	182.79
411.062	175.99
411.522	191.89
411.983	199.79
412.444	185.09
412.905	184.99
413.366	185.79
413.826	200.59
414.287	219.59
414.748	265.89
415.208	252.59
415.669	221.79
416.13	207.69
416.59	208.69
417.051	216.89
417.511	230.19
417.972	237.39
418.432	252.69
418.893	290.39
419.353	257.69
419.814	197.09
420.274	192.69
420.734	187.29
421.195	208.19
421.655	208.29
422.115	196.59
422.576	196.69
423.036	206.69
423.496	204.99
423.956	221.09
424.416	235.79
424.876	273.39
425.336	261.99
425.797	275.59
426.257	261.79
426.717	246.29
427.177	242.99
427.637	226.79
428.097	241.49
428.556	251.79
429.016	287.29
429.476	271.09
429.936	280.59
430.396	276.89
430.856	298.49
431.315	325.59
431.775	356.29
432.235	398.79
432.694	357.19
433.154	372.19
433.614	401.19
434.073	348.49
434.533	297.49
434.993	282.29
435.452	286.99
435.912	305.09
436.371	300.69
436.83	290.69
437.29	283.39
437.749	253.39
438.209	247.29
438.668	284.79
439.127	297.19
439.587	266.99
440.046	253.49
440.505	269.69
440.964	294.49
441.424	332.39
441.883	322.29
442.342	265.59
442.801	230.29
443.26	229.19
443.719	230.39
444.178	224.09
444.637	211.59
445.096	227.19
445.555	226.99
446.014	235.49
446.473	237.99
446.932	237.39
447.391	234.19
447.849	235.99
448.308	227.49
448.767	224.99
449.226	238.09
449.685	247.29
450.143	250.09
450.602	247.29
451.061	238.59
451.519	244.29
451.978	241.19
452.436	250.29
452.895	246.79
453.353	261.49
453.812	249.59
454.27	245.49
454.729	245.99
455.187	248.89
455.646	251.29
456.104	257.49
456.562	268.99
457.021	278.99
457.479	270.39
457.937	279.39
458.395	270.19
458.854	263.19
459.312	262.79
459.77	283.29
460.228	268.39
460.686	253.39
461.144	252.29
461.602	255.29
462.06	238.59
462.518	261.59
462.976	273.89
463.434	265.89
463.892	278.39
464.35	279.49
464.808	298.19
465.266	268.89
465.724	282.79
466.181	282.39
466.639	279.79
467.097	299.19
467.555	301.79
468.012	308.99
468.47	319.09
468.928	339.49
469.385	348.89
469.843	358.59
470.3	361.79
470.758	376.19
471.215	391.99
471.673	420.09
472.13	419.29
472.588	428.89
473.045	382.39
473.503	395.29
473.96	409.99
474.417	414.69
474.875	446.49
475.332	484.29
475.789	469.69
476.246	486.39
476.704	501.19
477.161	521.79
477.618	538.79
478.075	578.69
478.532	632.49
478.989	716.69
479.446	839.29
479.903	791.39
480.36	832.89
480.817	896.79
481.274	1001.39
481.731	1099.29
482.188	1197.89
482.645	1339.09
483.102	1459.99
483.558	1584.99
484.015	1633.29
484.472	1623.09
484.929	1551.69
485.385	1508.79
485.842	1478.39
486.299	1402.09
486.755	1329.39
487.212	1120.89
487.668	944.79
488.125	876.09
488.582	801.09
489.038	768.09
489.494	730.09
489.951	714.19
490.407	691.79
490.864	674.49
491.32	662.29
491.776	659.69
492.233	660.29
492.689	629.69
493.145	618.99
493.602	622.69
494.058	637.09
494.514	631.79
494.97	657.69
495.426	672.49
495.882	641.69
496.338	627.79
496.794	652.19
497.251	637.89
497.707	659.39
498.163	658.89
498.618	673.59
499.074	668.09
499.53	695.69
499.986	697.79
500.442	685.29
500.898	661.19
501.354	648.99
501.809	652.59
502.265	661.39
502.721	687.29
503.177	687.49
503.632	683.89
504.088	697.39
504.543	733.79
504.999	726.49
505.455	687.89
505.91	648.99
506.366	651.59
506.821	643.49
507.277	636.39
507.732	638.69
508.187	636.49
508.643	649.69
509.098	649.19
509.553	671.69
510.009	681.29
510.464	692.69
510.919	709.79
511.375	711.59
511.83	738.99
512.285	752.99
512.74	786.19
513.195	812.09
513.65	795.09
514.105	791.29
514.56	795.49
515.015	812.29
515.47	836.99
515.925	814.79
516.38	813.59
516.835	822.09
517.29	805.89
517.745	794.29
518.2	790.29
518.655	778.99
519.109	773.29
519.564	762.29
520.019	756.19
520.474	750.09
520.928	748.29
521.383	741.99
521.838	731.19
522.292	737.79
522.747	728.29
523.201	716.89
523.656	716.29
524.11	713.29
524.565	708.79
525.019	715.69
525.474	719.79
525.928	732.49
526.382	714.59
526.837	717.59
527.291	722.79
527.745	712.19
528.2	706.19
528.654	713.09
529.108	718.29
529.562	716.59
530.016	714.59
530.47	708.99
530.925	713.79
531.379	716.29
531.833	726.19
532.287	725.19
532.741	733.49
533.195	727.69
533.649	736.29
534.103	739.39
534.556	727.39
535.01	739.59
535.464	736.19
535.918	739.39
536.372	745.39
536.826	740.99
537.279	723.99
537.733	730.49
538.187	732.09
538.64	742.59
539.094	748.69
539.548	750.29
540.001	744.09
540.455	752.19
540.908	755.99
541.362	753.19
541.815	768.69
542.269	778.29
542.722	774.39
543.175	795.59
543.629	789.19
544.082	806.49
544.536	807.79
544.989	809.99
545.442	812.69
545.895	810.19
546.349	819.19
546.802	819.79
547.255	817.79
547.708	819.49
548.161	849.39
548.614	851.89
549.067	865.19
549.52	848.79
549.973	833.09
550.426	829.09
550.879	816.19
551.332	829.29
551.785	825.09
552.238	817.39
552.691	842.59
553.144	852.29
553.596	870.99
554.049	892.69
554.502	924.49
554.955	926.99
555.407	936.09
555.86	916.49
556.313	909.79
556.765	911.39
557.218	903.79
557.67	899.19
558.123	901.79
558.576	900.59
559.028	893.59
559.48	902.89
559.933	892.29
560.385	868.59
560.838	840.99
561.29	809.49
561.742	799.69
562.195	787.59
562.647	779.69
563.099	791.69
563.551	786.09
564.004	810.49
564.456	788.39
564.908	787.09
565.36	763.29
565.812	751.79
566.264	742.39
566.716	736.39
567.168	731.59
567.62	742.59
568.072	721.79
568.524	718.89
568.976	711.89
569.428	689.29
569.88	684.99
570.332	697.39
570.784	697.69
571.235	709.29
571.687	710.09
572.139	723.49
572.59	728.09
573.042	732.59
573.494	724.99
573.945	728.39
574.397	707.49
574.849	702.39
575.3	712.09
575.752	706.49
576.203	701.09
576.655	707.19
577.106	686.49
577.557	676.59
578.009	688.19
578.46	691.89
578.912	681.39
579.363	685.29
579.814	685.59
580.265	678.29
580.717	678.09
581.168	684.69
581.619	701.49
582.07	696.59
582.521	694.29
582.972	687.89
583.423	691.49
583.875	695.59
584.326	707.09
584.777	756.99
585.227	842.29
585.678	922.19
586.129	1014.19
586.58	1079.19
587.031	1166.29
587.482	1343.39
587.933	1503.49
588.384	1320.99
588.834	984.49
589.285	828.29
589.736	801.09
590.186	798.19
590.637	784.49
591.088	768.39
591.538	754.89
591.989	746.19
592.439	745.19
592.89	742.19
593.34	719.89
593.791	728.59
594.241	724.89
594.692	718.79
595.142	721.89
595.593	717.19
596.043	720.19
596.493	725.59
596.943	730.19
597.394	733.39
597.844	731.99
598.294	746.49
598.744	756.49
599.195	796.59
599.645	835.49
600.095	869.19
600.545	934.99
600.995	976.19
601.445	1045.39
601.895	1109.39
602.345	1158.09
602.795	1133.59
603.245	1082.59
603.695	1031.49
604.145	976.39
604.594	928.59
605.044	877.69
605.494	815.89
605.944	765.79
606.393	750.79
606.843	735.69
607.293	745.29
607.743	740.29
608.192	765.59
608.642	779.09
609.091	782.69
609.541	778.59
609.99	781.49
610.44	782.99
610.889	728.09
611.339	712.39
611.788	698.89
612.238	719.19
612.687	729.39
613.136	730.89
613.586	755.59
614.035	744.89
614.484	765.09
614.933	769.79
615.383	763.99
615.832	753.69
616.281	737.39
616.73	698.39
617.179	678.29
617.628	669.39
618.077	643.39
618.526	634.39
618.975	629.89
619.424	622.19
619.873	617.29
620.322	635.49
620.771	612.49
621.22	606.39
621.669	600.69
622.118	593.59
622.567	587.19
623.015	583.19
623.464	573.59
623.913	570.59
624.361	561.09
624.81	554.89
625.259	557.49
625.707	559.39
626.156	554.29
626.604	571.99
627.053	564.29
627.501	569.09
627.95	577.79
628.398	589.59
628.847	583.89
629.295	585.09
629.744	581.39
630.192	580.59
630.64	580.09
631.089	569.69
631.537	574.59
631.985	589.59
632.433	607.29
632.881	616.19
633.33	667.89
633.778	641.99
634.226	583.39
634.674	580.59
635.122	585.19
635.57	607.19
636.018	631.69
636.466	589.99
636.914	564.09
637.362	584.49
637.81	596.19
638.258	595.59
638.705	590.09
639.153	616.79
639.601	629.49
640.049	653.89
640.497	682.79
640.944	702.49
641.392	648.59
641.84	623.99
642.287	592.49
642.735	579.39
643.182	583.89
643.63	578.09
644.078	579.19
644.525	594.69
644.973	598.19
645.42	614.79
645.867	632.09
646.315	654.29
646.762	675.49
647.21	711.69
647.657	717.49
648.104	764.79
648.551	769.69
648.999	837.29
649.446	922.99
649.893	1027.09
650.34	1169.49
650.787	1408.69
651.234	1724.49
651.682	2259.49
652.129	3120.19
652.576	4483.99
653.023	6604.69
653.47	9059.09
653.917	11300.59
654.363	13095.79
654.81	14457.69
655.257	13745.99
655.704	9022.59
656.151	5325.79
656.598	3460.99
657.044	2441.09
657.491	1883.29
657.938	1489.49
658.385	1244.09
658.831	1095.99
659.278	980.09
659.724	865.49
660.171	795.39
660.618	731.29
661.064	687.49
661.511	668.29
661.957	657.09
662.404	654.59
662.85	661.99
663.296	624.59
663.743	563.69
664.189	536.99
664.635	539.69
665.082	539.79
665.528	532.79
665.974	521.79
666.42	517.09
666.867	508.19
667.313	492.59
667.759	480.59
668.205	481.49
668.651	481.39
669.097	487.69
669.543	505.89
669.989	476.49
670.435	456.09
670.881	440.39
671.327	448.59
671.773	470.69
672.219	485.59
672.665	548.09
673.11	589.79
673.556	628.39
674.002	672.99
674.448	664.39
674.893	558.29
675.339	478.59
675.785	445.69
676.23	419.69
676.676	396.09
677.122	382.49
677.567	380.29
678.013	371.59
678.458	370.39
678.904	362.49
679.349	351.49
679.794	352.49
680.24	342.39
680.685	350.09
681.131	348.29
681.576	348.89
682.021	358.09
682.466	347.69
682.912	353.09
683.357	364.49
683.802	383.69
684.247	413.09
684.692	454.19
685.137	492.39
685.583	535.49
686.028	562.29
686.473	518.99
686.918	448.39
687.363	414.19
687.807	394.49
688.252	360.19
688.697	350.99
689.142	335.69
689.587	336.79
690.032	330.89
690.477	336.39
690.921	346.09
691.366	378.79
691.811	399.99
692.255	429.09
692.7	468.09
693.145	494.49
693.589	683.19
694.034	1110.49
694.478	1526.59
694.923	1732.49
695.367	2281.39
695.812	1189.69
696.256	499.49
696.701	371.79
697.145	338.69
697.59	328.39
698.034	326.59
698.478	324.79
698.922	327.79
699.367	331.09
699.811	343.39
700.255	360.69
700.699	387.69
701.143	429.19
701.588	472.79
702.032	514.69
702.476	518.29
702.92	489.89
703.364	486.09
703.808	625.29
704.252	1015.59
704.696	1442.69
705.14	1668.49
705.584	2130.99
706.027	1061.79
706.471	518.79
706.915	389.09
707.359	354.99
707.803	314.89
708.246	304.89
708.69	315.29
709.134	315.99
709.577	308.59
710.021	314.29
710.465	303.49
710.908	298.79
711.352	300.09
711.795	304.49
712.239	355.29
712.682	387.09
713.126	419.09
713.569	474.49
714.012	368.39
714.456	318.59
714.899	304.69
715.342	271.49
715.786	258.49
716.229	260.69
716.672	251.39
717.115	249.09
717.558	242.29
718.002	255.79
718.445	261.19
718.888	283.69
719.331	292.29
719.774	304.49
720.217	303.69
720.66	280.39
721.103	263.39
721.546	252.89
721.989	254.59
722.432	232.49
722.874	235.49
723.317	228.69
723.76	237.79
724.203	250.29
724.645	310.79
725.088	439.69
725.531	565.49
725.974	650.49
726.416	540.39
726.859	302.09
727.301	245.89
727.744	235.79
728.187	227.39
728.629	236.99
729.071	244.39
729.514	250.39
729.956	264.29
730.399	285.69
730.841	287.89
731.283	273.89
731.726	259.89
732.168	260.49
732.61	269.19
733.053	287.89
733.495	314.09
733.937	342.69
734.379	389.19
734.821	432.49
735.263	539.89
735.705	818.09
736.148	1560.69
736.59	2572.29
737.032	3042.09
737.474	2473.09
737.916	801.89
738.357	416.99
738.799	323.69
739.241	290.89
739.683	282.39
740.125	286.39
740.567	290.99
741.008	309.39
741.45	311.99
741.892	311.59
742.334	347.99
742.775	353.39
743.217	333.59
743.658	267.49
744.1	244.39
744.542	255.49
744.983	310.79
745.425	345.59
745.866	340.79
746.307	277.69
746.749	274.09
747.19	321.29
747.632	445.89
748.073	860.19
748.514	1826.09
748.956	2829.09
749.397	3550.59
749.838	2938.19
750.279	2958.39
750.72	1483.79
751.162	539.69
751.603	310.99
752.044	253.89
752.485	217.99
752.926	208.79
753.367	206.79
753.808	185.59
754.249	189.49
754.69	186.89
755.131	181.19
755.572	179.19
756.013	176.69
756.453	181.29
756.894	185.09
757.335	191.39
757.776	194.09
758.216	193.79
758.657	196.99
759.098	207.49
759.538	229.19
759.979	263.49
760.42	366.99
760.86	688.79
761.301	1777.59
761.741	4377.59
762.182	6427.69
762.622	4511.09
763.063	1297.69
763.503	534.79
763.943	355.29
764.384	333.79
764.824	406.79
765.264	444.39
765.705	303.59
766.145	209.39
766.585	184.99
767.025	175.69
767.465	181.69
767.906	240.59
768.346	319.29
768.786	348.99
769.226	260.89
769.666	317.89
770.106	611.89
770.546	1534.59
770.986	2650.49
771.426	2374.79
771.866	788.19
772.306	315.49
772.745	211.39
773.185	169.79
773.625	168.09
774.065	167.69
774.505	195.89
774.944	296.49
775.384	644.89
775.824	1183.09
776.263	1150.69
776.703	496.89
777.142	216.39
777.582	156.39
778.021	140.89
778.461	137.99
778.9	144.09
779.34	130.99
779.779	109.39
780.219	109.39
780.658	111.19
781.097	112.99
781.537	114.99
781.976	112.79
782.415	108.09
782.855	103.09
783.294	98.99
783.733	105.09
784.172	105.99
784.611	103.19
785.05	107.19
785.489	112.99
785.928	118.19
786.367	116.49
786.806	115.19
787.245	129.29
787.684	131.29
788.123	148.39
788.562	131.49
789.001	123.59
789.44	121.49
789.879	121.59
790.317	118.99
790.756	125.49
791.195	123.69
791.634	146.09
792.072	204.59
792.511	357.99
792.95	997.79
793.388	2121.99
793.827	1922.39
794.265	671.99
794.704	274.19
795.142	180.59
795.581	149.29
796.019	137.99
796.458	126.69
796.896	123.79
797.334	131.19
797.773	152.29
798.211	215.29
798.649	427.49
799.087	1002.39
799.526	1568.49
799.964	1991.29
800.402	2000.79
800.84	752.09
801.278	302.89
801.716	189.89
802.154	148.79
802.592	145.89
803.03	137.89
803.468	127.49
803.906	137.49
804.344	142.49
804.782	138.69
805.22	137.49
805.658	137.69
806.096	145.89
806.533	161.89
806.971	168.99
807.409	220.49
807.847	314.99
808.284	641.89
808.722	1834.09
809.16	3266.09
809.597	3069.49
810.035	5338.99
810.472	5775.19
810.91	2067.39
811.347	780.29
811.785	395.39
812.222	247.69
812.66	195.49
813.097	161.39
813.535	143.09
813.972	124.69
814.409	119.69
814.846	102.99
815.284	111.99
815.721	103.99
816.158	104.19
816.595	113.69
817.032	178.39
817.47	195.69
817.907	170.89
818.344	140.59
818.781	117.29
819.218	101.29
819.655	122.39
820.092	187.19
820.529	214.09
820.966	182.09
821.403	133.89
821.839	110.09
822.276	100.99
822.713	121.99
823.15	129.69
823.587	113.09
824.023	141.09
824.46	290.99
824.897	879.99
825.333	1353.49
825.77	583.09
826.206	226.79
826.643	132.09
827.08	101.99
827.516	82.09
827.953	75.09
828.389	84.99
828.825	73.19
829.262	65.19
829.698	65.19
830.135	61.29
830.571	59.99
831.007	59.29
831.443	72.29
831.88	65.99
832.316	60.79
832.752	66.69
833.188	64.79
833.624	63.19
834.06	63.39
834.497	74.39
834.933	76.79
835.369	70.89
835.805	66.49
836.241	73.19
836.677	76.39
837.112	87.69
837.548	107.99
837.984	131.59
838.42	190.09
838.856	486.89
839.292	1482.09
839.727	2277.59
840.163	1053.89
840.599	896.99
841.034	1995.59
841.47	2116.19
841.906	773.29
842.341	333.29
842.777	228.19
843.212	313.79
843.648	296.99
844.083	147.39
844.519	93.49
844.954	77.29
845.39	61.29
845.825	61.49
846.261	57.29
846.696	56.59
847.131	54.49
847.566	58.19
848.002	52.79
848.437	52.79
848.872	53.59
849.307	64.29
849.742	87.29
850.177	174.49
850.613	556.59
851.048	880.59
851.483	384.79
851.918	152.79
852.353	84.49
852.788	62.49
853.223	56.09
853.657	52.39
854.092	46.09
854.527	40.39
854.962	45.89
855.397	40.49
855.832	48.09
856.266	44.09
856.701	44.29
857.136	36.79
857.57	46.19
858.005	51.99
858.44	54.89
858.874	42.29
859.309	48.09
859.743	36.49
860.178	47.89
860.612	42.79
861.047	53.19
861.481	65.39
861.915	71.29
862.35	48.99
862.784	28.69
863.218	37.79
863.653	37.19
864.087	44.09
864.521	46.79
864.955	68.39
865.39	152.49
865.824	177.49
866.258	113.69
866.692	162.89
867.126	174.69
867.56	103.49
867.994	47.09
868.428	33.29
868.862	44.39
869.296	53.49
869.73	55.79
870.164	58.69
870.598	43.19
871.031	36.09
871.465	28.69
871.899	30.79
872.333	21.49
872.766	22.69
873.2	22.19
873.634	37.59
874.067	24.69
874.501	30.39
874.935	30.39
875.368	28.89
875.802	21.09
876.235	21.49
876.669	20.09
877.102	23.49
877.535	24.59
877.969	28.79
878.402	26.79
878.836	19.09
879.269	22.29
879.702	27.29
880.135	22.09
880.569	29.39
881.002	27.69
881.435	25.19
881.868	17.89
882.301	19.29
882.734	17.19
883.167	17.69
883.601	15.39
884.034	24.39
884.467	16.79
884.899	15.39
885.332	15.79
885.765	20.29
886.198	16.69
886.631	15.89
887.064	18.59
887.497	18.09
887.929	23.99
888.362	15.59
888.795	8.89
889.228	13.89
889.66	20.09
890.093	16.39
890.526	18.29
890.958	19.09
891.391	18.79
891.823	16.29
892.256	11.89
892.688	14.99
893.121	13.69
893.553	21.59
893.985	23.49
894.418	22.29
894.85	8.59
895.282	16.59
895.715	14.89
896.147	13.49
896.579	14.29
897.011	9.09
897.444	11.59
897.876	10.69
898.308	19.29
898.74	14.99
899.172	12.59
899.604	27.29
900.036	19.09
900.468	10.39
900.9	6.59
901.332	14.59
901.764	18.19
902.196	15.49
902.628	16.69
903.06	17.19
903.491	29.59
903.923	20.59
904.355	20.29
904.787	21.99
905.218	22.99
905.65	19.89
906.082	13.89
906.513	16.09
906.945	14.29
907.376	13.49
907.808	21.19
908.239	19.79
908.671	19.09
909.102	24.19
909.534	25.99
909.965	42.39
910.397	86.89
910.828	301.29
911.259	476.59
911.691	210.79
912.122	107.49
912.553	47.29
912.984	35.59
913.415	27.99
913.847	25.09
914.278	18.19
914.709	11.49
915.14	20.59
915.571	18.89
916.002	15.39
916.433	17.89
916.864	14.19
917.295	13.69
917.726	22.19
918.157	20.19
918.587	26.39
919.018	17.59
919.449	17.49
919.88	21.09
920.311	31.29
920.741	48.59
921.172	171.09
921.603	150.79
922.033	72.59
922.464	39.89
922.895	23.79
923.325	20.09
923.756	8.59
924.186	14.59
924.617	31.19
925.047	45.29
925.478	51.29
925.908	45.19
926.338	22.49
926.769	18.59
927.199	17.39
927.629	12.29
928.06	14.29
928.49	9.89
928.92	11.39
929.35	5.69
929.78	10.59
930.21	0.89
930.641	7.19
931.071	5.89
931.501	2.69
931.931	6.79
932.361	9.19
932.791	3.29
933.221	1.79
933.651	-2.01
934.08	14.99
934.51	29.59
934.94	10.29
935.37	12.09
935.8	7.49
936.229	4.19
936.659	3.79
937.089	4.09
937.519	15.79
937.948	18.89
938.378	17.49
938.807	-0.41
939.237	4.49
939.666	6.89
940.096	-3.71
940.525	5.09
940.955	-0.41
941.384	2.89
941.814	-4.81
942.243	-1.01
942.672	4.29
943.102	-1.11
943.531	-1.31
943.96	4.89
944.39	3.99
944.819	0.89
945.248	6.19
945.677	-4.21
946.106	3.79
946.535	4.19
946.964	0.99
947.393	6.89
947.822	7.19
948.251	-5.71
948.68	2.19
949.109	-4.01
949.538	3.49
949.967	1.59
950.396	0.89
950.825	2.99
951.254	-0.91
951.682	-5.11
952.111	0.49
952.54	7.59
952.969	0.29
953.397	-7.11
953.826	-0.01
954.254	-4.11
954.683	3.99
955.112	-2.01
955.54	-5.31
955.969	0.29
956.397	-1.51
956.826	-5.01
957.254	2.39
957.682	-1.81
958.111	3.39
958.539	2.69
958.967	1.29
959.396	-0.21
959.824	2.19
960.252	0.29
960.68	-5.21
961.109	-4.61
961.537	-2.31
961.965	0.29
962.393	0.09
962.821	-5.51
963.249	4.49
963.677	1.59
964.105	5.69
964.533	49.49
964.961	45.29
965.389	17.69
965.817	8.69
966.245	5.99
966.672	-0.91
967.1	0.89
967.528	0.39
967.956	-0.41
968.383	2.89
968.811	-3.21
969.239	-4.71
969.666	-9.81
970.094	2.59
970.522	-1.61
970.949	0.79
971.377	-9.21
971.804	-5.11
972.232	-3.31
972.659	1.19
973.087	-4.51
973.514	-0.81
973.941	-2.51
974.369	2.69
974.796	3.69
975.223	-3.91
975.651	-0.21
976.078	-2.31
976.505	-1.31
976.932	2.69
977.359	14.29
977.786	13.99
978.214	-5.01
978.641	-2.11
979.068	-4.11
979.495	-5.91
979.922	-9.51
980.349	-0.41
980.776	4.39
981.202	-5.31
981.629	6.99
982.056	3.49
982.483	-3.11
982.91	4.29
983.337	-6.71
983.763	2.49
984.19	-6.41
984.617	-4.81
985.043	-4.91
985.47	-4.41
985.897	-2.81
986.323	-4.81
986.75	1.19
987.176	1.89
987.603	-5.01
988.029	-5.01
988.456	-8.11
988.882	-0.91
989.308	-4.21
989.735	-2.41
990.161	-0.81
990.587	-3.01
991.014	2.59
991.44	3.19
991.866	-4.31
992.292	-7.61
992.719	-0.31
993.145	3.49
993.571	-10.81
993.997	-4.51
994.423	1.39
994.849	-0.91
995.275	-1.71
995.701	-0.11
996.127	-2.91
996.553	4.99
996.979	-3.51
997.405	-0.21
997.83	-4.11
998.256	-10.01
998.682	-7.11
999.108	-10.91
999.534	-5.41
999.959	-5.81
1000.385	-4.81
1000.811	-0.81
1001.236	-12.81
1001.662	-9.51
1002.087	-3.91
1002.513	0.59
1002.938	2.09
1003.364	-1.01
1003.789	-7.31
1004.215	10.39
1004.64	0.19
1005.066	1.59
1005.491	-1.01
1005.916	-4.11
1006.342	-2.51
1006.767	-7.81
1007.192	4.19
1007.617	0.69
1008.042	-5.11
1008.468	-6.31
1008.893	-3.21
1009.318	-6.01
1009.743	-2.51
1010.168	5.89
1010.593	-0.71
1011.018	-6.81
1011.443	-1.51
1011.868	-1.61
1012.293	-7.31
1012.718	-9.01
1013.143	0.39
1013.567	-5.81
1013.992	5.99
1014.417	-10.81
1014.842	4.49
1015.267	-8.61
1015.691	-3.61
1016.116	3.49
1016.541	-5.11
1016.965	3.89
1017.39	-1.21
1017.814	-5.11
1018.239	-1.91
1018.663	-9.21
1019.088	-12.81
1019.512	0.29
1019.937	-4.11
1020.361	-7.31
1020.785	-8.91
1021.21	3.19
1021.634	-3.81
1022.058	1.79
1022.483	5.69
1022.907	-6.01
1023.331	-7.21
1023.755	-0.31
1024.179	-5.01
1024.604	-4.11
1025.028	-5.01
1025.452	-1.91
1025.876	-5.71
1026.3	3.49
1026.724	-11.91
1027.148	-8.21
1027.572	-6.51
1027.996	-3.71
1028.42	-2.91
1028.843	-7.81
1029.267	-11.71
1029.691	2.09
1030.115	-5.31
1030.539	-7.01
1030.962	-4.21
1031.386	-10.31
1031.81	-0.21
1032.233	-4.61
1032.657	-1.71
1033.08	-1.91
1033.504	-1.71
1033.927	-0.21
1034.351	-1.51
1034.774	-10.61
1035.198	-7.01
1035.621	-3.71
1036.045	-12.11
1036.468	0.69
1036.891	-7.61
1037.315	-7.01
1037.738	-13.61
1038.161	-0.41
1038.584	-7.41
1039.008	-7.61
1039.431	-3.11
1039.854	-5.41
1040.277	-6.71
1040.7	-9.01
1041.123	-4.61
1041.546	-7.01
1041.969	-6.01
1042.392	-6.61
1042.815	-0.91
1043.238	0.19
1043.661	-3.41
1044.084	-7.31
1044.507	-8.11
1044.93	-9.01
1045.352	-2.21
1045.775	-5.91
1046.198	-5.41
1046.621	-8.61
1047.043	0.99
1047.466	4.59
1047.889	-3.71
1048.311	-9.21
1048.734	-5.21
1049.156	-6.51
1049.579	-1.41
1050.001	-0.71
1050.424	0.89
1050.846	1.19
1051.269	-6.11
1051.691	-8.01
1052.113	-10.21
1052.536	0.39
1052.958	-0.31
1053.38	-5.81
1053.802	-11.41
1054.225	-0.41
1054.647	-8.51
1055.069	-10.01
1055.491	2.49
1055.913	-6.61
1056.335	-4.61
1056.757	-3.61
1057.179	-13.31
1057.601	-6.41
1058.023	-7.61
1058.445	-0.71
1058.867	-8.81
1059.289	-3.01
1059.711	-3.81
1060.133	-1.31
1060.555	-6.41
1060.976	-9.81
1061.398	-3.31
1061.82	-9.41
1062.241	-7.51
1062.663	-9.11
1063.085	-1.11
1063.506	-1.31
1063.928	1.29
1064.35	-0.71
1064.771	-8.41
1065.193	0.19
1065.614	-9.61
1066.035	-3.71
1066.457	-2.61
1066.878	0.29
1067.3	-5.01
1067.721	-6.31
1068.142	-1.71
1068.564	-2.51
1068.985	-8.61
1069.406	-8.11
1069.827	-4.11
1070.248	1.59
1070.67	-9.51
1071.091	-3.91
1071.512	-3.51
1071.933	-9.41
1072.354	-6.21
1072.775	-7.41
1073.196	-15.11
1073.617	-8.31
1074.038	-6.91
1074.459	-4.91
1074.88	-4.91
1075.3	-0.61
1075.721	-3.71
1076.142	1.79
1076.563	-2.01
1076.983	-13.41
1077.404	-7.21
1077.825	-15.01
1078.246	-9.41
1078.666	-14.71
1079.087	-2.31
1079.507	-8.11
1079.928	-3.91
1080.348	-0.11
1080.769	-3.71
1081.189	-1.91
1081.61	-0.71
1082.03	-2.91
1082.451	-3.11
1082.871	-3.41
1083.291	-6.91
1083.711	-9.81
1084.132	-5.01
1084.552	-0.91
1084.972	-6.31
1085.392	-8.01
1085.813	-7.01
1086.233	-11.01
1086.653	-6.11
1087.073	-2.31
1087.493	-10.11
1087.913	-5.31
1088.333	-8.01
1088.753	-2.51
1089.173	0.39
1089.593	-1.01
1090.013	0.29
1090.433	-1.41
1090.852	-5.21
1091.272	-2.21
1091.692	-3.61
1092.112	-5.21
1092.531	-7.41
1092.951	-13.91
1093.371	-1.61
1093.79	-2.21
1094.21	-5.91
1094.63	-6.21
1095.049	-5.91
1095.469	-0.41
1095.888	-3.81
1096.308	-2.01
1096.727	2.59
1097.146	-6.31
1097.566	-9.51
1097.985	-5.01
1098.405	-2.31
1098.824	-9.91
1099.243	-8.11
1099.662	-6.91
1100.082	-2.11
1100.501	-1.11
1100.92	-1.81
1101.339	-8.71
1101.758	-8.91
