Data from 20171114-ORNL-Ar_H_NY_Subt18_08-06-07-906.txt Node
Date: Tue Nov 14 08:06:07 EST 2017
User: Ender
Spectrometer: HR+D1039
Trigger mode: 0
Integration Time (sec): 2.730000E-2
Scans to average: 10
Electric dark correction enabled: true
Nonlinearity correction enabled: false
Boxcar width: 0
XAxis mode: Wavelengths
Number of Pixels in Spectrum: 2048
>>>>>Begin Spectral Data<<<<<
187.836	-2.38
188.309	-2.38
188.782	-2.38
189.255	-2.68
189.728	3.72
190.201	6.02
190.674	1.92
191.147	2.52
191.619	-6.58
192.092	-1.38
192.565	4.12
193.038	0.52
193.511	1.72
193.984	3.02
194.456	-5.08
194.929	-0.68
195.402	-1.18
195.874	-3.68
196.347	-3.48
196.82	-7.58
197.292	0.52
197.765	-1.18
198.237	-7.88
198.71	-1.28
199.182	-2.78
199.655	-0.08
200.127	0.32
200.6	-3.68
201.072	-1.28
201.544	-2.58
202.017	-3.68
202.489	-0.98
202.961	-0.08
203.433	0.52
203.906	-7.88
204.378	-4.48
204.85	-5.88
205.322	-4.08
205.794	3.02
206.266	-3.48
206.739	-3.78
207.211	6.02
207.683	-1.68
208.155	-3.88
208.627	-4.78
209.099	-0.08
209.57	-6.08
210.042	0.92
210.514	0.92
210.986	-0.48
211.458	-10.98
211.93	0.02
212.402	2.02
212.873	-7.48
213.345	-8.38
213.817	-12.88
214.288	-4.58
214.76	-5.58
215.232	-2.08
215.703	-4.18
216.175	1.82
216.646	0.12
217.118	-7.28
217.589	-0.58
218.061	-0.38
218.532	0.52
219.004	-1.18
219.475	0.12
219.946	-1.28
220.418	-6.38
220.889	3.62
221.36	8.32
221.832	-5.98
222.303	-11.38
222.774	2.52
223.245	-11.18
223.717	-6.48
224.188	0.02
224.659	-3.18
225.13	-7.18
225.601	2.12
226.072	-3.08
226.543	1.92
227.014	-3.08
227.485	-0.58
227.956	-7.08
228.427	2.42
228.898	3.82
229.369	4.72
229.839	-1.78
230.31	-5.78
230.781	4.32
231.252	-5.58
231.722	-5.88
232.193	-5.28
232.664	-3.68
233.135	1.12
233.605	-0.38
234.076	2.02
234.546	0.12
235.017	7.22
235.487	-1.08
235.958	1.62
236.428	-1.98
236.899	1.02
237.369	6.62
237.84	-0.28
238.31	17.22
238.78	1.02
239.251	5.32
239.721	3.32
240.191	4.02
240.662	-1.08
241.132	-0.38
241.602	-2.28
242.072	2.92
242.542	7.22
243.013	-4.98
243.483	3.32
243.953	3.02
244.423	-6.08
244.893	0.12
245.363	3.02
245.833	3.72
246.303	1.32
246.773	14.92
247.243	7.42
247.712	0.02
248.182	12.52
248.652	9.72
249.122	0.72
249.592	11.92
250.061	25.82
250.531	35.02
251.001	12.72
251.471	22.72
251.94	17.82
252.41	9.62
252.879	8.62
253.349	18.02
253.818	16.32
254.288	5.82
254.757	3.72
255.227	-0.28
255.696	7.92
256.166	11.02
256.635	5.12
257.105	14.62
257.574	9.72
258.043	12.02
258.513	13.02
258.982	16.02
259.451	7.22
259.92	13.82
260.389	16.02
260.859	20.52
261.328	17.22
261.797	17.42
262.266	11.62
262.735	15.12
263.204	3.52
263.673	-1.48
264.142	5.42
264.611	-1.18
265.08	0.42
265.549	-2.98
266.018	7.62
266.487	-3.38
266.955	7.22
267.424	1.92
267.893	6.92
268.362	1.82
268.83	9.92
269.299	11.22
269.768	7.42
270.236	8.12
270.705	-0.18
271.174	8.72
271.642	11.22
272.111	16.12
272.579	16.02
273.048	23.02
273.516	27.02
273.985	28.02
274.453	27.82
274.922	18.72
275.39	12.22
275.858	5.32
276.327	13.02
276.795	17.02
277.263	14.12
277.731	29.52
278.2	61.62
278.668	61.52
279.136	52.92
279.604	26.62
280.072	19.12
280.54	14.92
281.008	9.32
281.477	15.22
281.945	12.62
282.413	12.62
282.881	15.52
283.348	12.52
283.816	17.82
284.284	12.82
284.752	20.42
285.22	12.42
285.688	21.22
286.156	19.02
286.623	48.22
287.091	45.72
287.559	31.82
288.026	16.32
288.494	16.52
288.962	7.32
289.429	16.72
289.897	23.42
290.364	17.22
290.832	15.72
291.3	21.32
291.767	17.22
292.234	24.42
292.702	19.62
293.169	25.02
293.637	30.62
294.104	28.02
294.571	5.42
295.039	17.92
295.506	12.22
295.973	22.92
296.44	20.32
296.908	27.62
297.375	26.32
297.842	21.72
298.309	15.22
298.776	17.72
299.243	23.82
299.71	12.62
300.177	22.22
300.644	26.82
301.111	27.52
301.578	24.52
302.045	16.62
302.512	25.32
302.979	29.02
303.446	25.42
303.913	24.72
304.379	26.82
304.846	34.52
305.313	24.82
305.78	22.02
306.246	27.82
306.713	29.92
307.18	28.72
307.646	24.02
308.113	30.32
308.579	31.72
309.046	25.72
309.512	30.22
309.979	23.42
310.445	30.12
310.912	32.72
311.378	37.52
311.845	33.82
312.311	31.32
312.777	38.72
313.244	31.62
313.71	38.42
314.176	31.32
314.642	30.02
315.109	34.02
315.575	43.42
316.041	38.02
316.507	28.92
316.973	40.02
317.439	37.12
317.905	39.22
318.371	37.22
318.837	32.82
319.303	39.42
319.769	36.32
320.235	38.62
320.701	38.02
321.167	39.52
321.633	37.62
322.099	48.22
322.564	46.12
323.03	43.42
323.496	41.22
323.962	42.92
324.427	38.72
324.893	43.32
325.359	39.42
325.824	43.02
326.29	34.72
326.755	40.22
327.221	41.62
327.686	45.52
328.152	48.62
328.617	48.02
329.083	48.22
329.548	57.32
330.014	47.32
330.479	45.72
330.944	48.22
331.41	44.52
331.875	48.82
332.34	48.92
332.805	44.42
333.271	52.32
333.736	49.42
334.201	52.22
334.666	54.92
335.131	53.42
335.596	55.52
336.061	54.42
336.526	49.22
336.991	49.72
337.456	59.62
337.921	48.42
338.386	44.02
338.851	54.02
339.316	52.42
339.781	47.42
340.246	54.62
340.711	54.12
341.175	56.52
341.64	48.02
342.105	61.42
342.569	62.22
343.034	66.72
343.499	61.52
343.963	56.42
344.428	63.02
344.893	60.62
345.357	64.12
345.822	59.82
346.286	72.92
346.751	75.22
347.215	67.32
347.679	74.72
348.144	97.02
348.608	84.22
349.073	73.42
349.537	74.02
350.001	80.52
350.465	97.82
350.93	84.12
351.394	79.22
351.858	76.42
352.322	90.42
352.786	83.92
353.25	100.72
353.715	115.02
354.179	107.72
354.643	131.92
355.107	131.22
355.571	115.92
356.035	107.02
356.498	115.02
356.962	122.22
357.426	136.32
357.89	120.52
358.354	97.92
358.818	92.22
359.281	85.12
359.745	81.42
360.209	77.12
360.673	80.02
361.136	84.92
361.6	82.82
362.064	89.22
362.527	87.62
362.991	89.52
363.454	81.22
363.918	81.22
364.381	81.62
364.845	79.52
365.308	84.62
365.772	88.02
366.235	85.42
366.698	89.82
367.162	90.52
367.625	84.32
368.088	90.02
368.552	94.12
369.015	92.42
369.478	99.72
369.941	106.32
370.404	105.12
370.867	107.52
371.331	106.42
371.794	116.12
372.257	115.82
372.72	122.42
373.183	111.72
373.646	109.22
374.109	108.62
374.572	109.92
375.035	114.42
375.497	115.22
375.96	107.62
376.423	107.12
376.886	111.52
377.349	118.42
377.811	108.82
378.274	111.72
378.737	106.52
379.199	115.12
379.662	117.02
380.125	119.62
380.587	120.52
381.05	119.42
381.512	120.42
381.975	135.42
382.437	131.72
382.9	130.22
383.362	138.82
383.825	142.42
384.287	149.02
384.75	138.82
385.212	138.22
385.674	146.82
386.136	137.02
386.599	128.62
387.061	125.42
387.523	135.42
387.985	134.42
388.447	142.22
388.91	141.72
389.372	156.22
389.834	159.12
390.296	152.52
390.758	157.92
391.22	171.42
391.682	215.82
392.144	295.52
392.606	239.72
393.068	171.02
393.529	168.22
393.991	159.92
394.453	152.12
394.915	160.02
395.377	191.92
395.838	216.42
396.3	159.12
396.762	143.42
397.224	141.12
397.685	134.62
398.147	131.22
398.608	128.32
399.07	137.22
399.531	132.82
399.993	143.42
400.454	152.32
400.916	154.42
401.377	152.62
401.839	148.72
402.3	156.62
402.762	168.82
403.223	188.32
403.684	178.02
404.145	158.42
404.607	163.02
405.068	163.32
405.529	182.72
405.99	199.42
406.451	185.72
406.913	170.82
407.374	160.82
407.835	160.92
408.296	172.32
408.757	173.62
409.218	190.92
409.679	177.12
410.14	182.92
410.601	181.82
411.062	190.62
411.522	194.52
411.983	189.22
412.444	179.62
412.905	180.42
413.366	187.12
413.826	201.12
414.287	227.62
414.748	268.73
415.208	246.92
415.669	217.62
416.13	216.62
416.59	207.92
417.051	221.12
417.511	219.72
417.972	240.22
418.432	246.62
418.893	287.82
419.353	250.42
419.814	205.12
420.274	184.72
420.734	184.02
421.195	197.02
421.655	201.72
422.115	191.52
422.576	194.82
423.036	202.12
423.496	208.12
423.956	221.02
424.416	235.32
424.876	277.02
425.336	266.22
425.797	273.92
426.257	261.82
426.717	246.02
427.177	236.92
427.637	221.42
428.097	239.32
428.556	249.02
429.016	281.62
429.476	271.42
429.936	284.83
430.396	280.02
430.856	295.82
431.315	324.22
431.775	361.42
432.235	383.72
432.694	363.42
433.154	377.42
433.614	392.12
434.073	345.42
434.533	287.22
434.993	273.73
435.452	281.82
435.912	302.92
436.371	301.62
436.83	290.42
437.29	280.92
437.749	255.23
438.209	252.62
438.668	286.52
439.127	296.32
439.587	269.83
440.046	251.32
440.505	268.12
440.964	282.42
441.424	332.82
441.883	317.42
442.342	263.52
442.801	229.02
443.26	224.32
443.719	231.52
444.178	223.32
444.637	219.12
445.096	220.52
445.555	239.42
446.014	228.92
446.473	231.02
446.932	246.12
447.391	229.42
447.849	234.22
448.308	222.52
448.767	224.52
449.226	233.42
449.685	248.02
450.143	261.42
450.602	242.12
451.061	231.42
451.519	242.22
451.978	239.02
452.436	236.82
452.895	249.02
453.353	253.22
453.812	247.92
454.27	246.62
454.729	246.42
455.187	245.92
455.646	255.62
456.104	255.12
456.562	269.22
457.021	279.62
457.479	267.82
457.937	280.22
458.395	269.62
458.854	263.42
459.312	262.62
459.77	282.32
460.228	259.52
460.686	252.42
461.144	259.42
461.602	249.42
462.06	254.02
462.518	255.12
462.976	269.32
463.434	265.23
463.892	268.82
464.35	280.82
464.808	297.12
465.266	271.52
465.724	270.92
466.181	277.92
466.639	283.22
467.097	299.73
467.555	307.02
468.012	304.92
468.47	312.73
468.928	331.32
469.385	345.52
469.843	357.52
470.3	361.42
470.758	375.82
471.215	395.32
471.673	417.72
472.13	418.22
472.588	431.42
473.045	380.52
473.503	394.52
473.96	408.82
474.417	415.42
474.875	446.02
475.332	483.52
475.789	471.22
476.246	477.12
476.704	493.12
477.161	519.12
477.618	536.82
478.075	575.52
478.532	632.52
478.989	706.32
479.446	824.83
479.903	796.33
480.36	823.42
480.817	886.52
481.274	993.62
481.731	1092.62
482.188	1189.22
482.645	1336.72
483.102	1430.82
483.558	1569.12
484.015	1620.53
484.472	1613.82
484.929	1551.92
485.385	1505.52
485.842	1464.32
486.299	1406.92
486.755	1337.92
487.212	1115.52
487.668	946.72
488.125	870.42
488.582	805.72
489.038	764.52
489.494	727.62
489.951	702.32
490.407	691.33
490.864	667.02
491.32	657.32
491.776	656.92
492.233	661.42
492.689	626.42
493.145	614.12
493.602	615.02
494.058	629.42
494.514	636.62
494.97	652.92
495.426	673.32
495.882	638.92
496.338	632.73
496.794	642.92
497.251	620.22
497.707	661.72
498.163	651.22
498.618	659.92
499.074	670.12
499.53	683.32
499.986	698.12
500.442	667.52
500.898	652.52
501.354	635.32
501.809	655.62
502.265	658.73
502.721	672.52
503.177	680.83
503.632	674.72
504.088	689.22
504.543	724.32
504.999	725.32
505.455	671.62
505.91	646.82
506.366	643.62
506.821	642.32
507.277	632.82
507.732	637.62
508.187	643.22
508.643	641.02
509.098	646.23
509.553	668.42
510.009	682.72
510.464	684.12
510.919	698.52
511.375	711.72
511.83	726.32
512.285	742.02
512.74	770.42
513.195	808.62
513.65	784.72
514.105	788.02
514.56	783.42
515.015	811.62
515.47	826.62
515.925	825.02
516.38	810.12
516.835	806.52
517.29	803.12
517.745	791.33
518.2	786.42
518.655	763.82
519.109	764.62
519.564	756.62
520.019	746.52
520.474	739.33
520.928	738.52
521.383	737.92
521.838	728.22
522.292	725.62
522.747	721.23
523.201	721.72
523.656	709.73
524.11	714.12
524.565	707.62
525.019	712.42
525.474	713.42
525.928	719.02
526.382	707.52
526.837	706.52
527.291	710.32
527.745	707.62
528.2	712.32
528.654	699.82
529.108	700.62
529.562	711.82
530.016	701.83
530.47	705.42
530.925	704.52
531.379	719.62
531.833	711.52
532.287	707.82
532.741	712.83
533.195	728.82
533.649	736.52
534.103	741.12
534.556	724.42
535.01	724.82
535.464	719.12
535.918	737.92
536.372	737.42
536.826	732.12
537.279	722.32
537.733	738.73
538.187	729.82
538.64	731.22
539.094	733.02
539.548	748.12
540.001	739.82
540.455	744.22
540.908	748.92
541.362	744.82
541.815	759.23
542.269	765.02
542.722	767.32
543.175	791.82
543.629	787.42
544.082	808.62
544.536	799.42
544.989	804.02
545.442	805.92
545.895	804.32
546.349	808.52
546.802	805.72
547.255	811.92
547.708	815.82
548.161	833.42
548.614	836.42
549.067	841.02
549.52	834.32
549.973	835.12
550.426	819.12
550.879	803.82
551.332	808.72
551.785	821.92
552.238	826.42
552.691	835.52
553.144	840.42
553.596	862.62
554.049	881.62
554.502	908.52
554.955	927.12
555.407	928.42
555.86	917.52
556.313	913.62
556.765	898.62
557.218	892.52
557.67	898.92
558.123	898.22
558.576	884.52
559.028	898.62
559.48	900.02
559.933	892.82
560.385	858.52
560.838	818.82
561.29	792.32
561.742	794.83
562.195	776.82
562.647	789.62
563.099	786.12
563.551	780.73
564.004	801.62
564.456	777.52
564.908	775.62
565.36	763.02
565.812	747.82
566.264	736.02
566.716	740.72
567.168	716.72
567.62	726.62
568.072	714.42
568.524	706.33
568.976	695.92
569.428	691.82
569.88	684.02
570.332	683.42
570.784	696.32
571.235	697.12
571.687	698.32
572.139	724.42
572.59	717.02
573.042	723.72
573.494	727.32
573.945	713.12
574.397	688.62
574.849	695.92
575.3	701.82
575.752	701.32
576.203	692.72
576.655	692.72
577.106	684.62
577.557	665.33
578.009	667.22
578.46	678.02
578.912	677.92
579.363	679.82
579.814	685.22
580.265	671.92
580.717	678.62
581.168	678.52
581.619	690.33
582.07	701.22
582.521	686.62
582.972	683.72
583.423	692.62
583.875	688.73
584.326	703.42
584.777	751.22
585.227	833.52
585.678	908.52
586.129	996.02
586.58	1079.62
587.031	1145.72
587.482	1314.72
587.933	1485.22
588.384	1295.42
588.834	968.82
589.285	812.92
589.736	796.42
590.186	774.62
590.637	769.92
591.088	752.83
591.538	744.42
591.989	747.12
592.439	745.42
592.89	726.32
593.34	719.52
593.791	717.12
594.241	712.42
594.692	708.92
595.142	710.73
595.593	710.73
596.043	722.32
596.493	726.73
596.943	726.62
597.394	733.82
597.844	725.82
598.294	739.42
598.744	758.22
599.195	778.92
599.645	823.73
600.095	854.32
600.545	926.02
600.995	972.12
601.445	1029.92
601.895	1101.12
602.345	1148.12
602.795	1135.03
603.245	1079.42
603.695	1020.82
604.145	978.32
604.594	923.33
605.044	865.12
605.494	807.22
605.944	753.92
606.393	748.52
606.843	721.52
607.293	747.52
607.743	736.62
608.192	750.92
608.642	763.82
609.091	763.12
609.541	780.62
609.99	771.62
610.44	769.92
610.889	739.02
611.339	706.02
611.788	690.72
612.238	704.52
612.687	727.12
613.136	721.92
613.586	746.72
614.035	742.33
614.484	761.72
614.933	763.72
615.383	750.52
615.832	743.62
616.281	733.62
616.73	682.32
617.179	667.72
617.628	654.12
618.077	634.62
618.526	624.42
618.975	623.82
619.424	618.92
619.873	623.72
620.322	623.72
620.771	606.02
621.22	611.62
621.669	604.22
622.118	587.32
622.567	582.52
623.015	574.52
623.464	582.42
623.913	567.32
624.361	559.82
624.81	558.92
625.259	561.92
625.707	555.62
626.156	555.92
626.604	562.42
627.053	553.82
627.501	568.72
627.95	570.42
628.398	583.32
628.847	581.62
629.295	570.92
629.744	578.02
630.192	568.92
630.64	575.12
631.089	563.02
631.537	582.23
631.985	586.62
632.433	596.62
632.881	606.92
633.33	663.42
633.778	646.42
634.226	567.22
634.674	574.42
635.122	579.62
635.57	597.42
636.018	627.92
636.466	586.32
636.914	559.73
637.362	569.83
637.81	570.62
638.258	580.02
638.705	578.42
639.153	607.92
639.601	615.02
640.049	641.12
640.497	668.12
640.944	693.32
641.392	648.62
641.84	618.82
642.287	580.02
642.735	574.62
643.182	569.62
643.63	581.12
644.078	571.12
644.525	597.32
644.973	607.92
645.42	617.62
645.867	613.73
646.315	641.52
646.762	661.02
647.21	688.12
647.657	715.42
648.104	748.32
648.551	781.23
648.999	835.62
649.446	913.92
649.893	1013.72
650.34	1146.62
650.787	1389.12
651.234	1730.32
651.682	2256.62
652.129	3075.42
652.576	4435.62
653.023	6538.52
653.47	8973.52
653.917	11170.62
654.363	12935.43
654.81	14356.02
655.257	13663.62
655.704	8942.02
656.151	5279.32
656.598	3432.82
657.044	2423.62
657.491	1876.43
657.938	1488.72
658.385	1252.62
658.831	1084.72
659.278	964.22
659.724	860.52
660.171	788.62
660.618	723.72
661.064	696.62
661.511	673.92
661.957	650.22
662.404	643.22
662.85	651.62
663.296	632.82
663.743	565.02
664.189	535.02
664.635	534.02
665.082	523.82
665.528	521.32
665.974	516.62
666.42	507.52
666.867	509.52
667.313	494.73
667.759	491.92
668.205	473.42
668.651	487.33
669.097	482.72
669.543	493.52
669.989	472.72
670.435	447.33
670.881	448.33
671.327	449.22
671.773	465.32
672.219	487.02
672.665	535.52
673.11	580.82
673.556	627.52
674.002	667.62
674.448	663.72
674.893	546.73
675.339	473.72
675.785	435.52
676.23	419.02
676.676	398.52
677.122	377.62
677.567	374.12
678.013	365.32
678.458	355.32
678.904	358.12
679.349	350.92
679.794	357.82
680.24	349.62
680.685	353.12
681.131	354.52
681.576	352.22
682.021	352.82
682.466	349.52
682.912	342.32
683.357	355.73
683.802	376.12
684.247	409.22
684.692	451.92
685.137	493.32
685.583	534.42
686.028	561.02
686.473	516.52
686.918	447.72
687.363	411.62
687.807	386.42
688.252	362.22
688.697	356.22
689.142	331.52
689.587	328.02
690.032	328.42
690.477	335.62
690.921	348.02
691.366	379.62
691.811	397.22
692.255	429.82
692.7	461.32
693.145	494.52
693.589	690.72
694.034	1115.22
694.478	1517.52
694.923	1705.43
695.367	2235.03
695.812	1179.92
696.256	493.42
696.701	373.22
697.145	347.82
697.59	323.62
698.034	325.02
698.478	325.33
698.922	324.62
699.367	329.42
699.811	327.72
700.255	357.52
700.699	379.62
701.143	423.12
701.588	468.52
702.032	508.12
702.476	514.12
702.92	485.22
703.364	486.92
703.808	629.12
704.252	1018.82
704.696	1428.62
705.14	1652.82
705.584	2109.32
706.027	1050.02
706.471	519.22
706.915	383.52
707.359	345.92
707.803	319.62
708.246	312.12
708.69	308.72
709.134	315.22
709.577	313.02
710.021	310.22
710.465	311.52
710.908	296.82
711.352	293.73
711.795	307.92
712.239	344.23
712.682	380.52
713.126	407.62
713.569	452.92
714.012	371.73
714.456	318.22
714.899	292.12
715.342	273.02
715.786	260.73
716.229	256.52
716.672	250.62
717.115	245.32
717.558	249.83
718.002	247.02
718.445	261.32
718.888	278.12
719.331	295.02
719.774	308.92
720.217	301.92
720.66	286.62
721.103	272.12
721.546	253.33
721.989	246.42
722.432	229.62
722.874	233.72
723.317	221.92
723.76	230.02
724.203	254.22
724.645	309.42
725.088	444.82
725.531	567.22
725.974	637.32
726.416	540.92
726.859	303.82
727.301	245.73
727.744	239.33
728.187	229.62
728.629	231.32
729.071	237.42
729.514	249.52
729.956	267.02
730.399	283.82
730.841	287.92
731.283	271.92
731.726	263.12
732.168	257.22
732.61	259.82
733.053	286.62
733.495	310.12
733.937	351.33
734.379	388.82
734.821	424.42
735.263	530.92
735.705	818.62
736.148	1540.53
736.59	2530.43
737.032	3008.72
737.474	2434.32
737.916	788.02
738.357	414.92
738.799	317.82
739.241	297.22
739.683	280.12
740.125	298.12
740.567	293.42
741.008	307.02
741.45	315.02
741.892	313.73
742.334	340.33
742.775	349.32
743.217	336.82
743.658	268.22
744.1	258.72
744.542	255.92
744.983	307.12
745.425	335.32
745.866	343.12
746.307	278.73
746.749	274.82
747.19	321.52
747.632	445.62
748.073	858.92
748.514	1814.02
748.956	2805.72
749.397	3500.62
749.838	2929.32
750.279	2925.03
750.72	1489.12
751.162	531.62
751.603	314.22
752.044	244.12
752.485	213.42
752.926	213.22
753.367	203.72
753.808	185.12
754.249	199.52
754.69	183.22
755.131	181.02
755.572	171.22
756.013	183.52
756.453	178.92
756.894	188.82
757.335	189.12
757.776	191.92
758.216	192.32
758.657	195.52
759.098	205.23
759.538	222.32
759.979	259.02
760.42	358.62
760.86	685.22
761.301	1760.12
761.741	4308.12
762.182	6349.42
762.622	4448.43
763.063	1281.12
763.503	533.62
763.943	339.52
764.384	324.22
764.824	382.22
765.264	423.62
765.705	300.62
766.145	213.62
766.585	186.72
767.025	177.02
767.465	176.92
767.906	230.92
768.346	308.52
768.786	327.72
769.226	253.23
769.666	311.52
770.106	597.92
770.546	1516.03
770.986	2608.62
771.426	2341.52
771.866	788.12
772.306	325.12
772.745	208.72
773.185	164.42
773.625	168.62
774.065	165.72
774.505	190.22
774.944	292.52
775.384	644.62
775.824	1181.02
776.263	1155.62
776.703	492.02
777.142	213.42
777.582	166.32
778.021	132.92
778.461	140.12
778.9	137.32
779.34	129.72
779.779	114.12
780.219	106.42
780.658	106.12
781.097	113.72
781.537	113.72
781.976	110.42
782.415	103.42
782.855	106.22
783.294	99.52
783.733	101.92
784.172	110.82
784.611	103.52
785.05	108.02
785.489	109.72
785.928	117.42
786.367	119.72
786.806	118.42
787.245	124.52
787.684	127.72
788.123	142.32
788.562	138.82
789.001	125.42
789.44	117.72
789.879	108.32
790.317	114.22
790.756	127.92
791.195	128.42
791.634	143.62
792.072	194.42
792.511	355.72
792.95	967.82
793.388	2087.12
793.827	1914.72
794.265	663.82
794.704	279.82
795.142	181.52
795.581	151.72
796.019	133.72
796.458	129.92
796.896	124.52
797.334	133.32
797.773	152.72
798.211	212.62
798.649	424.62
799.087	995.33
799.526	1555.22
799.964	1960.53
800.402	1972.62
800.84	749.32
801.278	299.62
801.716	187.02
802.154	157.62
802.592	144.32
803.03	139.32
803.468	133.22
803.906	139.32
804.344	149.92
804.782	137.92
805.22	132.72
805.658	127.42
806.096	148.42
806.533	147.82
806.971	170.42
807.409	214.52
807.847	312.52
808.284	646.22
808.722	1812.22
809.16	3235.12
809.597	3034.52
810.035	5281.23
810.472	5700.32
810.91	2050.32
811.347	779.33
811.785	391.22
812.222	245.12
812.66	190.42
813.097	160.82
813.535	145.32
813.972	131.12
814.409	121.72
814.846	104.62
815.284	110.82
815.721	98.22
816.158	111.32
816.595	119.42
817.032	175.32
817.47	190.02
817.907	172.72
818.344	149.02
818.781	106.22
819.218	101.02
819.655	121.12
820.092	181.52
820.529	204.62
820.966	177.92
821.403	127.82
821.839	110.92
822.276	103.92
822.713	121.52
823.15	130.62
823.587	116.82
824.023	144.92
824.46	283.12
824.897	877.62
825.333	1330.93
825.77	574.02
826.206	226.22
826.643	127.52
827.08	102.52
827.516	82.02
827.953	77.62
828.389	88.72
828.825	74.42
829.262	65.82
829.698	66.52
830.135	68.62
830.571	65.12
831.007	69.62
831.443	67.32
831.88	63.12
832.316	58.82
832.752	70.12
833.188	61.22
833.624	63.62
834.06	67.02
834.497	69.62
834.933	69.72
835.369	78.92
835.805	67.12
836.241	73.22
836.677	79.12
837.112	92.62
837.548	109.32
837.984	133.72
838.42	199.83
838.856	477.72
839.292	1468.62
839.727	2266.23
840.163	1045.62
840.599	896.32
841.034	1975.42
841.47	2087.62
841.906	766.22
842.341	334.52
842.777	224.42
843.212	304.52
843.648	303.62
844.083	148.22
844.519	90.72
844.954	82.32
845.39	62.12
845.825	51.22
846.261	53.52
846.696	56.82
847.131	54.62
847.566	57.32
848.002	53.12
848.437	52.22
848.872	64.12
849.307	58.32
849.742	76.02
850.177	178.22
850.613	533.33
851.048	869.82
851.483	379.22
851.918	151.02
852.353	90.42
852.788	58.52
853.223	59.42
853.657	52.82
854.092	51.92
854.527	41.12
854.962	36.82
855.397	42.12
855.832	55.12
856.266	41.02
856.701	39.72
857.136	38.42
857.57	37.32
858.005	49.92
858.44	57.92
858.874	45.52
859.309	48.32
859.743	40.62
860.178	42.52
860.612	42.42
861.047	51.52
861.481	63.42
861.915	69.52
862.35	47.32
862.784	41.92
863.218	42.12
863.653	35.32
864.087	44.62
864.521	51.02
864.955	69.22
865.39	150.02
865.824	174.22
866.258	115.72
866.692	159.62
867.126	172.22
867.56	104.02
867.994	53.92
868.428	38.52
868.862	46.82
869.296	54.22
869.73	57.12
870.164	53.02
870.598	49.92
871.031	33.22
871.465	30.02
871.899	33.42
872.333	28.22
872.766	27.12
873.2	22.02
873.634	30.42
874.067	25.52
874.501	27.42
874.935	31.72
875.368	29.42
875.802	27.52
876.235	27.82
876.669	21.22
877.102	23.12
877.535	24.02
877.969	21.72
878.402	28.42
878.836	20.42
879.269	29.02
879.702	23.62
880.135	24.92
880.569	21.92
881.002	34.32
881.435	23.52
881.868	21.12
882.301	21.72
882.734	17.42
883.167	24.12
883.601	19.42
884.034	29.62
884.467	8.62
884.899	20.92
885.332	18.12
885.765	19.72
886.198	17.12
886.631	19.52
887.064	17.42
887.497	18.02
887.929	18.02
888.362	16.82
888.795	15.02
889.228	19.02
889.66	20.62
890.093	22.12
890.526	17.62
890.958	13.82
891.391	12.52
891.823	26.02
892.256	17.42
892.688	15.22
893.121	18.02
893.553	16.02
893.985	25.92
894.418	18.72
894.85	15.82
895.282	15.52
895.715	14.32
896.147	16.82
896.579	16.02
897.011	15.02
897.444	15.62
897.876	13.72
898.308	14.62
898.74	17.62
899.172	8.52
899.604	24.42
900.036	16.02
900.468	16.22
900.9	17.02
901.332	19.82
901.764	20.82
902.196	14.02
902.628	20.02
903.06	19.12
903.491	24.42
903.923	23.52
904.355	24.82
904.787	25.42
905.218	23.22
905.65	20.92
906.082	15.62
906.513	14.32
906.945	12.52
907.376	16.22
907.808	18.02
908.239	15.12
908.671	23.02
909.102	19.02
909.534	28.72
909.965	45.62
910.397	96.02
910.828	305.82
911.259	472.02
911.691	217.42
912.122	103.92
912.553	49.82
912.984	30.32
913.415	32.12
913.847	25.22
914.278	16.92
914.709	13.62
915.14	15.62
915.571	17.12
916.002	20.62
916.433	19.52
916.864	16.72
917.295	15.02
917.726	24.72
918.157	18.62
918.587	22.62
919.018	21.32
919.449	26.42
919.88	23.72
920.311	30.72
920.741	46.92
921.172	160.42
921.603	144.32
922.033	65.92
922.464	42.52
922.895	28.92
923.325	21.12
923.756	16.82
924.186	18.22
924.617	28.92
925.047	38.92
925.478	48.22
925.908	37.42
926.338	20.12
926.769	12.22
927.199	16.52
927.629	7.32
928.06	15.42
928.49	14.42
928.92	13.32
929.35	10.52
929.78	15.42
930.21	1.12
930.641	6.82
931.071	8.42
931.501	2.92
931.931	4.32
932.361	12.22
932.791	2.72
933.221	8.72
933.651	6.62
934.08	22.42
934.51	35.02
934.94	8.02
935.37	11.72
935.8	8.52
936.229	5.72
936.659	9.72
937.089	4.02
937.519	16.62
937.948	27.02
938.378	17.32
938.807	0.22
939.237	11.32
939.666	11.02
940.096	-0.28
940.525	-0.28
940.955	3.42
941.384	4.92
941.814	0.32
942.243	-5.28
942.672	-0.58
943.102	-2.78
943.531	-0.28
943.96	2.32
944.39	10.62
944.819	3.62
945.248	8.52
945.677	5.02
946.106	5.82
946.535	3.62
946.964	0.22
947.393	2.82
947.822	-2.78
948.251	-5.28
948.68	3.32
949.109	7.12
949.538	5.02
949.967	6.22
950.396	-0.28
950.825	3.42
951.254	-2.38
951.682	-2.28
952.111	4.12
952.54	6.72
952.969	1.12
953.397	-6.18
953.826	2.12
954.254	-7.78
954.683	5.12
955.112	-5.38
955.54	2.52
955.969	-0.08
956.397	4.52
956.826	-0.38
957.254	6.62
957.682	-2.88
958.111	4.32
958.539	3.62
958.967	-1.38
959.396	1.22
959.824	-3.98
960.252	1.82
960.68	-2.68
961.109	0.12
961.537	-7.78
961.965	-3.88
962.393	4.82
962.821	-5.98
963.249	5.62
963.677	3.22
964.105	4.52
964.533	41.72
964.961	37.62
965.389	24.12
965.817	11.22
966.245	0.32
966.672	-1.38
967.1	-6.48
967.528	-1.98
967.956	0.92
968.383	1.42
968.811	-0.08
969.239	5.02
969.666	-0.38
970.094	0.92
970.522	-2.68
970.949	-0.48
971.377	-8.58
971.804	-2.88
972.232	-3.68
972.659	-0.68
973.087	-1.38
973.514	-5.48
973.941	-6.68
974.369	4.72
974.796	3.42
975.223	-1.28
975.651	0.62
976.078	1.62
976.505	-5.08
976.932	6.82
977.359	15.52
977.786	18.92
978.214	4.02
978.641	-5.08
979.068	-3.08
979.495	-7.28
979.922	-2.88
980.349	-0.48
980.776	5.02
981.202	8.92
981.629	6.62
982.056	-2.08
982.483	-1.68
982.91	0.82
983.337	-7.48
983.763	3.42
984.19	-1.88
984.617	-3.08
985.043	-5.98
985.47	2.62
985.897	-3.98
986.323	-3.98
986.75	-4.58
987.176	-0.08
987.603	-2.08
988.029	1.12
988.456	-4.08
988.882	1.52
989.308	-4.68
989.735	-7.48
990.161	0.62
990.587	-4.88
991.014	2.22
991.44	7.42
991.866	-0.48
992.292	-3.38
992.719	-2.98
993.145	-2.88
993.571	-7.58
993.997	1.02
994.423	-5.58
994.849	-2.18
995.275	-0.58
995.701	4.22
996.127	-5.38
996.553	3.42
996.979	-1.78
997.405	-0.18
997.83	-4.38
998.256	-2.38
998.682	-3.08
999.108	-4.38
999.534	-1.48
999.959	1.52
1000.385	-0.38
1000.811	-2.98
1001.236	-6.58
1001.662	-3.58
1002.087	-3.48
1002.513	1.22
1002.938	2.32
1003.364	0.92
1003.789	2.02
1004.215	0.32
1004.64	-4.28
1005.066	3.92
1005.491	4.52
1005.916	-1.28
1006.342	1.42
1006.767	-6.38
1007.192	8.32
1007.617	0.22
1008.042	1.32
1008.468	-1.28
1008.893	-2.08
1009.318	-3.28
1009.743	-7.48
1010.168	7.22
1010.593	-1.68
1011.018	-8.28
1011.443	0.72
1011.868	3.32
1012.293	-0.48
1012.718	-3.38
1013.143	-1.38
1013.567	-3.48
1013.992	0.32
1014.417	-15.18
1014.842	1.72
1015.267	-3.28
1015.691	3.72
1016.116	9.92
1016.541	-1.28
1016.965	6.62
1017.39	8.92
1017.814	4.22
1018.239	-5.08
1018.663	-3.88
1019.088	-8.08
1019.512	6.42
1019.937	2.42
1020.361	-5.98
1020.785	-5.38
1021.21	-2.58
1021.634	-3.28
1022.058	-0.38
1022.483	3.12
1022.907	-3.58
1023.331	-3.08
1023.755	-2.58
1024.179	-1.68
1024.604	-7.68
1025.028	-9.98
1025.452	-4.18
1025.876	-2.48
1026.3	0.82
1026.724	-12.58
1027.148	1.62
1027.572	-5.58
1027.996	-1.38
1028.42	-0.68
1028.843	-5.98
1029.267	-2.98
1029.691	-5.68
1030.115	-0.38
1030.539	-3.58
1030.962	-5.68
1031.386	-7.28
1031.81	1.92
1032.233	-0.98
1032.657	-1.78
1033.08	-0.08
1033.504	-2.28
1033.927	-5.98
1034.351	-0.88
1034.774	-2.88
1035.198	0.52
1035.621	-1.38
1036.045	-4.78
1036.468	6.02
1036.891	-3.88
1037.315	-4.78
1037.738	-7.48
1038.161	0.32
1038.584	-8.58
1039.008	-2.78
1039.431	-0.48
1039.854	-0.38
1040.277	-6.68
1040.7	-13.78
1041.123	-6.88
1041.546	-10.28
1041.969	-2.68
1042.392	-4.48
1042.815	-6.48
1043.238	-1.28
1043.661	2.42
1044.084	-6.68
1044.507	-5.48
1044.93	0.12
1045.352	-1.28
1045.775	2.52
1046.198	-0.48
1046.621	-1.68
1047.043	6.22
1047.466	6.62
1047.889	-2.68
1048.311	-6.68
1048.734	-5.48
1049.156	-2.38
1049.579	0.32
1050.001	-1.68
1050.424	3.82
1050.846	-3.28
1051.269	-2.28
1051.691	-3.58
1052.113	-7.08
1052.536	-1.88
1052.958	-1.38
1053.38	2.22
1053.802	-9.68
1054.225	0.22
1054.647	-0.58
1055.069	-4.68
1055.491	3.82
1055.913	-9.98
1056.335	-3.08
1056.757	-0.08
1057.179	-4.78
1057.601	-4.78
1058.023	-3.18
1058.445	-1.98
1058.867	-5.78
1059.289	-4.98
1059.711	-8.38
1060.133	-8.18
1060.555	3.72
1060.976	-12.78
1061.398	-5.98
1061.82	-5.68
1062.241	-3.38
1062.663	-9.98
1063.085	-5.28
1063.506	-1.18
1063.928	-4.28
1064.35	-0.38
1064.771	-8.88
1065.193	-8.38
1065.614	-2.88
1066.035	3.02
1066.457	-5.68
1066.878	3.12
1067.3	1.32
1067.721	-5.48
1068.142	-8.38
1068.564	-6.88
1068.985	-1.18
1069.406	-5.88
1069.827	-5.68
1070.248	-2.88
1070.67	-6.88
1071.091	-1.48
1071.512	-0.38
1071.933	-2.58
1072.354	-9.28
1072.775	1.12
1073.196	-9.48
1073.617	-1.58
1074.038	-7.68
1074.459	-8.38
1074.88	-8.58
1075.3	1.82
1075.721	-12.68
1076.142	-1.58
1076.563	0.12
1076.983	-9.78
1077.404	-1.18
1077.825	-6.68
1078.246	-1.58
1078.666	-8.48
1079.087	-3.78
1079.507	1.52
1079.928	5.92
1080.348	0.32
1080.769	-6.88
1081.189	-1.48
1081.61	-2.78
1082.03	-4.58
1082.451	-7.28
1082.871	-4.28
1083.291	-5.18
1083.711	-7.08
1084.132	2.42
1084.552	-7.18
1084.972	-0.68
1085.392	-5.78
1085.813	-7.88
1086.233	-5.48
1086.653	-6.58
1087.073	0.62
1087.493	-4.38
1087.913	-8.08
1088.333	-7.98
1088.753	-7.98
1089.173	2.92
1089.593	-1.18
1090.013	1.62
1090.433	3.62
1090.852	-8.08
1091.272	-1.78
1091.692	0.72
1092.112	-0.48
1092.531	-6.38
1092.951	-11.38
1093.371	-3.98
1093.79	-2.18
1094.21	-5.28
1094.63	-9.38
1095.049	-2.88
1095.469	-4.58
1095.888	-4.28
1096.308	0.72
1096.727	2.72
1097.146	-4.08
1097.566	2.12
1097.985	-0.78
1098.405	-0.28
1098.824	-7.88
1099.243	-6.18
1099.662	-5.28
1100.082	-1.78
1100.501	-4.38
1100.92	-4.58
1101.339	-3.18
1101.758	-7.88
