Data from 20171114-ORNL-Ar_H_NY_Subt18_08-06-33-837.txt Node
Date: Tue Nov 14 08:06:33 EST 2017
User: Ender
Spectrometer: HR+D1039
Trigger mode: 0
Integration Time (sec): 2.730000E-2
Scans to average: 10
Electric dark correction enabled: true
Nonlinearity correction enabled: false
Boxcar width: 0
XAxis mode: Wavelengths
Number of Pixels in Spectrum: 2048
>>>>>Begin Spectral Data<<<<<
187.836	-5.19
188.309	-5.19
188.782	-5.19
189.255	-0.99
189.728	0.01
190.201	5.71
190.674	-2.99
191.147	-1.29
191.619	-9.59
192.092	-3.39
192.565	8.41
193.038	-3.49
193.511	3.21
193.984	0.61
194.456	5.41
194.929	-0.69
195.402	0.11
195.874	4.11
196.347	3.11
196.82	-4.99
197.292	6.11
197.765	-0.29
198.237	-9.29
198.71	6.01
199.182	-2.89
199.655	2.61
200.127	2.91
200.6	-0.39
201.072	0.51
201.544	-7.79
202.017	0.41
202.489	6.81
202.961	-3.09
203.433	-2.79
203.906	-3.59
204.378	-1.69
204.85	0.51
205.322	-6.99
205.794	-5.19
206.266	-3.59
206.739	-0.39
207.211	5.31
207.683	-4.89
208.155	-4.89
208.627	-2.09
209.099	-1.69
209.57	-1.69
210.042	-3.89
210.514	1.01
210.986	-1.29
211.458	-5.99
211.93	1.91
212.402	7.91
212.873	1.21
213.345	-3.79
213.817	-7.79
214.288	-2.09
214.76	-7.69
215.232	-3.19
215.703	-2.49
216.175	0.41
216.646	0.21
217.118	-3.09
217.589	-0.69
218.061	5.51
218.532	4.21
219.004	1.51
219.475	-1.09
219.946	0.91
220.418	-4.19
220.889	6.81
221.36	1.61
221.832	0.61
222.303	-1.39
222.774	2.71
223.245	-4.19
223.717	-4.89
224.188	-0.49
224.659	-0.39
225.13	-6.69
225.601	1.71
226.072	6.51
226.543	3.61
227.014	-3.59
227.485	-5.29
227.956	-0.19
228.427	-2.29
228.898	2.11
229.369	1.11
229.839	0.31
230.31	-1.69
230.781	0.61
231.252	-2.09
231.722	-2.19
232.193	-3.39
232.664	1.91
233.135	3.31
233.605	-0.09
234.076	-9.49
234.546	7.01
235.017	5.51
235.487	3.01
235.958	-1.89
236.428	1.21
236.899	7.61
237.369	-1.59
237.84	-1.49
238.31	10.41
238.78	6.61
239.251	2.41
239.721	5.11
240.191	3.41
240.662	-3.69
241.132	1.81
241.602	1.21
242.072	3.81
242.542	7.81
243.013	0.31
243.483	6.61
243.953	1.91
244.423	-0.29
244.893	-1.09
245.363	5.91
245.833	2.91
246.303	-1.79
246.773	9.21
247.243	3.91
247.712	0.81
248.182	7.61
248.652	12.01
249.122	3.71
249.592	13.51
250.061	21.51
250.531	36.31
251.001	17.51
251.471	22.91
251.94	21.51
252.41	5.71
252.879	4.81
253.349	12.41
253.818	13.51
254.288	0.01
254.757	7.81
255.227	2.51
255.696	8.31
256.166	5.41
256.635	2.81
257.105	11.91
257.574	11.91
258.043	12.41
258.513	11.61
258.982	20.71
259.451	11.21
259.92	14.71
260.389	7.81
260.859	20.21
261.328	12.51
261.797	15.21
262.266	13.71
262.735	9.41
263.204	11.81
263.673	2.31
264.142	13.61
264.611	7.11
265.08	0.61
265.549	3.51
266.018	8.71
266.487	1.51
266.955	2.71
267.424	1.61
267.893	11.61
268.362	2.41
268.83	8.31
269.299	11.41
269.768	5.81
270.236	10.01
270.705	6.61
271.174	10.81
271.642	13.21
272.111	7.71
272.579	19.21
273.048	26.51
273.516	33.31
273.985	31.21
274.453	20.61
274.922	26.71
275.39	15.51
275.858	7.41
276.327	12.11
276.795	26.21
277.263	12.91
277.731	33.51
278.2	56.01
278.668	58.51
279.136	48.51
279.604	18.11
280.072	20.41
280.54	12.91
281.008	15.71
281.477	19.41
281.945	20.31
282.413	16.71
282.881	19.81
283.348	8.61
283.816	18.31
284.284	17.61
284.752	28.01
285.22	13.91
285.688	14.91
286.156	21.11
286.623	44.81
287.091	49.51
287.559	32.01
288.026	15.51
288.494	18.31
288.962	3.51
289.429	13.51
289.897	23.81
290.364	21.91
290.832	20.01
291.3	15.61
291.767	18.41
292.234	20.01
292.702	16.41
293.169	20.11
293.637	25.91
294.104	28.11
294.571	7.51
295.039	14.21
295.506	19.41
295.973	20.71
296.44	18.31
296.908	22.51
297.375	23.31
297.842	15.51
298.309	7.21
298.776	15.71
299.243	16.61
299.71	21.11
300.177	25.11
300.644	27.51
301.111	22.71
301.578	23.51
302.045	15.71
302.512	28.91
302.979	24.61
303.446	25.21
303.913	25.01
304.379	22.51
304.846	31.41
305.313	24.61
305.78	20.91
306.246	29.61
306.713	30.81
307.18	29.61
307.646	26.51
308.113	32.61
308.579	29.61
309.046	22.81
309.512	26.81
309.979	19.41
310.445	30.71
310.912	29.91
311.378	29.51
311.845	30.61
312.311	35.01
312.777	35.11
313.244	33.91
313.71	38.61
314.176	28.21
314.642	33.51
315.109	34.21
315.575	40.21
316.041	42.81
316.507	37.01
316.973	41.11
317.439	38.61
317.905	41.01
318.371	39.41
318.837	33.11
319.303	35.71
319.769	34.11
320.235	37.81
320.701	37.81
321.167	37.81
321.633	40.91
322.099	43.31
322.564	46.61
323.03	45.11
323.496	41.81
323.962	46.21
324.427	40.11
324.893	39.01
325.359	40.21
325.824	36.91
326.29	35.11
326.755	41.11
327.221	41.21
327.686	34.11
328.152	47.51
328.617	46.01
329.083	54.81
329.548	60.21
330.014	51.61
330.479	41.01
330.944	41.71
331.41	43.51
331.875	44.11
332.34	44.11
332.805	49.71
333.271	47.01
333.736	47.01
334.201	53.21
334.666	55.91
335.131	59.01
335.596	55.91
336.061	51.51
336.526	47.31
336.991	50.01
337.456	58.91
337.921	48.01
338.386	45.31
338.851	44.21
339.316	49.31
339.781	54.81
340.246	53.61
340.711	50.81
341.175	57.51
341.64	48.61
342.105	56.21
342.569	54.51
343.034	59.31
343.499	63.01
343.963	56.31
344.428	69.51
344.893	61.21
345.357	66.21
345.822	65.81
346.286	71.31
346.751	74.21
347.215	75.21
347.679	72.51
348.144	108.11
348.608	88.01
349.073	69.91
349.537	81.81
350.001	80.91
350.465	98.01
350.93	80.11
351.394	82.61
351.858	78.21
352.322	84.71
352.786	83.71
353.25	104.11
353.715	108.01
354.179	103.81
354.643	126.01
355.107	130.01
355.571	117.81
356.035	104.91
356.498	123.01
356.962	127.81
357.426	139.11
357.89	118.51
358.354	89.11
358.818	89.91
359.281	84.71
359.745	80.81
360.209	81.11
360.673	72.01
361.136	81.41
361.6	86.31
362.064	82.21
362.527	89.71
362.991	98.91
363.454	86.61
363.918	81.81
364.381	86.41
364.845	89.91
365.308	87.31
365.772	91.81
366.235	91.71
366.698	89.81
367.162	95.81
367.625	89.51
368.088	93.01
368.552	100.21
369.015	87.11
369.478	98.81
369.941	102.81
370.404	95.81
370.867	103.11
371.331	112.81
371.794	120.41
372.257	115.51
372.72	127.81
373.183	113.61
373.646	106.81
374.109	115.21
374.572	109.21
375.035	115.51
375.497	113.01
375.96	114.81
376.423	109.51
376.886	120.41
377.349	114.01
377.811	111.71
378.274	115.31
378.737	109.41
379.199	119.71
379.662	115.81
380.125	129.21
380.587	124.31
381.05	124.61
381.512	138.11
381.975	137.01
382.437	127.11
382.9	129.91
383.362	137.81
383.825	145.51
384.287	149.91
384.75	149.31
385.212	142.91
385.674	150.61
386.136	141.51
386.599	125.81
387.061	144.31
387.523	139.71
387.985	147.01
388.447	149.91
388.91	155.61
389.372	175.81
389.834	161.11
390.296	150.71
390.758	158.81
391.22	171.11
391.682	221.71
392.144	310.31
392.606	239.01
393.068	167.51
393.529	169.11
393.991	159.91
394.453	157.31
394.915	161.61
395.377	203.31
395.838	221.71
396.3	159.01
396.762	149.31
397.224	138.01
397.685	139.21
398.147	132.91
398.608	134.71
399.07	127.91
399.531	138.11
399.993	143.91
400.454	159.41
400.916	156.51
401.377	153.71
401.839	162.01
402.3	160.81
402.762	172.21
403.223	189.71
403.684	185.41
404.145	163.61
404.607	164.11
405.068	168.41
405.529	184.01
405.99	197.41
406.451	187.01
406.913	179.21
407.374	171.81
407.835	167.61
408.296	181.11
408.757	172.21
409.218	195.61
409.679	183.41
410.14	180.51
410.601	190.11
411.062	188.61
411.522	196.21
411.983	195.61
412.444	180.51
412.905	183.21
413.366	198.11
413.826	203.11
414.287	224.71
414.748	267.11
415.208	257.81
415.669	225.61
416.13	213.71
416.59	207.91
417.051	224.81
417.511	225.01
417.972	243.91
418.432	253.61
418.893	296.01
419.353	257.61
419.814	201.11
420.274	199.51
420.734	194.11
421.195	208.11
421.655	210.21
422.115	199.71
422.576	201.31
423.036	206.81
423.496	215.71
423.956	223.11
424.416	233.91
424.876	276.31
425.336	268.31
425.797	268.31
426.257	257.91
426.717	252.21
427.177	248.21
427.637	233.21
428.097	237.81
428.556	252.31
429.016	276.91
429.476	266.31
429.936	290.01
430.396	291.41
430.856	306.81
431.315	326.21
431.775	366.51
432.235	390.91
432.694	373.31
433.154	381.31
433.614	400.11
434.073	354.41
434.533	298.41
434.993	281.31
435.452	297.61
435.912	304.01
436.371	298.81
436.83	290.11
437.29	279.41
437.749	255.41
438.209	252.41
438.668	277.51
439.127	294.51
439.587	273.81
440.046	257.11
440.505	266.41
440.964	291.31
441.424	334.71
441.883	317.41
442.342	267.41
442.801	233.61
443.26	234.01
443.719	233.61
444.178	225.91
444.637	219.51
445.096	231.31
445.555	235.01
446.014	233.91
446.473	241.41
446.932	245.71
447.391	237.71
447.849	239.51
448.308	224.61
448.767	230.01
449.226	248.11
449.685	247.31
450.143	243.71
450.602	250.41
451.061	238.91
451.519	239.91
451.978	240.61
452.436	241.11
452.895	242.91
453.353	262.31
453.812	240.31
454.27	250.31
454.729	246.41
455.187	249.51
455.646	252.91
456.104	253.31
456.562	269.61
457.021	275.81
457.479	271.61
457.937	279.61
458.395	272.11
458.854	252.91
459.312	267.41
459.77	284.61
460.228	263.71
460.686	248.71
461.144	254.91
461.602	257.21
462.06	250.91
462.518	264.01
462.976	257.81
463.434	271.31
463.892	269.71
464.35	292.61
464.808	296.61
465.266	279.21
465.724	279.71
466.181	281.21
466.639	279.91
467.097	304.91
467.555	311.61
468.012	314.51
468.47	320.01
468.928	345.01
469.385	353.51
469.843	363.91
470.3	367.41
470.758	377.11
471.215	402.81
471.673	424.11
472.13	425.51
472.588	436.21
473.045	386.81
473.503	388.91
473.96	414.71
474.417	419.51
474.875	442.91
475.332	484.01
475.789	475.31
476.246	478.61
476.704	515.61
477.161	524.91
477.618	543.51
478.075	589.41
478.532	641.81
478.989	714.31
479.446	834.71
479.903	807.61
480.36	823.81
480.817	889.31
481.274	1000.61
481.731	1112.81
482.188	1207.61
482.645	1345.51
483.102	1449.41
483.558	1587.61
484.015	1640.01
484.472	1609.41
484.929	1573.01
485.385	1505.31
485.842	1471.41
486.299	1395.91
486.755	1342.41
487.212	1129.61
487.668	952.31
488.125	875.01
488.582	806.11
489.038	768.51
489.494	740.91
489.951	709.41
490.407	687.21
490.864	668.61
491.32	673.11
491.776	661.31
492.233	674.51
492.689	631.31
493.145	626.11
493.602	616.21
494.058	631.31
494.514	641.81
494.97	661.41
495.426	670.51
495.882	643.41
496.338	631.71
496.794	642.71
497.251	643.81
497.707	654.41
498.163	647.91
498.618	659.01
499.074	668.81
499.53	701.21
499.986	701.31
500.442	678.51
500.898	655.61
501.354	649.21
501.809	653.61
502.265	665.11
502.721	688.41
503.177	695.11
503.632	682.81
504.088	699.01
504.543	739.51
504.999	748.61
505.455	676.41
505.91	657.51
506.366	654.31
506.821	646.61
507.277	644.01
507.732	647.51
508.187	640.31
508.643	657.51
509.098	649.01
509.553	677.21
510.009	677.21
510.464	693.51
510.919	712.21
511.375	715.21
511.83	723.21
512.285	744.11
512.74	787.41
513.195	807.71
513.65	796.01
514.105	794.11
514.56	793.01
515.015	815.71
515.47	841.01
515.925	817.51
516.38	805.31
516.835	824.61
517.29	806.91
517.745	802.01
518.2	781.11
518.655	771.51
519.109	763.51
519.564	761.91
520.019	752.51
520.474	750.31
520.928	749.71
521.383	732.61
521.838	738.91
522.292	738.91
522.747	742.01
523.201	721.11
523.656	716.21
524.11	714.91
524.565	720.51
525.019	721.01
525.474	727.91
525.928	724.31
526.382	725.81
526.837	714.81
527.291	714.71
527.745	719.81
528.2	726.91
528.654	719.31
529.108	711.81
529.562	716.81
530.016	715.91
530.47	711.61
530.925	718.01
531.379	718.21
531.833	724.71
532.287	728.61
532.741	717.71
533.195	719.81
533.649	736.41
534.103	740.91
534.556	728.31
535.01	742.61
535.464	730.31
535.918	742.01
536.372	740.71
536.826	740.31
537.279	735.01
537.733	732.91
538.187	732.41
538.64	732.91
539.094	744.71
539.548	755.91
540.001	749.91
540.455	746.71
540.908	749.31
541.362	769.21
541.815	780.31
542.269	780.91
542.722	783.31
543.175	798.41
543.629	800.91
544.082	814.11
544.536	813.01
544.989	813.31
545.442	823.91
545.895	808.61
546.349	816.01
546.802	826.91
547.255	818.61
547.708	832.11
548.161	841.81
548.614	846.31
549.067	852.11
549.52	844.91
549.973	828.81
550.426	839.21
550.879	815.11
551.332	827.51
551.785	827.91
552.238	819.71
552.691	847.51
553.144	851.71
553.596	866.91
554.049	889.91
554.502	922.21
554.955	940.21
555.407	950.11
555.86	930.51
556.313	921.71
556.765	910.41
557.218	900.01
557.67	912.91
558.123	886.11
558.576	900.41
559.028	894.21
559.48	904.21
559.933	898.41
560.385	858.71
560.838	828.61
561.29	808.11
561.742	803.51
562.195	784.51
562.647	788.41
563.099	800.31
563.551	797.11
564.004	805.51
564.456	796.01
564.908	789.81
565.36	769.91
565.812	759.51
566.264	750.21
566.716	748.31
567.168	742.21
567.62	748.41
568.072	725.91
568.524	714.61
568.976	712.81
569.428	693.31
569.88	706.71
570.332	708.71
570.784	710.41
571.235	702.61
571.687	716.51
572.139	722.91
572.59	731.81
573.042	727.51
573.494	718.71
573.945	726.31
574.397	704.01
574.849	711.11
575.3	712.51
575.752	700.61
576.203	701.91
576.655	699.91
577.106	687.01
577.557	683.61
578.009	688.61
578.46	686.61
578.912	695.71
579.363	688.41
579.814	688.31
580.265	689.81
580.717	688.21
581.168	684.71
581.619	704.41
582.07	700.71
582.521	697.71
582.972	688.41
583.423	704.31
583.875	701.11
584.326	717.61
584.777	770.31
585.227	845.81
585.678	937.31
586.129	1024.81
586.58	1115.21
587.031	1178.31
587.482	1330.01
587.933	1508.91
588.384	1317.11
588.834	1004.11
589.285	831.91
589.736	798.81
590.186	795.01
590.637	790.31
591.088	771.01
591.538	746.01
591.989	748.91
592.439	743.21
592.89	741.31
593.34	724.71
593.791	728.61
594.241	720.91
594.692	730.11
595.142	724.81
595.593	716.61
596.043	727.11
596.493	724.91
596.943	733.01
597.394	741.51
597.844	738.01
598.294	738.81
598.744	773.41
599.195	801.61
599.645	834.01
600.095	875.61
600.545	927.61
600.995	995.71
601.445	1054.71
601.895	1114.91
602.345	1172.41
602.795	1147.81
603.245	1086.91
603.695	1039.11
604.145	994.11
604.594	937.41
605.044	886.51
605.494	815.41
605.944	779.71
606.393	765.21
606.843	746.11
607.293	754.71
607.743	764.71
608.192	772.11
608.642	773.11
609.091	793.71
609.541	790.21
609.99	793.91
610.44	788.91
610.889	746.91
611.339	729.31
611.788	705.51
612.238	720.81
612.687	733.61
613.136	739.91
613.586	753.21
614.035	759.81
614.484	773.01
614.933	775.91
615.383	760.21
615.832	763.51
616.281	752.51
616.73	701.01
617.179	685.01
617.628	664.71
618.077	655.51
618.526	640.91
618.975	645.61
619.424	632.11
619.873	627.81
620.322	637.21
620.771	623.81
621.22	625.41
621.669	600.21
622.118	604.31
622.567	598.81
623.015	584.51
623.464	584.01
623.913	574.31
624.361	562.71
624.81	569.31
625.259	576.51
625.707	569.41
626.156	572.01
626.604	573.41
627.053	567.11
627.501	580.71
627.95	579.01
628.398	596.11
628.847	585.91
629.295	578.11
629.744	587.91
630.192	585.81
630.64	586.11
631.089	578.71
631.537	591.31
631.985	603.71
632.433	623.61
632.881	623.01
633.33	676.71
633.778	652.61
634.226	583.91
634.674	583.51
635.122	597.51
635.57	611.21
636.018	643.21
636.466	596.21
636.914	578.71
637.362	587.21
637.81	591.71
638.258	590.51
638.705	602.11
639.153	628.21
639.601	641.11
640.049	667.41
640.497	691.01
640.944	719.51
641.392	662.01
641.84	631.21
642.287	604.31
642.735	577.81
643.182	588.31
643.63	584.31
644.078	602.41
644.525	612.31
644.973	613.01
645.42	620.91
645.867	629.81
646.315	663.81
646.762	676.41
647.21	702.21
647.657	725.91
648.104	770.81
648.551	795.21
648.999	859.81
649.446	940.81
649.893	1030.31
650.34	1195.51
650.787	1416.31
651.234	1762.01
651.682	2301.71
652.129	3152.91
652.576	4574.51
653.023	6705.71
653.47	9196.21
653.917	11501.21
654.363	13261.41
654.81	14633.91
655.257	13952.71
655.704	9115.21
656.151	5373.11
656.598	3499.61
657.044	2475.71
657.491	1911.71
657.938	1519.61
658.385	1268.31
658.831	1119.81
659.278	989.41
659.724	875.81
660.171	811.31
660.618	743.01
661.064	704.51
661.511	678.01
661.957	677.61
662.404	664.21
662.85	664.71
663.296	649.01
663.743	575.21
664.189	559.61
664.635	549.21
665.082	534.11
665.528	540.31
665.974	529.61
666.42	527.71
666.867	518.31
667.313	501.81
667.759	495.91
668.205	489.11
668.651	501.81
669.097	495.71
669.543	521.41
669.989	479.51
670.435	464.41
670.881	453.71
671.327	462.41
671.773	480.01
672.219	510.71
672.665	563.21
673.11	597.11
673.556	643.01
674.002	681.41
674.448	667.11
674.893	557.81
675.339	487.11
675.785	448.71
676.23	425.91
676.676	410.01
677.122	396.31
677.567	377.61
678.013	376.21
678.458	369.71
678.904	374.21
679.349	355.91
679.794	365.81
680.24	358.91
680.685	360.21
681.131	356.81
681.576	360.31
682.021	363.91
682.466	361.81
682.912	352.51
683.357	358.61
683.802	391.81
684.247	420.91
684.692	469.01
685.137	512.21
685.583	543.81
686.028	568.51
686.473	523.51
686.918	454.91
687.363	424.81
687.807	403.91
688.252	377.41
688.697	364.51
689.142	355.81
689.587	337.11
690.032	333.61
690.477	348.71
690.921	359.91
691.366	390.11
691.811	397.41
692.255	439.71
692.7	472.91
693.145	513.21
693.589	706.51
694.034	1152.81
694.478	1564.71
694.923	1769.41
695.367	2301.01
695.812	1213.91
696.256	511.11
696.701	379.11
697.145	345.71
697.59	339.51
698.034	334.51
698.478	338.51
698.922	331.31
699.367	339.81
699.811	351.81
700.255	363.91
700.699	397.21
701.143	430.61
701.588	489.71
702.032	528.21
702.476	531.81
702.92	493.61
703.364	504.51
703.808	643.91
704.252	1049.11
704.696	1475.41
705.14	1703.21
705.584	2164.81
706.027	1077.21
706.471	525.71
706.915	401.91
707.359	361.01
707.803	334.21
708.246	318.11
708.69	318.11
709.134	327.21
709.577	309.31
710.021	321.71
710.465	315.11
710.908	301.51
711.352	306.81
711.795	317.71
712.239	361.61
712.682	398.11
713.126	425.91
713.569	478.71
714.012	379.21
714.456	332.31
714.899	308.61
715.342	283.71
715.786	268.71
716.229	258.51
716.672	259.41
717.115	257.01
717.558	263.51
718.002	262.31
718.445	265.91
718.888	288.11
719.331	304.91
719.774	318.61
720.217	311.81
720.66	286.81
721.103	278.11
721.546	262.11
721.989	251.11
722.432	238.91
722.874	246.11
723.317	232.41
723.76	244.91
724.203	258.51
724.645	329.41
725.088	458.01
725.531	574.71
725.974	659.41
726.416	562.61
726.859	314.01
727.301	257.01
727.744	248.41
728.187	235.01
728.629	252.01
729.071	250.71
729.514	266.91
729.956	274.91
730.399	283.71
730.841	296.01
731.283	282.81
731.726	275.41
732.168	261.01
732.61	270.31
733.053	289.31
733.495	326.01
733.937	367.71
734.379	404.91
734.821	450.51
735.263	552.71
735.705	855.41
736.148	1602.41
736.59	2613.61
737.032	3105.31
737.474	2526.81
737.916	822.61
738.357	435.81
738.799	333.61
739.241	305.21
739.683	301.11
740.125	301.11
740.567	312.21
741.008	322.51
741.45	321.61
741.892	320.51
742.334	355.11
742.775	366.81
743.217	350.01
743.658	280.01
744.1	258.61
744.542	269.61
744.983	318.21
745.425	347.41
745.866	354.81
746.307	289.31
746.749	291.01
747.19	329.31
747.632	464.81
748.073	905.81
748.514	1897.21
748.956	2903.51
749.397	3617.41
749.838	3002.31
750.279	2992.91
750.72	1521.81
751.162	554.71
751.603	323.41
752.044	256.11
752.485	222.01
752.926	215.81
753.367	213.31
753.808	205.81
754.249	199.71
754.69	188.61
755.131	184.91
755.572	183.91
756.013	187.51
756.453	194.21
756.894	200.81
757.335	198.21
757.776	198.21
758.216	199.31
758.657	207.41
759.098	212.01
759.538	232.01
759.979	279.61
760.42	383.11
760.86	718.41
761.301	1839.81
761.741	4490.01
762.182	6509.51
762.622	4565.11
763.063	1312.21
763.503	541.51
763.943	357.11
764.384	343.81
764.824	409.51
765.264	435.31
765.705	314.91
766.145	222.01
766.585	201.41
767.025	180.41
767.465	188.01
767.906	239.51
768.346	316.41
768.786	339.41
769.226	267.61
769.666	325.91
770.106	631.91
770.546	1571.31
770.986	2682.31
771.426	2410.31
771.866	788.81
772.306	344.21
772.745	207.81
773.185	171.31
773.625	177.21
774.065	168.71
774.505	205.61
774.944	311.41
775.384	674.31
775.824	1227.21
776.263	1186.41
776.703	501.21
777.142	226.01
777.582	156.11
778.021	146.21
778.461	147.91
778.9	145.41
779.34	139.01
779.779	118.61
780.219	115.41
780.658	121.11
781.097	115.71
781.537	117.21
781.976	115.71
782.415	117.91
782.855	107.51
783.294	106.91
783.733	112.71
784.172	111.21
784.611	107.31
785.05	112.71
785.489	111.31
785.928	120.91
786.367	135.21
786.806	120.11
787.245	133.71
787.684	140.11
788.123	156.41
788.562	144.61
789.001	128.01
789.44	132.91
789.879	118.01
790.317	128.61
790.756	136.41
791.195	127.51
791.634	153.21
792.072	208.11
792.511	377.61
792.95	1022.71
793.388	2187.51
793.827	1958.61
794.265	682.21
794.704	281.71
795.142	186.61
795.581	149.31
796.019	137.81
796.458	128.41
796.896	125.01
797.334	127.01
797.773	162.31
798.211	224.11
798.649	448.11
799.087	1032.61
799.526	1618.91
799.964	2029.81
800.402	2037.41
800.84	765.01
801.278	297.21
801.716	183.21
802.154	154.31
802.592	149.91
803.03	147.91
803.468	136.11
803.906	152.41
804.344	155.71
804.782	145.81
805.22	135.51
805.658	130.01
806.096	152.81
806.533	163.21
806.971	179.81
807.409	224.61
807.847	323.01
808.284	667.41
808.722	1873.21
809.16	3329.41
809.597	3146.61
810.035	5463.21
810.472	5825.51
810.91	2099.21
811.347	799.21
811.785	404.51
812.222	265.11
812.66	202.51
813.097	163.91
813.535	148.21
813.972	134.31
814.409	126.01
814.846	116.41
815.284	112.51
815.721	102.11
816.158	112.71
816.595	129.71
817.032	173.51
817.47	195.61
817.907	181.11
818.344	159.21
818.781	121.41
819.218	106.01
819.655	130.41
820.092	188.01
820.529	217.21
820.966	179.91
821.403	135.11
821.839	112.01
822.276	110.11
822.713	127.61
823.15	131.51
823.587	117.81
824.023	149.91
824.46	307.61
824.897	912.31
825.333	1374.31
825.77	583.11
826.206	230.31
826.643	141.61
827.08	102.71
827.516	83.11
827.953	81.01
828.389	82.21
828.825	78.01
829.262	71.01
829.698	69.71
830.135	69.61
830.571	67.41
831.007	64.11
831.443	66.41
831.88	68.41
832.316	66.31
832.752	72.91
833.188	70.31
833.624	63.81
834.06	70.51
834.497	72.61
834.933	70.91
835.369	78.41
835.805	73.91
836.241	76.01
836.677	80.51
837.112	93.31
837.548	106.11
837.984	134.71
838.42	210.21
838.856	503.61
839.292	1534.01
839.727	2326.31
840.163	1069.81
840.599	941.61
841.034	2047.11
841.47	2140.91
841.906	785.81
842.341	333.21
842.777	225.81
843.212	316.61
843.648	311.51
844.083	157.81
844.519	99.61
844.954	80.01
845.39	64.91
845.825	59.31
846.261	59.51
846.696	54.01
847.131	56.81
847.566	59.21
848.002	48.21
848.437	53.21
848.872	62.51
849.307	61.11
849.742	93.21
850.177	184.51
850.613	564.91
851.048	890.71
851.483	391.51
851.918	158.11
852.353	89.31
852.788	68.71
853.223	59.91
853.657	52.11
854.092	54.01
854.527	41.91
854.962	45.81
855.397	46.31
855.832	49.31
856.266	40.11
856.701	43.31
857.136	42.51
857.57	47.41
858.005	51.71
858.44	60.81
858.874	44.01
859.309	62.91
859.743	42.11
860.178	45.21
860.612	47.41
861.047	45.81
861.481	71.31
861.915	77.11
862.35	51.01
862.784	36.51
863.218	38.51
863.653	32.71
864.087	43.31
864.521	55.21
864.955	68.31
865.39	157.31
865.824	186.41
866.258	116.31
866.692	157.21
867.126	169.31
867.56	112.71
867.994	53.51
868.428	38.91
868.862	48.41
869.296	58.71
869.73	63.51
870.164	62.31
870.598	51.21
871.031	44.11
871.465	31.31
871.899	35.41
872.333	22.31
872.766	30.21
873.2	27.41
873.634	33.71
874.067	32.01
874.501	27.21
874.935	39.31
875.368	34.81
875.802	29.81
876.235	27.71
876.669	26.51
877.102	24.01
877.535	33.81
877.969	28.31
878.402	29.71
878.836	21.61
879.269	25.61
879.702	24.71
880.135	22.31
880.569	23.21
881.002	32.81
881.435	25.01
881.868	24.61
882.301	29.21
882.734	21.51
883.167	25.91
883.601	16.21
884.034	25.81
884.467	16.51
884.899	19.11
885.332	18.61
885.765	23.51
886.198	19.01
886.631	16.61
887.064	21.91
887.497	21.51
887.929	26.21
888.362	18.11
888.795	13.51
889.228	17.51
889.66	20.71
890.093	17.21
890.526	15.81
890.958	17.61
891.391	21.51
891.823	27.11
892.256	17.81
892.688	14.01
893.121	17.81
893.553	19.01
893.985	27.31
894.418	20.61
894.85	16.71
895.282	17.41
895.715	19.61
896.147	17.41
896.579	17.51
897.011	12.61
897.444	17.31
897.876	23.51
898.308	20.31
898.74	13.71
899.172	14.61
899.604	27.51
900.036	22.41
900.468	15.51
900.9	19.81
901.332	15.21
901.764	13.81
902.196	22.51
902.628	26.61
903.06	17.51
903.491	31.81
903.923	23.41
904.355	29.01
904.787	28.91
905.218	28.91
905.65	26.61
906.082	15.21
906.513	14.51
906.945	17.51
907.376	15.21
907.808	24.11
908.239	22.91
908.671	21.21
909.102	19.41
909.534	34.11
909.965	53.11
910.397	91.61
910.828	319.81
911.259	485.61
911.691	219.31
912.122	113.71
912.553	49.11
912.984	36.01
913.415	30.71
913.847	27.71
914.278	16.51
914.709	16.81
915.14	20.11
915.571	21.11
916.002	15.01
916.433	22.71
916.864	21.41
917.295	18.41
917.726	23.91
918.157	15.21
918.587	31.21
919.018	24.81
919.449	22.21
919.88	32.71
920.311	33.91
920.741	51.91
921.172	170.31
921.603	147.81
922.033	73.31
922.464	48.01
922.895	27.61
923.325	23.91
923.756	20.81
924.186	9.51
924.617	35.51
925.047	53.61
925.478	54.01
925.908	41.11
926.338	29.91
926.769	22.31
927.199	24.91
927.629	12.91
928.06	19.81
928.49	19.21
928.92	15.41
929.35	11.61
929.78	14.01
930.21	9.11
930.641	6.71
931.071	12.21
931.501	10.81
931.931	10.81
932.361	8.31
932.791	4.51
933.221	3.91
933.651	3.61
934.08	21.91
934.51	30.81
934.94	9.01
935.37	10.11
935.8	9.41
936.229	13.21
936.659	14.41
937.089	6.81
937.519	15.11
937.948	23.51
938.378	14.81
938.807	10.11
939.237	5.01
939.666	7.81
940.096	0.91
940.525	7.21
940.955	8.91
941.384	2.51
941.814	0.31
942.243	-1.09
942.672	11.71
943.102	4.91
943.531	-0.39
943.96	12.31
944.39	5.61
944.819	2.51
945.248	1.71
945.677	6.41
946.106	8.81
946.535	7.51
946.964	3.61
947.393	8.81
947.822	4.31
948.251	-2.39
948.68	10.11
949.109	5.91
949.538	7.31
949.967	0.11
950.396	0.71
950.825	6.21
951.254	-2.49
951.682	-2.99
952.111	-0.59
952.54	10.31
952.969	-1.59
953.397	-2.79
953.826	-3.79
954.254	-5.09
954.683	2.01
955.112	5.01
955.54	2.71
955.969	3.81
956.397	3.31
956.826	1.11
957.254	4.11
957.682	4.81
958.111	6.41
958.539	1.21
958.967	7.41
959.396	0.61
959.824	3.51
960.252	5.41
960.68	-1.89
961.109	1.21
961.537	-5.59
961.965	-0.09
962.393	6.31
962.821	-3.59
963.249	8.91
963.677	6.01
964.105	8.81
964.533	49.31
964.961	48.01
965.389	25.41
965.817	11.41
966.245	3.91
966.672	0.11
967.1	-7.49
967.528	5.01
967.956	3.91
968.383	5.11
968.811	3.31
969.239	-4.89
969.666	-5.39
970.094	-0.59
970.522	-4.89
970.949	4.41
971.377	-1.39
971.804	3.41
972.232	0.51
972.659	4.81
973.087	1.61
973.514	-6.79
973.941	2.11
974.369	7.21
974.796	3.71
975.223	-0.19
975.651	-1.79
976.078	4.91
976.505	4.21
976.932	2.81
977.359	14.31
977.786	14.61
978.214	1.01
978.641	0.61
979.068	-1.89
979.495	5.51
979.922	3.81
980.349	-4.49
980.776	6.91
981.202	3.71
981.629	8.51
982.056	5.21
982.483	0.51
982.91	5.51
983.337	-0.29
983.763	4.81
984.19	1.71
984.617	-0.79
985.043	-2.79
985.47	3.71
985.897	-2.99
986.323	-4.99
986.75	6.41
987.176	6.51
987.603	0.31
988.029	6.31
988.456	-3.89
988.882	3.01
989.308	-2.49
989.735	-3.19
990.161	9.11
990.587	-5.59
991.014	-0.09
991.44	2.31
991.866	-2.49
992.292	-6.09
992.719	-3.29
993.145	6.11
993.571	-6.49
993.997	-0.99
994.423	2.31
994.849	2.31
995.275	6.01
995.701	3.21
996.127	2.81
996.553	7.31
996.979	-1.09
997.405	-0.19
997.83	3.91
998.256	-4.99
998.682	-4.09
999.108	-3.79
999.534	2.81
999.959	-1.69
1000.385	-5.39
1000.811	3.81
1001.236	-6.19
1001.662	-1.99
1002.087	-9.89
1002.513	4.91
1002.938	1.31
1003.364	2.01
1003.789	-3.49
1004.215	8.51
1004.64	0.61
1005.066	4.61
1005.491	0.61
1005.916	-1.99
1006.342	-6.59
1006.767	-2.59
1007.192	4.91
1007.617	-4.29
1008.042	-1.39
1008.468	-2.29
1008.893	3.21
1009.318	6.81
1009.743	-0.89
1010.168	3.91
1010.593	1.61
1011.018	-3.79
1011.443	-0.79
1011.868	5.01
1012.293	-2.29
1012.718	-4.39
1013.143	1.11
1013.567	0.41
1013.992	0.51
1014.417	-8.29
1014.842	7.11
1015.267	-3.79
1015.691	0.51
1016.116	6.01
1016.541	0.41
1016.965	-1.19
1017.39	2.11
1017.814	3.01
1018.239	5.11
1018.663	-6.29
1019.088	-7.99
1019.512	-2.29
1019.937	-0.49
1020.361	-4.39
1020.785	-5.79
1021.21	-4.19
1021.634	-2.69
1022.058	5.41
1022.483	3.31
1022.907	-3.39
1023.331	-1.29
1023.755	-4.29
1024.179	2.71
1024.604	-6.49
1025.028	-2.49
1025.452	1.21
1025.876	-0.29
1026.3	4.51
1026.724	-9.99
1027.148	-6.09
1027.572	-14.89
1027.996	2.01
1028.42	-2.29
1028.843	-7.59
1029.267	1.41
1029.691	-2.09
1030.115	-5.19
1030.539	-6.49
1030.962	-0.79
1031.386	-9.29
1031.81	2.01
1032.233	5.61
1032.657	1.81
1033.08	-0.39
1033.504	-7.49
1033.927	-2.59
1034.351	1.21
1034.774	0.91
1035.198	4.61
1035.621	-7.89
1036.045	-4.59
1036.468	3.21
1036.891	-8.39
1037.315	-11.49
1037.738	-9.69
1038.161	-3.09
1038.584	-2.09
1039.008	-3.19
1039.431	1.11
1039.854	0.51
1040.277	-2.59
1040.7	-12.39
1041.123	-1.29
1041.546	-6.49
1041.969	-4.29
1042.392	-2.59
1042.815	-0.69
1043.238	5.91
1043.661	5.41
1044.084	-4.99
1044.507	-5.59
1044.93	-5.09
1045.352	-5.29
1045.775	-4.79
1046.198	3.61
1046.621	-2.49
1047.043	4.61
1047.466	8.61
1047.889	-2.89
1048.311	-3.79
1048.734	4.01
1049.156	4.61
1049.579	-4.29
1050.001	1.61
1050.424	1.01
1050.846	-0.59
1051.269	-1.09
1051.691	6.51
1052.113	-1.29
1052.536	1.41
1052.958	3.61
1053.38	-3.19
1053.802	-7.29
1054.225	1.91
1054.647	-6.89
1055.069	-5.79
1055.491	7.91
1055.913	-8.59
1056.335	0.01
1056.757	-11.19
1057.179	-7.89
1057.601	0.81
1058.023	-0.29
1058.445	1.91
1058.867	-7.29
1059.289	-1.59
1059.711	-6.59
1060.133	0.11
1060.555	-2.79
1060.976	-3.79
1061.398	-1.29
1061.82	-1.49
1062.241	-1.09
1062.663	-10.09
1063.085	-4.99
1063.506	-0.59
1063.928	0.21
1064.35	0.91
1064.771	-10.19
1065.193	-2.39
1065.614	-6.99
1066.035	4.11
1066.457	-6.39
1066.878	2.01
1067.3	-2.89
1067.721	4.91
1068.142	-0.89
1068.564	-3.09
1068.985	-3.39
1069.406	-5.69
1069.827	-2.79
1070.248	0.81
1070.67	-2.49
1071.091	2.91
1071.512	0.01
1071.933	0.21
1072.354	-1.99
1072.775	-8.09
1073.196	-1.79
1073.617	-5.19
1074.038	-0.09
1074.459	0.41
1074.88	-4.09
1075.3	5.01
1075.721	-7.49
1076.142	-1.19
1076.563	-6.99
1076.983	-5.49
1077.404	-3.39
1077.825	-10.19
1078.246	-3.09
1078.666	-13.29
1079.087	-0.69
1079.507	-7.29
1079.928	0.81
1080.348	2.81
1080.769	-9.19
1081.189	2.61
1081.61	-0.39
1082.03	-3.39
1082.451	-7.39
1082.871	-0.59
1083.291	-4.19
1083.711	-4.69
1084.132	3.41
1084.552	-3.79
1084.972	2.61
1085.392	-9.59
1085.813	-4.19
1086.233	-10.59
1086.653	-0.69
1087.073	-0.89
1087.493	-3.79
1087.913	-5.29
1088.333	-3.69
1088.753	0.31
1089.173	4.61
1089.593	-3.19
1090.013	-1.49
1090.433	7.81
1090.852	2.81
1091.272	2.61
1091.692	-0.59
1092.112	0.31
1092.531	-8.49
1092.951	-10.69
1093.371	-0.09
1093.79	2.61
1094.21	-2.49
1094.63	-1.89
1095.049	-3.89
1095.469	-2.89
1095.888	-4.99
1096.308	2.11
1096.727	2.71
1097.146	-3.79
1097.566	0.21
1097.985	-6.19
1098.405	-4.89
1098.824	-5.69
1099.243	-5.69
1099.662	-1.19
1100.082	-0.19
1100.501	0.81
1100.92	-2.39
1101.339	-2.99
1101.758	-2.79
