Data from 20171114-ORNL-Ar_H_NY_Subt18_08-04-51-744.txt Node
Date: Tue Nov 14 08:04:51 EST 2017
User: Ender
Spectrometer: HR+D1039
Trigger mode: 0
Integration Time (sec): 2.730000E-2
Scans to average: 10
Electric dark correction enabled: true
Nonlinearity correction enabled: false
Boxcar width: 0
XAxis mode: Wavelengths
Number of Pixels in Spectrum: 2048
>>>>>Begin Spectral Data<<<<<
187.836	-5.02
188.309	-5.02
188.782	-5.02
189.255	-1.02
189.728	3.88
190.201	6.78
190.674	-0.02
191.147	2.18
191.619	-6.52
192.092	-2.32
192.565	5.68
193.038	2.98
193.511	3.78
193.984	5.08
194.456	-6.42
194.929	1.38
195.402	-6.62
195.874	-3.82
196.347	-3.72
196.82	-4.52
197.292	3.78
197.765	-1.32
198.237	-2.42
198.71	4.28
199.182	1.68
199.655	2.58
200.127	5.08
200.6	0.08
201.072	0.38
201.544	-4.02
202.017	0.28
202.489	2.08
202.961	4.18
203.433	-2.52
203.906	-9.12
204.378	-3.82
204.85	-3.22
205.322	-9.42
205.794	1.28
206.266	-5.62
206.739	-6.52
207.211	2.58
207.683	-4.52
208.155	-3.02
208.627	-6.42
209.099	-6.92
209.57	-12.32
210.042	-5.12
210.514	-0.72
210.986	0.08
211.458	-4.52
211.93	-1.92
212.402	-0.12
212.873	-7.22
213.345	-6.92
213.817	-3.12
214.288	-3.22
214.76	-11.32
215.232	-0.12
215.703	-2.32
216.175	4.38
216.646	-8.82
217.118	-4.02
217.589	-1.22
218.061	0.48
218.532	-4.12
219.004	-1.82
219.475	-7.32
219.946	-5.02
220.418	-3.62
220.889	-0.92
221.36	3.78
221.832	-1.92
222.303	-2.02
222.774	-0.82
223.245	-4.32
223.717	-0.42
224.188	-4.62
224.659	-6.72
225.13	0.68
225.601	-3.92
226.072	7.88
226.543	-2.82
227.014	1.08
227.485	1.28
227.956	-1.62
228.427	-2.12
228.898	-0.62
229.369	3.98
229.839	-3.52
230.31	-2.82
230.781	4.58
231.252	-5.52
231.722	0.78
232.193	0.48
232.664	-0.82
233.135	7.88
233.605	6.58
234.076	-1.02
234.546	5.88
235.017	4.38
235.487	0.98
235.958	-1.52
236.428	-7.92
236.899	7.98
237.369	9.78
237.84	-3.52
238.31	7.88
238.78	5.28
239.251	2.28
239.721	8.08
240.191	1.98
240.662	0.78
241.132	4.58
241.602	0.18
242.072	3.48
242.542	7.48
243.013	-1.02
243.483	6.28
243.953	1.68
244.423	2.78
244.893	1.38
245.363	5.58
245.833	4.28
246.303	-2.92
246.773	11.48
247.243	9.98
247.712	6.58
248.182	6.68
248.652	10.08
249.122	3.48
249.592	18.08
250.061	30.78
250.531	36.98
251.001	20.78
251.471	23.88
251.94	25.08
252.41	6.28
252.879	5.28
253.349	10.08
253.818	13.98
254.288	7.38
254.757	4.18
255.227	7.28
255.696	4.78
256.166	9.78
256.635	-1.52
257.105	12.38
257.574	12.58
258.043	10.38
258.513	14.68
258.982	16.98
259.451	13.38
259.92	21.08
260.389	12.28
260.859	18.38
261.328	14.98
261.797	24.58
262.266	6.78
262.735	15.68
263.204	17.38
263.673	3.58
264.142	7.68
264.611	-0.42
265.08	3.58
265.549	4.68
266.018	5.88
266.487	2.08
266.955	5.78
267.424	5.58
267.893	12.18
268.362	6.48
268.83	7.08
269.299	10.28
269.768	17.18
270.236	11.08
270.705	10.38
271.174	11.18
271.642	15.48
272.111	12.58
272.579	20.48
273.048	22.28
273.516	28.48
273.985	34.98
274.453	28.98
274.922	29.68
275.39	17.68
275.858	7.68
276.327	8.98
276.795	23.08
277.263	12.18
277.731	33.28
278.2	57.08
278.668	64.18
279.136	53.48
279.604	22.78
280.072	17.88
280.54	13.18
281.008	9.48
281.477	16.88
281.945	15.68
282.413	19.28
282.881	23.08
283.348	15.18
283.816	17.38
284.284	17.68
284.752	23.18
285.22	19.78
285.688	20.38
286.156	17.88
286.623	50.28
287.091	56.08
287.559	28.28
288.026	24.18
288.494	15.58
288.962	7.48
289.429	9.68
289.897	23.88
290.364	13.08
290.832	20.88
291.3	19.08
291.767	23.08
292.234	20.38
292.702	18.98
293.169	28.28
293.637	25.88
294.104	18.08
294.571	9.98
295.039	16.68
295.506	15.18
295.973	20.68
296.44	15.18
296.908	18.68
297.375	22.18
297.842	20.68
298.309	21.78
298.776	19.28
299.243	26.78
299.71	16.08
300.177	23.68
300.644	24.78
301.111	23.98
301.578	29.58
302.045	17.38
302.512	29.08
302.979	22.28
303.446	28.38
303.913	23.78
304.379	21.78
304.846	31.28
305.313	27.18
305.78	23.68
306.246	31.48
306.713	28.08
307.18	28.78
307.646	25.98
308.113	34.38
308.579	29.38
309.046	32.38
309.512	36.58
309.979	24.78
310.445	36.28
310.912	32.58
311.378	35.88
311.845	31.78
312.311	38.28
312.777	37.18
313.244	32.88
313.71	41.58
314.176	35.48
314.642	37.18
315.109	32.68
315.575	36.58
316.041	47.38
316.507	31.58
316.973	45.78
317.439	32.28
317.905	36.88
318.371	40.48
318.837	38.48
319.303	38.38
319.769	36.88
320.235	30.58
320.701	31.18
321.167	33.28
321.633	33.58
322.099	44.28
322.564	48.18
323.03	47.28
323.496	41.88
323.962	41.38
324.427	38.68
324.893	43.48
325.359	37.68
325.824	43.08
326.29	40.78
326.755	51.38
327.221	41.38
327.686	46.68
328.152	49.78
328.617	38.38
329.083	46.78
329.548	53.18
330.014	50.48
330.479	41.28
330.944	50.58
331.41	49.48
331.875	54.78
332.34	45.58
332.805	41.48
333.271	51.38
333.736	54.08
334.201	50.28
334.666	56.28
335.131	58.28
335.596	57.18
336.061	57.28
336.526	48.88
336.991	51.98
337.456	55.68
337.921	53.88
338.386	47.58
338.851	51.58
339.316	43.18
339.781	44.28
340.246	55.58
340.711	49.08
341.175	52.68
341.64	46.78
342.105	57.38
342.569	58.58
343.034	58.78
343.499	61.08
343.963	49.68
344.428	64.68
344.893	61.38
345.357	60.08
345.822	59.68
346.286	71.38
346.751	79.48
347.215	70.48
347.679	77.78
348.144	99.38
348.608	86.08
349.073	67.28
349.537	74.78
350.001	79.78
350.465	94.68
350.93	77.78
351.394	83.78
351.858	73.78
352.322	88.98
352.786	79.88
353.25	105.58
353.715	111.88
354.179	96.28
354.643	119.58
355.107	130.18
355.571	104.08
356.035	105.28
356.498	116.88
356.962	123.88
357.426	132.18
357.89	115.68
358.354	89.48
358.818	81.88
359.281	80.48
359.745	77.78
360.209	77.98
360.673	78.08
361.136	85.38
361.6	82.98
362.064	83.88
362.527	89.38
362.991	96.68
363.454	83.38
363.918	76.38
364.381	81.68
364.845	85.58
365.308	81.58
365.772	87.48
366.235	81.48
366.698	80.38
367.162	76.38
367.625	84.38
368.088	86.38
368.552	89.28
369.015	90.28
369.478	94.78
369.941	100.68
370.404	95.88
370.867	99.88
371.331	103.18
371.794	113.18
372.257	109.18
372.72	110.88
373.183	113.88
373.646	105.08
374.109	102.58
374.572	102.58
375.035	108.28
375.497	105.28
375.96	100.38
376.423	100.88
376.886	111.28
377.349	111.58
377.811	96.88
378.274	107.98
378.737	100.68
379.199	106.58
379.662	109.08
380.125	114.28
380.587	113.08
381.05	112.58
381.512	119.68
381.975	132.68
382.437	126.58
382.9	123.48
383.362	130.68
383.825	139.88
384.287	148.08
384.75	136.48
385.212	133.98
385.674	136.88
386.136	133.78
386.599	117.68
387.061	123.28
387.523	133.38
387.985	132.28
388.447	139.78
388.91	135.48
389.372	147.08
389.834	147.08
390.296	140.38
390.758	147.88
391.22	162.78
391.682	208.38
392.144	287.78
392.606	217.78
393.068	157.18
393.529	161.88
393.991	153.78
394.453	146.68
394.915	146.78
395.377	186.48
395.838	201.08
396.3	146.78
396.762	145.68
397.224	125.78
397.685	129.98
398.147	119.28
398.608	125.08
399.07	127.78
399.531	124.88
399.993	140.28
400.454	148.58
400.916	141.38
401.377	140.98
401.839	150.88
402.3	151.88
402.762	159.98
403.223	175.78
403.684	163.18
404.145	150.68
404.607	154.78
405.068	150.08
405.529	166.18
405.99	182.78
406.451	174.58
406.913	166.28
407.374	158.48
407.835	156.18
408.296	158.88
408.757	158.88
409.218	176.88
409.679	168.18
410.14	167.28
410.601	170.88
411.062	183.08
411.522	180.48
411.983	177.08
412.444	161.48
412.905	167.98
413.366	180.78
413.826	187.58
414.287	207.88
414.748	254.88
415.208	236.78
415.669	208.18
416.13	197.68
416.59	196.98
417.051	193.68
417.511	208.98
417.972	227.08
418.432	233.38
418.893	273.38
419.353	236.98
419.814	182.48
420.274	176.58
420.734	174.98
421.195	179.98
421.655	189.18
422.115	183.58
422.576	184.18
423.036	192.98
423.496	200.48
423.956	201.38
424.416	216.18
424.876	249.98
425.336	241.28
425.797	253.48
426.257	240.58
426.717	230.08
427.177	219.68
427.637	213.68
428.097	223.98
428.556	235.78
429.016	258.48
429.476	253.88
429.936	261.68
430.396	257.28
430.856	278.08
431.315	303.78
431.775	330.28
432.235	359.98
432.694	337.88
433.154	349.08
433.614	369.28
434.073	319.68
434.533	268.68
434.993	261.48
435.452	272.78
435.912	282.38
436.371	275.18
436.83	258.78
437.29	260.58
437.749	232.98
438.209	237.48
438.668	257.98
439.127	279.48
439.587	259.18
440.046	237.48
440.505	250.18
440.964	265.68
441.424	306.38
441.883	295.18
442.342	245.48
442.801	215.58
443.26	208.88
443.719	210.98
444.178	214.88
444.637	204.18
445.096	208.38
445.555	205.88
446.014	209.78
446.473	213.98
446.932	216.88
447.391	207.18
447.849	217.88
448.308	202.68
448.767	211.48
449.226	220.88
449.685	223.98
450.143	236.38
450.602	222.48
451.061	219.18
451.519	225.58
451.978	222.48
452.436	220.98
452.895	231.68
453.353	244.48
453.812	231.08
454.27	222.88
454.729	225.28
455.187	224.78
455.646	236.08
456.104	238.58
456.562	243.78
457.021	252.88
457.479	247.98
457.937	254.48
458.395	249.68
458.854	236.68
459.312	238.38
459.77	258.48
460.228	239.28
460.686	228.78
461.144	238.18
461.602	230.68
462.06	227.48
462.518	238.88
462.976	246.48
463.434	246.08
463.892	250.98
464.35	265.48
464.808	273.28
465.266	252.28
465.724	251.58
466.181	265.98
466.639	256.38
467.097	281.28
467.555	284.08
468.012	290.38
468.47	293.18
468.928	313.38
469.385	324.58
469.843	330.48
470.3	332.48
470.758	333.78
471.215	365.38
471.673	388.38
472.13	387.28
472.588	394.08
473.045	350.88
473.503	354.38
473.96	380.18
474.417	381.98
474.875	403.88
475.332	455.98
475.789	438.58
476.246	443.58
476.704	460.28
477.161	479.08
477.618	498.08
478.075	534.28
478.532	579.58
478.989	660.28
479.446	770.48
479.903	742.48
480.36	767.38
480.817	824.58
481.274	938.58
481.731	1025.18
482.188	1120.58
482.645	1253.58
483.102	1348.68
483.558	1465.68
484.015	1544.28
484.472	1510.58
484.929	1455.88
485.385	1412.48
485.842	1370.88
486.299	1304.78
486.755	1243.28
487.212	1051.88
487.668	877.38
488.125	799.78
488.582	742.88
489.038	716.88
489.494	685.68
489.951	660.18
490.407	650.18
490.864	620.68
491.32	607.58
491.776	614.28
492.233	612.58
492.689	579.48
493.145	571.88
493.602	572.48
494.058	581.28
494.514	582.78
494.97	602.08
495.426	611.28
495.882	593.98
496.338	591.98
496.794	603.08
497.251	589.08
497.707	609.68
498.163	612.28
498.618	621.88
499.074	616.38
499.53	644.48
499.986	643.08
500.442	622.78
500.898	605.88
501.354	598.38
501.809	591.48
502.265	610.18
502.721	635.68
503.177	639.28
503.632	635.18
504.088	640.08
504.543	677.88
504.999	678.68
505.455	616.58
505.91	601.78
506.366	595.68
506.821	596.58
507.277	584.38
507.732	592.28
508.187	590.48
508.643	590.98
509.098	597.58
509.553	624.38
510.009	627.48
510.464	640.28
510.919	654.18
511.375	650.78
511.83	675.88
512.285	691.08
512.74	712.98
513.195	743.68
513.65	736.98
514.105	747.18
514.56	745.58
515.015	758.08
515.47	773.98
515.925	763.78
516.38	752.88
516.835	759.68
517.29	743.28
517.745	743.98
518.2	730.78
518.655	706.58
519.109	711.48
519.564	709.48
520.019	691.08
520.474	685.98
520.928	693.78
521.383	687.98
521.838	683.78
522.292	680.28
522.747	675.48
523.201	658.78
523.656	651.68
524.11	653.28
524.565	655.48
525.019	649.08
525.474	671.18
525.928	671.48
526.382	658.68
526.837	655.38
527.291	664.88
527.745	657.68
528.2	660.28
528.654	640.68
529.108	646.78
529.562	654.68
530.016	655.78
530.47	653.98
530.925	659.48
531.379	660.48
531.833	658.38
532.287	662.38
532.741	651.48
533.195	671.88
533.649	676.28
534.103	695.68
534.556	677.58
535.01	674.18
535.464	661.98
535.918	675.18
536.372	677.98
536.826	677.78
537.279	668.68
537.733	673.78
538.187	674.38
538.64	681.48
539.094	681.38
539.548	692.08
540.001	675.48
540.455	684.28
540.908	689.68
541.362	697.38
541.815	694.98
542.269	703.08
542.722	710.98
543.175	722.58
543.629	723.58
544.082	731.48
544.536	739.38
544.989	739.48
545.442	742.88
545.895	734.58
546.349	745.28
546.802	739.18
547.255	746.08
547.708	748.18
548.161	762.38
548.614	767.98
549.067	777.08
549.52	768.38
549.973	756.18
550.426	758.28
550.879	733.78
551.332	751.18
551.785	751.48
552.238	769.48
552.691	768.88
553.144	775.28
553.596	788.38
554.049	797.88
554.502	836.28
554.955	851.18
555.407	851.08
555.86	844.88
556.313	832.38
556.765	830.28
557.218	824.38
557.67	832.98
558.123	819.48
558.576	821.28
559.028	825.48
559.48	827.48
559.933	815.28
560.385	784.68
560.838	758.58
561.29	737.08
561.742	725.58
562.195	715.58
562.647	712.58
563.099	718.18
563.551	718.98
564.004	720.88
564.456	725.28
564.908	709.48
565.36	704.18
565.812	684.98
566.264	679.38
566.716	682.38
567.168	666.08
567.62	673.48
568.072	655.28
568.524	649.98
568.976	644.28
569.428	622.38
569.88	625.78
570.332	636.28
570.784	637.88
571.235	627.28
571.687	644.48
572.139	659.28
572.59	669.18
573.042	660.18
573.494	655.48
573.945	646.88
574.397	633.08
574.849	644.38
575.3	638.18
575.752	637.08
576.203	637.08
576.655	637.18
577.106	622.88
577.557	610.98
578.009	622.28
578.46	617.58
578.912	616.08
579.363	615.08
579.814	613.18
580.265	614.68
580.717	609.28
581.168	617.38
581.619	629.48
582.07	631.28
582.521	623.78
582.972	618.48
583.423	626.28
583.875	639.88
584.326	647.18
584.777	689.68
585.227	768.08
585.678	837.58
586.129	927.68
586.58	1000.58
587.031	1090.98
587.482	1241.98
587.933	1420.68
588.384	1214.38
588.834	898.58
589.285	743.88
589.736	717.38
590.186	718.48
590.637	706.08
591.088	678.28
591.538	679.58
591.989	673.98
592.439	664.38
592.89	658.78
593.34	666.38
593.791	657.48
594.241	647.68
594.692	643.28
595.142	651.98
595.593	642.58
596.043	645.98
596.493	662.38
596.943	655.88
597.394	658.68
597.844	653.68
598.294	661.18
598.744	691.78
599.195	701.88
599.645	739.08
600.095	788.38
600.545	842.68
600.995	883.28
601.445	937.78
601.895	987.28
602.345	1032.58
602.795	1008.78
603.245	980.88
603.695	925.18
604.145	877.78
604.594	832.28
605.044	776.18
605.494	723.78
605.944	683.78
606.393	671.28
606.843	661.58
607.293	669.78
607.743	671.78
608.192	670.68
608.642	689.08
609.091	702.38
609.541	707.18
609.99	716.28
610.44	700.08
610.889	648.38
611.339	638.68
611.788	619.98
612.238	636.18
612.687	650.58
613.136	652.88
613.586	670.38
614.035	658.98
614.484	689.28
614.933	674.88
615.383	679.48
615.832	666.68
616.281	656.08
616.73	607.68
617.179	601.58
617.628	587.18
618.077	571.88
618.526	567.08
618.975	558.78
619.424	553.58
619.873	539.68
620.322	558.68
620.771	546.98
621.22	545.78
621.669	527.18
622.118	531.98
622.567	521.68
623.015	504.98
623.464	516.28
623.913	505.78
624.361	493.88
624.81	503.28
625.259	501.98
625.707	501.88
626.156	494.98
626.604	510.68
627.053	501.58
627.501	502.58
627.95	509.88
628.398	523.78
628.847	516.38
629.295	503.58
629.744	522.08
630.192	515.98
630.64	513.58
631.089	510.28
631.537	521.48
631.985	522.38
632.433	539.18
632.881	551.68
633.33	598.48
633.778	576.18
634.226	509.48
634.674	503.58
635.122	511.58
635.57	536.18
636.018	557.78
636.466	522.78
636.914	495.58
637.362	512.68
637.81	514.98
638.258	516.78
638.705	525.88
639.153	550.18
639.601	550.58
640.049	568.98
640.497	599.78
640.944	613.38
641.392	570.48
641.84	551.98
642.287	524.58
642.735	515.18
643.182	511.38
643.63	510.08
644.078	507.48
644.525	531.58
644.973	531.68
645.42	539.18
645.867	557.88
646.315	573.68
646.762	585.28
647.21	616.08
647.657	637.28
648.104	675.08
648.551	698.68
648.999	748.78
649.446	822.08
649.893	892.38
650.34	1033.48
650.787	1231.28
651.234	1526.98
651.682	1994.38
652.129	2703.78
652.576	3921.98
653.023	5803.58
653.47	7962.58
653.917	10055.38
654.363	11755.88
654.81	13132.78
655.257	12492.18
655.704	8106.08
656.151	4803.68
656.598	3091.58
657.044	2169.48
657.491	1671.48
657.938	1333.68
658.385	1122.78
658.831	970.48
659.278	860.88
659.724	754.28
660.171	710.98
660.618	641.28
661.064	611.98
661.511	590.88
661.957	576.98
662.404	567.58
662.85	577.68
663.296	557.68
663.743	498.88
664.189	476.18
664.635	474.38
665.082	456.28
665.528	466.88
665.974	465.78
666.42	459.98
666.867	448.58
667.313	446.78
667.759	423.48
668.205	425.88
668.651	435.18
669.097	422.88
669.543	457.48
669.989	417.48
670.435	396.78
670.881	386.18
671.327	405.18
671.773	414.58
672.219	434.08
672.665	484.58
673.11	507.68
673.556	551.68
674.002	595.68
674.448	574.68
674.893	490.98
675.339	423.28
675.785	387.08
676.23	363.18
676.676	343.88
677.122	337.28
677.567	333.18
678.013	329.28
678.458	313.18
678.904	317.68
679.349	310.48
679.794	308.78
680.24	302.68
680.685	301.58
681.131	300.88
681.576	311.18
682.021	315.18
682.466	304.78
682.912	291.08
683.357	305.58
683.802	328.08
684.247	361.28
684.692	394.38
685.137	435.98
685.583	472.08
686.028	499.88
686.473	455.78
686.918	395.48
687.363	366.28
687.807	354.78
688.252	315.48
688.697	306.38
689.142	295.28
689.587	291.98
690.032	283.48
690.477	295.58
690.921	303.48
691.366	335.58
691.811	350.78
692.255	375.48
692.7	399.58
693.145	437.98
693.589	587.08
694.034	956.18
694.478	1323.68
694.923	1532.18
695.367	2015.88
695.812	1045.88
696.256	439.98
696.701	335.88
697.145	308.38
697.59	287.58
698.034	288.08
698.478	290.68
698.922	289.18
699.367	280.88
699.811	286.98
700.255	306.88
700.699	336.28
701.143	368.38
701.588	413.68
702.032	459.18
702.476	459.28
702.92	427.28
703.364	422.58
703.808	533.78
704.252	879.08
704.696	1246.88
705.14	1465.98
705.584	1900.38
706.027	932.68
706.471	462.68
706.915	346.88
707.359	304.58
707.803	281.88
708.246	276.48
708.69	272.78
709.134	275.48
709.577	271.98
710.021	278.48
710.465	273.28
710.908	272.68
711.352	262.38
711.795	275.38
712.239	301.18
712.682	332.48
713.126	361.78
713.569	412.88
714.012	325.58
714.456	285.78
714.899	260.38
715.342	232.18
715.786	231.98
716.229	225.18
716.672	226.08
717.115	217.58
717.558	223.18
718.002	219.78
718.445	226.18
718.888	247.08
719.331	254.38
719.774	268.58
720.217	266.48
720.66	242.18
721.103	234.18
721.546	223.18
721.989	219.08
722.432	203.88
722.874	208.08
723.317	197.28
723.76	200.48
724.203	222.38
724.645	264.58
725.088	394.48
725.531	488.28
725.974	566.58
726.416	485.68
726.859	270.38
727.301	217.38
727.744	208.88
728.187	205.08
728.629	201.58
729.071	214.08
729.514	227.58
729.956	234.18
730.399	238.88
730.841	249.38
731.283	238.28
731.726	233.38
732.168	227.88
732.61	229.98
733.053	245.68
733.495	272.68
733.937	303.18
734.379	342.28
734.821	375.98
735.263	461.98
735.705	704.58
736.148	1325.98
736.59	2204.68
737.032	2696.98
737.474	2199.58
737.916	700.78
738.357	366.78
738.799	279.98
739.241	258.98
739.683	241.28
740.125	251.78
740.567	257.28
741.008	275.08
741.45	275.98
741.892	273.98
742.334	301.38
742.775	315.68
743.217	299.08
743.658	236.18
744.1	220.48
744.542	221.78
744.983	264.78
745.425	299.48
745.866	303.18
746.307	244.28
746.749	252.48
747.19	280.78
747.632	388.18
748.073	729.88
748.514	1563.68
748.956	2474.18
749.397	3089.18
749.838	2574.48
750.279	2619.98
750.72	1307.98
751.162	473.48
751.603	275.38
752.044	223.38
752.485	185.48
752.926	183.58
753.367	181.58
753.808	168.38
754.249	160.78
754.69	163.48
755.131	151.98
755.572	158.28
756.013	160.38
756.453	164.38
756.894	165.28
757.335	162.48
757.776	173.98
758.216	165.08
758.657	168.58
759.098	176.78
759.538	196.98
759.979	229.28
760.42	310.78
760.86	586.18
761.301	1516.28
761.741	3763.68
762.182	5727.68
762.622	4018.68
763.063	1148.18
763.503	465.88
763.943	301.98
764.384	298.28
764.824	359.98
765.264	396.08
765.705	274.38
766.145	176.48
766.585	163.78
767.025	151.38
767.465	163.88
767.906	200.28
768.346	280.08
768.786	301.48
769.226	230.68
769.666	267.48
770.106	511.48
770.546	1298.98
770.986	2314.48
771.426	2111.08
771.866	690.88
772.306	281.08
772.745	178.58
773.185	146.58
773.625	149.78
774.065	135.78
774.505	173.08
774.944	263.08
775.384	589.18
775.824	1094.78
776.263	1081.68
776.703	461.08
777.142	197.58
777.582	137.78
778.021	120.28
778.461	122.08
778.9	120.38
779.34	122.48
779.779	101.78
780.219	95.88
780.658	94.78
781.097	89.08
781.537	104.78
781.976	90.28
782.415	91.48
782.855	90.78
783.294	88.38
783.733	87.78
784.172	95.28
784.611	95.08
785.05	95.08
785.489	103.58
785.928	107.88
786.367	105.98
786.806	101.38
787.245	113.48
787.684	118.18
788.123	130.98
788.562	118.08
789.001	108.78
789.44	105.48
789.879	106.38
790.317	109.78
790.756	112.78
791.195	108.58
791.634	130.98
792.072	174.68
792.511	306.88
792.95	837.88
793.388	1848.38
793.827	1725.68
794.265	590.78
794.704	241.88
795.142	159.48
795.581	129.38
796.019	113.08
796.458	112.18
796.896	112.08
797.334	109.58
797.773	134.98
798.211	184.98
798.649	366.68
799.087	859.78
799.526	1370.98
799.964	1727.58
800.402	1793.28
800.84	669.98
801.278	257.98
801.716	161.28
802.154	138.18
802.592	129.98
803.03	122.58
803.468	121.28
803.906	124.08
804.344	128.38
804.782	119.18
805.22	114.58
805.658	113.58
806.096	135.48
806.533	131.18
806.971	146.08
807.409	183.48
807.847	269.88
808.284	547.08
808.722	1564.98
809.16	2881.48
809.597	2644.98
810.035	4666.28
810.472	5201.28
810.91	1837.58
811.347	685.98
811.785	353.68
812.222	222.68
812.66	172.78
813.097	141.78
813.535	123.08
813.972	107.48
814.409	102.28
814.846	96.08
815.284	95.38
815.721	92.38
816.158	89.78
816.595	100.48
817.032	157.18
817.47	175.78
817.907	138.28
818.344	128.18
818.781	98.58
819.218	81.98
819.655	102.48
820.092	164.78
820.529	185.78
820.966	154.48
821.403	116.18
821.839	93.38
822.276	80.88
822.713	104.98
823.15	111.08
823.587	100.88
824.023	126.18
824.46	245.48
824.897	763.28
825.333	1204.48
825.77	513.08
826.206	194.88
826.643	120.58
827.08	86.18
827.516	76.68
827.953	68.58
828.389	74.78
828.825	53.48
829.262	55.98
829.698	55.08
830.135	61.38
830.571	57.08
831.007	52.48
831.443	54.78
831.88	55.58
832.316	59.08
832.752	56.18
833.188	53.78
833.624	53.68
834.06	53.18
834.497	67.08
834.933	62.18
835.369	68.98
835.805	59.88
836.241	60.68
836.677	66.98
837.112	77.08
837.548	90.38
837.984	116.08
838.42	169.68
838.856	415.08
839.292	1307.28
839.727	2040.28
840.163	939.38
840.599	782.78
841.034	1745.18
841.47	1907.78
841.906	674.98
842.341	287.58
842.777	194.88
843.212	271.68
843.648	277.38
844.083	135.58
844.519	89.18
844.954	68.58
845.39	51.78
845.825	53.38
846.261	49.88
846.696	51.88
847.131	44.28
847.566	55.18
848.002	41.88
848.437	53.18
848.872	52.38
849.307	51.88
849.742	75.88
850.177	152.98
850.613	471.98
851.048	780.88
851.483	336.48
851.918	136.88
852.353	71.38
852.788	52.78
853.223	51.18
853.657	48.08
854.092	41.08
854.527	38.48
854.962	39.58
855.397	39.58
855.832	45.48
856.266	37.98
856.701	34.58
857.136	32.18
857.57	35.18
858.005	43.28
858.44	48.48
858.874	38.18
859.309	44.48
859.743	27.38
860.178	37.38
860.612	38.88
861.047	44.88
861.481	61.58
861.915	64.68
862.35	47.78
862.784	27.98
863.218	33.28
863.653	31.78
864.087	37.28
864.521	44.88
864.955	60.88
865.39	138.28
865.824	149.48
866.258	97.88
866.692	151.98
867.126	161.78
867.56	91.68
867.994	43.88
868.428	30.98
868.862	42.48
869.296	52.18
869.73	49.38
870.164	46.48
870.598	37.98
871.031	33.58
871.465	30.48
871.899	26.28
872.333	20.18
872.766	25.68
873.2	19.48
873.634	31.98
874.067	27.58
874.501	23.28
874.935	29.78
875.368	28.78
875.802	24.88
876.235	21.38
876.669	21.98
877.102	17.98
877.535	26.38
877.969	28.28
878.402	20.18
878.836	12.58
879.269	22.18
879.702	20.98
880.135	22.98
880.569	20.78
881.002	26.68
881.435	20.58
881.868	10.88
882.301	18.48
882.734	13.28
883.167	18.28
883.601	18.98
884.034	19.68
884.467	9.08
884.899	14.88
885.332	13.38
885.765	17.58
886.198	15.58
886.631	16.98
887.064	14.48
887.497	13.68
887.929	22.18
888.362	12.58
888.795	19.68
889.228	18.98
889.66	18.18
890.093	14.68
890.526	17.68
890.958	16.98
891.391	20.08
891.823	23.38
892.256	10.98
892.688	10.78
893.121	14.88
893.553	11.08
893.985	18.58
894.418	17.28
894.85	13.18
895.282	14.88
895.715	19.48
896.147	15.78
896.579	14.68
897.011	18.48
897.444	22.18
897.876	10.28
898.308	12.98
898.74	13.78
899.172	4.08
899.604	28.68
900.036	18.18
900.468	13.18
900.9	9.98
901.332	16.08
901.764	11.68
902.196	18.78
902.628	15.48
903.06	16.28
903.491	27.58
903.923	25.38
904.355	14.08
904.787	15.88
905.218	22.78
905.65	18.48
906.082	12.18
906.513	14.78
906.945	17.08
907.376	11.58
907.808	16.58
908.239	22.48
908.671	20.38
909.102	21.58
909.534	18.98
909.965	37.58
910.397	81.38
910.828	274.38
911.259	421.28
911.691	193.48
912.122	95.78
912.553	40.58
912.984	29.58
913.415	19.28
913.847	23.28
914.278	14.68
914.709	14.18
915.14	21.68
915.571	20.28
916.002	15.18
916.433	21.98
916.864	13.98
917.295	12.38
917.726	19.68
918.157	17.18
918.587	25.98
919.018	21.08
919.449	15.58
919.88	22.28
920.311	26.18
920.741	42.78
921.172	141.98
921.603	139.08
922.033	63.68
922.464	45.48
922.895	19.48
923.325	20.58
923.756	14.58
924.186	8.58
924.617	19.88
925.047	39.28
925.478	48.58
925.908	36.98
926.338	22.98
926.769	14.38
927.199	22.38
927.629	12.78
928.06	19.28
928.49	17.58
928.92	15.28
929.35	12.08
929.78	12.28
930.21	7.48
930.641	5.68
931.071	10.88
931.501	3.98
931.931	10.28
932.361	7.98
932.791	8.28
933.221	9.48
933.651	5.88
934.08	16.58
934.51	26.18
934.94	7.98
935.37	7.48
935.8	7.88
936.229	7.98
936.659	11.78
937.089	-1.92
937.519	10.58
937.948	27.98
938.378	16.58
938.807	12.28
939.237	8.48
939.666	6.58
940.096	-8.82
940.525	-2.52
940.955	4.48
941.384	5.78
941.814	-3.62
942.243	0.58
942.672	4.38
943.102	1.38
943.531	-0.32
943.96	7.78
944.39	6.78
944.819	5.78
945.248	4.48
945.677	1.68
946.106	5.38
946.535	3.28
946.964	8.28
947.393	4.18
947.822	6.98
948.251	-5.92
948.68	2.58
949.109	2.98
949.538	10.08
949.967	5.28
950.396	4.68
950.825	2.68
951.254	2.58
951.682	-6.52
952.111	2.38
952.54	6.18
952.969	-4.92
953.397	-0.62
953.826	0.08
954.254	-6.82
954.683	1.48
955.112	-8.52
955.54	-1.72
955.969	4.38
956.397	7.28
956.826	-7.82
957.254	2.38
957.682	1.78
958.111	7.28
958.539	-3.92
958.967	1.18
959.396	-4.12
959.824	3.48
960.252	5.98
960.68	-8.82
961.109	-2.42
961.537	-10.12
961.965	-1.92
962.393	1.68
962.821	-3.02
963.249	-2.32
963.677	5.48
964.105	9.78
964.533	45.38
964.961	39.68
965.389	14.28
965.817	10.28
966.245	4.28
966.672	-0.72
967.1	-6.32
967.528	-1.12
967.956	-1.62
968.383	7.28
968.811	-0.42
969.239	-3.52
969.666	-1.22
970.094	1.68
970.522	-2.12
970.949	0.88
971.377	0.78
971.804	0.68
972.232	-5.52
972.659	-3.82
973.087	-10.62
973.514	-4.02
973.941	-6.52
974.369	9.48
974.796	3.48
975.223	6.18
975.651	-2.22
976.078	1.18
976.505	4.28
976.932	0.58
977.359	19.48
977.786	16.48
978.214	6.18
978.641	0.98
979.068	-3.32
979.495	-2.42
979.922	-2.62
980.349	-2.02
980.776	-0.92
981.202	3.28
981.629	4.58
982.056	7.88
982.483	-4.42
982.91	8.68
983.337	-7.72
983.763	7.18
984.19	-8.62
984.617	0.98
985.043	-2.12
985.47	-3.22
985.897	-6.32
986.323	-7.22
986.75	5.78
987.176	5.18
987.603	0.18
988.029	3.08
988.456	-0.52
988.882	4.28
989.308	-5.62
989.735	1.98
990.161	-0.72
990.587	-3.62
991.014	1.88
991.44	9.58
991.866	-0.22
992.292	-0.72
992.719	-0.82
993.145	5.88
993.571	-5.42
993.997	-4.72
994.423	3.38
994.849	-6.22
995.275	2.98
995.701	2.68
996.127	-2.42
996.553	0.98
996.979	-1.22
997.405	-0.72
997.83	-0.52
998.256	-4.72
998.682	-3.72
999.108	-7.12
999.534	0.58
999.959	-2.82
1000.385	-2.22
1000.811	1.98
1001.236	-7.12
1001.662	-4.02
1002.087	-4.82
1002.513	0.88
1002.938	3.48
1003.364	-1.92
1003.789	-2.92
1004.215	4.98
1004.64	1.68
1005.066	7.18
1005.491	1.98
1005.916	-4.02
1006.342	-8.62
1006.767	-7.82
1007.192	6.38
1007.617	-2.32
1008.042	-0.12
1008.468	-0.92
1008.893	-4.52
1009.318	-1.02
1009.743	0.48
1010.168	5.68
1010.593	0.08
1011.018	-3.52
1011.443	-3.02
1011.868	2.58
1012.293	-4.72
1012.718	-3.82
1013.143	4.48
1013.567	-3.52
1013.992	-4.32
1014.417	-10.32
1014.842	7.28
1015.267	-3.42
1015.691	-1.02
1016.116	2.38
1016.541	-2.32
1016.965	4.28
1017.39	3.38
1017.814	-3.42
1018.239	-4.02
1018.663	0.08
1019.088	-6.92
1019.512	3.78
1019.937	-6.62
1020.361	-1.72
1020.785	-12.12
1021.21	-4.42
1021.634	-2.82
1022.058	1.88
1022.483	3.08
1022.907	-0.92
1023.331	-0.62
1023.755	-2.32
1024.179	0.28
1024.604	-1.72
1025.028	-3.32
1025.452	-1.22
1025.876	-2.12
1026.3	-3.02
1026.724	-8.12
1027.148	-6.62
1027.572	-4.02
1027.996	-1.32
1028.42	-0.32
1028.843	-5.52
1029.267	-12.22
1029.691	-1.52
1030.115	-6.82
1030.539	-7.02
1030.962	3.28
1031.386	-10.42
1031.81	2.68
1032.233	2.58
1032.657	-1.82
1033.08	1.58
1033.504	-0.92
1033.927	-7.02
1034.351	-2.52
1034.774	-3.62
1035.198	1.98
1035.621	0.08
1036.045	-10.82
1036.468	4.88
1036.891	-3.92
1037.315	-1.62
1037.738	-11.02
1038.161	-1.72
1038.584	-4.02
1039.008	-5.72
1039.431	-0.82
1039.854	-7.02
1040.277	-10.12
1040.7	-6.02
1041.123	3.58
1041.546	-10.72
1041.969	-3.92
1042.392	-7.72
1042.815	-0.12
1043.238	6.58
1043.661	4.48
1044.084	3.08
1044.507	-8.02
1044.93	-1.82
1045.352	-4.92
1045.775	8.98
1046.198	-5.92
1046.621	-0.92
1047.043	-4.32
1047.466	4.48
1047.889	-0.22
1048.311	-8.42
1048.734	0.78
1049.156	-3.72
1049.579	-2.22
1050.001	-12.42
1050.424	1.38
1050.846	1.58
1051.269	-6.72
1051.691	-7.12
1052.113	-7.92
1052.536	-1.22
1052.958	-4.12
1053.38	-0.42
1053.802	-6.82
1054.225	3.68
1054.647	-10.72
1055.069	1.88
1055.491	1.38
1055.913	-6.52
1056.335	-3.02
1056.757	-4.02
1057.179	1.38
1057.601	-4.32
1058.023	-2.82
1058.445	-0.82
1058.867	-2.72
1059.289	-3.52
1059.711	-3.92
1060.133	-3.72
1060.555	-5.02
1060.976	-6.12
1061.398	-7.32
1061.82	-1.42
1062.241	-7.42
1062.663	-4.72
1063.085	-2.22
1063.506	1.68
1063.928	-2.22
1064.35	1.58
1064.771	-11.02
1065.193	-4.52
1065.614	-7.32
1066.035	-2.82
1066.457	-2.42
1066.878	-2.52
1067.3	-6.22
1067.721	-5.42
1068.142	-1.42
1068.564	0.08
1068.985	-3.72
1069.406	-5.12
1069.827	-0.72
1070.248	-1.22
1070.67	-4.22
1071.091	-3.32
1071.512	-1.62
1071.933	-8.02
1072.354	-9.62
1072.775	-3.92
1073.196	-8.62
1073.617	-2.82
1074.038	-4.82
1074.459	-1.82
1074.88	-1.32
1075.3	3.28
1075.721	-3.52
1076.142	9.68
1076.563	-1.62
1076.983	-7.42
1077.404	-9.42
1077.825	-3.22
1078.246	-2.72
1078.666	-5.22
1079.087	4.98
1079.507	-6.02
1079.928	3.08
1080.348	-2.32
1080.769	-3.02
1081.189	2.88
1081.61	-7.42
1082.03	-9.22
1082.451	-5.22
1082.871	-0.92
1083.291	-4.42
1083.711	-4.02
1084.132	-6.42
1084.552	-3.42
1084.972	2.78
1085.392	-6.02
1085.813	-8.82
1086.233	-1.02
1086.653	2.28
1087.073	-4.62
1087.493	-3.32
1087.913	-3.52
1088.333	1.28
1088.753	-7.72
1089.173	2.28
1089.593	0.88
1090.013	-2.82
1090.433	4.68
1090.852	-4.42
1091.272	0.28
1091.692	-0.22
1092.112	-5.92
1092.531	-5.72
1092.951	-11.92
1093.371	-0.82
1093.79	3.68
1094.21	-2.02
1094.63	-5.92
1095.049	-6.12
1095.469	-4.52
1095.888	2.58
1096.308	1.68
1096.727	4.28
1097.146	-8.92
1097.566	0.78
1097.985	-1.62
1098.405	2.28
1098.824	-1.52
1099.243	-0.22
1099.662	-2.42
1100.082	0.78
1100.501	5.38
1100.92	-6.02
1101.339	-3.32
1101.758	-5.92
