Data from 20171114-ORNL-Ar_H_NY_Subt18_08-03-37-221.txt Node
Date: Tue Nov 14 08:03:37 EST 2017
User: Ender
Spectrometer: HR+D1039
Trigger mode: 0
Integration Time (sec): 2.730000E-2
Scans to average: 10
Electric dark correction enabled: true
Nonlinearity correction enabled: false
Boxcar width: 0
XAxis mode: Wavelengths
Number of Pixels in Spectrum: 2048
>>>>>Begin Spectral Data<<<<<
187.836	-9.28
188.309	-9.28
188.782	-9.28
189.255	2.72
189.728	3.92
190.201	4.92
190.674	0.92
191.147	-0.28
191.619	-6.48
192.092	-4.78
192.565	10.22
193.038	-1.88
193.511	1.42
193.984	2.92
194.456	-4.38
194.929	2.02
195.402	-1.48
195.874	-0.58
196.347	-4.18
196.82	-7.48
197.292	2.12
197.765	-4.58
198.237	-8.28
198.71	4.62
199.182	1.42
199.655	1.12
200.127	2.52
200.6	-1.28
201.072	-4.58
201.544	0.82
202.017	4.82
202.489	-1.08
202.961	-1.78
203.433	-1.78
203.906	-5.58
204.378	-3.08
204.85	-2.18
205.322	-9.28
205.794	0.72
206.266	-2.38
206.739	-4.08
207.211	5.62
207.683	-8.38
208.155	-9.08
208.627	-1.98
209.099	-0.98
209.57	-0.98
210.042	-7.68
210.514	-8.48
210.986	-0.68
211.458	-2.18
211.93	-4.78
212.402	-1.88
212.873	-1.28
213.345	-6.38
213.817	-8.28
214.288	-5.68
214.76	-10.08
215.232	-9.18
215.703	-2.18
216.175	-7.28
216.646	-2.58
217.118	-7.78
217.589	-8.88
218.061	-1.98
218.532	-3.48
219.004	-0.18
219.475	-2.68
219.946	-1.18
220.418	-6.78
220.889	0.62
221.36	-1.58
221.832	-7.28
222.303	-5.28
222.774	-1.78
223.245	-6.28
223.717	-5.68
224.188	0.72
224.659	-12.38
225.13	-3.68
225.601	0.12
226.072	-1.58
226.543	2.52
227.014	2.32
227.485	-4.78
227.956	-11.78
228.427	2.12
228.898	-8.48
229.369	3.12
229.839	-6.58
230.31	-9.28
230.781	-0.18
231.252	-6.68
231.722	-9.48
232.193	-2.88
232.664	-3.38
233.135	-4.68
233.605	0.32
234.076	-4.18
234.546	-1.18
235.017	4.82
235.487	1.72
235.958	-0.08
236.428	-8.68
236.899	-0.68
237.369	-1.28
237.84	-5.58
238.31	2.22
238.78	-4.88
239.251	-9.08
239.721	-1.48
240.191	-3.68
240.662	-3.78
241.132	1.02
241.602	-7.18
242.072	1.12
242.542	-0.28
243.013	-8.18
243.483	4.72
243.953	1.32
244.423	-2.98
244.893	-4.38
245.363	-4.48
245.833	-2.38
246.303	-4.78
246.773	3.62
247.243	-4.58
247.712	-4.68
248.182	-3.28
248.652	5.62
249.122	-8.18
249.592	-4.08
250.061	-0.98
250.531	6.32
251.001	-7.08
251.471	0.22
251.94	2.82
252.41	0.72
252.879	-10.38
253.349	11.22
253.818	0.12
254.288	-3.98
254.757	-1.18
255.227	-12.28
255.696	-3.08
256.166	2.92
256.635	1.52
257.105	0.42
257.574	-2.88
258.043	-3.78
258.513	-3.88
258.982	3.52
259.451	-9.68
259.92	1.42
260.389	2.72
260.859	8.12
261.328	-1.18
261.797	2.12
262.266	-4.98
262.735	6.62
263.204	-0.68
263.673	-3.48
264.142	-1.88
264.611	-7.28
265.08	-4.58
265.549	-4.18
266.018	2.32
266.487	-7.78
266.955	-7.58
267.424	-0.18
267.893	1.12
268.362	-0.38
268.83	2.32
269.299	6.92
269.768	-1.88
270.236	-1.48
270.705	-2.68
271.174	0.42
271.642	-2.28
272.111	-0.48
272.579	-3.58
273.048	-1.98
273.516	1.62
273.985	5.92
274.453	-2.68
274.922	8.82
275.39	-0.28
275.858	-5.68
276.327	3.52
276.795	8.52
277.263	-1.88
277.731	8.82
278.2	0.82
278.668	-2.28
279.136	3.52
279.604	-4.88
280.072	3.32
280.54	2.52
281.008	5.32
281.477	7.62
281.945	2.52
282.413	2.42
282.881	8.22
283.348	6.82
283.816	4.72
284.284	1.92
284.752	10.52
285.22	8.02
285.688	8.12
286.156	7.72
286.623	9.72
287.091	3.92
287.559	3.62
288.026	5.12
288.494	11.52
288.962	0.82
289.429	3.12
289.897	9.22
290.364	4.22
290.832	4.32
291.3	2.82
291.767	7.62
292.234	15.02
292.702	3.22
293.169	0.72
293.637	11.42
294.104	4.72
294.571	-1.58
295.039	-5.08
295.506	-1.78
295.973	5.22
296.44	5.32
296.908	9.42
297.375	1.22
297.842	6.02
298.309	-0.38
298.776	-1.28
299.243	9.12
299.71	2.72
300.177	10.62
300.644	16.62
301.111	9.12
301.578	9.82
302.045	4.42
302.512	8.52
302.979	12.12
303.446	7.42
303.913	6.22
304.379	8.12
304.846	11.52
305.313	11.02
305.78	7.32
306.246	11.82
306.713	9.22
307.18	12.92
307.646	4.92
308.113	8.92
308.579	9.32
309.046	9.92
309.512	13.92
309.979	11.22
310.445	11.62
310.912	15.52
311.378	19.92
311.845	13.42
312.311	15.02
312.777	18.62
313.244	17.92
313.71	19.32
314.176	14.42
314.642	15.82
315.109	7.92
315.575	19.52
316.041	25.82
316.507	18.92
316.973	11.82
317.439	18.62
317.905	17.22
318.371	18.92
318.837	17.32
319.303	13.82
319.769	16.12
320.235	12.92
320.701	20.92
321.167	18.42
321.633	18.32
322.099	23.12
322.564	20.42
323.03	19.02
323.496	18.32
323.962	21.72
324.427	17.02
324.893	26.52
325.359	19.52
325.824	21.62
326.29	17.22
326.755	21.22
327.221	23.52
327.686	20.32
328.152	30.52
328.617	22.52
329.083	32.92
329.548	28.32
330.014	28.72
330.479	23.62
330.944	27.42
331.41	30.62
331.875	24.92
332.34	26.82
332.805	21.82
333.271	27.42
333.736	17.42
334.201	26.72
334.666	24.32
335.131	34.02
335.596	30.32
336.061	30.72
336.526	23.62
336.991	28.22
337.456	39.92
337.921	30.52
338.386	27.82
338.851	27.62
339.316	27.52
339.781	28.22
340.246	37.82
340.711	25.82
341.175	32.82
341.64	24.92
342.105	36.82
342.569	37.32
343.034	40.02
343.499	36.12
343.963	34.92
344.428	40.62
344.893	41.22
345.357	40.72
345.822	39.72
346.286	39.12
346.751	44.12
347.215	42.02
347.679	48.82
348.144	56.62
348.608	56.32
349.073	46.52
349.537	46.92
350.001	46.52
350.465	60.42
350.93	52.72
351.394	53.32
351.858	47.22
352.322	53.62
352.786	52.52
353.25	64.22
353.715	72.12
354.179	66.02
354.643	68.52
355.107	74.92
355.571	68.82
356.035	66.52
356.498	75.52
356.962	72.62
357.426	83.42
357.89	71.72
358.354	65.22
358.818	62.72
359.281	59.12
359.745	54.12
360.209	59.12
360.673	46.22
361.136	59.62
361.6	61.12
362.064	60.12
362.527	62.62
362.991	63.62
363.454	53.12
363.918	56.02
364.381	58.82
364.845	60.62
365.308	63.52
365.772	60.42
366.235	55.52
366.698	60.42
367.162	56.12
367.625	62.32
368.088	57.22
368.552	64.42
369.015	61.52
369.478	64.22
369.941	72.12
370.404	63.82
370.867	69.62
371.331	75.82
371.794	82.42
372.257	66.52
372.72	74.02
373.183	77.02
373.646	73.82
374.109	67.82
374.572	72.92
375.035	72.42
375.497	75.82
375.96	79.92
376.423	77.42
376.886	82.82
377.349	81.92
377.811	76.72
378.274	79.02
378.737	80.22
379.199	84.12
379.662	85.72
380.125	83.12
380.587	78.42
381.05	86.92
381.512	82.82
381.975	92.42
382.437	93.02
382.9	91.52
383.362	91.22
383.825	93.02
384.287	98.32
384.75	89.42
385.212	98.32
385.674	101.82
386.136	104.42
386.599	86.82
387.061	98.72
387.523	95.82
387.985	96.52
388.447	106.82
388.91	96.42
389.372	102.52
389.834	100.22
390.296	102.42
390.758	100.02
391.22	108.82
391.682	106.82
392.144	121.32
392.606	118.32
393.068	115.42
393.529	117.32
393.991	108.12
394.453	103.02
394.915	107.92
395.377	107.72
395.838	103.32
396.3	111.72
396.762	112.62
397.224	104.02
397.685	107.42
398.147	110.62
398.608	103.92
399.07	102.52
399.531	107.52
399.993	117.72
400.454	125.42
400.916	123.52
401.377	119.62
401.839	126.72
402.3	113.12
402.762	132.82
403.223	148.22
403.684	135.32
404.145	124.12
404.607	126.12
405.068	122.42
405.529	123.72
405.99	135.22
406.451	127.92
406.913	138.32
407.374	125.62
407.835	127.72
408.296	132.52
408.757	133.02
409.218	139.22
409.679	141.22
410.14	137.22
410.601	137.22
411.062	146.22
411.522	148.82
411.983	142.22
412.444	145.62
412.905	159.42
413.366	154.42
413.826	166.62
414.287	191.72
414.748	234.72
415.208	221.62
415.669	188.82
416.13	186.22
416.59	178.82
417.051	193.82
417.511	199.92
417.972	222.32
418.432	229.32
418.893	271.02
419.353	231.12
419.814	179.72
420.274	161.72
420.734	157.32
421.195	163.82
421.655	169.12
422.115	172.42
422.576	172.62
423.036	183.92
423.496	180.12
423.956	184.62
424.416	192.12
424.876	218.72
425.336	213.92
425.797	219.62
426.257	215.42
426.717	188.82
427.177	182.62
427.637	171.92
428.097	179.92
428.556	180.22
429.016	192.92
429.476	183.42
429.936	189.32
430.396	184.22
430.856	196.22
431.315	202.22
431.775	226.72
432.235	253.92
432.694	239.42
433.154	233.92
433.614	251.12
434.073	218.62
434.533	196.52
434.993	186.82
435.452	195.02
435.912	209.42
436.371	203.82
436.83	205.02
437.29	200.62
437.749	190.82
438.209	189.22
438.668	209.12
439.127	214.42
439.587	209.62
440.046	185.92
440.505	199.52
440.964	212.62
441.424	236.52
441.883	236.72
442.342	211.22
442.801	193.72
443.26	189.32
443.719	195.62
444.178	196.32
444.637	184.42
445.096	184.92
445.555	192.02
446.014	203.82
446.473	200.12
446.932	200.12
447.391	199.12
447.849	205.32
448.308	196.22
448.767	192.32
449.226	206.02
449.685	202.52
450.143	219.32
450.602	207.22
451.061	198.92
451.519	206.82
451.978	201.32
452.436	200.62
452.895	204.02
453.353	203.62
453.812	200.32
454.27	205.82
454.729	205.52
455.187	205.32
455.646	199.42
456.104	211.62
456.562	211.32
457.021	224.42
457.479	215.12
457.937	221.72
458.395	220.82
458.854	213.02
459.312	216.92
459.77	219.52
460.228	211.82
460.686	201.42
461.144	212.62
461.602	207.32
462.06	214.62
462.518	223.52
462.976	210.62
463.434	222.02
463.892	222.72
464.35	225.72
464.808	230.72
465.266	221.92
465.724	228.42
466.181	236.62
466.639	228.02
467.097	243.22
467.555	246.32
468.012	243.72
468.47	251.52
468.928	268.62
469.385	278.42
469.843	272.12
470.3	268.42
470.758	281.32
471.215	285.72
471.673	307.02
472.13	304.52
472.588	325.02
473.045	293.02
473.503	308.52
473.96	301.22
474.417	305.32
474.875	319.72
475.332	345.82
475.789	331.92
476.246	340.02
476.704	349.72
477.161	350.52
477.618	356.12
478.075	373.62
478.532	393.22
478.989	405.22
479.446	451.52
479.903	414.42
480.36	400.72
480.817	394.92
481.274	409.32
481.731	422.02
482.188	424.82
482.645	454.02
483.102	470.52
483.558	501.22
484.015	491.52
484.472	489.72
484.929	496.12
485.385	491.32
485.842	492.82
486.299	504.82
486.755	535.72
487.212	487.42
487.668	447.62
488.125	442.32
488.582	427.12
489.038	444.72
489.494	433.82
489.951	437.62
490.407	439.62
490.864	435.52
491.32	437.62
491.776	437.92
492.233	460.52
492.689	431.82
493.145	439.52
493.602	439.22
494.058	445.92
494.514	445.42
494.97	464.72
495.426	464.62
495.882	452.92
496.338	446.92
496.794	449.32
497.251	450.12
497.707	464.32
498.163	462.22
498.618	469.92
499.074	470.32
499.53	487.52
499.986	483.82
500.442	471.82
500.898	459.62
501.354	459.62
501.809	466.22
502.265	462.22
502.721	478.92
503.177	479.42
503.632	481.22
504.088	488.62
504.543	498.82
504.999	503.92
505.455	488.82
505.91	479.32
506.366	483.02
506.821	473.02
507.277	474.62
507.732	487.52
508.187	478.22
508.643	482.92
509.098	485.02
509.553	504.92
510.009	499.42
510.464	507.22
510.919	518.32
511.375	523.72
511.83	521.32
512.285	526.22
512.74	554.62
513.195	567.52
513.65	565.92
514.105	564.82
514.56	565.52
515.015	575.22
515.47	591.42
515.925	566.92
516.38	580.02
516.835	583.72
517.29	580.22
517.745	569.12
518.2	559.62
518.655	548.72
519.109	536.62
519.564	541.12
520.019	530.52
520.474	526.42
520.928	520.62
521.383	528.82
521.838	511.72
522.292	515.12
522.747	514.32
523.201	520.52
523.656	519.22
524.11	514.92
524.565	514.12
525.019	500.32
525.474	508.62
525.928	501.82
526.382	496.12
526.837	508.62
527.291	496.62
527.745	500.12
528.2	502.02
528.654	500.32
529.108	494.72
529.562	491.22
530.016	489.82
530.47	491.62
530.925	486.02
531.379	494.52
531.833	491.12
532.287	490.02
532.741	489.62
533.195	479.72
533.649	495.72
534.103	497.62
534.556	486.72
535.01	490.82
535.464	492.82
535.918	501.62
536.372	489.92
536.826	491.92
537.279	486.92
537.733	487.02
538.187	490.62
538.64	488.52
539.094	494.82
539.548	503.42
540.001	497.12
540.455	503.02
540.908	513.12
541.362	506.72
541.815	523.42
542.269	522.32
542.722	522.62
543.175	530.42
543.629	526.72
544.082	547.42
544.536	536.72
544.989	535.52
545.442	548.82
545.895	545.02
546.349	555.62
546.802	542.12
547.255	548.22
547.708	559.52
548.161	557.72
548.614	552.72
549.067	564.82
549.52	563.42
549.973	554.52
550.426	550.92
550.879	531.12
551.332	541.32
551.785	546.32
552.238	541.32
552.691	549.62
553.144	557.32
553.596	563.72
554.049	578.92
554.502	604.62
554.955	609.42
555.407	601.72
555.86	599.32
556.313	590.22
556.765	590.02
557.218	590.72
557.67	582.82
558.123	581.72
558.576	571.82
559.028	573.52
559.48	586.02
559.933	577.62
560.385	558.92
560.838	545.42
561.29	517.82
561.742	519.02
562.195	505.82
562.647	509.12
563.099	517.12
563.551	517.42
564.004	508.72
564.456	503.42
564.908	499.92
565.36	478.52
565.812	463.22
566.264	462.62
566.716	466.82
567.168	458.02
567.62	457.42
568.072	450.92
568.524	445.32
568.976	446.62
569.428	441.42
569.88	431.02
570.332	438.62
570.784	441.72
571.235	440.92
571.687	442.22
572.139	448.42
572.59	452.42
573.042	452.52
573.494	440.12
573.945	442.22
574.397	433.62
574.849	440.02
575.3	428.42
575.752	421.22
576.203	427.02
576.655	431.42
577.106	422.32
577.557	416.62
578.009	423.02
578.46	413.82
578.912	411.22
579.363	417.42
579.814	408.82
580.265	407.32
580.717	419.12
581.168	422.02
581.619	425.12
582.07	420.32
582.521	415.22
582.972	410.92
583.423	422.62
583.875	413.62
584.326	420.12
584.777	432.12
585.227	442.52
585.678	444.42
586.129	442.82
586.58	456.72
587.031	470.22
587.482	488.02
587.933	492.32
588.384	496.32
588.834	470.62
589.285	477.22
589.736	478.22
590.186	478.62
590.637	477.12
591.088	457.52
591.538	459.42
591.989	446.32
592.439	437.72
592.89	431.42
593.34	429.72
593.791	418.72
594.241	422.82
594.692	421.32
595.142	411.02
595.593	412.82
596.043	423.12
596.493	428.12
596.943	419.72
597.394	436.32
597.844	419.42
598.294	447.82
598.744	454.82
599.195	472.12
599.645	491.52
600.095	515.92
600.545	553.52
600.995	577.22
601.445	623.42
601.895	664.52
602.345	688.02
602.795	676.02
603.245	646.62
603.695	615.62
604.145	584.42
604.594	552.22
605.044	519.52
605.494	476.62
605.944	447.12
606.393	430.22
606.843	429.12
607.293	429.52
607.743	425.02
608.192	428.32
608.642	440.42
609.091	448.92
609.541	446.72
609.99	440.82
610.44	438.52
610.889	422.42
611.339	407.72
611.788	395.32
612.238	408.22
612.687	419.82
613.136	406.72
613.586	415.62
614.035	413.32
614.484	412.62
614.933	407.92
615.383	416.62
615.832	410.12
616.281	399.42
616.73	388.42
617.179	385.92
617.628	380.32
618.077	360.52
618.526	360.22
618.975	347.12
619.424	360.52
619.873	349.42
620.322	352.82
620.771	349.72
621.22	346.22
621.669	339.62
622.118	327.12
622.567	328.12
623.015	315.22
623.464	319.22
623.913	315.62
624.361	313.02
624.81	298.92
625.259	300.92
625.707	313.62
626.156	312.32
626.604	316.02
627.053	312.62
627.501	318.02
627.95	316.22
628.398	321.82
628.847	322.62
629.295	310.42
629.744	329.02
630.192	319.32
630.64	309.52
631.089	300.22
631.537	299.82
631.985	280.92
632.433	290.22
632.881	278.02
633.33	276.02
633.778	286.22
634.226	286.22
634.674	289.72
635.122	287.82
635.57	294.02
636.018	295.22
636.466	308.82
636.914	294.12
637.362	313.42
637.81	305.42
638.258	303.22
638.705	305.82
639.153	327.02
639.601	328.52
640.049	335.12
640.497	365.62
640.944	374.32
641.392	335.92
641.84	314.32
642.287	298.72
642.735	280.72
643.182	280.92
643.63	277.32
644.078	265.32
644.525	281.92
644.973	267.62
645.42	274.72
645.867	279.92
646.315	287.22
646.762	288.12
647.21	279.42
647.657	279.62
648.104	280.62
648.551	267.22
648.999	269.12
649.446	275.12
649.893	264.42
650.34	273.62
650.787	284.62
651.234	298.62
651.682	318.42
652.129	354.22
652.576	407.72
653.023	500.12
653.47	595.12
653.917	692.42
654.363	764.72
654.81	851.82
655.257	814.62
655.704	620.62
656.151	447.72
656.598	368.52
657.044	314.92
657.491	298.52
657.938	281.12
658.385	273.92
658.831	277.82
659.278	274.12
659.724	257.62
660.171	256.72
660.618	245.82
661.064	243.72
661.511	243.52
661.957	247.12
662.404	253.52
662.85	271.82
663.296	265.12
663.743	248.42
664.189	244.22
664.635	248.62
665.082	232.72
665.528	243.62
665.974	248.92
666.42	245.92
666.867	243.92
667.313	221.52
667.759	234.12
668.205	216.92
668.651	228.82
669.097	223.62
669.543	220.32
669.989	214.22
670.435	223.02
670.881	223.32
671.327	220.92
671.773	239.42
672.219	249.32
672.665	285.62
673.11	303.52
673.556	341.82
674.002	364.12
674.448	360.42
674.893	302.22
675.339	257.92
675.785	232.22
676.23	226.22
676.676	206.32
677.122	202.12
677.567	196.02
678.013	197.12
678.458	187.82
678.904	184.82
679.349	180.52
679.794	185.32
680.24	183.52
680.685	183.42
681.131	188.02
681.576	187.62
682.021	179.72
682.466	181.32
682.912	181.72
683.357	183.82
683.802	201.72
684.247	216.42
684.692	237.92
685.137	264.62
685.583	301.02
686.028	313.42
686.473	286.62
686.918	238.42
687.363	225.82
687.807	219.52
688.252	197.12
688.697	192.52
689.142	182.12
689.587	176.72
690.032	169.42
690.477	181.42
690.921	183.52
691.366	206.72
691.811	217.92
692.255	232.72
692.7	254.72
693.145	267.82
693.589	366.82
694.034	605.82
694.478	857.42
694.923	1014.42
695.367	1366.72
695.812	719.62
696.256	269.32
696.701	199.22
697.145	186.52
697.59	177.22
698.034	166.22
698.478	175.62
698.922	169.22
699.367	172.92
699.811	175.22
700.255	189.92
700.699	208.42
701.143	226.12
701.588	257.62
702.032	280.42
702.476	287.12
702.92	265.72
703.364	268.72
703.808	338.92
704.252	562.62
704.696	813.82
705.14	979.92
705.584	1285.32
706.027	614.32
706.471	298.62
706.915	209.22
707.359	188.72
707.803	168.82
708.246	168.12
708.69	168.12
709.134	170.22
709.577	175.02
710.021	176.32
710.465	168.12
710.908	161.82
711.352	154.82
711.795	166.02
712.239	185.72
712.682	209.92
713.126	225.92
713.569	258.92
714.012	201.82
714.456	160.62
714.899	152.72
715.342	137.82
715.786	133.92
716.229	137.02
716.672	131.02
717.115	125.92
717.558	133.62
718.002	129.12
718.445	136.12
718.888	155.32
719.331	157.32
719.774	166.32
720.217	163.82
720.66	155.92
721.103	139.62
721.546	136.82
721.989	134.72
722.432	119.62
722.874	123.62
723.317	121.12
723.76	126.22
724.203	135.62
724.645	159.32
725.088	231.12
725.531	300.42
725.974	365.02
726.416	318.12
726.859	168.92
727.301	134.62
727.744	121.02
728.187	119.92
728.629	126.92
729.071	125.42
729.514	139.22
729.956	149.12
730.399	146.72
730.841	155.52
731.283	143.32
731.726	143.72
732.168	141.82
732.61	136.32
733.053	149.92
733.495	165.32
733.937	184.92
734.379	220.22
734.821	230.02
735.263	289.82
735.705	450.22
736.148	846.72
736.59	1449.72
737.032	1824.42
737.474	1505.42
737.916	470.82
738.357	241.12
738.799	174.22
739.241	160.62
739.683	148.42
740.125	159.02
740.567	161.62
741.008	175.52
741.45	172.12
741.892	176.42
742.334	194.02
742.775	203.02
743.217	195.72
743.658	150.02
744.1	138.92
744.542	140.82
744.983	177.72
745.425	204.42
745.866	206.22
746.307	159.92
746.749	150.92
747.19	176.42
747.632	240.82
748.073	461.72
748.514	996.83
748.956	1635.52
749.397	2046.32
749.838	1718.02
750.279	1780.22
750.72	896.82
751.162	315.72
751.603	173.82
752.044	138.42
752.485	119.72
752.926	116.12
753.367	111.22
753.808	101.12
754.249	107.02
754.69	96.02
755.131	89.62
755.572	97.22
756.013	94.12
756.453	95.02
756.894	96.42
757.335	96.62
757.776	94.72
758.216	98.52
758.657	103.12
759.098	103.32
759.538	119.62
759.979	139.12
760.42	191.02
760.86	368.12
761.301	967.62
761.741	2432.02
762.182	3857.22
762.622	2775.32
763.063	785.02
763.503	302.02
763.943	176.92
764.384	145.22
764.824	125.82
765.264	110.72
765.705	106.12
766.145	88.12
766.585	89.52
767.025	88.62
767.465	84.02
767.906	95.92
768.346	88.22
768.786	99.92
769.226	103.62
769.666	154.72
770.106	311.82
770.546	834.92
770.986	1542.32
771.426	1429.32
771.866	465.82
772.306	183.42
772.745	115.12
773.185	89.22
773.625	83.32
774.065	81.12
774.505	87.02
774.944	103.82
775.384	200.72
775.824	369.02
776.263	360.72
776.703	167.62
777.142	80.42
777.582	75.22
778.021	62.82
778.461	65.02
778.9	62.52
779.34	66.82
779.779	52.42
780.219	50.12
780.658	55.72
781.097	50.32
781.537	60.82
781.976	49.72
782.415	46.22
782.855	48.12
783.294	47.82
783.733	51.02
784.172	54.82
784.611	49.92
785.05	52.62
785.489	54.92
785.928	59.32
786.367	65.92
786.806	50.62
787.245	70.82
787.684	71.72
788.123	78.82
788.562	69.02
789.001	64.92
789.44	69.62
789.879	59.42
790.317	59.12
790.756	63.82
791.195	64.62
791.634	78.82
792.072	106.12
792.511	188.12
792.95	528.12
793.388	1211.02
793.827	1171.62
794.265	388.32
794.704	156.92
795.142	98.32
795.581	79.82
796.019	72.22
796.458	66.82
796.896	65.22
797.334	65.62
797.773	78.52
798.211	117.42
798.649	228.92
799.087	558.52
799.526	908.12
799.964	1151.52
800.402	1240.12
800.84	448.12
801.278	175.32
801.716	103.02
802.154	83.52
802.592	78.02
803.03	73.12
803.468	67.62
803.906	72.72
804.344	79.72
804.782	71.62
805.22	74.72
805.658	65.02
806.096	84.02
806.533	78.12
806.971	95.42
807.409	110.82
807.847	169.92
808.284	349.52
808.722	1016.32
809.16	1943.22
809.597	1763.22
810.035	3105.22
810.472	3595.82
810.91	1296.12
811.347	472.32
811.785	226.42
812.222	143.82
812.66	106.12
813.097	94.12
813.535	80.92
813.972	66.52
814.409	58.22
814.846	52.82
815.284	61.82
815.721	60.12
816.158	56.62
816.595	55.32
817.032	87.52
817.47	110.22
817.907	81.42
818.344	54.22
818.781	45.92
819.218	46.52
819.655	63.12
820.092	113.32
820.529	134.02
820.966	100.42
821.403	69.62
821.839	50.42
822.276	45.72
822.713	71.22
823.15	73.02
823.587	67.12
824.023	77.72
824.46	156.72
824.897	500.22
825.333	820.72
825.77	353.92
826.206	127.82
826.643	75.82
827.08	50.82
827.516	41.62
827.953	35.52
828.389	45.32
828.825	36.12
829.262	38.22
829.698	31.32
830.135	34.32
830.571	36.42
831.007	27.62
831.443	30.92
831.88	30.62
832.316	31.62
832.752	29.12
833.188	32.02
833.624	31.32
834.06	27.62
834.497	37.62
834.933	34.62
835.369	42.22
835.805	30.92
836.241	40.22
836.677	34.62
837.112	40.82
837.548	50.62
837.984	74.72
838.42	108.52
838.856	270.12
839.292	855.92
839.727	1385.82
840.163	649.52
840.599	514.92
841.034	1166.72
841.47	1299.72
841.906	476.12
842.341	195.22
842.777	116.52
843.212	115.82
843.648	110.92
844.083	61.92
844.519	41.32
844.954	33.92
845.39	25.82
845.825	28.42
846.261	27.42
846.696	25.02
847.131	24.32
847.566	27.52
848.002	24.22
848.437	21.72
848.872	36.32
849.307	32.72
849.742	43.32
850.177	91.12
850.613	315.02
851.048	521.92
851.483	229.22
851.918	85.92
852.353	44.22
852.788	27.92
853.223	22.62
853.657	32.92
854.092	22.72
854.527	16.62
854.962	20.52
855.397	25.42
855.832	28.92
856.266	18.52
856.701	22.52
857.136	23.62
857.57	22.52
858.005	27.42
858.44	30.72
858.874	20.52
859.309	31.62
859.743	20.12
860.178	23.32
860.612	14.72
861.047	30.52
861.481	31.42
861.915	44.52
862.35	24.22
862.784	14.32
863.218	19.72
863.653	18.12
864.087	15.72
864.521	31.22
864.955	34.52
865.39	86.52
865.824	100.42
866.258	67.22
866.692	109.12
867.126	116.12
867.56	66.42
867.994	29.32
868.428	20.32
868.862	26.42
869.296	34.12
869.73	38.02
870.164	37.42
870.598	27.82
871.031	22.92
871.465	11.82
871.899	12.52
872.333	14.02
872.766	18.82
873.2	10.62
873.634	14.02
874.067	16.12
874.501	8.42
874.935	21.42
875.368	21.82
875.802	16.92
876.235	15.82
876.669	8.12
877.102	7.92
877.535	12.62
877.969	12.22
878.402	16.72
878.836	5.72
879.269	13.82
879.702	9.82
880.135	13.92
880.569	12.12
881.002	13.22
881.435	8.02
881.868	5.82
882.301	6.42
882.734	6.92
883.167	15.42
883.601	4.22
884.034	8.92
884.467	0.52
884.899	3.62
885.332	5.92
885.765	3.12
886.198	6.82
886.631	7.22
887.064	11.82
887.497	7.52
887.929	11.52
888.362	-0.28
888.795	6.22
889.228	3.02
889.66	12.52
890.093	5.02
890.526	-1.68
890.958	6.12
891.391	12.32
891.823	12.42
892.256	5.22
892.688	-1.08
893.121	11.12
893.553	5.12
893.985	13.12
894.418	10.62
894.85	0.32
895.282	8.12
895.715	6.72
896.147	11.72
896.579	4.62
897.011	8.72
897.444	6.72
897.876	4.72
898.308	3.42
898.74	4.92
899.172	1.02
899.604	19.72
900.036	10.42
900.468	5.62
900.9	3.42
901.332	9.52
901.764	6.62
902.196	6.02
902.628	6.42
903.06	7.52
903.491	19.52
903.923	7.22
904.355	8.52
904.787	11.62
905.218	9.72
905.65	12.52
906.082	-2.18
906.513	3.32
906.945	4.52
907.376	-1.68
907.808	10.42
908.239	15.12
908.671	5.02
909.102	8.12
909.534	11.62
909.965	27.52
910.397	52.62
910.828	183.62
911.259	289.92
911.691	131.02
912.122	61.82
912.553	26.72
912.984	23.22
913.415	12.02
913.847	12.52
914.278	6.72
914.709	9.22
915.14	12.72
915.571	11.22
916.002	7.32
916.433	6.92
916.864	8.32
917.295	5.82
917.726	11.42
918.157	7.82
918.587	10.72
919.018	12.92
919.449	10.22
919.88	16.82
920.311	18.22
920.741	20.82
921.172	89.92
921.603	84.92
922.033	27.72
922.464	26.62
922.895	12.52
923.325	10.42
923.756	10.32
924.186	2.42
924.617	7.72
925.047	11.52
925.478	15.62
925.908	11.52
926.338	4.12
926.769	0.32
927.199	8.62
927.629	1.62
928.06	-0.68
928.49	8.52
928.92	4.02
929.35	3.52
929.78	1.72
930.21	6.62
930.641	6.02
931.071	4.72
931.501	-0.28
931.931	6.82
932.361	3.02
932.791	-2.28
933.221	1.62
933.651	1.22
934.08	5.72
934.51	22.42
934.94	8.92
935.37	2.92
935.8	4.72
936.229	7.82
936.659	6.12
937.089	2.42
937.519	7.62
937.948	14.92
938.378	13.92
938.807	1.52
939.237	-1.38
939.666	3.42
940.096	-7.88
940.525	6.02
940.955	0.62
941.384	2.62
941.814	-5.18
942.243	-3.28
942.672	2.02
943.102	-0.38
943.531	-5.78
943.96	-1.38
944.39	3.62
944.819	2.62
945.248	0.72
945.677	1.42
946.106	3.92
946.535	5.62
946.964	2.32
947.393	0.82
947.822	4.82
948.251	-10.08
948.68	3.52
949.109	3.82
949.538	0.32
949.967	-8.98
950.396	-1.08
950.825	-7.08
951.254	-2.48
951.682	-6.08
952.111	2.12
952.54	6.02
952.969	-3.98
953.397	-6.68
953.826	-4.68
954.254	-0.58
954.683	4.02
955.112	-6.98
955.54	-2.98
955.969	-2.38
956.397	-1.48
956.826	-8.88
957.254	6.62
957.682	1.52
958.111	3.92
958.539	-1.18
958.967	1.62
959.396	-2.48
959.824	0.12
960.252	-0.28
960.68	-10.78
961.109	-4.48
961.537	-3.68
961.965	0.32
962.393	-0.68
962.821	-7.48
963.249	-0.08
963.677	-2.58
964.105	-1.28
964.533	26.62
964.961	24.32
965.389	10.12
965.817	9.02
966.245	-2.88
966.672	5.42
967.1	-3.18
967.528	-5.38
967.956	-1.68
968.383	-4.88
968.811	-0.98
969.239	4.32
969.666	-3.18
970.094	3.82
970.522	-0.88
970.949	-4.18
971.377	-7.28
971.804	-4.18
972.232	-0.38
972.659	-0.78
973.087	-5.08
973.514	0.62
973.941	-3.28
974.369	7.42
974.796	1.92
975.223	-0.98
975.651	3.72
976.078	-0.98
976.505	-4.78
976.932	0.82
977.359	9.52
977.786	7.12
978.214	0.52
978.641	-4.28
979.068	-6.18
979.495	-5.38
979.922	-0.08
980.349	-2.38
980.776	6.22
981.202	1.92
981.629	3.62
982.056	-0.98
982.483	0.22
982.91	2.12
983.337	-1.68
983.763	-0.78
984.19	-4.78
984.617	-4.18
985.043	-5.78
985.47	-3.08
985.897	-4.48
986.323	-8.18
986.75	0.12
987.176	-0.28
987.603	0.02
988.029	-1.48
988.456	-4.68
988.882	3.52
989.308	-8.38
989.735	-8.48
990.161	-1.68
990.587	-4.28
991.014	2.42
991.44	2.12
991.866	-4.68
992.292	-4.48
992.719	-1.98
993.145	6.82
993.571	-7.08
993.997	-7.58
994.423	0.82
994.849	-6.28
995.275	0.42
995.701	1.32
996.127	-3.88
996.553	3.12
996.979	-5.88
997.405	2.02
997.83	-9.08
998.256	-6.58
998.682	-8.48
999.108	-10.58
999.534	-0.78
999.959	-0.58
1000.385	0.82
1000.811	0.42
1001.236	-2.28
1001.662	-8.18
1002.087	-10.78
1002.513	-1.88
1002.938	2.02
1003.364	-1.88
1003.789	-1.98
1004.215	4.12
1004.64	-4.98
1005.066	5.22
1005.491	1.32
1005.916	-1.18
1006.342	-4.28
1006.767	-2.98
1007.192	3.32
1007.617	-2.58
1008.042	-5.78
1008.468	-4.58
1008.893	3.02
1009.318	-5.28
1009.743	-4.28
1010.168	0.22
1010.593	6.32
1011.018	-9.58
1011.443	-5.88
1011.868	5.52
1012.293	-5.58
1012.718	-6.98
1013.143	-2.18
1013.567	-4.38
1013.992	-3.58
1014.417	-16.18
1014.842	5.52
1015.267	-3.78
1015.691	0.22
1016.116	9.62
1016.541	-0.88
1016.965	-0.18
1017.39	6.42
1017.814	1.92
1018.239	2.52
1018.663	-9.38
1019.088	-9.78
1019.512	-3.38
1019.937	0.02
1020.361	0.92
1020.785	-8.88
1021.21	-4.98
1021.634	-3.38
1022.058	3.42
1022.483	-1.18
1022.907	-8.78
1023.331	-7.18
1023.755	-9.28
1024.179	-2.68
1024.604	-7.48
1025.028	-4.68
1025.452	-3.68
1025.876	-9.08
1026.3	-5.68
1026.724	-6.48
1027.148	-2.88
1027.572	-6.48
1027.996	-0.28
1028.42	-6.28
1028.843	-2.48
1029.267	-7.98
1029.691	-6.08
1030.115	-4.68
1030.539	-9.48
1030.962	-7.48
1031.386	-9.28
1031.81	0.52
1032.233	0.42
1032.657	2.82
1033.08	-0.28
1033.504	1.22
1033.927	-6.08
1034.351	1.02
1034.774	-8.28
1035.198	-4.38
1035.621	-7.08
1036.045	-6.38
1036.468	5.62
1036.891	-9.48
1037.315	-9.58
1037.738	-16.68
1038.161	0.72
1038.584	-3.38
1039.008	-4.18
1039.431	-3.38
1039.854	-0.88
1040.277	-3.08
1040.7	-9.48
1041.123	-0.78
1041.546	-9.08
1041.969	-5.28
1042.392	-1.98
1042.815	-1.58
1043.238	1.22
1043.661	0.62
1044.084	0.52
1044.507	-5.58
1044.93	-6.78
1045.352	-2.28
1045.775	-1.78
1046.198	-1.08
1046.621	0.32
1047.043	1.22
1047.466	1.62
1047.889	-1.78
1048.311	-8.78
1048.734	-4.28
1049.156	-5.98
1049.579	1.62
1050.001	2.42
1050.424	2.82
1050.846	-0.88
1051.269	-3.58
1051.691	-4.88
1052.113	-4.28
1052.536	-1.68
1052.958	3.52
1053.38	-2.98
1053.802	-12.78
1054.225	11.82
1054.647	-5.18
1055.069	-2.78
1055.491	0.02
1055.913	-5.38
1056.335	2.82
1056.757	-4.38
1057.179	-7.38
1057.601	-2.68
1058.023	-2.48
1058.445	-11.18
1058.867	-7.48
1059.289	-1.48
1059.711	-7.38
1060.133	-5.38
1060.555	-8.48
1060.976	-1.38
1061.398	-6.78
1061.82	-5.18
1062.241	-3.28
1062.663	-12.48
1063.085	-6.28
1063.506	-1.28
1063.928	-1.08
1064.35	2.82
1064.771	-9.28
1065.193	-3.68
1065.614	-4.78
1066.035	-5.08
1066.457	-0.88
1066.878	-1.48
1067.3	-2.98
1067.721	-4.38
1068.142	-3.18
1068.564	-0.08
1068.985	-3.48
1069.406	-4.68
1069.827	-10.08
1070.248	2.92
1070.67	-8.48
1071.091	-3.68
1071.512	-3.38
1071.933	-3.78
1072.354	-9.18
1072.775	-7.58
1073.196	-12.18
1073.617	-7.68
1074.038	-7.58
1074.459	-3.18
1074.88	-3.28
1075.3	-2.48
1075.721	-2.48
1076.142	1.32
1076.563	-0.48
1076.983	-8.78
1077.404	-10.28
1077.825	-6.78
1078.246	-2.48
1078.666	-12.88
1079.087	-1.78
1079.507	-10.28
1079.928	0.42
1080.348	-1.18
1080.769	-5.18
1081.189	4.72
1081.61	-4.48
1082.03	-9.28
1082.451	-8.48
1082.871	-0.78
1083.291	-8.38
1083.711	-4.28
1084.132	-6.98
1084.552	0.32
1084.972	-8.48
1085.392	-2.88
1085.813	-10.88
1086.233	-2.58
1086.653	-9.18
1087.073	-7.28
1087.493	0.52
1087.913	-5.18
1088.333	-4.18
1088.753	-3.48
1089.173	3.52
1089.593	-7.68
1090.013	-3.18
1090.433	-0.68
1090.852	-5.58
1091.272	-5.78
1091.692	-4.98
1092.112	-5.98
1092.531	-10.78
1092.951	-8.08
1093.371	-4.88
1093.79	3.92
1094.21	-5.08
1094.63	-5.08
1095.049	-7.88
1095.469	-8.28
1095.888	-6.88
1096.308	3.82
1096.727	10.42
1097.146	-6.28
1097.566	0.62
1097.985	-5.78
1098.405	-6.18
1098.824	-13.48
1099.243	-5.98
1099.662	-5.48
1100.082	-6.08
1100.501	-0.48
1100.92	-7.28
1101.339	-7.78
1101.758	-1.58
