Data from 20171114-ORNL-Ar_H_NY_Subt18_08-04-24-173.txt Node
Date: Tue Nov 14 08:04:24 EST 2017
User: Ender
Spectrometer: HR+D1039
Trigger mode: 0
Integration Time (sec): 2.730000E-2
Scans to average: 10
Electric dark correction enabled: true
Nonlinearity correction enabled: false
Boxcar width: 0
XAxis mode: Wavelengths
Number of Pixels in Spectrum: 2048
>>>>>Begin Spectral Data<<<<<
187.836	-2.04
188.309	-2.04
188.782	-2.04
189.255	1.96
189.728	-2.34
190.201	1.86
190.674	-1.84
191.147	2.16
191.619	-6.94
192.092	-0.34
192.565	3.46
193.038	-0.94
193.511	0.16
193.984	-0.94
194.456	-4.14
194.929	4.96
195.402	-0.84
195.874	5.76
196.347	5.96
196.82	-11.84
197.292	7.06
197.765	1.86
198.237	-0.84
198.71	3.76
199.182	-5.84
199.655	2.86
200.127	-0.34
200.6	-3.64
201.072	-3.84
201.544	-1.84
202.017	-1.84
202.489	9.56
202.961	1.46
203.433	-3.74
203.906	-2.94
204.378	-7.14
204.85	-6.94
205.322	-6.04
205.794	-0.64
206.266	-2.84
206.739	-8.44
207.211	2.36
207.683	-3.04
208.155	-2.44
208.627	-2.94
209.099	2.86
209.57	-7.14
210.042	-4.74
210.514	-1.14
210.986	-1.04
211.458	-12.14
211.93	-2.84
212.402	3.56
212.873	-4.14
213.345	-8.34
213.817	-7.04
214.288	-7.04
214.76	-9.84
215.232	-0.84
215.703	-4.34
216.175	-4.54
216.646	-4.44
217.118	-4.94
217.589	-2.84
218.061	2.86
218.532	0.76
219.004	-0.04
219.475	-3.24
219.946	-1.54
220.418	2.66
220.889	6.06
221.36	3.16
221.832	1.66
222.303	-3.04
222.774	-1.44
223.245	-4.84
223.717	-4.64
224.188	-7.94
224.659	-4.94
225.13	-1.64
225.601	2.16
226.072	2.66
226.543	1.86
227.014	5.36
227.485	-3.54
227.956	-7.04
228.427	-0.54
228.898	5.26
229.369	2.86
229.839	-0.14
230.31	-9.54
230.781	3.76
231.252	6.46
231.722	1.86
232.193	-4.34
232.664	0.86
233.135	5.16
233.605	4.26
234.076	-2.24
234.546	-0.14
235.017	5.56
235.487	-2.54
235.958	2.46
236.428	-1.14
236.899	5.36
237.369	9.86
237.84	2.06
238.31	8.36
238.78	1.56
239.251	5.96
239.721	1.76
240.191	0.66
240.662	0.96
241.132	5.16
241.602	-0.94
242.072	1.56
242.542	9.76
243.013	5.46
243.483	8.66
243.953	1.06
244.423	-4.34
244.893	-0.04
245.363	4.76
245.833	-1.34
246.303	4.86
246.773	8.06
247.243	1.66
247.712	0.06
248.182	8.96
248.652	5.86
249.122	4.76
249.592	17.26
250.061	25.66
250.531	34.36
251.001	18.46
251.471	19.66
251.94	22.46
252.41	6.96
252.879	4.66
253.349	16.86
253.818	14.16
254.288	6.36
254.757	4.46
255.227	9.26
255.696	6.46
256.166	11.16
256.635	5.86
257.105	7.96
257.574	14.56
258.043	13.46
258.513	17.06
258.982	15.66
259.451	7.86
259.92	18.06
260.389	6.26
260.859	17.46
261.328	7.76
261.797	20.76
262.266	12.36
262.735	13.26
263.204	11.06
263.673	1.76
264.142	12.06
264.611	-3.44
265.08	2.36
265.549	5.86
266.018	3.36
266.487	0.46
266.955	-1.24
267.424	2.86
267.893	2.56
268.362	4.56
268.83	7.76
269.299	16.06
269.768	7.26
270.236	13.36
270.705	6.76
271.174	8.86
271.642	11.76
272.111	10.96
272.579	16.36
273.048	21.76
273.516	29.56
273.985	26.36
274.453	24.36
274.922	16.66
275.39	8.96
275.858	8.26
276.327	16.16
276.795	21.66
277.263	8.06
277.731	29.36
278.2	53.36
278.668	60.56
279.136	51.96
279.604	19.26
280.072	15.96
280.54	11.46
281.008	10.96
281.477	18.86
281.945	18.06
282.413	15.06
282.881	16.66
283.348	13.16
283.816	10.76
284.284	17.96
284.752	23.86
285.22	18.26
285.688	17.76
286.156	18.86
286.623	49.36
287.091	56.26
287.559	26.96
288.026	16.26
288.494	18.16
288.962	8.76
289.429	9.46
289.897	24.46
290.364	16.96
290.832	22.66
291.3	16.06
291.767	16.36
292.234	24.66
292.702	14.46
293.169	18.16
293.637	21.06
294.104	17.26
294.571	12.36
295.039	12.96
295.506	10.16
295.973	21.56
296.44	13.26
296.908	24.96
297.375	20.36
297.842	14.16
298.309	15.26
298.776	17.26
299.243	20.06
299.71	11.26
300.177	28.06
300.644	24.66
301.111	18.76
301.578	19.66
302.045	18.96
302.512	21.56
302.979	27.16
303.446	21.96
303.913	22.36
304.379	22.36
304.846	26.96
305.313	28.06
305.78	20.76
306.246	28.76
306.713	20.26
307.18	18.56
307.646	32.06
308.113	31.86
308.579	22.86
309.046	30.06
309.512	27.06
309.979	20.56
310.445	27.66
310.912	30.36
311.378	34.26
311.845	33.86
312.311	36.06
312.777	34.16
313.244	35.36
313.71	40.66
314.176	33.46
314.642	37.86
315.109	30.56
315.575	39.96
316.041	37.66
316.507	28.86
316.973	38.16
317.439	30.46
317.905	35.16
318.371	32.86
318.837	38.66
319.303	33.76
319.769	32.86
320.235	35.46
320.701	39.96
321.167	37.86
321.633	32.16
322.099	42.16
322.564	43.26
323.03	38.66
323.496	35.46
323.962	44.66
324.427	32.66
324.893	43.46
325.359	37.46
325.824	41.96
326.29	36.06
326.755	33.96
327.221	38.96
327.686	37.86
328.152	51.06
328.617	38.06
329.083	46.86
329.548	47.06
330.014	51.06
330.479	39.16
330.944	48.46
331.41	42.46
331.875	43.36
332.34	38.16
332.805	36.76
333.271	45.26
333.736	43.76
334.201	50.56
334.666	49.46
335.131	55.86
335.596	53.26
336.061	52.06
336.526	43.76
336.991	54.86
337.456	59.86
337.921	51.26
338.386	42.56
338.851	42.86
339.316	49.16
339.781	45.96
340.246	47.46
340.711	48.56
341.175	51.16
341.64	44.56
342.105	49.16
342.569	52.66
343.034	58.56
343.499	53.16
343.963	49.46
344.428	57.56
344.893	58.26
345.357	56.86
345.822	58.96
346.286	55.26
346.751	64.96
347.215	59.36
347.679	75.26
348.144	91.26
348.608	78.76
349.073	60.36
349.537	64.36
350.001	76.46
350.465	76.76
350.93	80.26
351.394	77.76
351.858	73.46
352.322	79.06
352.786	74.06
353.25	94.06
353.715	106.26
354.179	96.96
354.643	113.56
355.107	118.46
355.571	100.86
356.035	97.26
356.498	111.66
356.962	113.46
357.426	126.26
357.89	105.56
358.354	83.26
358.818	76.76
359.281	74.16
359.745	71.96
360.209	76.56
360.673	67.96
361.136	75.16
361.6	76.66
362.064	78.26
362.527	83.76
362.991	79.46
363.454	80.66
363.918	74.26
364.381	73.46
364.845	72.36
365.308	75.96
365.772	80.56
366.235	79.96
366.698	78.46
367.162	79.56
367.625	82.76
368.088	84.46
368.552	78.46
369.015	81.76
369.478	96.76
369.941	91.86
370.404	84.26
370.867	95.26
371.331	101.16
371.794	107.36
372.257	105.66
372.72	113.76
373.183	106.86
373.646	99.46
374.109	93.36
374.572	96.16
375.035	97.26
375.497	103.46
375.96	99.56
376.423	95.96
376.886	103.86
377.349	107.76
377.811	86.76
378.274	95.86
378.737	101.86
379.199	93.96
379.662	95.66
380.125	111.16
380.587	112.26
381.05	115.76
381.512	119.76
381.975	126.56
382.437	113.76
382.9	114.86
383.362	119.76
383.825	127.36
384.287	130.46
384.75	123.86
385.212	130.16
385.674	131.16
386.136	127.26
386.599	116.66
387.061	114.96
387.523	120.46
387.985	127.96
388.447	132.06
388.91	132.96
389.372	136.56
389.834	139.06
390.296	128.86
390.758	142.76
391.22	156.86
391.682	193.76
392.144	267.96
392.606	209.96
393.068	152.46
393.529	160.06
393.991	137.56
394.453	131.26
394.915	144.56
395.377	172.86
395.838	200.36
396.3	147.46
396.762	133.16
397.224	122.66
397.685	125.36
398.147	123.26
398.608	119.16
399.07	114.76
399.531	124.26
399.993	130.86
400.454	137.26
400.916	130.16
401.377	132.26
401.839	141.36
402.3	140.06
402.762	154.86
403.223	161.56
403.684	153.46
404.145	144.36
404.607	144.86
405.068	152.86
405.529	153.56
405.99	168.96
406.451	161.26
406.913	156.06
407.374	151.76
407.835	149.76
408.296	152.46
408.757	158.86
409.218	166.76
409.679	165.56
410.14	166.16
410.601	159.36
411.062	170.36
411.522	171.56
411.983	163.86
412.444	157.46
412.905	170.46
413.366	169.76
413.826	180.66
414.287	205.26
414.748	243.86
415.208	231.76
415.669	201.46
416.13	186.26
416.59	182.06
417.051	189.56
417.511	195.36
417.972	216.26
418.432	221.16
418.893	257.16
419.353	227.26
419.814	186.46
420.274	162.26
420.734	158.86
421.195	176.66
421.655	185.06
422.115	173.86
422.576	168.36
423.036	182.36
423.496	186.06
423.956	192.56
424.416	205.46
424.876	241.86
425.336	236.46
425.797	237.86
426.257	228.76
426.717	220.66
427.177	211.96
427.637	202.56
428.097	212.56
428.556	223.06
429.016	242.66
429.476	231.66
429.936	250.06
430.396	248.56
430.856	266.06
431.315	284.56
431.775	313.06
432.235	329.86
432.694	320.96
433.154	326.16
433.614	350.76
434.073	300.26
434.533	252.76
434.993	241.56
435.452	258.86
435.912	262.76
436.371	256.56
436.83	259.16
437.29	245.06
437.749	220.96
438.209	220.66
438.668	249.36
439.127	257.26
439.587	230.26
440.046	222.16
440.505	231.86
440.964	251.26
441.424	280.46
441.883	279.96
442.342	227.06
442.801	206.56
443.26	200.06
443.719	198.86
444.178	194.16
444.637	189.36
445.096	201.76
445.555	197.86
446.014	204.36
446.473	198.46
446.932	205.16
447.391	194.76
447.849	205.16
448.308	198.36
448.767	202.86
449.226	214.66
449.685	215.76
450.143	229.16
450.602	214.46
451.061	206.16
451.519	214.06
451.978	205.96
452.436	218.26
452.895	212.56
453.353	225.56
453.812	219.16
454.27	224.86
454.729	213.66
455.187	211.66
455.646	217.66
456.104	225.36
456.562	233.66
457.021	242.36
457.479	237.86
457.937	237.26
458.395	231.06
458.854	226.76
459.312	229.46
459.77	252.36
460.228	229.96
460.686	227.36
461.144	224.36
461.602	214.06
462.06	223.96
462.518	232.86
462.976	228.56
463.434	229.16
463.892	237.16
464.35	243.26
464.808	259.06
465.266	236.96
465.724	244.56
466.181	249.76
466.639	242.76
467.097	257.06
467.555	271.46
468.012	273.46
468.47	280.06
468.928	292.96
469.385	312.76
469.843	316.76
470.3	311.76
470.758	318.36
471.215	341.26
471.673	363.46
472.13	349.86
472.588	363.26
473.045	332.26
473.503	340.66
473.96	355.06
474.417	358.66
474.875	383.66
475.332	432.66
475.789	413.26
476.246	418.96
476.704	431.56
477.161	454.06
477.618	461.66
478.075	509.76
478.532	548.76
478.989	610.56
479.446	710.86
479.903	686.96
480.36	729.16
480.817	773.56
481.274	867.56
481.731	966.96
482.188	1048.86
482.645	1176.26
483.102	1272.86
483.558	1382.36
484.015	1451.76
484.472	1444.26
484.929	1402.46
485.385	1346.56
485.842	1292.06
486.299	1236.46
486.755	1171.86
487.212	984.76
487.668	827.36
488.125	770.16
488.582	707.76
489.038	672.26
489.494	650.86
489.951	631.26
490.407	601.06
490.864	579.26
491.32	581.96
491.776	577.76
492.233	576.36
492.689	548.26
493.145	530.86
493.602	534.76
494.058	542.56
494.514	547.96
494.97	568.36
495.426	580.96
495.882	558.26
496.338	549.56
496.794	556.76
497.251	564.86
497.707	572.16
498.163	568.76
498.618	574.76
499.074	581.96
499.53	600.96
499.986	600.36
500.442	585.96
500.898	559.06
501.354	558.26
501.809	570.76
502.265	578.56
502.721	581.86
503.177	596.66
503.632	589.76
504.088	606.96
504.543	629.56
504.999	627.76
505.455	591.56
505.91	560.46
506.366	559.96
506.821	551.76
507.277	552.86
507.732	558.16
508.187	553.46
508.643	556.56
509.098	571.06
509.553	584.16
510.009	594.06
510.464	594.16
510.919	607.26
511.375	619.76
511.83	640.06
512.285	646.96
512.74	671.36
513.195	701.96
513.65	682.76
514.105	686.76
514.56	687.76
515.015	703.06
515.47	721.76
515.925	714.26
516.38	702.16
516.835	716.16
517.29	703.86
517.745	689.46
518.2	680.56
518.655	678.66
519.109	659.86
519.564	660.86
520.019	656.36
520.474	653.06
520.928	642.26
521.383	638.36
521.838	640.66
522.292	630.76
522.747	627.96
523.201	632.86
523.656	621.86
524.11	614.36
524.565	611.76
525.019	618.66
525.474	621.36
525.928	627.66
526.382	608.66
526.837	615.16
527.291	631.46
527.745	624.36
528.2	623.46
528.654	609.96
529.108	604.46
529.562	610.86
530.016	605.96
530.47	613.46
530.925	601.46
531.379	619.06
531.833	624.56
532.287	620.46
532.741	621.76
533.195	620.76
533.649	630.36
534.103	641.96
534.556	629.46
535.01	618.46
535.464	628.56
535.918	637.46
536.372	643.26
536.826	635.86
537.279	628.86
537.733	627.86
538.187	634.16
538.64	619.96
539.094	643.46
539.548	649.86
540.001	631.76
540.455	633.76
540.908	643.76
541.362	657.96
541.815	656.36
542.269	670.76
542.722	665.36
543.175	673.16
543.629	686.56
544.082	695.46
544.536	678.06
544.989	688.16
545.442	702.76
545.895	689.46
546.349	691.86
546.802	692.66
547.255	690.16
547.708	701.86
548.161	709.96
548.614	726.46
549.067	724.26
549.52	723.66
549.973	711.06
550.426	710.46
550.879	689.36
551.332	698.76
551.785	703.76
552.238	711.46
552.691	712.56
553.144	720.36
553.596	742.76
554.049	755.36
554.502	782.36
554.955	792.66
555.407	792.16
555.86	785.26
556.313	781.06
556.765	772.16
557.218	764.26
557.67	774.36
558.123	759.56
558.576	769.86
559.028	777.16
559.48	778.16
559.933	761.66
560.385	732.06
560.838	709.36
561.29	687.46
561.742	666.96
562.195	660.86
562.647	661.06
563.099	674.06
563.551	668.26
564.004	681.86
564.456	669.26
564.908	665.96
565.36	650.46
565.812	629.16
566.264	624.36
566.716	618.16
567.168	617.86
567.62	622.46
568.072	599.26
568.524	594.46
568.976	597.46
569.428	585.36
569.88	582.86
570.332	581.56
570.784	584.16
571.235	587.86
571.687	602.46
572.139	597.86
572.59	614.06
573.042	616.86
573.494	608.16
573.945	612.96
574.397	596.56
574.849	590.26
575.3	593.26
575.752	583.76
576.203	579.56
576.655	578.76
577.106	578.76
577.557	561.36
578.009	574.96
578.46	580.36
578.912	567.86
579.363	568.36
579.814	570.06
580.265	567.56
580.717	563.06
581.168	560.76
581.619	581.56
582.07	588.76
582.521	577.76
582.972	567.66
583.423	577.36
583.875	581.16
584.326	595.86
584.777	642.06
585.227	709.96
585.678	785.46
586.129	865.36
586.58	928.06
587.031	1005.56
587.482	1163.06
587.933	1309.96
588.384	1140.96
588.834	841.46
589.285	687.06
589.736	662.26
590.186	658.46
590.637	656.56
591.088	632.36
591.538	616.56
591.989	613.96
592.439	608.46
592.89	610.76
593.34	597.46
593.791	608.06
594.241	594.66
594.692	592.06
595.142	591.16
595.593	592.56
596.043	603.56
596.493	597.06
596.943	600.36
597.394	605.36
597.844	610.76
598.294	619.26
598.744	633.76
599.195	650.76
599.645	686.26
600.095	714.66
600.545	772.46
600.995	813.06
601.445	862.36
601.895	915.16
602.345	963.96
602.795	947.16
603.245	900.26
603.695	861.06
604.145	823.46
604.594	765.46
605.044	724.86
605.494	677.16
605.944	636.66
606.393	617.56
606.843	599.96
607.293	611.56
607.743	614.66
608.192	622.66
608.642	630.66
609.091	644.06
609.541	646.96
609.99	642.76
610.44	635.36
610.889	608.56
611.339	579.16
611.788	567.66
612.238	584.26
612.687	598.46
613.136	600.36
613.586	608.76
614.035	613.76
614.484	634.36
614.933	638.06
615.383	620.66
615.832	614.96
616.281	605.96
616.73	569.26
617.179	553.16
617.628	548.96
618.077	530.86
618.526	518.86
618.975	513.66
619.424	512.76
619.873	503.86
620.322	510.86
620.771	505.66
621.22	498.66
621.669	494.86
622.118	479.86
622.567	487.56
623.015	468.96
623.464	469.36
623.913	470.76
624.361	454.36
624.81	455.76
625.259	460.26
625.707	455.46
626.156	457.66
626.604	473.76
627.053	459.26
627.501	466.26
627.95	466.16
628.398	475.46
628.847	474.66
629.295	476.66
629.744	480.86
630.192	474.06
630.64	473.56
631.089	463.26
631.537	474.06
631.985	484.16
632.433	485.96
632.881	494.16
633.33	541.76
633.778	514.16
634.226	464.56
634.674	466.96
635.122	478.06
635.57	495.86
636.018	523.66
636.466	474.56
636.914	458.56
637.362	475.46
637.81	470.06
638.258	481.26
638.705	470.46
639.153	498.76
639.601	498.46
640.049	519.86
640.497	545.76
640.944	569.36
641.392	521.36
641.84	507.66
642.287	475.56
642.735	471.06
643.182	472.56
643.63	463.86
644.078	471.76
644.525	489.46
644.973	495.86
645.42	494.66
645.867	506.26
646.315	515.36
646.762	539.36
647.21	557.36
647.657	585.16
648.104	614.66
648.551	620.76
648.999	680.56
649.446	736.76
649.893	795.26
650.34	931.06
650.787	1129.86
651.234	1385.66
651.682	1801.26
652.129	2459.16
652.576	3546.66
653.023	5257.26
653.47	7279.16
653.917	9225.86
654.363	10795.96
654.81	12165.66
655.257	11544.56
655.704	7480.16
656.151	4387.76
656.598	2839.26
657.044	2003.36
657.491	1538.16
657.938	1227.06
658.385	1016.96
658.831	892.36
659.278	786.46
659.724	705.56
660.171	640.36
660.618	590.76
661.064	564.76
661.511	548.06
661.957	522.86
662.404	520.86
662.85	529.66
663.296	501.96
663.743	454.46
664.189	441.56
664.635	424.56
665.082	431.86
665.528	429.26
665.974	422.76
666.42	419.76
666.867	411.56
667.313	401.86
667.759	387.76
668.205	383.06
668.651	392.76
669.097	393.46
669.543	410.66
669.989	380.96
670.435	362.16
670.881	363.36
671.327	366.56
671.773	379.66
672.219	394.66
672.665	441.56
673.11	455.66
673.556	508.26
674.002	538.26
674.448	536.96
674.893	448.36
675.339	378.76
675.785	353.86
676.23	338.26
676.676	319.66
677.122	310.66
677.567	300.16
678.013	294.76
678.458	281.56
678.904	294.36
679.349	275.96
679.794	286.56
680.24	284.96
680.685	273.96
681.131	276.86
681.576	284.16
682.021	281.56
682.466	282.26
682.912	278.16
683.357	275.76
683.802	308.36
684.247	323.76
684.692	369.46
685.137	397.36
685.583	440.56
686.028	455.56
686.473	415.36
686.918	361.36
687.363	332.76
687.807	315.16
688.252	285.16
688.697	287.36
689.142	269.36
689.587	261.86
690.032	259.46
690.477	275.36
690.921	272.96
691.366	302.36
691.811	322.66
692.255	344.16
692.7	369.66
693.145	399.06
693.589	541.86
694.034	874.96
694.478	1214.56
694.923	1410.56
695.367	1870.16
695.812	976.26
696.256	400.86
696.701	287.06
697.145	275.46
697.59	261.06
698.034	251.96
698.478	266.86
698.922	259.06
699.367	251.96
699.811	275.56
700.255	283.96
700.699	309.66
701.143	335.86
701.588	383.86
702.032	419.36
702.476	413.46
702.92	390.36
703.364	381.26
703.808	496.56
704.252	798.96
704.696	1147.96
705.14	1354.56
705.584	1756.76
706.027	859.66
706.471	418.86
706.915	317.46
707.359	271.06
707.803	258.66
708.246	244.96
708.69	254.66
709.134	252.16
709.577	248.76
710.021	252.26
710.465	243.86
710.908	239.66
711.352	236.06
711.795	246.96
712.239	275.06
712.682	303.06
713.126	328.26
713.569	374.96
714.012	293.16
714.456	260.26
714.899	237.96
715.342	215.76
715.786	203.66
716.229	201.96
716.672	205.56
717.115	197.76
717.558	194.26
718.002	198.86
718.445	209.26
718.888	226.16
719.331	224.26
719.774	240.06
720.217	244.16
720.66	222.06
721.103	213.46
721.546	210.56
721.989	197.56
722.432	183.06
722.874	184.56
723.317	182.46
723.76	185.76
724.203	202.46
724.645	246.76
725.088	347.16
725.531	453.16
725.974	518.16
726.416	439.36
726.859	246.36
727.301	196.76
727.744	186.56
728.187	186.36
728.629	195.76
729.071	187.76
729.514	215.76
729.956	222.26
730.399	227.16
730.841	226.06
731.283	216.86
731.726	212.76
732.168	200.76
732.61	209.86
733.053	226.46
733.495	253.66
733.937	276.56
734.379	316.16
734.821	336.06
735.263	424.46
735.705	644.56
736.148	1212.56
736.59	2037.16
737.032	2496.66
737.474	2050.06
737.916	650.46
738.357	342.16
738.799	254.36
739.241	231.16
739.683	226.06
740.125	229.26
740.567	240.16
741.008	252.36
741.45	252.06
741.892	255.16
742.334	281.36
742.775	284.76
743.217	278.36
743.658	219.46
744.1	196.46
744.542	201.46
744.983	253.76
745.425	283.06
745.866	278.86
746.307	226.46
746.749	227.36
747.19	244.26
747.632	355.66
748.073	663.36
748.514	1428.66
748.956	2269.96
749.397	2837.86
749.838	2370.96
750.279	2448.56
750.72	1209.56
751.162	442.96
751.603	249.86
752.044	200.46
752.485	176.96
752.926	163.86
753.367	165.26
753.808	158.56
754.249	153.06
754.69	146.26
755.131	149.26
755.572	147.16
756.013	144.36
756.453	148.06
756.894	151.46
757.335	151.56
757.776	156.56
758.216	157.16
758.657	155.46
759.098	158.86
759.538	179.26
759.979	209.06
760.42	285.36
760.86	543.96
761.301	1390.16
761.741	3456.16
762.182	5344.46
762.622	3772.86
763.063	1060.76
763.503	434.46
763.943	275.46
764.384	271.36
764.824	330.26
765.264	367.26
765.705	253.66
766.145	171.66
766.585	144.96
767.025	145.26
767.465	148.26
767.906	190.96
768.346	261.96
768.786	281.16
769.226	211.96
769.666	241.86
770.106	475.76
770.546	1186.86
770.986	2156.66
771.426	1955.36
771.866	636.66
772.306	262.86
772.745	167.06
773.185	139.36
773.625	135.76
774.065	127.26
774.505	158.56
774.944	242.06
775.384	527.26
775.824	1023.16
776.263	1018.26
776.703	423.56
777.142	181.96
777.582	127.06
778.021	113.86
778.461	115.86
778.9	112.36
779.34	113.16
779.779	98.86
780.219	85.66
780.658	83.36
781.097	90.96
781.537	95.26
781.976	86.16
782.415	82.06
782.855	79.96
783.294	83.66
783.733	79.06
784.172	86.06
784.611	84.86
785.05	84.06
785.489	89.16
785.928	99.66
786.367	92.36
786.806	95.86
787.245	103.56
787.684	110.66
788.123	121.66
788.562	106.36
789.001	103.16
789.44	96.76
789.879	95.06
790.317	96.06
790.756	105.16
791.195	101.56
791.634	112.16
792.072	160.26
792.511	274.16
792.95	772.56
793.388	1720.26
793.827	1613.56
794.265	547.66
794.704	223.86
795.142	152.16
795.581	117.76
796.019	104.16
796.458	96.86
796.896	98.36
797.334	103.86
797.773	120.56
798.211	167.06
798.649	330.76
799.087	790.16
799.526	1268.06
799.964	1595.76
800.402	1678.26
800.84	612.36
801.278	239.76
801.716	149.36
802.154	121.76
802.592	118.96
803.03	109.06
803.468	103.86
803.906	115.66
804.344	120.66
804.782	110.96
805.22	105.06
805.658	93.76
806.096	113.26
806.533	126.66
806.971	141.86
807.409	171.26
807.847	243.46
808.284	502.06
808.722	1448.76
809.16	2692.86
809.597	2463.76
810.035	4396.26
810.472	4890.76
810.91	1736.06
811.347	642.36
811.785	323.46
812.222	211.16
812.66	147.96
813.097	130.86
813.535	110.66
813.972	105.16
814.409	100.86
814.846	86.46
815.284	93.96
815.721	79.26
816.158	84.86
816.595	94.36
817.032	143.96
817.47	165.66
817.907	144.26
818.344	123.46
818.781	92.06
819.218	80.36
819.655	97.36
820.092	153.36
820.529	173.46
820.966	147.06
821.403	110.36
821.839	89.96
822.276	79.76
822.713	99.06
823.15	112.16
823.587	97.76
824.023	115.86
824.46	224.46
824.897	691.16
825.333	1133.16
825.77	471.96
826.206	179.16
826.643	107.16
827.08	83.76
827.516	63.36
827.953	60.56
828.389	64.86
828.825	59.66
829.262	56.36
829.698	49.06
830.135	46.76
830.571	54.06
831.007	54.86
831.443	53.86
831.88	47.86
832.316	52.26
832.752	52.86
833.188	54.16
833.624	47.06
834.06	54.46
834.497	52.56
834.933	57.76
835.369	57.66
835.805	57.56
836.241	58.86
836.677	67.36
837.112	70.36
837.548	80.36
837.984	102.16
838.42	151.06
838.856	368.96
839.292	1207.26
839.727	1912.16
840.163	885.66
840.599	727.06
841.034	1619.96
841.47	1782.66
841.906	645.86
842.341	264.66
842.777	185.86
843.212	254.86
843.648	267.36
844.083	120.76
844.519	71.06
844.954	61.36
845.39	45.36
845.825	50.96
846.261	50.56
846.696	44.46
847.131	37.46
847.566	41.56
848.002	38.76
848.437	43.06
848.872	46.56
849.307	48.86
849.742	68.56
850.177	133.26
850.613	439.66
851.048	720.36
851.483	311.56
851.918	115.66
852.353	70.76
852.788	48.46
853.223	49.46
853.657	48.26
854.092	39.36
854.527	33.36
854.962	34.06
855.397	35.36
855.832	45.16
856.266	29.66
856.701	32.96
857.136	26.66
857.57	34.26
858.005	42.86
858.44	47.86
858.874	42.16
859.309	45.96
859.743	33.16
860.178	36.16
860.612	30.86
861.047	44.06
861.481	58.66
861.915	57.56
862.35	42.76
862.784	28.66
863.218	32.66
863.653	28.86
864.087	36.06
864.521	46.96
864.955	55.46
865.39	120.86
865.824	140.36
866.258	93.26
866.692	134.86
867.126	150.16
867.56	80.36
867.994	37.76
868.428	30.66
868.862	42.86
869.296	44.36
869.73	50.26
870.164	47.56
870.598	45.06
871.031	32.46
871.465	25.36
871.899	23.76
872.333	23.06
872.766	22.06
873.2	20.16
873.634	25.76
874.067	23.06
874.501	25.76
874.935	27.76
875.368	25.06
875.802	23.46
876.235	15.36
876.669	17.96
877.102	23.46
877.535	25.36
877.969	23.46
878.402	20.76
878.836	13.96
879.269	21.46
879.702	19.06
880.135	19.46
880.569	18.86
881.002	15.46
881.435	16.66
881.868	9.96
882.301	15.86
882.734	10.26
883.167	22.36
883.601	20.96
884.034	17.16
884.467	7.36
884.899	9.46
885.332	14.26
885.765	12.16
886.198	9.36
886.631	12.26
887.064	12.66
887.497	18.86
887.929	20.46
888.362	5.16
888.795	7.56
889.228	14.86
889.66	16.26
890.093	14.46
890.526	12.76
890.958	18.36
891.391	13.06
891.823	16.46
892.256	15.06
892.688	6.36
893.121	13.86
893.553	12.26
893.985	21.46
894.418	14.76
894.85	11.86
895.282	12.36
895.715	12.96
896.147	18.46
896.579	15.66
897.011	16.66
897.444	18.16
897.876	7.46
898.308	13.86
898.74	13.46
899.172	7.46
899.604	19.66
900.036	21.76
900.468	10.96
900.9	16.36
901.332	14.96
901.764	12.36
902.196	17.16
902.628	13.66
903.06	14.56
903.491	25.06
903.923	22.86
904.355	18.16
904.787	22.66
905.218	13.26
905.65	17.66
906.082	10.06
906.513	11.46
906.945	10.76
907.376	10.36
907.808	18.86
908.239	15.76
908.671	12.36
909.102	15.86
909.534	21.46
909.965	39.36
910.397	80.96
910.828	262.06
911.259	399.66
911.691	172.96
912.122	86.06
912.553	36.96
912.984	27.46
913.415	20.76
913.847	22.46
914.278	10.86
914.709	17.66
915.14	14.66
915.571	15.56
916.002	15.26
916.433	16.36
916.864	14.06
917.295	17.06
917.726	11.96
918.157	13.26
918.587	26.06
919.018	16.76
919.449	14.66
919.88	17.86
920.311	29.66
920.741	35.86
921.172	140.76
921.603	125.36
922.033	59.26
922.464	39.56
922.895	18.86
923.325	22.76
923.756	14.56
924.186	14.36
924.617	23.86
925.047	40.86
925.478	42.36
925.908	37.36
926.338	16.66
926.769	14.56
927.199	18.66
927.629	10.56
928.06	12.26
928.49	6.76
928.92	10.66
929.35	10.26
929.78	15.26
930.21	4.26
930.641	12.86
931.071	7.56
931.501	1.06
931.931	11.36
932.361	2.96
932.791	2.66
933.221	3.56
933.651	4.66
934.08	16.96
934.51	25.26
934.94	10.16
935.37	12.26
935.8	10.76
936.229	6.16
936.659	5.96
937.089	0.96
937.519	10.26
937.948	22.86
938.378	19.96
938.807	2.66
939.237	6.56
939.666	13.96
940.096	-4.74
940.525	6.16
940.955	0.86
941.384	5.66
941.814	-6.24
942.243	1.26
942.672	8.96
943.102	-0.94
943.531	-3.44
943.96	3.66
944.39	7.66
944.819	-0.54
945.248	5.86
945.677	1.56
946.106	6.76
946.535	4.66
946.964	4.66
947.393	3.96
947.822	2.26
948.251	1.86
948.68	2.46
949.109	6.26
949.538	7.26
949.967	3.76
950.396	0.36
950.825	6.36
951.254	3.06
951.682	-5.94
952.111	5.16
952.54	2.96
952.969	-4.34
953.397	-2.94
953.826	0.06
954.254	-4.84
954.683	7.96
955.112	-0.34
955.54	1.06
955.969	1.76
956.397	-5.54
956.826	2.06
957.254	1.16
957.682	4.06
958.111	-2.04
958.539	3.76
958.967	2.56
959.396	0.16
959.824	4.26
960.252	2.56
960.68	-5.64
961.109	0.86
961.537	-1.84
961.965	0.96
962.393	-6.34
962.821	-0.24
963.249	2.06
963.677	-0.24
964.105	-1.64
964.533	30.96
964.961	36.56
965.389	23.66
965.817	5.36
966.245	0.86
966.672	5.06
967.1	-10.34
967.528	2.86
967.956	2.36
968.383	-1.74
968.811	2.06
969.239	-0.84
969.666	-8.94
970.094	4.76
970.522	-0.44
970.949	-1.24
971.377	-7.84
971.804	0.66
972.232	0.56
972.659	0.66
973.087	2.46
973.514	-2.84
973.941	-10.14
974.369	0.16
974.796	-3.74
975.223	4.56
975.651	1.06
976.078	7.26
976.505	-0.04
976.932	5.56
977.359	6.26
977.786	8.06
978.214	3.26
978.641	-0.44
979.068	-3.44
979.495	-7.74
979.922	-1.24
980.349	-7.64
980.776	4.76
981.202	2.06
981.629	1.46
982.056	7.26
982.483	-0.94
982.91	3.76
983.337	-2.44
983.763	1.46
984.19	-5.74
984.617	-3.64
985.043	-3.64
985.47	1.76
985.897	-5.34
986.323	-10.84
986.75	0.86
987.176	-2.04
987.603	-1.04
988.029	5.16
988.456	-4.64
988.882	2.36
989.308	-1.74
989.735	-0.24
990.161	-2.44
990.587	-4.24
991.014	9.96
991.44	5.66
991.866	1.56
992.292	-2.74
992.719	1.56
993.145	9.46
993.571	-7.04
993.997	-3.94
994.423	0.76
994.849	-2.34
995.275	-0.74
995.701	4.46
996.127	-2.14
996.553	3.36
996.979	-1.94
997.405	-3.84
997.83	-2.54
998.256	-9.14
998.682	-5.04
999.108	-9.74
999.534	-0.64
999.959	5.96
1000.385	-2.44
1000.811	5.16
1001.236	-7.14
1001.662	-12.04
1002.087	-5.04
1002.513	5.96
1002.938	4.96
1003.364	-5.84
1003.789	1.56
1004.215	-1.54
1004.64	-2.94
1005.066	-0.64
1005.491	-0.44
1005.916	-3.74
1006.342	-1.94
1006.767	-3.84
1007.192	10.56
1007.617	-5.74
1008.042	-1.64
1008.468	-1.74
1008.893	-3.64
1009.318	2.06
1009.743	-1.84
1010.168	3.46
1010.593	-2.54
1011.018	-8.24
1011.443	-1.44
1011.868	1.46
1012.293	-3.74
1012.718	0.56
1013.143	-0.94
1013.567	2.76
1013.992	1.36
1014.417	-11.04
1014.842	5.06
1015.267	-4.24
1015.691	-3.84
1016.116	8.16
1016.541	-2.04
1016.965	4.56
1017.39	-0.14
1017.814	0.46
1018.239	-2.64
1018.663	-1.94
1019.088	-6.94
1019.512	-0.64
1019.937	-3.84
1020.361	-2.44
1020.785	-8.24
1021.21	-2.94
1021.634	-3.44
1022.058	0.06
1022.483	2.56
1022.907	-1.24
1023.331	-6.74
1023.755	0.96
1024.179	-4.34
1024.604	0.36
1025.028	-3.84
1025.452	2.26
1025.876	-2.34
1026.3	4.86
1026.724	-12.34
1027.148	-4.04
1027.572	-5.74
1027.996	-8.04
1028.42	-2.64
1028.843	-1.94
1029.267	2.96
1029.691	3.46
1030.115	-4.24
1030.539	-11.14
1030.962	-8.94
1031.386	-5.94
1031.81	6.76
1032.233	-1.44
1032.657	-1.64
1033.08	1.36
1033.504	-4.64
1033.927	-7.24
1034.351	-1.24
1034.774	-0.34
1035.198	-5.14
1035.621	-4.74
1036.045	-6.24
1036.468	9.66
1036.891	-6.04
1037.315	-10.84
1037.738	-10.94
1038.161	2.86
1038.584	-7.54
1039.008	-6.94
1039.431	1.46
1039.854	2.06
1040.277	-8.04
1040.7	-2.94
1041.123	1.86
1041.546	-3.74
1041.969	-4.64
1042.392	-2.24
1042.815	-0.04
1043.238	4.56
1043.661	4.06
1044.084	-6.34
1044.507	-1.04
1044.93	-1.64
1045.352	-3.34
1045.775	-1.64
1046.198	-0.64
1046.621	-1.84
1047.043	-0.04
1047.466	7.36
1047.889	-4.24
1048.311	-5.44
1048.734	-5.04
1049.156	-0.04
1049.579	-1.14
1050.001	6.46
1050.424	-1.14
1050.846	2.66
1051.269	-0.84
1051.691	-3.54
1052.113	-2.84
1052.536	2.16
1052.958	-0.94
1053.38	0.96
1053.802	-9.44
1054.225	3.36
1054.647	-4.24
1055.069	0.46
1055.491	0.46
1055.913	-3.44
1056.335	-2.54
1056.757	-3.94
1057.179	-2.44
1057.601	-6.44
1058.023	2.26
1058.445	-3.14
1058.867	-5.74
1059.289	-1.74
1059.711	-7.04
1060.133	-0.04
1060.555	-3.14
1060.976	-10.74
1061.398	1.66
1061.82	-4.04
1062.241	-1.44
1062.663	-7.04
1063.085	-7.44
1063.506	3.46
1063.928	-7.94
1064.35	0.36
1064.771	-8.04
1065.193	2.36
1065.614	-4.04
1066.035	2.86
1066.457	-3.64
1066.878	-0.04
1067.3	-2.54
1067.721	-9.24
1068.142	-2.04
1068.564	-1.94
1068.985	-2.34
1069.406	-3.44
1069.827	-5.64
1070.248	5.26
1070.67	-4.54
1071.091	-2.14
1071.512	-0.04
1071.933	-2.14
1072.354	-4.34
1072.775	-5.04
1073.196	-4.94
1073.617	-0.54
1074.038	-2.44
1074.459	0.86
1074.88	-6.94
1075.3	1.16
1075.721	2.96
1076.142	5.16
1076.563	-4.64
1076.983	-7.24
1077.404	-0.44
1077.825	-10.24
1078.246	-1.94
1078.666	-9.84
1079.087	-7.84
1079.507	-10.04
1079.928	1.66
1080.348	2.06
1080.769	-6.54
1081.189	-1.24
1081.61	-9.94
1082.03	-3.44
1082.451	-8.44
1082.871	-0.64
1083.291	-3.24
1083.711	-6.84
1084.132	-2.04
1084.552	-4.74
1084.972	3.06
1085.392	-10.74
1085.813	-9.34
1086.233	-5.44
1086.653	-1.44
1087.073	-1.04
1087.493	-8.14
1087.913	-3.64
1088.333	-6.64
1088.753	-1.34
1089.173	2.66
1089.593	-2.74
1090.013	5.06
1090.433	1.56
1090.852	-0.44
1091.272	0.56
1091.692	-1.34
1092.112	-3.04
1092.531	-2.84
1092.951	-7.04
1093.371	-1.44
1093.79	1.86
1094.21	-4.24
1094.63	0.16
1095.049	-3.74
1095.469	3.86
1095.888	0.16
1096.308	2.46
1096.727	7.96
1097.146	0.36
1097.566	-4.24
1097.985	-1.64
1098.405	-3.34
1098.824	-7.24
1099.243	-2.04
1099.662	-8.64
1100.082	-5.04
1100.501	-2.84
1100.92	-3.84
1101.339	-0.24
1101.758	-6.74
