Data from 20171114-ORNL-Ar_H_NY_Subt18_08-07-24-883.txt Node
Date: Tue Nov 14 08:07:24 EST 2017
User: Ender
Spectrometer: HR+D1039
Trigger mode: 0
Integration Time (sec): 2.730000E-2
Scans to average: 10
Electric dark correction enabled: true
Nonlinearity correction enabled: false
Boxcar width: 0
XAxis mode: Wavelengths
Number of Pixels in Spectrum: 2048
>>>>>Begin Spectral Data<<<<<
187.836	-2.99
188.309	-2.99
188.782	-2.99
189.255	-1.99
189.728	-1.49
190.201	6.21
190.674	-1.19
191.147	3.61
191.619	-6.39
192.092	-0.19
192.565	1.11
193.038	0.81
193.511	3.91
193.984	-0.19
194.456	-0.79
194.929	2.01
195.402	-1.09
195.874	-1.39
196.347	0.41
196.82	-7.09
197.292	3.91
197.765	-0.99
198.237	-3.89
198.71	1.41
199.182	-3.29
199.655	3.01
200.127	-1.09
200.6	-0.39
201.072	-8.99
201.544	-7.79
202.017	-0.89
202.489	3.81
202.961	-0.99
203.433	0.91
203.906	-8.79
204.378	-12.49
204.85	-6.99
205.322	-12.09
205.794	-7.49
206.266	-5.79
206.739	-7.59
207.211	-2.49
207.683	-9.99
208.155	-8.49
208.627	-8.09
209.099	-2.29
209.57	-11.39
210.042	-2.79
210.514	-9.49
210.986	-7.89
211.458	-12.39
211.93	-4.09
212.402	-0.49
212.873	-4.49
213.345	-13.89
213.817	-14.19
214.288	-5.29
214.76	-20.39
215.232	-2.89
215.703	-5.09
216.175	-1.19
216.646	-7.49
217.118	-14.89
217.589	-6.49
218.061	-8.39
218.532	-5.79
219.004	-2.39
219.475	0.11
219.946	-7.69
220.418	-12.79
220.889	-0.19
221.36	1.11
221.832	-7.29
222.303	-6.79
222.774	1.11
223.245	-13.39
223.717	-7.19
224.188	-9.19
224.659	-8.49
225.13	-8.39
225.601	-0.99
226.072	-1.69
226.543	-3.69
227.014	1.41
227.485	-3.79
227.956	-4.39
228.427	-2.19
228.898	1.81
229.369	1.61
229.839	-5.79
230.31	-7.29
230.781	0.61
231.252	-6.79
231.722	-12.49
232.193	-5.49
232.664	1.01
233.135	-4.49
233.605	-2.39
234.076	-9.79
234.546	-0.59
235.017	3.51
235.487	-2.39
235.958	-2.19
236.428	-4.69
236.899	1.31
237.369	2.91
237.84	-0.79
238.31	0.51
238.78	-5.49
239.251	-9.59
239.721	-3.39
240.191	-8.89
240.662	-6.89
241.132	-6.59
241.602	-2.69
242.072	-6.59
242.542	0.71
243.013	-2.99
243.483	-4.19
243.953	-0.19
244.423	-5.99
244.893	-4.89
245.363	-1.69
245.833	-1.09
246.303	-5.69
246.773	0.91
247.243	-0.09
247.712	-2.59
248.182	3.51
248.652	3.31
249.122	-1.89
249.592	3.21
250.061	12.21
250.531	22.41
251.001	3.21
251.471	19.51
251.94	9.71
252.41	3.41
252.879	-1.29
253.349	3.91
253.818	2.51
254.288	3.31
254.757	-0.49
255.227	-4.39
255.696	1.61
256.166	-1.19
256.635	-0.39
257.105	1.91
257.574	-3.39
258.043	3.11
258.513	2.01
258.982	11.11
259.451	4.01
259.92	2.81
260.389	3.51
260.859	9.71
261.328	8.41
261.797	8.71
262.266	-0.49
262.735	3.71
263.204	-0.09
263.673	-1.79
264.142	7.61
264.611	-7.69
265.08	-0.09
265.549	-6.29
266.018	-0.09
266.487	-9.99
266.955	-5.49
267.424	-7.09
267.893	-0.09
268.362	-3.29
268.83	-3.09
269.299	3.31
269.768	-2.19
270.236	-0.39
270.705	-2.69
271.174	-0.19
271.642	-0.19
272.111	-1.49
272.579	6.51
273.048	11.31
273.516	17.21
273.985	11.41
274.453	15.61
274.922	10.91
275.39	3.51
275.858	-6.89
276.327	3.71
276.795	7.51
277.263	5.81
277.731	20.41
278.2	35.51
278.668	30.71
279.136	29.01
279.604	7.71
280.072	11.01
280.54	7.71
281.008	5.21
281.477	11.21
281.945	8.11
282.413	6.41
282.881	9.21
283.348	1.41
283.816	5.41
284.284	7.21
284.752	12.81
285.22	3.21
285.688	7.71
286.156	11.41
286.623	34.41
287.091	33.31
287.559	21.51
288.026	14.01
288.494	9.61
288.962	1.41
289.429	0.11
289.897	10.81
290.364	0.91
290.832	9.91
291.3	9.61
291.767	12.71
292.234	8.01
292.702	0.11
293.169	10.01
293.637	12.41
294.104	10.31
294.571	2.71
295.039	5.51
295.506	0.71
295.973	12.11
296.44	7.61
296.908	5.61
297.375	10.31
297.842	12.21
298.309	2.31
298.776	2.51
299.243	9.81
299.71	7.21
300.177	11.91
300.644	11.41
301.111	9.31
301.578	16.51
302.045	6.71
302.512	15.71
302.979	12.41
303.446	14.21
303.913	8.11
304.379	9.61
304.846	14.41
305.313	14.71
305.78	14.51
306.246	16.61
306.713	18.01
307.18	13.71
307.646	16.71
308.113	16.51
308.579	13.91
309.046	15.51
309.512	17.11
309.979	5.71
310.445	12.21
310.912	19.21
311.378	24.81
311.845	21.11
312.311	21.41
312.777	27.81
313.244	27.71
313.71	26.51
314.176	15.01
314.642	18.91
315.109	23.41
315.575	27.81
316.041	25.51
316.507	24.31
316.973	23.61
317.439	21.71
317.905	22.31
318.371	21.21
318.837	20.81
319.303	22.71
319.769	24.61
320.235	24.41
320.701	24.31
321.167	24.71
321.633	25.41
322.099	29.81
322.564	33.91
323.03	20.51
323.496	25.11
323.962	29.81
324.427	20.21
324.893	31.11
325.359	29.71
325.824	27.31
326.29	25.11
326.755	29.21
327.221	25.81
327.686	22.01
328.152	31.41
328.617	28.41
329.083	38.31
329.548	39.41
330.014	34.51
330.479	26.01
330.944	31.01
331.41	27.21
331.875	32.21
332.34	32.81
332.805	31.01
333.271	32.51
333.736	33.11
334.201	36.61
334.666	40.01
335.131	48.41
335.596	36.41
336.061	40.91
336.526	30.41
336.991	37.21
337.456	43.41
337.921	34.71
338.386	29.41
338.851	33.71
339.316	32.01
339.781	33.91
340.246	42.91
340.711	41.41
341.175	39.91
341.64	34.61
342.105	43.41
342.569	37.11
343.034	43.11
343.499	47.01
343.963	36.61
344.428	51.61
344.893	49.31
345.357	48.01
345.822	48.21
346.286	48.41
346.751	53.71
347.215	50.41
347.679	56.11
348.144	68.41
348.608	61.91
349.073	44.01
349.537	55.21
350.001	60.81
350.465	66.81
350.93	62.41
351.394	58.61
351.858	53.71
352.322	61.71
352.786	59.11
353.25	69.31
353.715	86.01
354.179	73.71
354.643	85.51
355.107	93.01
355.571	85.41
356.035	80.81
356.498	85.41
356.962	91.91
357.426	100.31
357.89	91.21
358.354	67.51
358.818	67.11
359.281	65.81
359.745	61.51
360.209	60.81
360.673	58.31
361.136	63.01
361.6	64.91
362.064	64.61
362.527	68.11
362.991	74.11
363.454	63.11
363.918	67.01
364.381	64.61
364.845	69.01
365.308	73.31
365.772	62.91
366.235	69.51
366.698	66.91
367.162	77.71
367.625	72.21
368.088	71.81
368.552	75.01
369.015	72.31
369.478	81.51
369.941	84.11
370.404	76.31
370.867	91.01
371.331	89.51
371.794	92.11
372.257	90.11
372.72	94.21
373.183	91.11
373.646	87.51
374.109	87.11
374.572	88.71
375.035	89.41
375.497	88.91
375.96	87.31
376.423	88.81
376.886	100.81
377.349	93.61
377.811	87.31
378.274	90.31
378.737	87.51
379.199	94.81
379.662	101.01
380.125	99.21
380.587	102.81
381.05	107.71
381.512	110.51
381.975	113.91
382.437	109.51
382.9	114.21
383.362	110.61
383.825	122.51
384.287	127.01
384.75	118.51
385.212	122.91
385.674	120.41
386.136	114.01
386.599	104.21
387.061	113.61
387.523	106.21
387.985	117.51
388.447	119.11
388.91	124.81
389.372	144.71
389.834	130.01
390.296	127.71
390.758	128.51
391.22	145.41
391.682	186.81
392.144	266.81
392.606	196.31
393.068	143.01
393.529	149.41
393.991	135.11
394.453	124.11
394.915	134.61
395.377	170.41
395.838	190.71
396.3	137.11
396.762	121.41
397.224	120.21
397.685	113.51
398.147	114.51
398.608	113.21
399.07	112.41
399.531	122.61
399.993	120.21
400.454	131.31
400.916	127.81
401.377	131.51
401.839	136.01
402.3	134.11
402.762	146.71
403.223	162.21
403.684	153.71
404.145	140.51
404.607	139.71
405.068	150.61
405.529	151.31
405.99	167.61
406.451	155.61
406.913	155.31
407.374	150.81
407.835	149.41
408.296	145.81
408.757	163.91
409.218	164.51
409.679	155.21
410.14	163.51
410.601	164.81
411.062	162.91
411.522	170.91
411.983	177.91
412.444	154.81
412.905	163.01
413.366	156.31
413.826	172.51
414.287	201.61
414.748	237.01
415.208	227.61
415.669	195.21
416.13	179.11
416.59	175.11
417.051	197.51
417.511	202.41
417.972	211.91
418.432	221.01
418.893	267.61
419.353	226.81
419.814	179.61
420.274	169.31
420.734	163.51
421.195	186.71
421.655	176.61
422.115	182.61
422.576	175.61
423.036	181.51
423.496	193.91
423.956	201.21
424.416	213.11
424.876	241.81
425.336	236.01
425.797	240.91
426.257	233.31
426.717	221.31
427.177	217.31
427.637	209.61
428.097	217.11
428.556	227.71
429.016	254.81
429.476	244.91
429.936	250.21
430.396	264.41
430.856	269.11
431.315	296.31
431.775	331.61
432.235	353.71
432.694	325.91
433.154	340.31
433.614	359.71
434.073	315.01
434.533	263.31
434.993	254.21
435.452	259.41
435.912	270.21
436.371	256.91
436.83	258.01
437.29	252.01
437.749	234.01
438.209	226.11
438.668	253.71
439.127	264.21
439.587	246.01
440.046	233.11
440.505	244.21
440.964	250.71
441.424	292.51
441.883	292.21
442.342	237.81
442.801	211.31
443.26	206.01
443.719	198.81
444.178	202.81
444.637	195.81
445.096	211.01
445.555	205.61
446.014	206.31
446.473	209.41
446.932	218.61
447.391	214.61
447.849	216.11
448.308	203.71
448.767	211.91
449.226	220.81
449.685	216.01
450.143	237.91
450.602	223.51
451.061	201.51
451.519	219.71
451.978	222.41
452.436	219.71
452.895	223.81
453.353	236.81
453.812	224.21
454.27	223.61
454.729	225.21
455.187	222.51
455.646	226.41
456.104	232.31
456.562	243.81
457.021	246.81
457.479	240.21
457.937	254.71
458.395	247.51
458.854	229.11
459.312	239.91
459.77	254.81
460.228	239.41
460.686	234.11
461.144	231.51
461.602	226.11
462.06	229.91
462.518	245.71
462.976	246.31
463.434	240.01
463.892	243.51
464.35	258.01
464.808	262.91
465.266	247.11
465.724	251.31
466.181	261.51
466.639	264.51
467.097	272.51
467.555	278.31
468.012	279.11
468.47	299.41
468.928	299.21
469.385	324.61
469.843	331.21
470.3	321.71
470.758	344.01
471.215	354.71
471.673	378.31
472.13	383.71
472.588	396.91
473.045	345.81
473.503	347.51
473.96	369.81
474.417	381.11
474.875	414.41
475.332	441.71
475.789	436.91
476.246	446.01
476.704	451.21
477.161	478.01
477.618	485.91
478.075	531.11
478.532	587.91
478.989	650.11
479.446	753.41
479.903	739.41
480.36	767.91
480.817	818.21
481.274	922.01
481.731	1017.81
482.188	1120.51
482.645	1251.41
483.102	1366.41
483.558	1477.11
484.015	1544.71
484.472	1514.51
484.929	1475.31
485.385	1424.31
485.842	1376.81
486.299	1304.81
486.755	1227.31
487.212	1037.51
487.668	887.41
488.125	815.01
488.582	742.81
489.038	716.21
489.494	680.71
489.951	647.21
490.407	634.11
490.864	620.01
491.32	613.41
491.776	606.21
492.233	608.21
492.689	581.41
493.145	578.31
493.602	565.81
494.058	579.81
494.514	580.91
494.97	606.51
495.426	615.91
495.882	591.91
496.338	576.41
496.794	587.21
497.251	587.01
497.707	602.01
498.163	604.91
498.618	614.71
499.074	614.31
499.53	638.91
499.986	642.01
500.442	617.61
500.898	603.31
501.354	604.31
501.809	606.81
502.265	605.51
502.721	622.71
503.177	648.41
503.632	627.91
504.088	636.51
504.543	670.91
504.999	676.61
505.455	626.01
505.91	600.21
506.366	603.41
506.821	601.21
507.277	589.31
507.732	598.21
508.187	591.91
508.643	604.41
509.098	609.11
509.553	625.21
510.009	640.71
510.464	639.81
510.919	668.61
511.375	671.31
511.83	665.11
512.285	693.21
512.74	729.71
513.195	754.11
513.65	735.01
514.105	739.91
514.56	742.91
515.015	759.41
515.47	775.11
515.925	759.61
516.38	756.31
516.835	763.51
517.29	741.11
517.745	743.01
518.2	731.41
518.655	717.41
519.109	701.41
519.564	710.81
520.019	696.81
520.474	691.21
520.928	696.71
521.383	693.11
521.838	688.21
522.292	682.01
522.747	678.61
523.201	680.41
523.656	675.11
524.11	669.11
524.565	670.11
525.019	664.01
525.474	669.81
525.928	671.01
526.382	670.31
526.837	667.41
527.291	669.81
527.745	670.41
528.2	670.71
528.654	663.31
529.108	655.41
529.562	662.01
530.016	661.81
530.47	658.81
530.925	667.41
531.379	668.41
531.833	684.61
532.287	680.51
532.741	671.81
533.195	672.91
533.649	690.31
534.103	688.21
534.556	676.11
535.01	678.01
535.464	680.41
535.918	695.61
536.372	694.31
536.826	690.01
537.279	665.41
537.733	677.81
538.187	685.71
538.64	685.61
539.094	696.01
539.548	699.71
540.001	698.91
540.455	696.21
540.908	704.41
541.362	704.41
541.815	711.71
542.269	721.21
542.722	728.01
543.175	740.41
543.629	734.01
544.082	753.91
544.536	753.21
544.989	760.31
545.442	767.71
545.895	756.71
546.349	750.91
546.802	755.91
547.255	762.41
547.708	773.61
548.161	785.91
548.614	787.01
549.067	799.41
549.52	783.51
549.973	787.11
550.426	769.11
550.879	764.51
551.332	767.91
551.785	770.71
552.238	773.21
552.691	790.71
553.144	804.71
553.596	813.01
554.049	836.71
554.502	865.41
554.955	872.11
555.407	870.21
555.86	861.11
556.313	857.11
556.765	846.81
557.218	856.31
557.67	847.41
558.123	839.71
558.576	839.81
559.028	846.81
559.48	851.01
559.933	841.61
560.385	809.01
560.838	769.51
561.29	753.51
561.742	752.71
562.195	748.01
562.647	743.01
563.099	757.71
563.551	738.81
564.004	751.71
564.456	739.41
564.908	728.71
565.36	725.91
565.812	710.61
566.264	701.81
566.716	694.71
567.168	687.11
567.62	705.91
568.072	679.81
568.524	673.91
568.976	670.91
569.428	656.61
569.88	649.31
570.332	656.11
570.784	659.31
571.235	662.01
571.687	681.31
572.139	679.31
572.59	689.31
573.042	686.71
573.494	688.31
573.945	681.71
574.397	657.31
574.849	660.61
575.3	663.81
575.752	661.61
576.203	648.91
576.655	663.11
577.106	647.41
577.557	638.61
578.009	646.21
578.46	638.31
578.912	632.51
579.363	642.61
579.814	641.61
580.265	627.11
580.717	641.31
581.168	637.51
581.619	654.11
582.07	651.21
582.521	654.41
582.972	653.31
583.423	655.51
583.875	662.81
584.326	675.31
584.777	721.01
585.227	789.71
585.678	887.11
586.129	970.21
586.58	1049.31
587.031	1125.81
587.482	1271.21
587.933	1457.41
588.384	1259.91
588.834	943.51
589.285	786.81
589.736	763.21
590.186	746.41
590.637	745.41
591.088	732.41
591.538	711.11
591.989	701.51
592.439	694.81
592.89	700.51
593.34	692.11
593.791	676.81
594.241	673.41
594.692	675.11
595.142	681.01
595.593	679.91
596.043	681.11
596.493	695.41
596.943	699.21
597.394	693.81
597.844	688.11
598.294	700.41
598.744	720.31
599.195	749.91
599.645	794.31
600.095	829.21
600.545	881.01
600.995	939.31
601.445	996.21
601.895	1061.71
602.345	1112.01
602.795	1079.21
603.245	1018.81
603.695	988.81
604.145	919.21
604.594	874.11
605.044	827.51
605.494	767.61
605.944	717.51
606.393	706.61
606.843	711.41
607.293	716.81
607.743	705.81
608.192	722.91
608.642	738.01
609.091	739.81
609.541	751.11
609.99	746.91
610.44	743.61
610.889	693.01
611.339	677.61
611.788	658.41
612.238	684.81
612.687	705.91
613.136	701.41
613.586	704.81
614.035	721.01
614.484	740.91
614.933	741.91
615.383	732.21
615.832	715.31
616.281	699.31
616.73	670.31
617.179	653.71
617.628	626.21
618.077	612.91
618.526	602.41
618.975	602.31
619.424	602.71
619.873	598.21
620.322	589.31
620.771	586.11
621.22	575.91
621.669	566.81
622.118	573.21
622.567	559.71
623.015	548.81
623.464	554.31
623.913	540.31
624.361	536.81
624.81	533.81
625.259	526.41
625.707	538.41
626.156	542.61
626.604	548.41
627.053	544.01
627.501	540.31
627.95	539.71
628.398	551.41
628.847	544.31
629.295	549.81
629.744	557.91
630.192	550.61
630.64	543.91
631.089	544.91
631.537	551.31
631.985	564.81
632.433	568.21
632.881	580.91
633.33	629.51
633.778	614.31
634.226	546.11
634.674	539.51
635.122	544.21
635.57	565.51
636.018	598.91
636.466	561.91
636.914	542.91
637.362	564.41
637.81	549.31
638.258	564.01
638.705	566.11
639.153	586.81
639.601	598.11
640.049	626.31
640.497	648.21
640.944	664.21
641.392	615.01
641.84	592.71
642.287	570.91
642.735	555.41
643.182	558.01
643.63	557.91
644.078	560.11
644.525	574.21
644.973	576.11
645.42	585.71
645.867	602.11
646.315	623.01
646.762	655.01
647.21	673.91
647.657	690.11
648.104	731.51
648.551	745.81
648.999	808.21
649.446	884.11
649.893	978.11
650.34	1135.51
650.787	1355.91
651.234	1694.21
651.682	2215.01
652.129	3046.81
652.576	4429.11
653.023	6549.41
653.47	8982.41
653.917	11185.01
654.363	12854.11
654.81	14193.21
655.257	13488.41
655.704	8775.01
656.151	5153.21
656.598	3332.51
657.044	2355.61
657.491	1818.61
657.938	1450.31
658.385	1217.01
658.831	1050.51
659.278	930.41
659.724	830.61
660.171	754.11
660.618	703.31
661.064	671.51
661.511	646.71
661.957	637.71
662.404	619.51
662.85	629.91
663.296	591.41
663.743	549.21
664.189	522.51
664.635	514.31
665.082	511.91
665.528	501.11
665.974	496.81
666.42	502.01
666.867	489.71
667.313	474.41
667.759	463.41
668.205	458.21
668.651	464.31
669.097	466.11
669.543	489.51
669.989	458.21
670.435	443.61
670.881	430.91
671.327	436.21
671.773	453.51
672.219	476.31
672.665	533.41
673.11	560.21
673.556	608.51
674.002	647.31
674.448	637.11
674.893	529.41
675.339	461.61
675.785	429.91
676.23	400.91
676.676	374.71
677.122	378.71
677.567	358.51
678.013	354.11
678.458	349.41
678.904	346.91
679.349	329.71
679.794	333.41
680.24	341.71
680.685	337.41
681.131	331.81
681.576	343.71
682.021	342.91
682.466	329.01
682.912	334.61
683.357	339.11
683.802	371.71
684.247	394.01
684.692	442.41
685.137	475.41
685.583	513.71
686.028	545.61
686.473	502.11
686.918	432.51
687.363	397.61
687.807	376.61
688.252	352.11
688.697	345.71
689.142	328.11
689.587	318.81
690.032	325.81
690.477	330.71
690.921	343.51
691.366	372.71
691.811	386.01
692.255	417.11
692.7	448.01
693.145	488.01
693.589	686.81
694.034	1110.61
694.478	1506.41
694.923	1686.31
695.367	2205.41
695.812	1143.41
696.256	480.41
696.701	355.61
697.145	328.41
697.59	319.61
698.034	313.01
698.478	322.71
698.922	311.41
699.367	318.51
699.811	331.31
700.255	344.31
700.699	377.91
701.143	411.41
701.588	461.41
702.032	499.81
702.476	492.51
702.92	470.71
703.364	477.61
703.808	618.11
704.252	1017.51
704.696	1409.91
705.14	1623.41
705.584	2051.81
706.027	1040.51
706.471	503.91
706.915	376.81
707.359	338.51
707.803	313.61
708.246	292.51
708.69	301.61
709.134	301.81
709.577	307.41
710.021	313.11
710.465	297.11
710.908	290.71
711.352	286.81
711.795	297.61
712.239	343.31
712.682	369.81
713.126	397.81
713.569	443.41
714.012	355.01
714.456	311.01
714.899	283.41
715.342	266.91
715.786	253.71
716.229	252.71
716.672	249.11
717.115	242.71
717.558	238.71
718.002	246.71
718.445	248.31
718.888	278.11
719.331	287.01
719.774	304.91
720.217	292.81
720.66	271.41
721.103	253.71
721.546	248.51
721.989	240.51
722.432	220.21
722.874	232.51
723.317	222.51
723.76	226.81
724.203	243.01
724.645	312.51
725.088	439.71
725.531	544.71
725.974	616.21
726.416	523.71
726.859	299.41
727.301	231.41
727.744	233.51
728.187	226.21
728.629	235.01
729.071	237.71
729.514	247.21
729.956	265.31
730.399	271.21
730.841	279.81
731.283	260.61
731.726	255.51
732.168	251.01
732.61	262.11
733.053	276.11
733.495	309.51
733.937	338.81
734.379	384.11
734.821	429.21
735.263	524.41
735.705	820.81
736.148	1554.41
736.59	2522.51
737.032	2939.01
737.474	2421.61
737.916	787.71
738.357	409.21
738.799	310.31
739.241	291.01
739.683	275.51
740.125	286.01
740.567	289.31
741.008	308.21
741.45	310.21
741.892	306.01
742.334	339.61
742.775	339.31
743.217	330.81
743.658	255.21
744.1	248.81
744.542	261.11
744.983	298.81
745.425	330.21
745.866	335.01
746.307	270.41
746.749	270.91
747.19	318.51
747.632	455.01
748.073	871.01
748.514	1849.41
748.956	2779.11
749.397	3502.61
749.838	2899.81
750.279	2887.51
750.72	1467.01
751.162	528.81
751.603	314.01
752.044	244.11
752.485	208.71
752.926	201.21
753.367	194.11
753.808	183.21
754.249	181.81
754.69	184.01
755.131	180.61
755.572	178.71
756.013	173.11
756.453	183.61
756.894	178.01
757.335	176.71
757.776	188.81
758.216	182.81
758.657	194.91
759.098	197.51
759.538	211.51
759.979	262.71
760.42	371.21
760.86	701.01
761.301	1816.21
761.741	4393.61
762.182	6273.71
762.622	4377.81
763.063	1272.21
763.503	515.61
763.943	338.31
764.384	329.41
764.824	388.31
765.264	407.61
765.705	288.61
766.145	200.11
766.585	181.71
767.025	175.51
767.465	177.01
767.906	231.11
768.346	300.51
768.786	323.31
769.226	260.21
769.666	313.31
770.106	614.31
770.546	1557.01
770.986	2585.81
771.426	2287.11
771.866	763.21
772.306	315.31
772.745	209.21
773.185	166.31
773.625	161.91
774.065	159.81
774.505	189.21
774.944	299.81
775.384	675.11
775.824	1209.41
776.263	1175.21
776.703	497.41
777.142	220.81
777.582	147.61
778.021	135.61
778.461	128.41
778.9	134.91
779.34	129.21
779.779	116.51
780.219	100.61
780.658	107.21
781.097	106.51
781.537	107.61
781.976	110.71
782.415	99.01
782.855	101.51
783.294	98.81
783.733	101.41
784.172	108.51
784.611	99.61
785.05	104.71
785.489	104.81
785.928	112.81
786.367	112.21
786.806	113.91
787.245	132.31
787.684	123.11
788.123	143.31
788.562	129.31
789.001	120.51
789.44	124.81
789.879	110.31
790.317	116.41
790.756	123.21
791.195	120.11
791.634	137.31
792.072	202.61
792.511	358.01
792.95	1006.71
793.388	2086.51
793.827	1883.51
794.265	655.81
794.704	270.81
795.142	174.61
795.581	140.81
796.019	130.81
796.458	126.31
796.896	113.01
797.334	120.01
797.773	144.91
798.211	215.11
798.649	438.01
799.087	997.91
799.526	1548.61
799.964	1979.01
800.402	1952.81
800.84	726.51
801.278	291.11
801.716	178.51
802.154	150.21
802.592	139.21
803.03	135.11
803.468	130.51
803.906	134.21
804.344	142.01
804.782	131.91
805.22	125.21
805.658	127.31
806.096	139.81
806.533	154.31
806.971	173.41
807.409	204.91
807.847	311.41
808.284	660.71
808.722	1859.41
809.16	3210.41
809.597	3070.51
810.035	5333.21
810.472	5580.01
810.91	2024.01
811.347	774.71
811.785	392.31
812.222	244.61
812.66	193.11
813.097	158.81
813.535	141.91
813.972	117.51
814.409	111.81
814.846	108.21
815.284	101.91
815.721	91.81
816.158	100.81
816.595	116.11
817.032	163.21
817.47	182.91
817.907	148.71
818.344	141.41
818.781	115.41
819.218	99.41
819.655	113.01
820.092	177.01
820.529	204.11
820.966	173.51
821.403	128.31
821.839	104.51
822.276	99.81
822.713	114.41
823.15	128.21
823.587	110.81
824.023	137.81
824.46	293.91
824.897	884.81
825.333	1317.61
825.77	566.91
826.206	228.71
826.643	125.61
827.08	103.51
827.516	74.71
827.953	65.71
828.389	75.71
828.825	68.91
829.262	67.71
829.698	57.21
830.135	62.71
830.571	63.21
831.007	58.31
831.443	63.41
831.88	56.01
832.316	60.41
832.752	59.31
833.188	64.11
833.624	60.31
834.06	59.41
834.497	64.11
834.933	71.51
835.369	72.01
835.805	56.31
836.241	77.41
836.677	79.91
837.112	90.81
837.548	95.61
837.984	131.71
838.42	194.41
838.856	497.01
839.292	1505.51
839.727	2243.71
840.163	1026.01
840.599	908.21
841.034	2008.31
841.47	2055.21
841.906	745.71
842.341	328.01
842.777	226.01
843.212	318.11
843.648	307.81
844.083	154.11
844.519	93.91
844.954	73.51
845.39	54.31
845.825	55.81
846.261	56.51
846.696	51.01
847.131	57.71
847.566	54.21
848.002	49.61
848.437	55.31
848.872	60.11
849.307	55.71
849.742	84.91
850.177	183.41
850.613	545.11
851.048	854.21
851.483	367.31
851.918	149.01
852.353	82.91
852.788	52.91
853.223	51.61
853.657	53.91
854.092	44.91
854.527	39.51
854.962	31.51
855.397	44.51
855.832	48.21
856.266	42.11
856.701	38.31
857.136	33.91
857.57	44.31
858.005	41.61
858.44	54.31
858.874	41.81
859.309	56.11
859.743	39.01
860.178	42.61
860.612	38.31
861.047	49.51
861.481	66.31
861.915	67.21
862.35	48.81
862.784	35.31
863.218	36.11
863.653	32.91
864.087	41.01
864.521	49.01
864.955	62.91
865.39	160.31
865.824	171.01
866.258	113.31
866.692	150.21
867.126	157.81
867.56	98.41
867.994	43.81
868.428	31.01
868.862	44.41
869.296	47.11
869.73	57.51
870.164	51.11
870.598	43.61
871.031	33.41
871.465	29.81
871.899	26.41
872.333	24.71
872.766	26.61
873.2	20.91
873.634	27.01
874.067	22.61
874.501	22.21
874.935	28.81
875.368	29.81
875.802	27.91
876.235	23.61
876.669	20.31
877.102	22.81
877.535	23.61
877.969	20.81
878.402	20.91
878.836	23.61
879.269	24.21
879.702	21.41
880.135	25.31
880.569	24.81
881.002	31.21
881.435	20.71
881.868	15.11
882.301	23.31
882.734	19.41
883.167	24.41
883.601	15.11
884.034	21.41
884.467	11.21
884.899	15.11
885.332	16.91
885.765	16.91
886.198	10.71
886.631	18.31
887.064	21.71
887.497	16.31
887.929	22.31
888.362	11.41
888.795	9.31
889.228	14.71
889.66	22.61
890.093	16.91
890.526	14.91
890.958	15.81
891.391	21.91
891.823	17.21
892.256	12.01
892.688	10.01
893.121	13.61
893.553	10.71
893.985	27.61
894.418	16.21
894.85	9.21
895.282	7.31
895.715	20.11
896.147	16.31
896.579	17.51
897.011	11.41
897.444	16.71
897.876	14.01
898.308	16.21
898.74	18.51
899.172	17.81
899.604	28.71
900.036	19.11
900.468	12.01
900.9	12.71
901.332	15.01
901.764	10.31
902.196	11.71
902.628	13.21
903.06	13.51
903.491	25.61
903.923	22.11
904.355	19.91
904.787	24.01
905.218	16.91
905.65	16.21
906.082	12.61
906.513	10.41
906.945	12.71
907.376	9.21
907.808	14.81
908.239	21.51
908.671	21.31
909.102	23.81
909.534	24.71
909.965	46.71
910.397	94.51
910.828	319.31
911.259	467.81
911.691	209.61
912.122	102.81
912.553	53.01
912.984	32.01
913.415	21.51
913.847	16.71
914.278	15.31
914.709	15.31
915.14	17.61
915.571	17.21
916.002	8.91
916.433	17.21
916.864	19.71
917.295	8.41
917.726	18.51
918.157	17.01
918.587	22.81
919.018	17.61
919.449	18.91
919.88	21.41
920.311	24.81
920.741	46.11
921.172	159.61
921.603	144.41
922.033	68.01
922.464	46.11
922.895	21.71
923.325	17.01
923.756	15.81
924.186	10.31
924.617	14.11
925.047	40.31
925.478	54.91
925.908	43.91
926.338	23.31
926.769	13.91
927.199	17.91
927.629	4.11
928.06	10.21
928.49	11.91
928.92	10.31
929.35	9.21
929.78	12.81
930.21	5.31
930.641	6.91
931.071	9.41
931.501	5.51
931.931	6.71
932.361	6.91
932.791	3.01
933.221	5.41
933.651	7.31
934.08	19.81
934.51	29.71
934.94	12.71
935.37	9.11
935.8	15.41
936.229	7.91
936.659	3.61
937.089	1.41
937.519	10.01
937.948	25.21
938.378	15.81
938.807	4.01
939.237	-3.59
939.666	9.21
940.096	-7.69
940.525	0.21
940.955	6.01
941.384	-2.09
941.814	-7.59
942.243	-4.29
942.672	-1.89
943.102	-6.69
943.531	-1.79
943.96	8.81
944.39	-4.19
944.819	5.71
945.248	4.41
945.677	2.21
946.106	3.71
946.535	1.81
946.964	4.01
947.393	-2.59
947.822	-9.39
948.251	-5.89
948.68	-0.19
949.109	3.71
949.538	1.81
949.967	1.81
950.396	2.31
950.825	1.81
951.254	-2.49
951.682	-8.09
952.111	4.71
952.54	6.01
952.969	-4.39
953.397	-6.99
953.826	-0.19
954.254	-7.69
954.683	9.01
955.112	-1.39
955.54	-1.89
955.969	-6.59
956.397	0.51
956.826	-4.09
957.254	1.81
957.682	-1.69
958.111	6.21
958.539	2.91
958.967	-0.69
959.396	-5.09
959.824	-5.89
960.252	1.81
960.68	-4.89
961.109	-4.79
961.537	-0.29
961.965	3.01
962.393	-0.59
962.821	-12.09
963.249	-1.89
963.677	5.01
964.105	1.51
964.533	40.21
964.961	32.71
965.389	17.01
965.817	4.61
966.245	4.11
966.672	-1.39
967.1	-5.49
967.528	-5.09
967.956	-2.99
968.383	1.11
968.811	-0.39
969.239	-0.29
969.666	-6.89
970.094	-3.09
970.522	-1.19
970.949	-0.19
971.377	-2.19
971.804	1.61
972.232	-0.19
972.659	-2.49
973.087	-5.49
973.514	-4.49
973.941	-2.89
974.369	3.01
974.796	-0.19
975.223	-3.69
975.651	-1.99
976.078	1.51
976.505	1.11
976.932	-0.49
977.359	17.21
977.786	14.11
978.214	0.01
978.641	-7.09
979.068	-9.29
979.495	-5.89
979.922	-0.59
980.349	-1.89
980.776	2.11
981.202	-0.19
981.629	0.71
982.056	-1.69
982.483	-3.69
982.91	-0.69
983.337	-4.19
983.763	0.61
984.19	-3.69
984.617	-7.59
985.043	-4.99
985.47	-1.09
985.897	-2.59
986.323	-15.89
986.75	-1.69
987.176	5.31
987.603	0.31
988.029	-0.49
988.456	-8.49
988.882	5.91
989.308	-5.99
989.735	-9.79
990.161	-0.79
990.587	-6.79
991.014	-1.19
991.44	6.21
991.866	-3.49
992.292	-2.99
992.719	1.51
993.145	7.21
993.571	-8.19
993.997	0.21
994.423	-6.19
994.849	-8.79
995.275	0.31
995.701	0.91
996.127	-2.99
996.553	0.11
996.979	-4.29
997.405	-4.99
997.83	-8.79
998.256	-8.29
998.682	-9.39
999.108	-7.69
999.534	-2.69
999.959	-2.49
1000.385	-5.39
1000.811	-3.69
1001.236	-5.39
1001.662	-5.69
1002.087	-9.39
1002.513	-2.39
1002.938	-4.49
1003.364	-7.29
1003.789	-4.69
1004.215	1.61
1004.64	-1.29
1005.066	-1.19
1005.491	1.51
1005.916	-4.39
1006.342	-3.79
1006.767	-7.69
1007.192	2.61
1007.617	-4.69
1008.042	-7.89
1008.468	-8.69
1008.893	-5.19
1009.318	-1.09
1009.743	-3.49
1010.168	-1.39
1010.593	0.21
1011.018	-8.19
1011.443	0.61
1011.868	-3.39
1012.293	-7.09
1012.718	-6.29
1013.143	-4.09
1013.567	0.21
1013.992	-1.59
1014.417	-18.39
1014.842	3.31
1015.267	-4.09
1015.691	-6.59
1016.116	4.11
1016.541	-2.99
1016.965	3.61
1017.39	-0.79
1017.814	-1.69
1018.239	-2.99
1018.663	-1.49
1019.088	-8.09
1019.512	-0.89
1019.937	-3.09
1020.361	-10.49
1020.785	-10.99
1021.21	-3.69
1021.634	-3.59
1022.058	-3.49
1022.483	4.51
1022.907	-3.29
1023.331	-3.69
1023.755	-0.29
1024.179	-1.69
1024.604	-7.49
1025.028	-7.39
1025.452	-3.69
1025.876	2.61
1026.3	1.61
1026.724	-11.99
1027.148	-7.89
1027.572	-12.39
1027.996	-4.39
1028.42	-6.89
1028.843	-2.39
1029.267	-8.49
1029.691	-5.09
1030.115	-2.29
1030.539	-11.39
1030.962	-11.89
1031.386	-14.19
1031.81	-0.89
1032.233	-2.89
1032.657	-5.69
1033.08	-4.79
1033.504	-8.69
1033.927	-6.69
1034.351	-2.19
1034.774	-5.39
1035.198	-8.19
1035.621	-11.39
1036.045	-7.39
1036.468	1.51
1036.891	-12.19
1037.315	-12.69
1037.738	-6.19
1038.161	-3.19
1038.584	-4.39
1039.008	-7.39
1039.431	0.31
1039.854	-4.59
1040.277	-17.49
1040.7	-9.59
1041.123	-5.39
1041.546	-5.99
1041.969	-7.49
1042.392	-9.79
1042.815	-3.19
1043.238	-3.99
1043.661	-3.09
1044.084	-7.69
1044.507	-8.59
1044.93	-7.39
1045.352	-11.69
1045.775	-7.19
1046.198	-4.39
1046.621	-9.09
1047.043	-2.09
1047.466	5.21
1047.889	0.81
1048.311	-8.39
1048.734	-3.69
1049.156	-0.69
1049.579	-2.19
1050.001	-4.19
1050.424	0.01
1050.846	-7.39
1051.269	-1.19
1051.691	-11.29
1052.113	-9.49
1052.536	-0.69
1052.958	-0.29
1053.38	2.61
1053.802	-7.29
1054.225	-7.79
1054.647	-14.39
1055.069	-5.39
1055.491	-2.49
1055.913	-10.19
1056.335	-11.09
1056.757	-6.69
1057.179	-5.99
1057.601	-8.19
1058.023	-9.89
1058.445	-8.59
1058.867	-4.19
1059.289	-4.09
1059.711	-6.29
1060.133	-7.59
1060.555	-2.39
1060.976	-8.49
1061.398	-7.29
1061.82	-13.49
1062.241	-11.99
1062.663	-6.99
1063.085	-7.69
1063.506	-1.19
1063.928	-3.89
1064.35	-8.09
1064.771	-14.69
1065.193	-1.29
1065.614	-12.69
1066.035	-8.69
1066.457	-5.99
1066.878	1.11
1067.3	-4.79
1067.721	-7.39
1068.142	-10.09
1068.564	-0.79
1068.985	-2.59
1069.406	-8.29
1069.827	-4.49
1070.248	-0.39
1070.67	-8.99
1071.091	-9.79
1071.512	-0.89
1071.933	-4.29
1072.354	-8.59
1072.775	-4.89
1073.196	-12.69
1073.617	-6.99
1074.038	-10.99
1074.459	-2.49
1074.88	-6.79
1075.3	-3.79
1075.721	-6.99
1076.142	-0.59
1076.563	-8.59
1076.983	-12.59
1077.404	-6.59
1077.825	-14.29
1078.246	-5.49
1078.666	-11.09
1079.087	-4.69
1079.507	-7.69
1079.928	-2.29
1080.348	-3.79
1080.769	-4.39
1081.189	-3.19
1081.61	-5.49
1082.03	-10.19
1082.451	-11.19
1082.871	-3.79
1083.291	-10.49
1083.711	-13.89
1084.132	-10.09
1084.552	-6.39
1084.972	-1.09
1085.392	-11.99
1085.813	-9.89
1086.233	-5.39
1086.653	-3.79
1087.073	-3.79
1087.493	-8.09
1087.913	-9.69
1088.333	-7.79
1088.753	-6.89
1089.173	-1.89
1089.593	-2.39
1090.013	-0.09
1090.433	-3.69
1090.852	-4.89
1091.272	-1.49
1091.692	-3.09
1092.112	-8.69
1092.531	-10.39
1092.951	-14.89
1093.371	-5.19
1093.79	-2.99
1094.21	-6.69
1094.63	-9.99
1095.049	-6.09
1095.469	-3.39
1095.888	-3.89
1096.308	4.21
1096.727	-1.69
1097.146	-3.19
1097.566	2.31
1097.985	-7.79
1098.405	-1.09
1098.824	-7.09
1099.243	-8.09
1099.662	-12.09
1100.082	-7.19
1100.501	-2.29
1100.92	-6.89
1101.339	-5.59
1101.758	-7.99
