Data from 20171114-ORNL-Ar_H_NY_Subt18_08-09-07-309.txt Node
Date: Tue Nov 14 08:09:07 EST 2017
User: Ender
Spectrometer: HR+D1039
Trigger mode: 0
Integration Time (sec): 2.730000E-2
Scans to average: 10
Electric dark correction enabled: true
Nonlinearity correction enabled: false
Boxcar width: 0
XAxis mode: Wavelengths
Number of Pixels in Spectrum: 2048
>>>>>Begin Spectral Data<<<<<
187.836	-3.59
188.309	-3.59
188.782	-3.59
189.255	1.61
189.728	4.61
190.201	3.41
190.674	-3.29
191.147	-0.69
191.619	-8.89
192.092	-0.79
192.565	6.61
193.038	-1.89
193.511	5.11
193.984	-0.09
194.456	-1.49
194.929	-3.79
195.402	1.31
195.874	1.91
196.347	-1.39
196.82	-7.19
197.292	0.31
197.765	-0.39
198.237	-5.49
198.71	-4.09
199.182	-2.49
199.655	5.01
200.127	-1.29
200.6	-2.19
201.072	-4.39
201.544	0.31
202.017	-1.09
202.489	1.11
202.961	-1.09
203.433	-10.69
203.906	-4.09
204.378	-6.99
204.85	-5.89
205.322	-6.99
205.794	-5.49
206.266	0.91
206.739	-7.49
207.211	1.71
207.683	-6.19
208.155	-4.39
208.627	-5.39
209.099	-4.79
209.57	-6.49
210.042	0.01
210.514	1.31
210.986	-3.39
211.458	-8.39
211.93	-0.69
212.402	1.21
212.873	-6.99
213.345	-5.99
213.817	-7.19
214.288	-0.19
214.76	-8.19
215.232	-8.69
215.703	-4.29
216.175	-4.79
216.646	-5.39
217.118	-5.99
217.589	-8.99
218.061	-7.69
218.532	-5.79
219.004	-2.09
219.475	-4.99
219.946	-5.19
220.418	-3.79
220.889	1.41
221.36	1.61
221.832	1.21
222.303	-8.39
222.774	3.71
223.245	-10.69
223.717	-3.99
224.188	-5.49
224.659	-3.69
225.13	-7.19
225.601	-3.29
226.072	0.21
226.543	1.91
227.014	0.91
227.485	-6.09
227.956	-5.99
228.427	-3.29
228.898	2.61
229.369	3.81
229.839	-9.29
230.31	-9.39
230.781	-2.49
231.252	3.71
231.722	-5.29
232.193	-9.49
232.664	2.21
233.135	-4.79
233.605	-0.89
234.076	-2.39
234.546	-0.99
235.017	0.91
235.487	0.01
235.958	-10.89
236.428	-11.79
236.899	-4.99
237.369	-5.89
237.84	-8.09
238.31	-1.99
238.78	-2.29
239.251	-3.89
239.721	-2.69
240.191	-1.39
240.662	-0.09
241.132	-1.89
241.602	-0.29
242.072	0.31
242.542	6.41
243.013	-1.99
243.483	-4.99
243.953	-3.29
244.423	-1.49
244.893	-3.09
245.363	1.41
245.833	0.51
246.303	-8.29
246.773	1.71
247.243	-1.79
247.712	-1.29
248.182	0.61
248.652	0.51
249.122	-8.39
249.592	3.21
250.061	6.11
250.531	15.01
251.001	0.91
251.471	11.01
251.94	10.21
252.41	-1.79
252.879	-8.19
253.349	10.61
253.818	5.31
254.288	-6.69
254.757	-4.19
255.227	-3.29
255.696	-1.09
256.166	1.71
256.635	7.01
257.105	3.21
257.574	-2.89
258.043	1.61
258.513	-1.69
258.982	4.81
259.451	1.61
259.92	3.21
260.389	0.31
260.859	7.41
261.328	6.51
261.797	4.61
262.266	-1.69
262.735	9.41
263.204	3.51
263.673	0.41
264.142	1.51
264.611	-0.89
265.08	-1.39
265.549	-6.19
266.018	7.11
266.487	-3.69
266.955	-7.89
267.424	-2.19
267.893	2.81
268.362	-5.49
268.83	3.61
269.299	6.91
269.768	1.21
270.236	3.91
270.705	3.61
271.174	1.61
271.642	3.31
272.111	0.31
272.579	10.01
273.048	7.91
273.516	9.31
273.985	7.91
274.453	4.61
274.922	11.51
275.39	2.91
275.858	-2.49
276.327	4.61
276.795	9.71
277.263	4.01
277.731	19.11
278.2	13.51
278.668	20.71
279.136	12.31
279.604	3.91
280.072	7.61
280.54	5.11
281.008	4.41
281.477	4.11
281.945	2.01
282.413	3.31
282.881	6.11
283.348	0.51
283.816	15.31
284.284	10.81
284.752	15.41
285.22	11.41
285.688	12.71
286.156	7.81
286.623	14.01
287.091	11.51
287.559	17.41
288.026	6.31
288.494	10.91
288.962	-3.69
289.429	1.31
289.897	11.51
290.364	9.31
290.832	13.51
291.3	11.41
291.767	14.61
292.234	12.61
292.702	5.41
293.169	9.01
293.637	16.41
294.104	8.41
294.571	5.51
295.039	3.11
295.506	5.91
295.973	12.71
296.44	5.21
296.908	13.61
297.375	9.61
297.842	14.11
298.309	12.71
298.776	8.01
299.243	10.71
299.71	3.71
300.177	14.51
300.644	16.61
301.111	12.71
301.578	10.31
302.045	10.21
302.512	17.91
302.979	15.01
303.446	11.91
303.913	15.21
304.379	10.81
304.846	23.41
305.313	16.91
305.78	11.11
306.246	14.91
306.713	19.31
307.18	13.81
307.646	18.91
308.113	16.11
308.579	22.01
309.046	17.31
309.512	19.91
309.979	11.61
310.445	14.11
310.912	18.11
311.378	24.71
311.845	24.31
312.311	20.71
312.777	21.81
313.244	13.31
313.71	31.31
314.176	14.71
314.642	20.31
315.109	18.71
315.575	23.41
316.041	27.01
316.507	14.81
316.973	27.71
317.439	19.31
317.905	30.21
318.371	19.21
318.837	22.41
319.303	26.01
319.769	27.71
320.235	22.81
320.701	25.41
321.167	26.71
321.633	20.11
322.099	26.41
322.564	31.31
323.03	32.61
323.496	24.11
323.962	25.01
324.427	25.21
324.893	28.01
325.359	30.01
325.824	27.81
326.29	27.81
326.755	26.21
327.221	33.61
327.686	29.01
328.152	37.21
328.617	27.51
329.083	33.21
329.548	37.11
330.014	34.31
330.479	30.01
330.944	31.51
331.41	28.11
331.875	34.81
332.34	35.91
332.805	32.01
333.271	33.91
333.736	27.51
334.201	39.31
334.666	38.71
335.131	37.61
335.596	42.61
336.061	34.11
336.526	31.91
336.991	36.91
337.456	46.41
337.921	35.01
338.386	40.71
338.851	35.41
339.316	40.61
339.781	33.61
340.246	36.31
340.711	37.71
341.175	39.01
341.64	33.81
342.105	39.91
342.569	45.51
343.034	51.01
343.499	42.71
343.963	38.11
344.428	56.81
344.893	43.21
345.357	48.61
345.822	48.71
346.286	54.01
346.751	55.61
347.215	55.51
347.679	55.21
348.144	74.31
348.608	63.11
349.073	54.81
349.537	62.31
350.001	62.61
350.465	73.21
350.93	63.71
351.394	67.41
351.858	61.51
352.322	63.41
352.786	65.31
353.25	80.11
353.715	82.31
354.179	80.81
354.643	94.11
355.107	98.01
355.571	87.71
356.035	75.81
356.498	90.21
356.962	89.71
357.426	102.71
357.89	90.01
358.354	69.61
358.818	57.91
359.281	62.21
359.745	69.41
360.209	59.81
360.673	58.91
361.136	69.91
361.6	72.21
362.064	71.61
362.527	69.31
362.991	69.31
363.454	67.61
363.918	63.71
364.381	64.61
364.845	72.21
365.308	74.21
365.772	72.81
366.235	75.21
366.698	72.91
367.162	80.01
367.625	71.71
368.088	72.91
368.552	72.21
369.015	73.71
369.478	82.61
369.941	86.11
370.404	75.51
370.867	88.61
371.331	90.61
371.794	90.21
372.257	81.01
372.72	90.71
373.183	85.31
373.646	80.21
374.109	82.01
374.572	82.11
375.035	86.31
375.497	92.91
375.96	91.91
376.423	88.91
376.886	94.61
377.349	93.41
377.811	88.21
378.274	91.41
378.737	90.81
379.199	100.81
379.662	89.31
380.125	96.01
380.587	96.41
381.05	94.51
381.512	98.91
381.975	105.21
382.437	105.91
382.9	105.31
383.362	106.81
383.825	113.11
384.287	117.01
384.75	112.21
385.212	120.31
385.674	118.81
386.136	114.71
386.599	113.61
387.061	108.21
387.523	110.51
387.985	114.21
388.447	123.61
388.91	122.31
389.372	126.51
389.834	122.31
390.296	122.21
390.758	127.71
391.22	128.31
391.682	147.31
392.144	166.51
392.606	155.11
393.068	130.91
393.529	137.71
393.991	131.61
394.453	124.71
394.915	124.91
395.377	134.51
395.838	139.11
396.3	127.01
396.762	116.01
397.224	123.31
397.685	115.31
398.147	122.01
398.608	120.41
399.07	121.21
399.531	125.01
399.993	136.01
400.454	145.51
400.916	134.21
401.377	135.31
401.839	140.61
402.3	140.31
402.762	152.91
403.223	156.91
403.684	155.31
404.145	158.51
404.607	156.91
405.068	151.31
405.529	144.31
405.99	173.21
406.451	157.71
406.913	162.51
407.374	151.01
407.835	155.61
408.296	154.31
408.757	159.51
409.218	172.91
409.679	159.71
410.14	165.61
410.601	167.21
411.062	175.21
411.522	167.61
411.983	167.61
412.444	163.71
412.905	173.41
413.366	177.91
413.826	182.11
414.287	208.01
414.748	255.01
415.208	238.91
415.669	203.01
416.13	197.21
416.59	189.61
417.051	207.21
417.511	218.31
417.972	229.31
418.432	241.91
418.893	279.71
419.353	244.81
419.814	190.71
420.274	177.71
420.734	171.91
421.195	186.81
421.655	185.71
422.115	180.91
422.576	187.01
423.036	194.41
423.496	200.71
423.956	209.31
424.416	226.31
424.876	258.61
425.336	248.71
425.797	251.31
426.257	242.61
426.717	232.31
427.177	219.51
427.637	217.11
428.097	222.71
428.556	234.71
429.016	259.01
429.476	251.71
429.936	260.41
430.396	262.21
430.856	278.01
431.315	300.01
431.775	327.51
432.235	355.71
432.694	339.11
433.154	342.41
433.614	365.01
434.073	323.51
434.533	279.51
434.993	250.41
435.452	267.01
435.912	273.91
436.371	275.41
436.83	265.31
437.29	249.01
437.749	234.71
438.209	237.71
438.668	265.71
439.127	271.81
439.587	255.91
440.046	240.11
440.505	249.81
440.964	265.01
441.424	305.11
441.883	294.11
442.342	246.71
442.801	222.11
443.26	221.91
443.719	220.41
444.178	218.81
444.637	209.81
445.096	215.51
445.555	226.91
446.014	226.21
446.473	223.21
446.932	227.11
447.391	223.91
447.849	226.61
448.308	218.31
448.767	219.01
449.226	226.71
449.685	232.41
450.143	240.41
450.602	234.21
451.061	225.31
451.519	229.01
451.978	226.61
452.436	233.21
452.895	235.61
453.353	243.81
453.812	235.61
454.27	236.31
454.729	233.61
455.187	231.81
455.646	243.51
456.104	249.21
456.562	260.41
457.021	266.91
457.479	257.21
457.937	271.51
458.395	253.41
458.854	247.31
459.312	256.91
459.77	269.11
460.228	258.71
460.686	239.61
461.144	248.71
461.602	241.31
462.06	244.61
462.518	245.71
462.976	253.71
463.434	255.41
463.892	258.71
464.35	270.01
464.808	291.61
465.266	266.21
465.724	271.61
466.181	278.51
466.639	267.91
467.097	284.81
467.555	300.21
468.012	296.81
468.47	303.61
468.928	326.91
469.385	336.41
469.843	337.61
470.3	348.71
470.758	361.41
471.215	378.11
471.673	397.81
472.13	408.71
472.588	411.51
473.045	373.71
473.503	382.31
473.96	397.51
474.417	397.31
474.875	425.71
475.332	472.71
475.789	451.01
476.246	462.51
476.704	473.51
477.161	494.81
477.618	507.61
478.075	546.01
478.532	594.91
478.989	667.21
479.446	772.31
479.903	737.61
480.36	766.11
480.817	811.41
481.274	900.01
481.731	994.21
482.188	1074.41
482.645	1197.71
483.102	1277.71
483.558	1405.51
484.015	1430.91
484.472	1409.91
484.929	1375.81
485.385	1329.51
485.842	1304.61
486.299	1254.81
486.755	1214.11
487.212	1028.11
487.668	877.41
488.125	808.81
488.582	740.51
489.038	722.61
489.494	691.11
489.951	661.31
490.407	656.11
490.864	634.01
491.32	627.81
491.776	627.91
492.233	636.91
492.689	604.81
493.145	597.41
493.602	595.01
494.058	602.11
494.514	599.71
494.97	624.51
495.426	632.21
495.882	615.71
496.338	603.01
496.794	607.91
497.251	612.41
497.707	615.91
498.163	625.81
498.618	632.91
499.074	633.41
499.53	658.61
499.986	656.41
500.442	626.91
500.898	615.91
501.354	611.21
501.809	626.91
502.265	624.71
502.721	625.61
503.177	646.61
503.632	648.01
504.088	657.81
504.543	674.31
504.999	689.51
505.455	643.81
505.91	626.81
506.366	636.51
506.821	627.01
507.277	632.01
507.732	628.91
508.187	632.91
508.643	631.31
509.098	626.51
509.553	661.31
510.009	663.81
510.464	666.41
510.919	692.01
511.375	696.11
511.83	707.81
512.285	718.61
512.74	760.61
513.195	771.91
513.65	763.81
514.105	765.41
514.56	771.01
515.015	782.21
515.47	797.61
515.925	772.11
516.38	785.51
516.835	788.11
517.29	773.21
517.745	774.91
518.2	770.31
518.655	740.61
519.109	745.11
519.564	738.71
520.019	728.81
520.474	726.01
520.928	723.71
521.383	722.41
521.838	698.11
522.292	718.91
522.747	708.01
523.201	711.81
523.656	705.91
524.11	691.91
524.565	706.51
525.019	691.41
525.474	698.21
525.928	700.01
526.382	689.71
526.837	701.91
527.291	705.21
527.745	699.11
528.2	703.41
528.654	692.81
529.108	686.91
529.562	690.91
530.016	686.61
530.47	693.41
530.925	687.31
531.379	694.91
531.833	703.71
532.287	700.21
532.741	699.21
533.195	703.01
533.649	710.61
534.103	717.51
534.556	702.21
535.01	711.01
535.464	705.71
535.918	714.31
536.372	713.81
536.826	706.21
537.279	702.41
537.733	719.91
538.187	710.21
538.64	716.91
539.094	722.01
539.548	731.81
540.001	721.41
540.455	725.91
540.908	734.11
541.362	747.11
541.815	755.71
542.269	755.51
542.722	767.01
543.175	776.81
543.629	771.01
544.082	799.41
544.536	789.91
544.989	788.71
545.442	798.21
545.895	799.31
546.349	790.61
546.802	800.71
547.255	806.81
547.708	813.71
548.161	821.01
548.614	832.51
549.067	828.21
549.52	827.21
549.973	827.01
550.426	812.31
550.879	806.51
551.332	805.31
551.785	821.01
552.238	823.11
552.691	823.21
553.144	841.71
553.596	863.41
554.049	863.61
554.502	900.01
554.955	928.41
555.407	908.51
555.86	903.11
556.313	893.91
556.765	883.21
557.218	885.51
557.67	883.51
558.123	883.51
558.576	871.61
559.028	881.31
559.48	889.01
559.933	885.61
560.385	843.11
560.838	814.71
561.29	798.11
561.742	799.01
562.195	775.21
562.647	763.51
563.099	781.21
563.551	778.61
564.004	792.31
564.456	779.41
564.908	774.71
565.36	760.21
565.812	743.11
566.264	729.51
566.716	724.81
567.168	714.01
567.62	725.71
568.072	709.51
568.524	713.51
568.976	700.11
569.428	680.21
569.88	693.21
570.332	692.71
570.784	693.91
571.235	691.61
571.687	706.51
572.139	711.51
572.59	725.51
573.042	716.61
573.494	715.21
573.945	715.81
574.397	700.31
574.849	696.31
575.3	692.31
575.752	688.21
576.203	680.31
576.655	694.91
577.106	681.91
577.557	677.01
578.009	664.91
578.46	681.11
578.912	670.01
579.363	673.71
579.814	673.71
580.265	670.41
580.717	670.51
581.168	685.11
581.619	677.91
582.07	692.01
582.521	689.71
582.972	682.01
583.423	694.81
583.875	686.41
584.326	696.31
584.777	724.41
585.227	751.81
585.678	790.01
586.129	828.11
586.58	857.41
587.031	884.91
587.482	944.11
587.933	1009.91
588.384	947.31
588.834	847.61
589.285	793.31
589.736	789.01
590.186	789.31
590.637	778.91
591.088	759.41
591.538	746.11
591.989	736.41
592.439	734.61
592.89	720.01
593.34	721.51
593.791	714.61
594.241	702.71
594.692	710.51
595.142	701.21
595.593	705.01
596.043	714.01
596.493	726.81
596.943	722.61
597.394	740.81
597.844	735.11
598.294	744.81
598.744	780.61
599.195	797.21
599.645	842.21
600.095	883.31
600.545	944.11
600.995	991.01
601.445	1044.21
601.895	1106.81
602.345	1150.61
602.795	1136.01
603.245	1087.11
603.695	1042.11
604.145	970.41
604.594	928.01
605.044	875.91
605.494	826.21
605.944	766.91
606.393	750.61
606.843	740.91
607.293	749.41
607.743	734.31
608.192	754.41
608.642	771.11
609.091	764.31
609.541	773.41
609.99	787.11
610.44	776.81
610.889	735.71
611.339	707.71
611.788	691.21
612.238	700.01
612.687	717.71
613.136	705.41
613.586	725.31
614.035	710.71
614.484	731.81
614.933	733.21
615.383	719.21
615.832	725.41
616.281	721.41
616.73	696.31
617.179	666.01
617.628	654.81
618.077	651.11
618.526	634.81
618.975	631.31
619.424	621.71
619.873	616.61
620.322	632.41
620.771	615.21
621.22	615.31
621.669	599.21
622.118	594.81
622.567	589.71
623.015	582.91
623.464	586.31
623.913	562.61
624.361	564.41
624.81	555.51
625.259	560.71
625.707	560.61
626.156	569.01
626.604	580.81
627.053	574.71
627.501	587.01
627.95	585.21
628.398	591.51
628.847	586.21
629.295	577.61
629.744	579.61
630.192	576.41
630.64	577.91
631.089	561.01
631.537	562.11
631.985	557.01
632.433	566.31
632.881	552.01
633.33	571.31
633.778	557.81
634.226	547.91
634.674	559.61
635.122	563.11
635.57	573.61
636.018	590.61
636.466	582.01
636.914	566.71
637.362	584.91
637.81	588.21
638.258	590.61
638.705	594.01
639.153	631.71
639.601	645.21
640.049	672.31
640.497	693.71
640.944	719.31
641.392	656.91
641.84	630.81
642.287	589.11
642.735	579.21
643.182	572.41
643.63	567.31
644.078	578.11
644.525	591.71
644.973	595.61
645.42	610.11
645.867	631.21
646.315	643.21
646.762	670.51
647.21	695.71
647.657	711.91
648.104	743.91
648.551	771.21
648.999	833.31
649.446	908.71
649.893	982.11
650.34	1149.01
650.787	1348.51
651.234	1678.61
651.682	2172.11
652.129	2944.71
652.576	4225.61
653.023	6178.21
653.47	8305.01
653.917	10283.81
654.363	11703.01
654.81	12832.91
655.257	12192.31
655.704	8078.21
656.151	4834.41
656.598	3175.81
657.044	2275.21
657.491	1779.31
657.938	1426.11
658.385	1205.41
658.831	1048.11
659.278	935.01
659.724	838.01
660.171	773.61
660.618	721.11
661.064	685.51
661.511	669.51
661.957	659.41
662.404	646.31
662.85	652.91
663.296	632.21
663.743	567.31
664.189	550.31
664.635	546.31
665.082	543.11
665.528	537.01
665.974	525.81
666.42	529.21
666.867	513.51
667.313	493.91
667.759	472.21
668.205	465.91
668.651	476.81
669.097	466.51
669.543	463.11
669.989	463.31
670.435	463.91
670.881	463.21
671.327	468.11
671.773	481.51
672.219	506.41
672.665	565.31
673.11	606.21
673.556	652.01
674.002	695.41
674.448	689.81
674.893	566.41
675.339	501.01
675.785	456.51
676.23	434.01
676.676	406.61
677.122	394.91
677.567	384.31
678.013	380.41
678.458	370.91
678.904	366.11
679.349	360.91
679.794	362.71
680.24	361.81
680.685	362.51
681.131	350.31
681.576	362.71
682.021	369.61
682.466	362.41
682.912	363.91
683.357	363.61
683.802	389.51
684.247	430.11
684.692	485.11
685.137	524.71
685.583	550.11
686.028	581.11
686.473	539.71
686.918	468.71
687.363	433.91
687.807	400.41
688.252	377.01
688.697	364.41
689.142	353.81
689.587	337.11
690.032	339.51
690.477	352.71
690.921	363.01
691.366	399.11
691.811	417.91
692.255	446.21
692.7	476.61
693.145	530.91
693.589	756.21
694.034	1217.81
694.478	1636.51
694.923	1800.21
695.367	2321.81
695.812	1235.21
696.256	521.61
696.701	383.41
697.145	351.81
697.59	340.41
698.034	332.61
698.478	337.31
698.922	338.21
699.367	335.61
699.811	354.41
700.255	371.51
700.699	389.41
701.143	445.51
701.588	492.61
702.032	535.01
702.476	540.61
702.92	509.91
703.364	530.31
703.808	695.51
704.252	1116.61
704.696	1542.91
705.14	1726.81
705.584	2197.21
706.027	1108.41
706.471	539.71
706.915	413.41
707.359	368.71
707.803	335.21
708.246	322.41
708.69	319.51
709.134	327.61
709.577	322.51
710.021	333.71
710.465	317.91
710.908	307.41
711.352	311.71
711.795	327.71
712.239	370.41
712.682	405.71
713.126	427.11
713.569	473.41
714.012	369.01
714.456	316.71
714.899	302.71
715.342	284.21
715.786	266.51
716.229	273.41
716.672	265.81
717.115	265.01
717.558	264.21
718.002	260.11
718.445	268.11
718.888	281.91
719.331	303.31
719.774	326.51
720.217	312.61
720.66	296.21
721.103	279.51
721.546	267.11
721.989	260.31
722.432	251.61
722.874	246.11
723.317	233.41
723.76	238.01
724.203	276.51
724.645	338.51
725.088	474.41
725.531	596.11
725.974	661.61
726.416	571.31
726.859	319.91
727.301	263.11
727.744	248.61
728.187	241.81
728.629	243.71
729.071	258.41
729.514	269.01
729.956	279.11
730.399	296.81
730.841	299.91
731.283	283.61
731.726	280.11
732.168	270.61
732.61	279.91
733.053	298.71
733.495	329.91
733.937	368.81
734.379	415.71
734.821	471.91
735.263	588.41
735.705	922.51
736.148	1736.61
736.59	2764.91
737.032	3153.31
737.474	2577.21
737.916	859.11
738.357	455.41
738.799	344.01
739.241	309.21
739.683	296.71
740.125	301.51
740.567	317.91
741.008	330.31
741.45	335.91
741.892	333.91
742.334	367.21
742.775	378.01
743.217	360.41
743.658	283.91
744.1	271.11
744.542	283.91
744.983	330.81
745.425	358.81
745.866	372.71
746.307	296.61
746.749	300.01
747.19	341.61
747.632	501.41
748.073	982.91
748.514	2024.61
748.956	3005.21
749.397	3789.71
749.838	3144.31
750.279	3046.01
750.72	1554.51
751.162	579.21
751.603	334.11
752.044	261.91
752.485	220.71
752.926	224.81
753.367	204.41
753.808	197.91
754.249	202.71
754.69	199.31
755.131	198.41
755.572	189.61
756.013	187.31
756.453	194.51
756.894	205.11
757.335	191.01
757.776	197.41
758.216	200.21
758.657	206.71
759.098	213.11
759.538	240.91
759.979	286.61
760.42	404.41
760.86	785.61
761.301	2051.61
761.741	4790.91
762.182	6605.91
762.622	4688.51
763.063	1393.11
763.503	570.41
763.943	348.31
764.384	299.71
764.824	294.41
765.264	293.41
765.705	236.51
766.145	199.31
766.585	190.91
767.025	185.71
767.465	177.01
767.906	194.31
768.346	230.51
768.786	246.91
769.226	237.21
769.666	336.21
770.106	688.21
770.546	1718.11
770.986	2758.01
771.426	2434.81
771.866	839.21
772.306	344.91
772.745	218.31
773.185	177.91
773.625	177.21
774.065	160.51
774.505	181.81
774.944	231.81
775.384	449.01
775.824	717.41
776.263	683.51
776.703	324.11
777.142	177.31
777.582	142.61
778.021	127.81
778.461	135.61
778.9	128.91
779.34	129.41
779.779	113.21
780.219	112.31
780.658	119.11
781.097	112.81
781.537	115.21
781.976	109.71
782.415	112.51
782.855	108.11
783.294	108.91
783.733	108.91
784.172	111.11
784.611	106.41
785.05	111.51
785.489	119.71
785.928	122.21
786.367	125.01
786.806	128.41
787.245	136.61
787.684	146.21
788.123	153.01
788.562	142.31
789.001	125.81
789.44	124.71
789.879	126.51
790.317	124.11
790.756	132.21
791.195	136.21
791.634	150.81
792.072	221.01
792.511	405.31
792.95	1116.51
793.388	2243.21
793.827	1961.91
794.265	705.51
794.704	292.81
795.142	199.81
795.581	165.21
796.019	153.21
796.458	136.71
796.896	130.31
797.334	141.81
797.773	165.61
798.211	241.01
798.649	489.21
799.087	1105.21
799.526	1691.71
799.964	2142.01
800.402	2059.91
800.84	794.11
801.278	327.51
801.716	193.41
802.154	161.71
802.592	152.81
803.03	145.01
803.468	143.01
803.906	149.71
804.344	163.11
804.782	148.21
805.22	140.71
805.658	137.21
806.096	154.11
806.533	170.91
806.971	184.21
807.409	226.41
807.847	349.31
808.284	742.81
808.722	2052.11
809.16	3456.41
809.597	3428.71
810.035	5783.81
810.472	5909.61
810.91	2205.91
811.347	853.81
811.785	435.81
812.222	274.01
812.66	205.51
813.097	170.41
813.535	151.01
813.972	136.21
814.409	126.41
814.846	116.81
815.284	116.31
815.721	110.21
816.158	109.71
816.595	118.91
817.032	160.21
817.47	186.41
817.907	134.81
818.344	114.61
818.781	111.71
819.218	106.91
819.655	131.01
820.092	204.71
820.529	218.61
820.966	180.91
821.403	126.81
821.839	106.91
822.276	107.11
822.713	131.61
823.15	146.81
823.587	127.11
824.023	156.01
824.46	341.91
824.897	966.11
825.333	1416.01
825.77	603.71
826.206	240.91
826.643	144.51
827.08	110.41
827.516	89.81
827.953	82.41
828.389	83.51
828.825	75.01
829.262	70.51
829.698	68.91
830.135	72.41
830.571	68.61
831.007	68.11
831.443	65.31
831.88	64.81
832.316	63.61
832.752	64.31
833.188	60.41
833.624	65.91
834.06	73.31
834.497	70.41
834.933	76.41
835.369	83.61
835.805	71.71
836.241	79.41
836.677	87.81
837.112	96.11
837.548	108.61
837.984	142.01
838.42	223.21
838.856	560.11
839.292	1642.01
839.727	2374.41
840.163	1132.41
840.599	1016.01
841.034	2182.71
841.47	2195.81
841.906	817.21
842.341	357.91
842.777	216.51
843.212	233.81
843.648	212.71
844.083	124.61
844.519	92.11
844.954	70.01
845.39	59.11
845.825	56.51
846.261	61.11
846.696	60.11
847.131	56.31
847.566	65.61
848.002	53.11
848.437	53.71
848.872	64.21
849.307	69.01
849.742	97.11
850.177	201.21
850.613	601.01
851.048	906.01
851.483	398.11
851.918	164.21
852.353	91.31
852.788	55.51
853.223	58.01
853.657	52.41
854.092	50.11
854.527	41.61
854.962	42.51
855.397	44.41
855.832	51.21
856.266	41.11
856.701	41.81
857.136	43.51
857.57	43.61
858.005	58.41
858.44	62.61
858.874	49.51
859.309	53.01
859.743	38.01
860.178	47.91
860.612	46.11
861.047	53.71
861.481	71.31
861.915	75.71
862.35	57.71
862.784	32.21
863.218	39.51
863.653	39.41
864.087	44.01
864.521	53.91
864.955	76.01
865.39	166.21
865.824	180.81
866.258	127.61
866.692	179.61
867.126	186.31
867.56	113.61
867.994	58.11
868.428	42.31
868.862	51.51
869.296	57.81
869.73	60.51
870.164	56.41
870.598	51.61
871.031	44.31
871.465	27.71
871.899	30.31
872.333	29.51
872.766	29.71
873.2	25.31
873.634	30.61
874.067	31.41
874.501	26.31
874.935	36.51
875.368	32.01
875.802	30.61
876.235	28.21
876.669	24.11
877.102	25.51
877.535	25.91
877.969	22.21
878.402	25.11
878.836	21.01
879.269	26.71
879.702	25.41
880.135	24.41
880.569	22.21
881.002	25.51
881.435	23.71
881.868	15.11
882.301	26.51
882.734	17.91
883.167	24.01
883.601	21.71
884.034	22.81
884.467	15.61
884.899	23.91
885.332	20.21
885.765	17.41
886.198	12.31
886.631	15.91
887.064	16.11
887.497	24.71
887.929	25.11
888.362	20.51
888.795	11.21
889.228	17.21
889.66	23.11
890.093	24.41
890.526	13.91
890.958	12.71
891.391	18.81
891.823	23.21
892.256	11.81
892.688	8.01
893.121	19.41
893.553	16.51
893.985	24.81
894.418	19.91
894.85	16.61
895.282	16.81
895.715	18.41
896.147	19.31
896.579	16.51
897.011	14.91
897.444	18.21
897.876	11.11
898.308	17.61
898.74	19.61
899.172	10.31
899.604	29.61
900.036	21.61
900.468	18.61
900.9	15.71
901.332	16.01
901.764	13.81
902.196	13.81
902.628	18.61
903.06	21.91
903.491	29.91
903.923	26.21
904.355	22.01
904.787	30.01
905.218	27.01
905.65	20.11
906.082	12.91
906.513	15.11
906.945	24.81
907.376	17.71
907.808	16.51
908.239	24.31
908.671	20.21
909.102	25.31
909.534	29.61
909.965	52.01
910.397	95.81
910.828	340.41
911.259	494.91
911.691	223.31
912.122	111.11
912.553	52.41
912.984	34.41
913.415	31.21
913.847	24.91
914.278	12.81
914.709	12.31
915.14	16.21
915.571	15.21
916.002	12.41
916.433	17.21
916.864	19.01
917.295	14.41
917.726	21.71
918.157	20.21
918.587	29.41
919.018	23.71
919.449	23.81
919.88	27.11
920.311	31.81
920.741	55.01
921.172	172.11
921.603	159.01
922.033	79.81
922.464	52.01
922.895	21.31
923.325	24.11
923.756	18.41
924.186	12.01
924.617	15.21
925.047	27.51
925.478	27.01
925.908	26.71
926.338	15.61
926.769	15.41
927.199	19.21
927.629	8.81
928.06	13.71
928.49	13.51
928.92	14.71
929.35	11.91
929.78	10.61
930.21	8.41
930.641	9.21
931.071	12.51
931.501	6.41
931.931	8.11
932.361	9.91
932.791	7.81
933.221	12.91
933.651	9.01
934.08	19.91
934.51	35.71
934.94	14.81
935.37	9.51
935.8	14.51
936.229	7.61
936.659	12.51
937.089	4.91
937.519	14.51
937.948	23.71
938.378	20.31
938.807	5.91
939.237	3.81
939.666	11.71
940.096	-6.99
940.525	8.41
940.955	5.51
941.384	6.01
941.814	-2.69
942.243	0.21
942.672	4.81
943.102	-2.89
943.531	0.21
943.96	5.31
944.39	2.71
944.819	6.01
945.248	10.21
945.677	-4.09
946.106	7.61
946.535	5.01
946.964	-0.89
947.393	1.31
947.822	2.21
948.251	-2.49
948.68	7.51
949.109	5.51
949.538	12.91
949.967	4.01
950.396	-0.89
950.825	6.51
951.254	5.21
951.682	-4.69
952.111	4.91
952.54	5.31
952.969	2.41
953.397	-3.99
953.826	6.01
954.254	-3.29
954.683	1.51
955.112	-0.09
955.54	4.11
955.969	3.51
956.397	-0.49
956.826	4.51
957.254	4.71
957.682	7.11
958.111	6.51
958.539	2.41
958.967	-2.29
959.396	-0.89
959.824	7.61
960.252	0.31
960.68	-4.79
961.109	-1.89
961.537	-4.79
961.965	-3.89
962.393	-1.69
962.821	-1.19
963.249	2.51
963.677	4.81
964.105	2.71
964.533	44.81
964.961	41.91
965.389	19.01
965.817	8.91
966.245	5.71
966.672	0.41
967.1	-3.19
967.528	0.31
967.956	1.01
968.383	1.91
968.811	-2.89
969.239	2.61
969.666	-6.49
970.094	-0.39
970.522	1.31
970.949	-6.79
971.377	-1.89
971.804	-3.29
972.232	-5.59
972.659	-7.89
973.087	-0.59
973.514	-6.79
973.941	0.11
974.369	-3.09
974.796	3.61
975.223	2.91
975.651	-1.79
976.078	6.61
976.505	5.31
976.932	1.91
977.359	14.61
977.786	11.71
978.214	4.81
978.641	-2.59
979.068	-0.79
979.495	-1.99
979.922	0.11
980.349	-4.79
980.776	4.21
981.202	1.51
981.629	8.61
982.056	9.21
982.483	-1.29
982.91	-0.79
983.337	-8.09
983.763	1.31
984.19	-4.69
984.617	-4.19
985.043	-4.69
985.47	1.21
985.897	-8.19
986.323	-6.29
986.75	0.81
987.176	6.11
987.603	2.91
988.029	-1.49
988.456	-5.79
988.882	1.21
989.308	-2.79
989.735	-0.89
990.161	-0.49
990.587	-8.99
991.014	0.51
991.44	11.41
991.866	-10.79
992.292	-3.99
992.719	-1.09
993.145	0.41
993.571	-5.09
993.997	-6.99
994.423	-1.79
994.849	-6.19
995.275	4.81
995.701	2.11
996.127	-4.69
996.553	-0.69
996.979	-4.49
997.405	-3.59
997.83	-6.29
998.256	2.31
998.682	-2.89
999.108	-4.89
999.534	-2.69
999.959	4.91
1000.385	-3.19
1000.811	5.41
1001.236	-6.69
1001.662	-6.89
1002.087	-3.49
1002.513	-1.39
1002.938	0.31
1003.364	-0.39
1003.789	1.61
1004.215	7.31
1004.64	0.51
1005.066	-0.19
1005.491	-0.79
1005.916	-2.49
1006.342	-5.69
1006.767	-4.09
1007.192	4.11
1007.617	6.31
1008.042	-6.69
1008.468	-8.69
1008.893	-4.59
1009.318	-3.39
1009.743	1.01
1010.168	3.61
1010.593	2.51
1011.018	-7.09
1011.443	-0.79
1011.868	7.71
1012.293	-6.99
1012.718	-6.29
1013.143	-0.79
1013.567	3.71
1013.992	-1.49
1014.417	-15.19
1014.842	-0.69
1015.267	-3.09
1015.691	-0.29
1016.116	6.71
1016.541	-1.99
1016.965	1.21
1017.39	6.81
1017.814	2.71
1018.239	1.81
1018.663	-7.89
1019.088	-9.29
1019.512	-5.19
1019.937	-3.69
1020.361	-2.89
1020.785	-7.59
1021.21	-2.09
1021.634	-9.89
1022.058	0.81
1022.483	3.31
1022.907	-7.79
1023.331	0.01
1023.755	-0.19
1024.179	-6.19
1024.604	-6.89
1025.028	-2.29
1025.452	-6.49
1025.876	-0.49
1026.3	-1.09
1026.724	-9.39
1027.148	-3.59
1027.572	-14.19
1027.996	-2.59
1028.42	-0.69
1028.843	-4.39
1029.267	-3.69
1029.691	-3.09
1030.115	-10.99
1030.539	-2.79
1030.962	-5.89
1031.386	-10.49
1031.81	2.01
1032.233	-3.49
1032.657	5.61
1033.08	7.11
1033.504	-4.89
1033.927	-5.89
1034.351	-1.09
1034.774	-8.99
1035.198	-4.39
1035.621	-1.69
1036.045	-7.99
1036.468	3.51
1036.891	-14.79
1037.315	-7.19
1037.738	-10.09
1038.161	-0.29
1038.584	0.01
1039.008	-7.79
1039.431	-4.09
1039.854	-5.89
1040.277	-13.09
1040.7	-8.99
1041.123	4.71
1041.546	-10.59
1041.969	-1.39
1042.392	-8.99
1042.815	-0.39
1043.238	0.51
1043.661	1.91
1044.084	-5.29
1044.507	-7.49
1044.93	-2.89
1045.352	-6.99
1045.775	2.81
1046.198	-6.29
1046.621	0.81
1047.043	2.51
1047.466	6.01
1047.889	-0.79
1048.311	-6.69
1048.734	-4.39
1049.156	-8.79
1049.579	-5.39
1050.001	-1.89
1050.424	2.91
1050.846	1.61
1051.269	-7.59
1051.691	-4.19
1052.113	-3.19
1052.536	-2.29
1052.958	-1.29
1053.38	-2.29
1053.802	-11.19
1054.225	2.21
1054.647	-9.29
1055.069	-7.29
1055.491	2.11
1055.913	-8.59
1056.335	-1.29
1056.757	-8.09
1057.179	-4.09
1057.601	-7.99
1058.023	-5.49
1058.445	-6.49
1058.867	-6.29
1059.289	-3.39
1059.711	-2.19
1060.133	0.31
1060.555	-4.89
1060.976	-3.89
1061.398	-7.49
1061.82	-4.59
1062.241	-7.39
1062.663	-9.49
1063.085	-2.89
1063.506	-0.29
1063.928	-2.59
1064.35	0.61
1064.771	-7.29
1065.193	-4.99
1065.614	-3.39
1066.035	-3.99
1066.457	-2.49
1066.878	-3.69
1067.3	-2.69
1067.721	-2.69
1068.142	-3.79
1068.564	-1.99
1068.985	-6.39
1069.406	-7.19
1069.827	-5.89
1070.248	-0.19
1070.67	-5.09
1071.091	-5.99
1071.512	-3.09
1071.933	-12.29
1072.354	-6.59
1072.775	-4.59
1073.196	0.21
1073.617	0.51
1074.038	-7.39
1074.459	-3.49
1074.88	-10.79
1075.3	1.01
1075.721	-6.59
1076.142	-0.39
1076.563	-0.99
1076.983	-12.99
1077.404	-6.79
1077.825	-8.69
1078.246	-7.59
1078.666	-15.29
1079.087	-3.19
1079.507	-3.69
1079.928	0.41
1080.348	-0.09
1080.769	-4.39
1081.189	0.81
1081.61	-3.19
1082.03	-8.49
1082.451	-4.99
1082.871	-1.69
1083.291	-6.09
1083.711	-2.29
1084.132	-2.09
1084.552	-6.39
1084.972	-6.19
1085.392	-13.09
1085.813	-12.99
1086.233	-3.49
1086.653	-5.69
1087.073	-7.19
1087.493	-12.19
1087.913	-7.69
1088.333	-1.19
1088.753	-2.39
1089.173	1.41
1089.593	-2.79
1090.013	-0.59
1090.433	-1.89
1090.852	-2.49
1091.272	-3.99
1091.692	-2.09
1092.112	-4.29
1092.531	-12.59
1092.951	-12.09
1093.371	1.81
1093.79	1.21
1094.21	-3.39
1094.63	-5.49
1095.049	-3.69
1095.469	-4.29
1095.888	-1.89
1096.308	2.91
1096.727	-0.89
1097.146	-5.19
1097.566	3.31
1097.985	-0.89
1098.405	-1.79
1098.824	-5.99
1099.243	-3.59
1099.662	-3.69
1100.082	-6.39
1100.501	-2.49
1100.92	-3.09
1101.339	-5.39
1101.758	-4.39
