Data from 20171114-ORNL-Ar_H_NY_Subt18_08-06-28-104.txt Node
Date: Tue Nov 14 08:06:28 EST 2017
User: Ender
Spectrometer: HR+D1039
Trigger mode: 0
Integration Time (sec): 2.730000E-2
Scans to average: 10
Electric dark correction enabled: true
Nonlinearity correction enabled: false
Boxcar width: 0
XAxis mode: Wavelengths
Number of Pixels in Spectrum: 2048
>>>>>Begin Spectral Data<<<<<
187.836	-0.24
188.309	-0.24
188.782	-0.24
189.255	-1.14
189.728	-3.94
190.201	4.06
190.674	6.26
191.147	3.46
191.619	-5.64
192.092	-0.54
192.565	6.36
193.038	1.66
193.511	4.76
193.984	0.56
194.456	-2.24
194.929	-2.04
195.402	-10.74
195.874	-0.54
196.347	-0.24
196.82	-7.14
197.292	7.86
197.765	-1.14
198.237	-3.94
198.71	2.76
199.182	-4.04
199.655	4.76
200.127	1.16
200.6	-1.44
201.072	1.26
201.544	-1.84
202.017	-1.24
202.489	-3.04
202.961	-0.84
203.433	-3.64
203.906	-5.54
204.378	-2.94
204.85	-6.04
205.322	-6.04
205.794	-2.04
206.266	-7.74
206.739	-0.34
207.211	3.96
207.683	-1.94
208.155	-7.14
208.627	-8.04
209.099	-3.44
209.57	-8.94
210.042	-2.64
210.514	-6.14
210.986	-2.04
211.458	-9.14
211.93	-4.44
212.402	3.56
212.873	-7.44
213.345	-5.14
213.817	-14.24
214.288	-4.14
214.76	-10.44
215.232	-0.44
215.703	-1.24
216.175	-3.14
216.646	-1.24
217.118	-3.54
217.589	-4.14
218.061	-6.44
218.532	-6.44
219.004	-4.84
219.475	0.36
219.946	-1.14
220.418	2.46
220.889	10.06
221.36	0.46
221.832	-0.64
222.303	-2.64
222.774	-0.04
223.245	-5.44
223.717	-5.94
224.188	-0.74
224.659	-4.44
225.13	-3.34
225.601	-0.74
226.072	-0.64
226.543	-0.64
227.014	0.16
227.485	1.86
227.956	4.76
228.427	1.16
228.898	1.36
229.369	1.86
229.839	0.06
230.31	-5.54
230.781	6.06
231.252	1.76
231.722	-4.44
232.193	4.66
232.664	-0.94
233.135	1.16
233.605	-2.84
234.076	-8.94
234.546	1.46
235.017	5.66
235.487	5.06
235.958	3.66
236.428	-0.34
236.899	4.46
237.369	6.26
237.84	-1.84
238.31	10.26
238.78	8.56
239.251	0.76
239.721	5.66
240.191	-2.44
240.662	-3.34
241.132	0.76
241.602	-1.34
242.072	4.96
242.542	6.76
243.013	-0.84
243.483	7.66
243.953	5.86
244.423	4.16
244.893	-1.94
245.363	10.06
245.833	-0.44
246.303	-2.74
246.773	5.46
247.243	4.16
247.712	3.16
248.182	7.66
248.652	6.86
249.122	0.56
249.592	15.36
250.061	24.86
250.531	33.46
251.001	19.46
251.471	20.56
251.94	19.66
252.41	6.46
252.879	-1.14
253.349	12.36
253.818	5.96
254.288	0.16
254.757	4.86
255.227	-0.94
255.696	0.66
256.166	10.36
256.635	6.96
257.105	8.86
257.574	5.36
258.043	13.46
258.513	9.96
258.982	18.66
259.451	12.56
259.92	13.96
260.389	12.06
260.859	13.86
261.328	17.56
261.797	12.46
262.266	8.96
262.735	13.96
263.204	9.56
263.673	4.46
264.142	4.86
264.611	-0.54
265.08	5.46
265.549	3.66
266.018	7.26
266.487	-0.04
266.955	0.26
267.424	-0.84
267.893	6.76
268.362	-2.44
268.83	4.86
269.299	9.06
269.768	4.66
270.236	8.76
270.705	5.86
271.174	8.46
271.642	8.26
272.111	13.56
272.579	20.66
273.048	25.06
273.516	28.66
273.985	27.26
274.453	25.76
274.922	24.36
275.39	8.76
275.858	10.26
276.327	8.46
276.795	16.56
277.263	14.46
277.731	22.96
278.2	51.76
278.668	60.16
279.136	50.76
279.604	23.06
280.072	14.76
280.54	14.16
281.008	10.36
281.477	16.56
281.945	14.76
282.413	13.46
282.881	14.36
283.348	11.96
283.816	13.56
284.284	10.16
284.752	23.86
285.22	12.36
285.688	14.26
286.156	17.96
286.623	41.86
287.091	45.46
287.559	30.26
288.026	22.06
288.494	23.26
288.962	4.56
289.429	10.66
289.897	20.96
290.364	20.76
290.832	19.96
291.3	17.06
291.767	13.76
292.234	22.26
292.702	17.76
293.169	22.76
293.637	29.46
294.104	24.46
294.571	13.76
295.039	13.36
295.506	10.76
295.973	20.86
296.44	16.26
296.908	16.06
297.375	17.16
297.842	21.26
298.309	17.46
298.776	16.26
299.243	21.86
299.71	17.16
300.177	15.46
300.644	22.46
301.111	22.26
301.578	17.66
302.045	19.16
302.512	23.66
302.979	30.06
303.446	27.16
303.913	21.36
304.379	27.06
304.846	30.36
305.313	23.56
305.78	23.76
306.246	27.66
306.713	23.16
307.18	28.56
307.646	31.86
308.113	31.66
308.579	24.76
309.046	19.76
309.512	26.56
309.979	20.96
310.445	26.66
310.912	32.76
311.378	33.06
311.845	32.26
312.311	31.96
312.777	36.36
313.244	27.96
313.71	36.36
314.176	30.16
314.642	31.36
315.109	31.46
315.575	43.06
316.041	41.46
316.507	38.16
316.973	35.96
317.439	33.46
317.905	42.56
318.371	35.16
318.837	34.26
319.303	30.96
319.769	35.26
320.235	37.76
320.701	40.16
321.167	42.76
321.633	35.06
322.099	39.06
322.564	43.86
323.03	38.46
323.496	43.56
323.962	42.76
324.427	41.26
324.893	39.86
325.359	35.56
325.824	37.46
326.29	38.86
326.755	41.96
327.221	38.46
327.686	40.36
328.152	40.46
328.617	43.66
329.083	48.66
329.548	50.46
330.014	50.56
330.479	38.46
330.944	42.76
331.41	43.96
331.875	50.96
332.34	41.96
332.805	41.86
333.271	43.06
333.736	44.26
334.201	55.06
334.666	57.16
335.131	55.06
335.596	55.76
336.061	51.86
336.526	44.56
336.991	49.26
337.456	56.46
337.921	49.96
338.386	43.06
338.851	45.36
339.316	47.56
339.781	48.16
340.246	47.46
340.711	47.66
341.175	50.76
341.64	50.66
342.105	54.86
342.569	58.76
343.034	64.86
343.499	60.66
343.963	51.76
344.428	63.06
344.893	64.06
345.357	62.86
345.822	60.36
346.286	70.46
346.751	78.76
347.215	74.06
347.679	71.56
348.144	100.16
348.608	84.26
349.073	75.86
349.537	79.06
350.001	79.66
350.465	90.76
350.93	75.76
351.394	78.66
351.858	71.96
352.322	84.16
352.786	83.76
353.25	102.36
353.715	110.26
354.179	102.16
354.643	128.36
355.107	127.46
355.571	102.86
356.035	109.26
356.498	124.96
356.962	127.96
357.426	138.66
357.89	118.46
358.354	93.86
358.818	87.26
359.281	83.46
359.745	74.36
360.209	75.46
360.673	81.56
361.136	82.16
361.6	83.96
362.064	85.46
362.527	88.76
362.991	94.16
363.454	84.66
363.918	86.16
364.381	82.66
364.845	87.26
365.308	82.26
365.772	92.36
366.235	81.66
366.698	79.16
367.162	93.56
367.625	81.86
368.088	89.76
368.552	88.76
369.015	88.96
369.478	96.36
369.941	106.26
370.404	101.96
370.867	100.76
371.331	112.06
371.794	116.36
372.257	112.16
372.72	121.06
373.183	112.46
373.646	101.96
374.109	107.36
374.572	109.06
375.035	110.96
375.497	113.06
375.96	112.76
376.423	114.06
376.886	117.36
377.349	110.36
377.811	93.06
378.274	108.16
378.737	114.26
379.199	109.06
379.662	115.96
380.125	119.36
380.587	120.36
381.05	127.96
381.512	133.46
381.975	135.56
382.437	131.66
382.9	126.26
383.362	136.76
383.825	146.86
384.287	149.86
384.75	142.06
385.212	148.36
385.674	147.96
386.136	138.36
386.599	129.26
387.061	133.16
387.523	134.66
387.985	138.06
388.447	144.56
388.91	143.96
389.372	159.66
389.834	149.46
390.296	151.76
390.758	157.96
391.22	175.76
391.682	215.86
392.144	300.16
392.606	234.66
393.068	173.36
393.529	171.16
393.991	158.36
394.453	148.96
394.915	160.56
395.377	194.36
395.838	219.46
396.3	159.56
396.762	144.56
397.224	138.76
397.685	125.46
398.147	133.26
398.608	132.16
399.07	138.76
399.531	139.86
399.993	142.06
400.454	150.26
400.916	143.56
401.377	144.26
401.839	151.26
402.3	157.86
402.762	163.46
403.223	176.96
403.684	170.46
404.145	163.16
404.607	163.06
405.068	169.36
405.529	171.16
405.99	187.46
406.451	179.96
406.913	173.26
407.374	159.06
407.835	166.96
408.296	166.86
408.757	174.76
409.218	196.26
409.679	183.16
410.14	175.76
410.601	183.46
411.062	185.36
411.522	201.96
411.983	188.56
412.444	176.06
412.905	181.16
413.366	187.56
413.826	196.76
414.287	216.56
414.748	265.46
415.208	245.96
415.669	216.36
416.13	204.76
416.59	204.36
417.051	219.36
417.511	228.76
417.972	237.66
418.432	248.66
418.893	289.26
419.353	256.06
419.814	204.76
420.274	193.06
420.734	187.46
421.195	198.46
421.655	205.46
422.115	198.36
422.576	199.26
423.036	194.16
423.496	207.86
423.956	227.66
424.416	232.96
424.876	271.46
425.336	259.86
425.797	265.46
426.257	261.16
426.717	242.66
427.177	239.86
427.637	232.16
428.097	234.26
428.556	248.46
429.016	269.26
429.476	260.06
429.936	282.96
430.396	286.96
430.856	295.46
431.315	324.86
431.775	351.66
432.235	388.06
432.694	355.26
433.154	367.96
433.614	397.26
434.073	342.16
434.533	293.66
434.993	273.26
435.452	287.36
435.912	303.86
436.371	294.76
436.83	288.46
437.29	276.26
437.749	260.86
438.209	255.36
438.668	274.76
439.127	291.06
439.587	264.36
440.046	250.06
440.505	261.96
440.964	279.36
441.424	329.26
441.883	310.96
442.342	257.36
442.801	229.86
443.26	226.26
443.719	223.96
444.178	226.86
444.637	213.76
445.096	226.36
445.555	223.96
446.014	233.96
446.473	232.96
446.932	237.86
447.391	235.66
447.849	224.46
448.308	220.86
448.767	231.76
449.226	247.46
449.685	247.96
450.143	255.76
450.602	241.36
451.061	230.86
451.519	237.76
451.978	244.36
452.436	233.66
452.895	240.56
453.353	251.36
453.812	250.26
454.27	245.56
454.729	238.26
455.187	245.66
455.646	250.56
456.104	255.06
456.562	263.66
457.021	277.26
457.479	268.66
457.937	279.66
458.395	261.86
458.854	250.96
459.312	261.66
459.77	273.66
460.228	262.46
460.686	250.46
461.144	248.86
461.602	241.76
462.06	249.06
462.518	260.06
462.976	261.96
463.434	259.46
463.892	272.36
464.35	278.36
464.808	294.76
465.266	268.86
465.724	277.26
466.181	273.86
466.639	272.36
467.097	289.26
467.555	302.06
468.012	309.96
468.47	315.16
468.928	335.86
469.385	352.06
469.843	355.06
470.3	357.86
470.758	372.76
471.215	387.36
471.673	416.56
472.13	413.06
472.588	435.46
473.045	387.56
473.503	377.46
473.96	392.26
474.417	418.46
474.875	440.36
475.332	485.36
475.789	467.26
476.246	476.06
476.704	499.26
477.161	515.56
477.618	537.56
478.075	566.86
478.532	627.36
478.989	705.86
479.446	819.06
479.903	770.76
480.36	816.06
480.817	883.56
481.274	991.86
481.731	1085.56
482.188	1181.96
482.645	1324.16
483.102	1417.86
483.558	1569.96
484.015	1609.56
484.472	1577.36
484.929	1541.76
485.385	1489.66
485.842	1440.76
486.299	1382.46
486.755	1315.66
487.212	1101.56
487.668	934.06
488.125	865.56
488.582	790.06
489.038	753.96
489.494	721.36
489.951	690.56
490.407	677.76
490.864	653.26
491.32	655.96
491.776	655.76
492.233	655.96
492.689	615.06
493.145	611.16
493.602	599.96
494.058	617.06
494.514	626.76
494.97	649.26
495.426	661.26
495.882	633.06
496.338	626.56
496.794	630.96
497.251	618.66
497.707	645.26
498.163	646.06
498.618	655.46
499.074	656.06
499.53	684.86
499.986	675.46
500.442	657.26
500.898	633.76
501.354	632.26
501.809	637.76
502.265	645.96
502.721	665.96
503.177	677.16
503.632	675.16
504.088	687.06
504.543	718.96
504.999	710.46
505.455	666.16
505.91	642.86
506.366	627.46
506.821	630.86
507.277	631.26
507.732	632.06
508.187	631.66
508.643	636.36
509.098	636.56
509.553	651.46
510.009	658.26
510.464	681.16
510.919	695.66
511.375	700.26
511.83	721.86
512.285	738.26
512.74	771.66
513.195	789.46
513.65	774.56
514.105	781.66
514.56	782.56
515.015	805.46
515.47	823.06
515.925	800.76
516.38	797.26
516.835	801.86
517.29	802.56
517.745	783.96
518.2	771.46
518.655	741.96
519.109	749.56
519.564	750.66
520.019	743.76
520.474	737.66
520.928	733.16
521.383	730.66
521.838	707.96
522.292	724.26
522.747	716.56
523.201	707.26
523.656	710.36
524.11	697.96
524.565	697.16
525.019	707.06
525.474	707.36
525.928	701.06
526.382	701.96
526.837	706.86
527.291	701.46
527.745	699.86
528.2	702.66
528.654	702.16
529.108	684.56
529.562	700.86
530.016	687.76
530.47	699.26
530.925	706.36
531.379	709.26
531.833	716.36
532.287	708.86
532.741	709.06
533.195	704.96
533.649	716.96
534.103	735.56
534.556	723.26
535.01	715.66
535.464	713.06
535.918	726.26
536.372	732.26
536.826	731.16
537.279	715.36
537.733	721.36
538.187	727.26
538.64	715.86
539.094	729.56
539.548	730.26
540.001	724.56
540.455	725.76
540.908	735.56
541.362	753.26
541.815	754.66
542.269	761.26
542.722	769.66
543.175	776.46
543.629	769.56
544.082	791.06
544.536	802.36
544.989	791.56
545.442	804.06
545.895	800.26
546.349	798.86
546.802	797.06
547.255	808.26
547.708	811.86
548.161	813.76
548.614	823.56
549.067	832.36
549.52	832.56
549.973	822.16
550.426	813.46
550.879	803.36
551.332	802.86
551.785	819.06
552.238	818.46
552.691	825.06
553.144	836.26
553.596	856.66
554.049	858.56
554.502	899.26
554.955	924.06
555.407	919.76
555.86	901.76
556.313	899.36
556.765	886.56
557.218	884.16
557.67	900.16
558.123	876.76
558.576	877.36
559.028	879.46
559.48	896.46
559.933	875.56
560.385	844.26
560.838	814.46
561.29	797.46
561.742	792.26
562.195	763.66
562.647	775.56
563.099	788.36
563.551	779.36
564.004	782.46
564.456	783.36
564.908	770.16
565.36	752.76
565.812	740.46
566.264	729.96
566.716	723.36
567.168	720.76
567.62	733.16
568.072	702.16
568.524	693.06
568.976	693.76
569.428	671.56
569.88	682.46
570.332	682.96
570.784	687.36
571.235	686.26
571.687	694.36
572.139	706.46
572.59	719.86
573.042	712.26
573.494	716.26
573.945	707.76
574.397	686.56
574.849	687.26
575.3	695.86
575.752	694.36
576.203	689.16
576.655	680.46
577.106	679.66
577.557	667.36
578.009	668.06
578.46	668.06
578.912	669.56
579.363	665.86
579.814	666.66
580.265	666.96
580.717	667.16
581.168	679.76
581.619	679.46
582.07	690.36
582.521	679.66
582.972	683.76
583.423	688.56
583.875	684.26
584.326	698.66
584.777	752.06
585.227	826.56
585.678	928.66
586.129	1015.26
586.58	1091.06
587.031	1159.36
587.482	1328.86
587.933	1494.16
588.384	1301.06
588.834	980.76
589.285	808.36
589.736	785.66
590.186	783.26
590.637	768.56
591.088	748.56
591.538	746.36
591.989	732.26
592.439	726.26
592.89	720.26
593.34	710.16
593.791	710.56
594.241	709.16
594.692	708.76
595.142	704.36
595.593	694.86
596.043	716.36
596.493	721.26
596.943	723.96
597.394	723.46
597.844	716.36
598.294	734.46
598.744	763.86
599.195	781.66
599.645	824.46
600.095	856.16
600.545	915.16
600.995	977.06
601.445	1024.86
601.895	1098.96
602.345	1130.86
602.795	1116.36
603.245	1068.26
603.695	1013.56
604.145	955.06
604.594	917.76
605.044	870.66
605.494	798.46
605.944	756.76
606.393	746.86
606.843	733.86
607.293	736.26
607.743	735.16
608.192	755.56
608.642	762.76
609.091	766.36
609.541	766.96
609.99	778.26
610.44	778.76
610.889	726.56
611.339	700.76
611.788	689.96
612.238	707.96
612.687	729.86
613.136	725.46
613.586	739.46
614.035	738.36
614.484	758.06
614.933	762.36
615.383	761.36
615.832	748.26
616.281	727.36
616.73	680.66
617.179	672.26
617.628	659.16
618.077	635.46
618.526	628.06
618.975	625.36
619.424	621.16
619.873	609.96
620.322	622.26
620.771	598.26
621.22	614.36
621.669	591.66
622.118	584.76
622.567	586.56
623.015	581.86
623.464	583.66
623.913	564.96
624.361	554.46
624.81	558.26
625.259	554.06
625.707	553.26
626.156	565.26
626.604	566.56
627.053	558.16
627.501	556.36
627.95	571.36
628.398	582.56
628.847	571.06
629.295	576.16
629.744	577.26
630.192	560.46
630.64	572.76
631.089	575.46
631.537	584.36
631.985	580.36
632.433	599.36
632.881	611.66
633.33	661.56
633.778	638.26
634.226	566.46
634.674	570.16
635.122	581.56
635.57	602.36
636.018	628.46
636.466	584.26
636.914	551.26
637.362	580.56
637.81	577.46
638.258	580.76
638.705	576.06
639.153	603.96
639.601	625.16
640.049	651.56
640.497	663.96
640.944	696.56
641.392	646.06
641.84	614.96
642.287	599.76
642.735	576.56
643.182	572.76
643.63	574.16
644.078	580.46
644.525	585.06
644.973	598.96
645.42	605.76
645.867	633.16
646.315	639.16
646.762	661.76
647.21	708.76
647.657	717.86
648.104	757.16
648.551	777.06
648.999	843.76
649.446	920.16
649.893	1020.16
650.34	1163.76
650.787	1393.36
651.234	1725.96
651.682	2259.36
652.129	3102.36
652.576	4479.56
653.023	6609.96
653.47	9055.26
653.917	11305.86
654.363	13038.66
654.81	14389.96
655.257	13723.96
655.704	8980.56
656.151	5302.76
656.598	3430.66
657.044	2413.76
657.491	1867.36
657.938	1494.86
658.385	1240.36
658.831	1089.36
659.278	965.16
659.724	856.66
660.171	785.56
660.618	723.46
661.064	698.76
661.511	669.16
661.957	654.16
662.404	644.96
662.85	648.46
663.296	626.46
663.743	560.96
664.189	544.16
664.635	533.26
665.082	523.56
665.528	531.86
665.974	507.56
666.42	507.56
666.867	506.36
667.313	490.06
667.759	482.26
668.205	486.56
668.651	488.26
669.097	481.96
669.543	506.76
669.989	471.76
670.435	454.86
670.881	442.46
671.327	454.76
671.773	463.46
672.219	479.86
672.665	535.36
673.11	587.16
673.556	627.96
674.002	664.76
674.448	659.46
674.893	546.46
675.339	467.26
675.785	433.16
676.23	413.66
676.676	400.66
677.122	374.76
677.567	377.66
678.013	364.56
678.458	361.46
678.904	366.06
679.349	347.86
679.794	356.86
680.24	347.46
680.685	348.36
681.131	349.36
681.576	355.96
682.021	354.16
682.466	350.46
682.912	349.16
683.357	348.16
683.802	379.06
684.247	410.46
684.692	452.46
685.137	502.76
685.583	535.86
686.028	558.06
686.473	522.86
686.918	452.36
687.363	410.26
687.807	394.86
688.252	364.66
688.697	354.46
689.142	337.86
689.587	336.06
690.032	328.76
690.477	344.06
690.921	350.86
691.366	380.16
691.811	395.56
692.255	431.66
692.7	456.46
693.145	505.66
693.589	685.06
694.034	1126.06
694.478	1524.66
694.923	1722.06
695.367	2237.66
695.812	1179.56
696.256	491.76
696.701	367.66
697.145	344.86
697.59	324.96
698.034	323.86
698.478	328.26
698.922	328.76
699.367	326.56
699.811	339.26
700.255	359.56
700.699	384.86
701.143	420.56
701.588	483.76
702.032	509.66
702.476	510.96
702.92	488.86
703.364	484.46
703.808	631.86
704.252	1022.66
704.696	1439.56
705.14	1657.86
705.584	2108.76
706.027	1048.96
706.471	516.66
706.915	397.96
707.359	352.96
707.803	320.46
708.246	305.66
708.69	302.26
709.134	308.86
709.577	310.96
710.021	315.36
710.465	310.36
710.908	305.16
711.352	295.96
711.795	308.26
712.239	353.16
712.682	386.96
713.126	409.06
713.569	464.66
714.012	375.96
714.456	323.66
714.899	295.96
715.342	270.76
715.786	259.06
716.229	253.66
716.672	255.46
717.115	245.16
717.558	256.96
718.002	253.56
718.445	262.56
718.888	282.36
719.331	292.36
719.774	304.26
720.217	298.06
720.66	286.46
721.103	264.16
721.546	257.86
721.989	248.66
722.432	237.46
722.874	237.86
723.317	232.96
723.76	239.76
724.203	255.46
724.645	326.26
725.088	446.26
725.531	567.56
725.974	637.66
726.416	538.56
726.859	304.56
727.301	244.06
727.744	239.86
728.187	239.86
728.629	233.86
729.071	246.16
729.514	258.66
729.956	272.56
730.399	283.56
730.841	289.56
731.283	274.16
731.726	268.66
732.168	263.06
732.61	263.06
733.053	281.46
733.495	314.06
733.937	347.06
734.379	402.26
734.821	442.66
735.263	539.86
735.705	819.86
736.148	1562.66
736.59	2539.16
737.032	3019.86
737.474	2452.66
737.916	804.56
738.357	423.66
738.799	326.66
739.241	298.76
739.683	280.56
740.125	289.56
740.567	300.36
741.008	315.36
741.45	318.66
741.892	315.46
742.334	350.96
742.775	358.26
743.217	334.86
743.658	273.76
744.1	257.86
744.542	264.16
744.983	306.16
745.425	344.46
745.866	336.16
746.307	284.06
746.749	282.26
747.19	332.46
747.632	450.96
748.073	862.16
748.514	1831.46
748.956	2803.46
749.397	3516.16
749.838	2909.36
750.279	2925.06
750.72	1485.06
751.162	542.16
751.603	320.06
752.044	254.16
752.485	224.16
752.926	209.06
753.367	198.76
753.808	191.86
754.249	192.86
754.69	187.36
755.131	185.36
755.572	184.76
756.013	185.06
756.453	175.96
756.894	185.36
757.335	183.06
757.776	191.66
758.216	197.46
758.657	195.66
759.098	205.96
759.538	226.86
759.979	260.36
760.42	374.36
760.86	691.46
761.301	1794.26
761.741	4361.46
762.182	6367.96
762.622	4431.76
763.063	1286.56
763.503	540.76
763.943	344.86
764.384	343.46
764.824	406.66
765.264	436.16
765.705	303.46
766.145	213.36
766.585	188.36
767.025	175.96
767.465	186.26
767.906	245.76
768.346	316.16
768.786	344.96
769.226	262.46
769.666	314.16
770.106	616.06
770.546	1526.66
770.986	2623.56
771.426	2342.76
771.866	777.66
772.306	324.86
772.745	210.16
773.185	178.96
773.625	175.36
774.065	163.06
774.505	199.66
774.944	305.46
775.384	689.26
775.824	1218.66
776.263	1186.66
776.703	509.96
777.142	223.86
777.582	153.76
778.021	139.96
778.461	138.96
778.9	141.26
779.34	132.06
779.779	120.56
780.219	115.66
780.658	113.06
781.097	111.56
781.537	115.16
781.976	117.16
782.415	100.06
782.855	106.36
783.294	101.56
783.733	114.86
784.172	109.56
784.611	99.56
785.05	113.76
785.489	109.86
785.928	120.06
786.367	122.56
786.806	111.36
787.245	122.36
787.684	137.56
788.123	148.66
788.562	142.36
789.001	125.66
789.44	123.96
789.879	117.66
790.317	116.16
790.756	128.46
791.195	127.46
791.634	144.06
792.072	206.56
792.511	366.66
792.95	997.16
793.388	2133.66
793.827	1905.36
794.265	665.06
794.704	281.56
795.142	181.66
795.581	146.26
796.019	137.36
796.458	130.86
796.896	125.76
797.334	128.36
797.773	154.36
798.211	217.96
798.649	441.86
799.087	1015.46
799.526	1577.86
799.964	1993.86
800.402	1980.36
800.84	749.66
801.278	295.16
801.716	181.26
802.154	151.46
802.592	147.26
803.03	135.86
803.468	136.46
803.906	141.16
804.344	156.26
804.782	137.86
805.22	131.56
805.658	134.76
806.096	146.36
806.533	154.46
806.971	168.16
807.409	217.06
807.847	318.96
808.284	653.76
808.722	1816.96
809.16	3237.36
809.597	3067.46
810.035	5334.36
810.472	5691.36
810.91	2061.56
811.347	776.46
811.785	397.56
812.222	249.36
812.66	191.16
813.097	161.96
813.535	138.26
813.972	126.96
814.409	120.96
814.846	106.46
815.284	109.46
815.721	101.06
816.158	108.26
816.595	120.66
817.032	176.46
817.47	200.46
817.907	171.86
818.344	156.46
818.781	117.06
819.218	102.86
819.655	128.46
820.092	182.96
820.529	212.76
820.966	177.76
821.403	130.46
821.839	107.96
822.276	103.46
822.713	132.36
823.15	137.56
823.587	116.96
824.023	143.46
824.46	293.16
824.897	890.16
825.333	1342.36
825.77	576.86
826.206	233.26
826.643	134.96
827.08	99.96
827.516	81.06
827.953	79.96
828.389	83.36
828.825	73.46
829.262	74.66
829.698	59.46
830.135	58.66
830.571	62.56
831.007	64.96
831.443	59.26
831.88	65.16
832.316	59.76
832.752	60.56
833.188	66.56
833.624	71.16
834.06	66.96
834.497	67.76
834.933	77.36
835.369	74.46
835.805	66.76
836.241	77.66
836.677	79.86
837.112	92.26
837.548	102.76
837.984	140.06
838.42	203.96
838.856	490.26
839.292	1488.56
839.727	2274.36
840.163	1043.96
840.599	910.96
841.034	1993.46
841.47	2112.66
841.906	767.46
842.341	331.26
842.777	231.96
843.212	322.76
843.648	319.76
844.083	152.46
844.519	101.66
844.954	75.56
845.39	60.96
845.825	59.76
846.261	64.66
846.696	57.76
847.131	54.56
847.566	64.56
848.002	54.36
848.437	60.06
848.872	58.06
849.307	63.06
849.742	88.26
850.177	180.66
850.613	540.86
851.048	865.36
851.483	376.16
851.918	157.56
852.353	87.86
852.788	62.16
853.223	58.46
853.657	59.06
854.092	46.96
854.527	42.06
854.962	41.26
855.397	53.76
855.832	55.76
856.266	41.76
856.701	53.56
857.136	41.06
857.57	43.96
858.005	53.06
858.44	54.86
858.874	45.56
859.309	55.96
859.743	43.96
860.178	46.76
860.612	38.36
861.047	54.06
861.481	71.26
861.915	67.16
862.35	45.86
862.784	39.56
863.218	37.06
863.653	27.56
864.087	49.36
864.521	51.26
864.955	68.56
865.39	155.16
865.824	168.76
866.258	110.76
866.692	157.66
867.126	169.36
867.56	104.56
867.994	56.96
868.428	39.76
868.862	47.06
869.296	52.46
869.73	59.36
870.164	51.26
870.598	51.16
871.031	43.76
871.465	36.16
871.899	28.76
872.333	22.76
872.766	29.96
873.2	24.16
873.634	31.36
874.067	29.16
874.501	27.96
874.935	37.76
875.368	36.06
875.802	24.86
876.235	27.36
876.669	29.66
877.102	26.06
877.535	30.66
877.969	23.76
878.402	31.06
878.836	19.76
879.269	27.76
879.702	25.06
880.135	26.86
880.569	25.16
881.002	26.06
881.435	28.96
881.868	21.16
882.301	21.46
882.734	19.46
883.167	23.86
883.601	20.76
884.034	25.16
884.467	22.06
884.899	27.36
885.332	17.96
885.765	12.66
886.198	19.46
886.631	22.56
887.064	16.76
887.497	23.06
887.929	24.76
888.362	18.76
888.795	11.26
889.228	17.56
889.66	19.06
890.093	21.26
890.526	19.56
890.958	22.06
891.391	24.56
891.823	29.46
892.256	17.96
892.688	16.56
893.121	18.36
893.553	18.06
893.985	23.56
894.418	20.46
894.85	13.26
895.282	21.06
895.715	14.46
896.147	25.36
896.579	20.16
897.011	15.46
897.444	17.56
897.876	16.06
898.308	18.76
898.74	13.76
899.172	16.06
899.604	24.96
900.036	19.86
900.468	12.26
900.9	15.76
901.332	19.76
901.764	16.76
902.196	24.26
902.628	24.16
903.06	22.16
903.491	28.46
903.923	24.26
904.355	22.26
904.787	24.86
905.218	25.56
905.65	17.16
906.082	10.76
906.513	12.36
906.945	16.46
907.376	19.06
907.808	24.96
908.239	28.56
908.671	24.96
909.102	23.66
909.534	29.26
909.965	43.66
910.397	96.06
910.828	305.26
911.259	464.26
911.691	212.46
912.122	103.66
912.553	59.56
912.984	37.96
913.415	28.36
913.847	26.86
914.278	21.26
914.709	12.86
915.14	21.66
915.571	18.06
916.002	13.56
916.433	20.16
916.864	18.66
917.295	12.66
917.726	20.96
918.157	15.96
918.587	30.06
919.018	22.16
919.449	29.06
919.88	28.86
920.311	34.56
920.741	47.06
921.172	171.76
921.603	152.06
922.033	73.76
922.464	45.56
922.895	27.06
923.325	21.76
923.756	15.76
924.186	19.86
924.617	25.26
925.047	43.86
925.478	52.86
925.908	47.46
926.338	28.16
926.769	19.16
927.199	29.76
927.629	9.26
928.06	16.26
928.49	16.16
928.92	20.66
929.35	15.56
929.78	16.86
930.21	12.66
930.641	8.56
931.071	4.06
931.501	1.56
931.931	10.66
932.361	9.46
932.791	7.46
933.221	11.56
933.651	10.36
934.08	14.66
934.51	36.66
934.94	14.86
935.37	13.66
935.8	11.96
936.229	3.96
936.659	10.56
937.089	5.06
937.519	24.26
937.948	22.26
938.378	13.86
938.807	12.46
939.237	13.46
939.666	11.46
940.096	-6.04
940.525	3.06
940.955	-0.24
941.384	6.56
941.814	-2.24
942.243	3.76
942.672	5.96
943.102	-2.44
943.531	0.36
943.96	10.46
944.39	7.06
944.819	4.76
945.248	4.56
945.677	5.36
946.106	1.56
946.535	2.96
946.964	4.46
947.393	5.26
947.822	2.66
948.251	-1.04
948.68	5.36
949.109	14.46
949.538	13.96
949.967	4.36
950.396	4.16
950.825	1.86
951.254	-2.44
951.682	-1.54
952.111	11.56
952.54	7.26
952.969	2.56
953.397	-9.54
953.826	2.56
954.254	-2.34
954.683	-2.24
955.112	-3.34
955.54	3.36
955.969	1.16
956.397	-2.84
956.826	-4.74
957.254	6.46
957.682	4.06
958.111	5.26
958.539	3.96
958.967	3.56
959.396	3.76
959.824	4.36
960.252	3.46
960.68	4.46
961.109	0.86
961.537	0.66
961.965	2.76
962.393	5.46
962.821	2.66
963.249	2.46
963.677	6.16
964.105	14.06
964.533	42.36
964.961	37.76
965.389	23.06
965.817	6.96
966.245	1.76
966.672	-1.04
967.1	-5.54
967.528	5.16
967.956	0.66
968.383	-0.34
968.811	0.96
969.239	1.46
969.666	-2.04
970.094	2.16
970.522	3.06
970.949	-0.84
971.377	-4.94
971.804	-3.14
972.232	-0.44
972.659	-0.84
973.087	-3.14
973.514	-7.74
973.941	-3.34
974.369	7.06
974.796	0.16
975.223	2.86
975.651	0.56
976.078	0.46
976.505	0.86
976.932	8.16
977.359	12.06
977.786	16.86
978.214	1.86
978.641	1.76
979.068	-6.54
979.495	-1.14
979.922	2.66
980.349	-1.34
980.776	3.56
981.202	-2.24
981.629	8.66
982.056	9.06
982.483	-6.34
982.91	-0.44
983.337	-4.84
983.763	2.76
984.19	-5.74
984.617	-1.64
985.043	-3.64
985.47	-4.24
985.897	-6.84
986.323	-3.44
986.75	3.96
987.176	0.86
987.603	1.56
988.029	-2.64
988.456	0.26
988.882	8.56
989.308	-1.74
989.735	-6.94
990.161	-1.14
990.587	-3.44
991.014	2.46
991.44	7.26
991.866	2.16
992.292	-5.94
992.719	-4.44
993.145	7.76
993.571	-7.44
993.997	-0.54
994.423	-1.14
994.849	-5.94
995.275	0.56
995.701	5.46
996.127	-4.34
996.553	6.26
996.979	-2.54
997.405	1.06
997.83	-6.84
998.256	-8.04
998.682	-3.44
999.108	-11.44
999.534	0.86
999.959	-2.84
1000.385	0.16
1000.811	0.16
1001.236	-3.94
1001.662	-9.94
1002.087	-6.44
1002.513	1.46
1002.938	0.66
1003.364	-3.44
1003.789	-4.04
1004.215	3.16
1004.64	1.76
1005.066	3.16
1005.491	3.76
1005.916	0.76
1006.342	-2.24
1006.767	-10.74
1007.192	3.06
1007.617	3.76
1008.042	-2.94
1008.468	-5.34
1008.893	-7.44
1009.318	2.96
1009.743	0.16
1010.168	1.46
1010.593	4.56
1011.018	-5.34
1011.443	-0.94
1011.868	1.16
1012.293	-3.24
1012.718	-5.54
1013.143	-1.14
1013.567	-0.24
1013.992	-0.24
1014.417	-9.64
1014.842	2.96
1015.267	-4.54
1015.691	-3.94
1016.116	12.16
1016.541	-4.54
1016.965	7.36
1017.39	1.16
1017.814	1.56
1018.239	-6.84
1018.663	-3.14
1019.088	-7.14
1019.512	-6.34
1019.937	-1.44
1020.361	-7.04
1020.785	-8.04
1021.21	-1.44
1021.634	0.96
1022.058	0.16
1022.483	7.46
1022.907	-4.14
1023.331	0.76
1023.755	4.36
1024.179	1.86
1024.604	-4.64
1025.028	-5.14
1025.452	-4.04
1025.876	-1.04
1026.3	-0.64
1026.724	-11.54
1027.148	-4.14
1027.572	-8.24
1027.996	-5.84
1028.42	-3.94
1028.843	-6.34
1029.267	-7.04
1029.691	-0.34
1030.115	-5.94
1030.539	-6.24
1030.962	-6.04
1031.386	-4.64
1031.81	-2.44
1032.233	1.56
1032.657	2.26
1033.08	-1.64
1033.504	-5.94
1033.927	-7.84
1034.351	-2.44
1034.774	-0.94
1035.198	-0.04
1035.621	-4.84
1036.045	-2.34
1036.468	-1.04
1036.891	-5.34
1037.315	-6.44
1037.738	-8.84
1038.161	2.36
1038.584	-5.34
1039.008	-2.14
1039.431	-3.74
1039.854	-4.24
1040.277	-7.24
1040.7	-16.24
1041.123	3.56
1041.546	-9.54
1041.969	-7.74
1042.392	-1.24
1042.815	-3.64
1043.238	-3.84
1043.661	-4.54
1044.084	-7.14
1044.507	-4.64
1044.93	-5.34
1045.352	-2.74
1045.775	-1.34
1046.198	-4.54
1046.621	-3.84
1047.043	-4.04
1047.466	8.86
1047.889	0.46
1048.311	-0.64
1048.734	-2.54
1049.156	-3.64
1049.579	-3.54
1050.001	-2.24
1050.424	3.16
1050.846	-5.54
1051.269	-1.84
1051.691	-3.84
1052.113	-5.54
1052.536	-1.24
1052.958	1.16
1053.38	-3.24
1053.802	-3.54
1054.225	5.16
1054.647	-4.74
1055.069	-2.14
1055.491	2.86
1055.913	-6.94
1056.335	-1.54
1056.757	-4.24
1057.179	-5.84
1057.601	-8.94
1058.023	-0.94
1058.445	-5.14
1058.867	-7.94
1059.289	-4.64
1059.711	-6.64
1060.133	3.36
1060.555	-3.94
1060.976	-3.24
1061.398	-6.44
1061.82	-2.54
1062.241	-5.84
1062.663	-4.74
1063.085	-4.84
1063.506	-2.34
1063.928	-5.54
1064.35	-4.04
1064.771	-8.74
1065.193	-6.14
1065.614	-7.34
1066.035	-3.44
1066.457	1.46
1066.878	3.56
1067.3	-6.14
1067.721	-3.74
1068.142	-7.64
1068.564	-8.64
1068.985	-2.54
1069.406	-5.34
1069.827	-0.54
1070.248	1.56
1070.67	-3.74
1071.091	-3.14
1071.512	-1.64
1071.933	-5.44
1072.354	-6.64
1072.775	-2.54
1073.196	-5.74
1073.617	-2.84
1074.038	-9.94
1074.459	-1.94
1074.88	-7.24
1075.3	-0.14
1075.721	-6.24
1076.142	1.16
1076.563	4.46
1076.983	-5.74
1077.404	-6.44
1077.825	-3.64
1078.246	-0.24
1078.666	-8.94
1079.087	-5.04
1079.507	-4.54
1079.928	4.26
1080.348	-2.54
1080.769	-7.64
1081.189	3.66
1081.61	-0.14
1082.03	-4.64
1082.451	-3.34
1082.871	3.36
1083.291	-2.74
1083.711	-10.14
1084.132	-9.04
1084.552	-8.24
1084.972	-3.64
1085.392	-3.84
1085.813	-4.94
1086.233	-3.94
1086.653	-4.34
1087.073	-2.54
1087.493	-5.34
1087.913	-7.04
1088.333	-3.44
1088.753	-4.24
1089.173	3.56
1089.593	-0.54
1090.013	4.26
1090.433	0.56
1090.852	-1.34
1091.272	-3.64
1091.692	0.46
1092.112	-5.74
1092.531	-5.64
1092.951	-13.94
1093.371	2.36
1093.79	7.66
1094.21	-3.94
1094.63	-6.54
1095.049	-5.84
1095.469	-4.74
1095.888	-1.04
1096.308	2.46
1096.727	3.36
1097.146	-4.84
1097.566	-0.54
1097.985	-4.54
1098.405	-1.04
1098.824	2.26
1099.243	-8.24
1099.662	-9.04
1100.082	1.96
1100.501	-4.64
1100.92	-2.94
1101.339	0.26
1101.758	-4.04
