Data from 20171114-ORNL-Ar_H_NY_Subt18_08-09-20-684.txt Node
Date: Tue Nov 14 08:09:20 EST 2017
User: Ender
Spectrometer: HR+D1039
Trigger mode: 0
Integration Time (sec): 2.730000E-2
Scans to average: 10
Electric dark correction enabled: true
Nonlinearity correction enabled: false
Boxcar width: 0
XAxis mode: Wavelengths
Number of Pixels in Spectrum: 2048
>>>>>Begin Spectral Data<<<<<
187.836	-8.59
188.309	-8.59
188.782	-8.59
189.255	2.11
189.728	-1.29
190.201	3.11
190.674	1.61
191.147	-1.79
191.619	-7.39
192.092	2.01
192.565	5.41
193.038	-0.39
193.511	5.21
193.984	-4.29
194.456	-2.89
194.929	0.41
195.402	0.41
195.874	6.31
196.347	-5.69
196.82	-2.19
197.292	3.61
197.765	-0.29
198.237	-3.09
198.71	3.31
199.182	-4.19
199.655	-0.49
200.127	3.81
200.6	2.81
201.072	1.01
201.544	-5.69
202.017	-2.89
202.489	3.01
202.961	-2.09
203.433	-6.49
203.906	-4.99
204.378	-2.29
204.85	-9.69
205.322	-14.99
205.794	-1.49
206.266	-5.29
206.739	-7.49
207.211	1.61
207.683	-6.09
208.155	-13.29
208.627	-2.09
209.099	-2.79
209.57	-9.59
210.042	-5.29
210.514	-2.69
210.986	2.41
211.458	-8.69
211.93	0.11
212.402	-0.99
212.873	-7.59
213.345	-6.79
213.817	-13.49
214.288	-6.89
214.76	-9.29
215.232	-2.99
215.703	-6.49
216.175	-3.49
216.646	-8.39
217.118	-7.09
217.589	-5.09
218.061	-0.89
218.532	-7.79
219.004	-2.49
219.475	0.61
219.946	-2.89
220.418	-7.09
220.889	2.31
221.36	3.91
221.832	-3.29
222.303	-6.99
222.774	-0.09
223.245	-8.79
223.717	-4.79
224.188	-9.99
224.659	-3.29
225.13	-5.39
225.601	-4.19
226.072	-0.89
226.543	4.31
227.014	-1.29
227.485	-4.89
227.956	-6.39
228.427	-2.59
228.898	3.01
229.369	3.41
229.839	-3.29
230.31	-13.49
230.781	6.01
231.252	-4.29
231.722	-6.99
232.193	-0.89
232.664	-3.59
233.135	-2.69
233.605	-3.39
234.076	-7.69
234.546	-2.59
235.017	3.11
235.487	-6.99
235.958	-2.29
236.428	-7.99
236.899	0.01
237.369	-4.49
237.84	-7.39
238.31	3.21
238.78	-2.19
239.251	-6.49
239.721	-1.49
240.191	0.21
240.662	-0.49
241.132	-2.99
241.602	-3.89
242.072	-6.29
242.542	-0.89
243.013	-5.79
243.483	0.31
243.953	-3.29
244.423	0.91
244.893	-10.09
245.363	0.61
245.833	-1.99
246.303	-10.79
246.773	-2.99
247.243	-5.89
247.712	-1.89
248.182	0.81
248.652	-0.09
249.122	-11.69
249.592	-3.59
250.061	5.61
250.531	8.31
251.001	6.21
251.471	-0.59
251.94	11.21
252.41	-1.79
252.879	-4.19
253.349	9.41
253.818	1.61
254.288	4.11
254.757	-2.49
255.227	-3.29
255.696	-6.79
256.166	3.51
256.635	1.11
257.105	4.51
257.574	-2.09
258.043	-1.59
258.513	-7.29
258.982	1.61
259.451	2.01
259.92	3.31
260.389	3.01
260.859	8.81
261.328	3.01
261.797	1.21
262.266	-1.19
262.735	1.91
263.204	-7.09
263.673	2.11
264.142	-0.59
264.611	-6.79
265.08	-7.79
265.549	-4.39
266.018	2.31
266.487	-5.49
266.955	-6.19
267.424	-5.59
267.893	4.91
268.362	0.71
268.83	3.31
269.299	4.11
269.768	2.51
270.236	0.31
270.705	-3.09
271.174	-2.59
271.642	-5.59
272.111	5.21
272.579	-0.19
273.048	0.21
273.516	3.71
273.985	7.41
274.453	2.61
274.922	12.71
275.39	2.01
275.858	-2.79
276.327	1.51
276.795	4.81
277.263	3.41
277.731	0.71
278.2	2.91
278.668	4.41
279.136	6.71
279.604	-0.69
280.072	5.81
280.54	5.01
281.008	1.31
281.477	4.61
281.945	3.61
282.413	10.31
282.881	0.81
283.348	-0.69
283.816	6.91
284.284	2.31
284.752	14.01
285.22	5.71
285.688	12.11
286.156	3.41
286.623	5.51
287.091	3.51
287.559	5.61
288.026	12.81
288.494	7.11
288.962	-4.79
289.429	7.11
289.897	13.31
290.364	9.01
290.832	9.91
291.3	7.31
291.767	12.31
292.234	15.81
292.702	6.81
293.169	6.61
293.637	11.31
294.104	10.21
294.571	0.01
295.039	4.41
295.506	5.61
295.973	12.31
296.44	9.61
296.908	6.11
297.375	5.21
297.842	11.01
298.309	12.71
298.776	4.01
299.243	18.11
299.71	2.31
300.177	16.11
300.644	11.31
301.111	11.81
301.578	11.31
302.045	3.41
302.512	20.31
302.979	8.51
303.446	13.31
303.913	13.11
304.379	16.81
304.846	18.81
305.313	15.21
305.78	12.71
306.246	16.11
306.713	20.71
307.18	14.61
307.646	17.91
308.113	10.21
308.579	12.51
309.046	18.81
309.512	14.81
309.979	10.01
310.445	19.01
310.912	20.91
311.378	17.11
311.845	22.11
312.311	24.51
312.777	22.31
313.244	23.11
313.71	24.11
314.176	22.31
314.642	9.71
315.109	22.11
315.575	23.61
316.041	31.41
316.507	19.41
316.973	30.21
317.439	19.11
317.905	22.21
318.371	28.91
318.837	22.81
319.303	25.71
319.769	15.81
320.235	21.71
320.701	23.41
321.167	26.31
321.633	24.81
322.099	28.31
322.564	34.61
323.03	23.41
323.496	21.61
323.962	24.91
324.427	21.51
324.893	27.21
325.359	30.61
325.824	31.91
326.29	22.91
326.755	27.31
327.221	31.61
327.686	26.91
328.152	34.21
328.617	35.81
329.083	41.41
329.548	42.51
330.014	37.81
330.479	26.21
330.944	26.41
331.41	26.51
331.875	32.91
332.34	33.21
332.805	34.21
333.271	25.11
333.736	28.31
334.201	38.81
334.666	43.41
335.131	41.91
335.596	38.31
336.061	34.61
336.526	29.71
336.991	38.91
337.456	43.11
337.921	42.21
338.386	34.51
338.851	27.81
339.316	42.01
339.781	35.41
340.246	44.51
340.711	37.01
341.175	42.11
341.64	34.21
342.105	40.91
342.569	51.61
343.034	41.21
343.499	42.61
343.963	43.31
344.428	51.91
344.893	47.11
345.357	53.01
345.822	44.01
346.286	54.71
346.751	55.01
347.215	54.11
347.679	57.21
348.144	60.21
348.608	56.31
349.073	52.21
349.537	55.11
350.001	61.21
350.465	65.81
350.93	60.41
351.394	66.91
351.858	58.91
352.322	66.81
352.786	66.41
353.25	75.61
353.715	88.61
354.179	69.71
354.643	100.31
355.107	95.41
355.571	82.31
356.035	76.51
356.498	91.71
356.962	84.91
357.426	96.41
357.89	84.11
358.354	62.71
358.818	65.91
359.281	67.31
359.745	54.61
360.209	60.31
360.673	59.21
361.136	62.61
361.6	62.21
362.064	73.61
362.527	67.91
362.991	68.71
363.454	65.41
363.918	57.81
364.381	62.61
364.845	67.21
365.308	69.71
365.772	67.51
366.235	71.41
366.698	67.31
367.162	71.41
367.625	76.91
368.088	78.91
368.552	76.91
369.015	72.21
369.478	75.81
369.941	78.61
370.404	78.91
370.867	81.61
371.331	85.21
371.794	92.41
372.257	87.51
372.72	90.61
373.183	91.11
373.646	86.61
374.109	77.11
374.572	85.01
375.035	81.51
375.497	95.01
375.96	87.91
376.423	85.81
376.886	95.81
377.349	89.31
377.811	81.41
378.274	90.61
378.737	92.71
379.199	89.21
379.662	97.01
380.125	98.21
380.587	88.81
381.05	95.01
381.512	96.01
381.975	111.71
382.437	105.91
382.9	108.91
383.362	104.71
383.825	111.01
384.287	105.61
384.75	103.81
385.212	110.11
385.674	114.11
386.136	116.21
386.599	108.81
387.061	116.01
387.523	107.31
387.985	113.71
388.447	116.21
388.91	112.91
389.372	117.51
389.834	116.01
390.296	110.51
390.758	116.81
391.22	124.31
391.682	124.91
392.144	134.71
392.606	131.71
393.068	126.21
393.529	134.31
393.991	126.01
394.453	118.81
394.915	119.91
395.377	120.41
395.838	129.71
396.3	127.91
396.762	122.41
397.224	124.71
397.685	116.01
398.147	119.31
398.608	125.01
399.07	121.21
399.531	117.21
399.993	128.81
400.454	145.41
400.916	134.61
401.377	136.01
401.839	131.21
402.3	140.81
402.762	149.71
403.223	163.81
403.684	156.81
404.145	149.61
404.607	150.21
405.068	149.61
405.529	144.41
405.99	167.11
406.451	158.91
406.913	154.11
407.374	151.01
407.835	154.01
408.296	147.01
408.757	161.41
409.218	168.21
409.679	158.51
410.14	160.21
410.601	162.51
411.062	167.91
411.522	164.61
411.983	166.11
412.444	161.11
412.905	168.01
413.366	178.61
413.826	184.91
414.287	208.21
414.748	253.51
415.208	246.41
415.669	208.01
416.13	197.81
416.59	195.11
417.051	212.81
417.511	211.01
417.972	230.11
418.432	234.61
418.893	283.11
419.353	234.51
419.814	185.61
420.274	180.71
420.734	167.51
421.195	194.81
421.655	181.61
422.115	188.31
422.576	194.01
423.036	194.41
423.496	199.91
423.956	206.81
424.416	230.01
424.876	255.81
425.336	256.01
425.797	248.01
426.257	243.31
426.717	227.61
427.177	224.41
427.637	214.11
428.097	220.61
428.556	237.01
429.016	253.21
429.476	252.51
429.936	258.01
430.396	263.81
430.856	277.61
431.315	300.11
431.775	328.21
432.235	355.11
432.694	325.91
433.154	334.51
433.614	363.01
434.073	314.91
434.533	272.81
434.993	254.71
435.452	268.01
435.912	276.61
436.371	263.81
436.83	266.01
437.29	246.81
437.749	237.41
438.209	231.61
438.668	253.51
439.127	274.31
439.587	254.21
440.046	238.91
440.505	246.31
440.964	268.31
441.424	301.71
441.883	292.31
442.342	247.21
442.801	222.61
443.26	211.31
443.719	221.91
444.178	214.81
444.637	206.21
445.096	214.21
445.555	219.61
446.014	227.31
446.473	229.01
446.932	235.01
447.391	222.61
447.849	233.71
448.308	216.21
448.767	220.31
449.226	238.81
449.685	232.01
450.143	251.11
450.602	236.71
451.061	226.71
451.519	239.81
451.978	231.31
452.436	237.51
452.895	232.71
453.353	248.41
453.812	235.31
454.27	243.71
454.729	235.31
455.187	239.21
455.646	242.81
456.104	239.81
456.562	256.81
457.021	262.51
457.479	258.81
457.937	264.51
458.395	259.21
458.854	245.21
459.312	260.31
459.77	276.51
460.228	257.01
460.686	248.91
461.144	251.41
461.602	245.81
462.06	241.41
462.518	264.51
462.976	248.71
463.434	258.91
463.892	268.31
464.35	276.21
464.808	289.01
465.266	267.01
465.724	272.71
466.181	266.11
466.639	276.71
467.097	294.11
467.555	311.81
468.012	304.11
468.47	315.81
468.928	326.41
469.385	336.31
469.843	347.51
470.3	339.21
470.758	362.51
471.215	378.01
471.673	406.81
472.13	401.81
472.588	411.11
473.045	369.61
473.503	381.61
473.96	392.51
474.417	401.51
474.875	431.01
475.332	465.21
475.789	458.11
476.246	457.21
476.704	484.51
477.161	502.91
477.618	520.01
478.075	547.61
478.532	601.21
478.989	667.71
479.446	762.91
479.903	732.61
480.36	765.91
480.817	816.11
481.274	897.31
481.731	984.51
482.188	1062.51
482.645	1170.71
483.102	1261.41
483.558	1380.91
484.015	1427.81
484.472	1390.51
484.929	1360.21
485.385	1329.91
485.842	1287.91
486.299	1236.31
486.755	1211.51
487.212	1019.21
487.668	868.41
488.125	805.21
488.582	742.01
489.038	715.61
489.494	681.41
489.951	668.31
490.407	648.21
490.864	640.71
491.32	642.81
491.776	634.91
492.233	650.81
492.689	608.01
493.145	603.11
493.602	598.11
494.058	611.21
494.514	601.31
494.97	636.71
495.426	637.21
495.882	619.71
496.338	603.91
496.794	611.21
497.251	615.31
497.707	637.21
498.163	621.91
498.618	633.31
499.074	630.41
499.53	667.51
499.986	669.31
500.442	645.41
500.898	621.61
501.354	611.71
501.809	620.61
502.265	630.61
502.721	628.41
503.177	640.51
503.632	644.41
504.088	646.71
504.543	665.01
504.999	693.01
505.455	647.41
505.91	636.21
506.366	642.51
506.821	636.21
507.277	628.01
507.732	636.21
508.187	640.91
508.643	644.81
509.098	638.41
509.553	661.01
510.009	677.81
510.464	673.01
510.919	688.31
511.375	701.71
511.83	712.01
512.285	717.21
512.74	756.41
513.195	784.31
513.65	783.61
514.105	764.61
514.56	768.91
515.015	786.41
515.47	806.11
515.925	786.71
516.38	791.61
516.835	787.21
517.29	783.81
517.745	782.21
518.2	771.71
518.655	752.21
519.109	755.21
519.564	738.61
520.019	736.11
520.474	726.41
520.928	737.71
521.383	710.01
521.838	721.61
522.292	719.41
522.747	714.41
523.201	725.01
523.656	703.71
524.11	708.61
524.565	709.61
525.019	692.11
525.474	699.21
525.928	703.31
526.382	705.51
526.837	704.91
527.291	702.11
527.745	703.01
528.2	706.71
528.654	689.41
529.108	689.51
529.562	696.01
530.016	699.51
530.47	704.11
530.925	690.91
531.379	698.71
531.833	702.91
532.287	705.91
532.741	702.41
533.195	707.81
533.649	712.91
534.103	718.01
534.556	712.01
535.01	711.41
535.464	710.01
535.918	725.91
536.372	729.71
536.826	718.21
537.279	707.31
537.733	718.61
538.187	713.61
538.64	715.61
539.094	734.21
539.548	732.81
540.001	734.71
540.455	740.11
540.908	745.41
541.362	744.21
541.815	754.11
542.269	770.91
542.722	772.31
543.175	786.41
543.629	770.41
544.082	796.51
544.536	797.01
544.989	800.11
545.442	808.81
545.895	803.71
546.349	810.01
546.802	812.01
547.255	811.51
547.708	818.41
548.161	835.51
548.614	841.91
549.067	836.61
549.52	841.81
549.973	828.51
550.426	823.81
550.879	805.01
551.332	823.71
551.785	822.41
552.238	824.31
552.691	838.61
553.144	849.91
553.596	870.21
554.049	872.81
554.502	909.51
554.955	927.21
555.407	923.41
555.86	911.51
556.313	915.61
556.765	901.61
557.218	902.41
557.67	885.11
558.123	887.61
558.576	894.91
559.028	898.71
559.48	892.11
559.933	890.51
560.385	858.81
560.838	829.11
561.29	798.31
561.742	810.91
562.195	786.91
562.647	786.11
563.099	787.81
563.551	796.51
564.004	795.41
564.456	790.91
564.908	771.31
565.36	758.61
565.812	746.91
566.264	731.61
566.716	733.91
567.168	720.81
567.62	726.21
568.072	705.81
568.524	710.41
568.976	700.51
569.428	696.11
569.88	695.21
570.332	701.61
570.784	706.31
571.235	706.01
571.687	719.71
572.139	717.71
572.59	728.91
573.042	728.41
573.494	726.91
573.945	736.51
574.397	701.81
574.849	717.41
575.3	698.01
575.752	700.81
576.203	693.61
576.655	701.61
577.106	686.91
577.557	684.91
578.009	687.21
578.46	689.01
578.912	681.91
579.363	686.71
579.814	680.31
580.265	674.91
580.717	685.11
581.168	693.31
581.619	691.81
582.07	692.11
582.521	686.21
582.972	688.81
583.423	692.31
583.875	695.71
584.326	699.31
584.777	709.61
585.227	734.01
585.678	742.61
586.129	770.11
586.58	773.71
587.031	811.81
587.482	836.11
587.933	864.11
588.384	843.91
588.834	803.61
589.285	786.71
589.736	787.81
590.186	790.01
590.637	785.61
591.088	754.11
591.538	747.51
591.989	748.31
592.439	750.01
592.89	732.81
593.34	734.21
593.791	730.51
594.241	718.21
594.692	713.01
595.142	714.31
595.593	707.71
596.043	730.91
596.493	716.51
596.943	729.21
597.394	744.31
597.844	737.21
598.294	751.61
598.744	772.61
599.195	808.21
599.645	845.01
600.095	889.61
600.545	942.31
600.995	998.71
601.445	1066.41
601.895	1115.41
602.345	1169.71
602.795	1147.71
603.245	1109.51
603.695	1039.11
604.145	988.01
604.594	938.71
605.044	889.11
605.494	819.81
605.944	784.31
606.393	775.61
606.843	746.71
607.293	750.01
607.743	736.71
608.192	759.61
608.642	766.31
609.091	778.41
609.541	783.41
609.99	779.21
610.44	787.51
610.889	737.01
611.339	710.41
611.788	700.01
612.238	711.51
612.687	718.51
613.136	712.91
613.586	730.41
614.035	717.41
614.484	732.01
614.933	728.41
615.383	727.21
615.832	722.91
616.281	715.51
616.73	686.51
617.179	666.31
617.628	657.91
618.077	642.41
618.526	638.51
618.975	623.41
619.424	636.21
619.873	628.11
620.322	636.11
620.771	627.51
621.22	622.81
621.669	609.11
622.118	597.01
622.567	595.41
623.015	580.31
623.464	590.21
623.913	571.71
624.361	576.81
624.81	564.31
625.259	569.01
625.707	563.91
626.156	582.31
626.604	583.91
627.053	585.51
627.501	575.01
627.95	581.91
628.398	594.01
628.847	585.81
629.295	596.11
629.744	591.91
630.192	581.61
630.64	577.81
631.089	561.61
631.537	555.51
631.985	544.31
632.433	557.31
632.881	532.51
633.33	541.51
633.778	545.81
634.226	538.21
634.674	552.61
635.122	560.21
635.57	564.11
636.018	576.41
636.466	574.41
636.914	564.91
637.362	588.11
637.81	580.11
638.258	595.51
638.705	597.31
639.153	629.31
639.601	638.91
640.049	661.21
640.497	693.51
640.944	708.51
641.392	674.71
641.84	625.41
642.287	594.01
642.735	573.81
643.182	593.21
643.63	580.21
644.078	582.41
644.525	590.11
644.973	601.61
645.42	612.31
645.867	628.91
646.315	650.11
646.762	664.31
647.21	703.51
647.657	722.91
648.104	752.31
648.551	766.01
648.999	829.81
649.446	911.71
649.893	984.91
650.34	1126.71
650.787	1345.41
651.234	1661.41
651.682	2159.01
652.129	2933.21
652.576	4193.01
653.023	6086.31
653.47	8210.01
653.917	10087.31
654.363	11524.51
654.81	12636.31
655.257	11987.51
655.704	7943.21
656.151	4791.61
656.598	3138.81
657.044	2253.01
657.491	1752.81
657.938	1435.31
658.385	1206.11
658.831	1051.01
659.278	944.61
659.724	841.91
660.171	790.51
660.618	726.71
661.064	686.81
661.511	667.71
661.957	647.21
662.404	643.81
662.85	657.41
663.296	633.21
663.743	577.01
664.189	556.41
664.635	544.31
665.082	537.61
665.528	539.71
665.974	534.61
666.42	524.61
666.867	516.01
667.313	494.41
667.759	483.81
668.205	468.81
668.651	467.11
669.097	474.21
669.543	461.41
669.989	455.11
670.435	461.41
670.881	465.01
671.327	464.61
671.773	490.01
672.219	515.81
672.665	567.01
673.11	604.61
673.556	661.21
674.002	709.21
674.448	688.01
674.893	568.91
675.339	496.21
675.785	463.11
676.23	432.71
676.676	417.31
677.122	406.11
677.567	391.41
678.013	388.31
678.458	378.51
678.904	379.31
679.349	359.91
679.794	372.51
680.24	363.51
680.685	362.01
681.131	362.11
681.576	365.31
682.021	376.41
682.466	369.31
682.912	371.31
683.357	377.01
683.802	398.81
684.247	429.41
684.692	480.61
685.137	528.21
685.583	561.61
686.028	580.21
686.473	541.51
686.918	460.11
687.363	433.61
687.807	418.61
688.252	397.91
688.697	365.41
689.142	346.11
689.587	347.81
690.032	340.01
690.477	361.51
690.921	366.71
691.366	404.41
691.811	413.91
692.255	453.01
692.7	487.21
693.145	535.31
693.589	771.81
694.034	1245.71
694.478	1661.71
694.923	1834.61
695.367	2363.81
695.812	1262.91
696.256	532.91
696.701	390.21
697.145	359.31
697.59	348.31
698.034	333.11
698.478	341.21
698.922	328.21
699.367	344.31
699.811	355.21
700.255	365.41
700.699	403.91
701.143	449.31
701.588	505.21
702.032	530.71
702.476	543.71
702.92	509.21
703.364	526.41
703.808	703.81
704.252	1135.01
704.696	1580.51
705.14	1757.51
705.584	2224.91
706.027	1122.31
706.471	557.31
706.915	419.71
707.359	365.91
707.803	336.71
708.246	320.91
708.69	328.11
709.134	335.81
709.577	325.61
710.021	326.41
710.465	327.81
710.908	310.21
711.352	311.21
711.795	328.41
712.239	374.31
712.682	412.81
713.126	421.61
713.569	472.61
714.012	383.81
714.456	327.01
714.899	298.91
715.342	288.51
715.786	275.71
716.229	270.41
716.672	270.81
717.115	261.01
717.558	257.91
718.002	263.21
718.445	272.81
718.888	292.61
719.331	307.61
719.774	325.11
720.217	317.51
720.66	299.01
721.103	274.11
721.546	279.41
721.989	260.51
722.432	243.61
722.874	251.51
723.317	242.81
723.76	246.11
724.203	267.81
724.645	344.91
725.088	478.11
725.531	588.21
725.974	667.01
726.416	575.71
726.859	320.51
727.301	262.51
727.744	244.11
728.187	240.21
728.629	253.61
729.071	253.41
729.514	270.61
729.956	281.81
730.399	303.81
730.841	303.81
731.283	293.61
731.726	278.41
732.168	277.81
732.61	289.01
733.053	305.41
733.495	333.81
733.937	366.81
734.379	433.61
734.821	475.71
735.263	590.31
735.705	933.91
736.148	1769.51
736.59	2793.31
737.032	3196.01
737.474	2601.31
737.916	867.71
738.357	460.51
738.799	345.31
739.241	319.01
739.683	305.11
740.125	307.01
740.567	313.01
741.008	331.61
741.45	339.41
741.892	336.81
742.334	370.01
742.775	382.51
743.217	362.41
743.658	288.61
744.1	278.01
744.542	284.71
744.983	337.31
745.425	364.01
745.866	360.11
746.307	289.31
746.749	295.51
747.19	354.71
747.632	499.81
748.073	1006.41
748.514	2062.01
748.956	3044.21
749.397	3832.71
749.838	3176.21
750.279	3093.51
750.72	1597.61
751.162	592.01
751.603	337.61
752.044	272.71
752.485	226.11
752.926	225.41
753.367	208.91
753.808	206.61
754.249	203.51
754.69	195.41
755.131	197.61
755.572	191.21
756.013	197.11
756.453	194.11
756.894	201.71
757.335	201.51
757.776	208.21
758.216	211.51
758.657	206.91
759.098	215.11
759.538	242.91
759.979	281.81
760.42	418.41
760.86	799.31
761.301	2115.91
761.741	4891.61
762.182	6710.31
762.622	4760.41
763.063	1409.81
763.503	567.31
763.943	339.71
764.384	290.11
764.824	259.11
765.264	240.31
765.705	213.71
766.145	189.71
766.585	183.31
767.025	177.41
767.465	171.41
767.906	181.41
768.346	203.81
768.786	210.31
769.226	230.11
769.666	334.11
770.106	701.01
770.546	1746.91
770.986	2792.81
771.426	2455.11
771.866	848.61
772.306	348.91
772.745	225.31
773.185	181.81
773.625	162.81
774.065	154.51
774.505	173.91
774.944	218.31
775.384	387.21
775.824	614.41
776.263	581.81
776.703	294.61
777.142	164.71
777.582	132.81
778.021	128.81
778.461	130.71
778.9	132.11
779.34	132.31
779.779	119.61
780.219	114.51
780.658	117.71
781.097	120.51
781.537	117.91
781.976	111.81
782.415	112.51
782.855	113.81
783.294	105.21
783.733	116.51
784.172	107.71
784.611	113.51
785.05	116.21
785.489	118.71
785.928	124.81
786.367	122.81
786.806	130.71
787.245	130.11
787.684	140.51
788.123	151.51
788.562	145.51
789.001	137.91
789.44	128.81
789.879	129.01
790.317	124.91
790.756	136.61
791.195	136.21
791.634	157.01
792.072	220.41
792.511	405.21
792.95	1131.61
793.388	2235.71
793.827	1973.61
794.265	709.41
794.704	306.91
795.142	197.71
795.581	160.21
796.019	144.51
796.458	136.71
796.896	135.61
797.334	137.01
797.773	168.71
798.211	239.51
798.649	493.91
799.087	1120.91
799.526	1722.61
799.964	2180.01
800.402	2095.91
800.84	810.91
801.278	327.61
801.716	194.21
802.154	157.31
802.592	159.01
803.03	147.71
803.468	145.41
803.906	154.81
804.344	156.81
804.782	151.01
805.22	139.11
805.658	135.31
806.096	158.31
806.533	168.81
806.971	180.91
807.409	238.21
807.847	350.91
808.284	764.11
808.722	2089.41
809.16	3506.21
809.597	3489.31
810.035	5882.11
810.472	6002.01
810.91	2236.61
811.347	855.81
811.785	430.21
812.222	278.61
812.66	216.81
813.097	180.91
813.535	156.21
813.972	136.81
814.409	130.91
814.846	113.01
815.284	111.91
815.721	108.81
816.158	113.21
816.595	116.21
817.032	159.51
817.47	184.31
817.907	134.41
818.344	110.51
818.781	108.51
819.218	108.71
819.655	129.51
820.092	194.71
820.529	233.91
820.966	176.61
821.403	130.91
821.839	105.41
822.276	109.11
822.713	125.91
823.15	147.21
823.587	126.11
824.023	169.91
824.46	345.71
824.897	990.61
825.333	1419.71
825.77	608.81
826.206	245.21
826.643	141.11
827.08	110.01
827.516	95.31
827.953	83.41
828.389	79.91
828.825	76.21
829.262	70.91
829.698	67.71
830.135	71.31
830.571	61.81
831.007	68.71
831.443	68.11
831.88	66.71
832.316	62.91
832.752	67.71
833.188	67.01
833.624	63.31
834.06	68.31
834.497	77.01
834.933	76.81
835.369	78.91
835.805	73.61
836.241	76.61
836.677	86.81
837.112	98.41
837.548	115.31
837.984	140.81
838.42	221.41
838.856	561.01
839.292	1683.61
839.727	2407.41
840.163	1138.01
840.599	1042.71
841.034	2214.81
841.47	2191.01
841.906	821.31
842.341	351.11
842.777	208.71
843.212	217.61
843.648	194.51
844.083	114.91
844.519	88.91
844.954	77.61
845.39	64.51
845.825	60.51
846.261	55.91
846.696	56.51
847.131	51.91
847.566	64.71
848.002	59.71
848.437	61.01
848.872	68.71
849.307	55.81
849.742	96.01
850.177	206.61
850.613	608.81
851.048	907.41
851.483	399.81
851.918	166.01
852.353	91.51
852.788	55.81
853.223	52.11
853.657	53.41
854.092	43.21
854.527	45.71
854.962	45.31
855.397	50.71
855.832	43.71
856.266	43.21
856.701	46.81
857.136	34.61
857.57	47.01
858.005	61.91
858.44	60.11
858.874	45.81
859.309	56.11
859.743	38.41
860.178	54.21
860.612	47.21
861.047	60.21
861.481	72.31
861.915	74.11
862.35	45.41
862.784	34.11
863.218	48.61
863.653	40.81
864.087	44.41
864.521	58.61
864.955	69.41
865.39	170.11
865.824	177.81
866.258	129.31
866.692	181.21
867.126	187.21
867.56	104.51
867.994	55.51
868.428	37.11
868.862	53.81
869.296	58.01
869.73	59.01
870.164	60.91
870.598	49.21
871.031	38.11
871.465	22.11
871.899	31.31
872.333	29.81
872.766	23.81
873.2	32.11
873.634	33.81
874.067	31.91
874.501	25.71
874.935	45.21
875.368	39.61
875.802	29.41
876.235	23.81
876.669	26.01
877.102	21.31
877.535	22.21
877.969	23.51
878.402	27.81
878.836	19.81
879.269	28.61
879.702	21.51
880.135	27.81
880.569	25.51
881.002	28.21
881.435	24.71
881.868	21.01
882.301	25.11
882.734	25.11
883.167	25.41
883.601	24.51
884.034	26.31
884.467	13.31
884.899	25.21
885.332	15.41
885.765	18.51
886.198	15.21
886.631	20.01
887.064	20.21
887.497	23.41
887.929	20.71
888.362	18.71
888.795	17.31
889.228	20.71
889.66	21.01
890.093	15.81
890.526	12.51
890.958	15.21
891.391	21.81
891.823	18.11
892.256	15.61
892.688	12.11
893.121	13.31
893.553	13.91
893.985	23.01
894.418	24.21
894.85	14.71
895.282	13.41
895.715	21.21
896.147	16.21
896.579	21.91
897.011	16.21
897.444	23.91
897.876	11.61
898.308	24.31
898.74	15.11
899.172	14.31
899.604	21.51
900.036	16.41
900.468	23.81
900.9	16.31
901.332	19.71
901.764	16.01
902.196	25.61
902.628	22.21
903.06	21.21
903.491	33.81
903.923	21.31
904.355	22.81
904.787	29.21
905.218	23.51
905.65	20.31
906.082	14.71
906.513	17.31
906.945	14.61
907.376	11.61
907.808	22.61
908.239	19.81
908.671	20.71
909.102	26.71
909.534	26.11
909.965	57.21
910.397	100.01
910.828	343.81
911.259	493.31
911.691	228.81
912.122	115.61
912.553	57.31
912.984	40.11
913.415	22.41
913.847	24.01
914.278	17.21
914.709	19.51
915.14	17.91
915.571	18.51
916.002	16.51
916.433	19.51
916.864	21.01
917.295	16.11
917.726	27.01
918.157	19.01
918.587	30.61
919.018	20.31
919.449	24.61
919.88	27.61
920.311	34.81
920.741	60.11
921.172	171.81
921.603	158.51
922.033	76.11
922.464	52.61
922.895	24.31
923.325	21.81
923.756	13.51
924.186	12.91
924.617	24.31
925.047	20.31
925.478	27.71
925.908	24.51
926.338	11.81
926.769	14.21
927.199	21.21
927.629	7.81
928.06	19.11
928.49	18.01
928.92	17.61
929.35	14.41
929.78	12.61
930.21	9.31
930.641	8.91
931.071	10.91
931.501	6.91
931.931	6.51
932.361	8.81
932.791	2.51
933.221	10.51
933.651	7.91
934.08	19.51
934.51	33.21
934.94	12.51
935.37	10.01
935.8	14.41
936.229	10.11
936.659	9.61
937.089	7.21
937.519	16.91
937.948	31.21
938.378	17.91
938.807	5.01
939.237	0.71
939.666	4.71
940.096	-3.69
940.525	1.61
940.955	2.41
941.384	2.61
941.814	-2.29
942.243	-2.29
942.672	4.91
943.102	-5.49
943.531	-1.29
943.96	9.41
944.39	1.11
944.819	1.31
945.248	2.21
945.677	2.51
946.106	0.51
946.535	5.41
946.964	4.31
947.393	5.01
947.822	3.51
948.251	-4.99
948.68	4.81
949.109	6.01
949.538	8.01
949.967	6.61
950.396	6.11
950.825	0.71
951.254	2.91
951.682	-1.49
952.111	1.61
952.54	4.31
952.969	-3.89
953.397	-2.99
953.826	5.11
954.254	-4.09
954.683	1.21
955.112	-2.49
955.54	-0.69
955.969	1.91
956.397	3.01
956.826	-6.09
957.254	3.91
957.682	-0.19
958.111	4.81
958.539	1.41
958.967	1.91
959.396	0.31
959.824	-0.99
960.252	1.41
960.68	-8.39
961.109	-4.49
961.537	3.21
961.965	2.61
962.393	1.41
962.821	1.61
963.249	2.51
963.677	3.91
964.105	5.61
964.533	40.71
964.961	43.11
965.389	26.71
965.817	16.11
966.245	2.81
966.672	-2.79
967.1	-9.09
967.528	-1.39
967.956	1.41
968.383	1.01
968.811	0.61
969.239	-0.69
969.666	-5.09
970.094	0.91
970.522	-2.39
970.949	-4.69
971.377	-2.29
971.804	-0.59
972.232	-0.59
972.659	-0.29
973.087	-3.59
973.514	-3.69
973.941	-2.09
974.369	5.31
974.796	5.91
975.223	-1.09
975.651	1.11
976.078	0.01
976.505	3.41
976.932	2.61
977.359	18.01
977.786	12.61
978.214	1.71
978.641	-0.89
979.068	-0.59
979.495	-1.79
979.922	-5.09
980.349	-2.69
980.776	7.21
981.202	-1.39
981.629	2.11
982.056	4.21
982.483	-1.19
982.91	2.11
983.337	-4.69
983.763	3.31
984.19	-4.09
984.617	-9.39
985.043	-1.99
985.47	0.51
985.897	-4.09
986.323	-7.89
986.75	0.11
987.176	-0.19
987.603	-3.99
988.029	1.11
988.456	-2.79
988.882	4.81
989.308	-8.49
989.735	-0.59
990.161	2.71
990.587	-6.19
991.014	5.11
991.44	7.31
991.866	-2.39
992.292	-6.09
992.719	-1.69
993.145	0.51
993.571	-10.29
993.997	-10.39
994.423	-2.39
994.849	-2.69
995.275	-1.89
995.701	3.51
996.127	0.81
996.553	1.21
996.979	-2.49
997.405	-0.19
997.83	-5.09
998.256	-5.99
998.682	0.31
999.108	-10.99
999.534	-1.59
999.959	-6.99
1000.385	-2.19
1000.811	0.61
1001.236	-6.79
1001.662	-9.49
1002.087	-9.59
1002.513	0.31
1002.938	-2.99
1003.364	2.81
1003.789	-0.79
1004.215	2.01
1004.64	-5.19
1005.066	1.31
1005.491	-1.59
1005.916	-5.29
1006.342	-1.89
1006.767	-10.69
1007.192	4.11
1007.617	-5.99
1008.042	-1.49
1008.468	-7.19
1008.893	-3.09
1009.318	-0.39
1009.743	-1.09
1010.168	0.21
1010.593	3.61
1011.018	-4.89
1011.443	-5.89
1011.868	-0.79
1012.293	-2.99
1012.718	-6.99
1013.143	-0.19
1013.567	-4.19
1013.992	1.41
1014.417	-15.99
1014.842	3.21
1015.267	-8.49
1015.691	-5.29
1016.116	5.91
1016.541	-0.39
1016.965	2.41
1017.39	5.11
1017.814	4.21
1018.239	6.01
1018.663	-5.39
1019.088	-5.89
1019.512	-2.19
1019.937	1.81
1020.361	-5.99
1020.785	-8.89
1021.21	-3.69
1021.634	-0.19
1022.058	-1.89
1022.483	6.11
1022.907	-1.39
1023.331	-4.09
1023.755	-4.39
1024.179	-5.49
1024.604	-10.09
1025.028	-7.09
1025.452	-5.69
1025.876	-5.79
1026.3	6.41
1026.724	-7.69
1027.148	0.91
1027.572	-6.29
1027.996	-6.39
1028.42	-3.79
1028.843	-2.29
1029.267	0.21
1029.691	-3.49
1030.115	-1.19
1030.539	-9.99
1030.962	-2.89
1031.386	-9.39
1031.81	-0.29
1032.233	0.21
1032.657	0.01
1033.08	-1.29
1033.504	-3.79
1033.927	1.21
1034.351	-0.19
1034.774	-3.39
1035.198	-3.09
1035.621	-2.69
1036.045	0.01
1036.468	-4.29
1036.891	-1.29
1037.315	-6.19
1037.738	-10.39
1038.161	-0.09
1038.584	-4.09
1039.008	-3.49
1039.431	-3.19
1039.854	-1.69
1040.277	-9.49
1040.7	-9.19
1041.123	-3.89
1041.546	-5.29
1041.969	-5.79
1042.392	-7.99
1042.815	-4.39
1043.238	-1.49
1043.661	-1.19
1044.084	-6.39
1044.507	-7.49
1044.93	-4.89
1045.352	-5.89
1045.775	-0.19
1046.198	-0.39
1046.621	-0.09
1047.043	2.81
1047.466	10.41
1047.889	-2.69
1048.311	-6.19
1048.734	-5.19
1049.156	-1.19
1049.579	3.51
1050.001	-5.69
1050.424	1.51
1050.846	0.21
1051.269	-4.79
1051.691	-5.79
1052.113	0.31
1052.536	1.71
1052.958	-4.49
1053.38	-4.59
1053.802	-8.49
1054.225	1.01
1054.647	-5.79
1055.069	-6.99
1055.491	3.21
1055.913	-4.79
1056.335	0.41
1056.757	-6.99
1057.179	-2.69
1057.601	-5.19
1058.023	-2.79
1058.445	-5.39
1058.867	-3.39
1059.289	-1.89
1059.711	-4.39
1060.133	-5.49
1060.555	-4.39
1060.976	-12.59
1061.398	-0.29
1061.82	-4.89
1062.241	-3.29
1062.663	-6.29
1063.085	-4.69
1063.506	1.41
1063.928	-2.09
1064.35	-5.39
1064.771	-15.99
1065.193	-7.19
1065.614	-10.29
1066.035	-6.19
1066.457	-4.49
1066.878	1.81
1067.3	-5.09
1067.721	-2.29
1068.142	-1.49
1068.564	-6.09
1068.985	0.81
1069.406	-11.79
1069.827	-5.29
1070.248	-2.29
1070.67	-4.79
1071.091	-5.49
1071.512	-1.29
1071.933	-8.19
1072.354	-6.89
1072.775	-2.39
1073.196	-5.29
1073.617	-9.09
1074.038	-3.19
1074.459	-1.89
1074.88	-6.39
1075.3	-2.29
1075.721	-0.59
1076.142	-1.69
1076.563	-3.49
1076.983	-11.59
1077.404	-0.29
1077.825	-10.59
1078.246	-4.29
1078.666	-10.59
1079.087	-8.69
1079.507	-7.39
1079.928	0.41
1080.348	-2.59
1080.769	-9.99
1081.189	1.61
1081.61	-2.99
1082.03	-6.29
1082.451	-7.19
1082.871	-5.59
1083.291	-6.59
1083.711	-10.29
1084.132	-4.39
1084.552	-1.39
1084.972	2.71
1085.392	-7.29
1085.813	-11.09
1086.233	-4.39
1086.653	-7.59
1087.073	1.71
1087.493	-11.49
1087.913	-5.69
1088.333	-8.29
1088.753	-1.29
1089.173	6.61
1089.593	-3.39
1090.013	-5.39
1090.433	0.71
1090.852	-7.69
1091.272	-2.69
1091.692	3.81
1092.112	-7.39
1092.531	-7.09
1092.951	-16.09
1093.371	-2.69
1093.79	0.01
1094.21	-5.09
1094.63	-4.49
1095.049	-4.09
1095.469	-4.69
1095.888	-5.49
1096.308	1.81
1096.727	0.51
1097.146	-6.29
1097.566	1.71
1097.985	-7.09
1098.405	1.41
1098.824	-4.89
1099.243	-3.19
1099.662	-7.19
1100.082	-3.29
1100.501	-4.09
1100.92	-7.19
1101.339	-4.49
1101.758	-6.09
