Data from 20171114-ORNL-Ar_H_NY_Subt18_08-08-17-841.txt Node
Date: Tue Nov 14 08:08:17 EST 2017
User: Ender
Spectrometer: HR+D1039
Trigger mode: 0
Integration Time (sec): 2.730000E-2
Scans to average: 10
Electric dark correction enabled: true
Nonlinearity correction enabled: false
Boxcar width: 0
XAxis mode: Wavelengths
Number of Pixels in Spectrum: 2048
>>>>>Begin Spectral Data<<<<<
187.836	-2.74
188.309	-2.74
188.782	-2.74
189.255	4.16
189.728	-0.14
190.201	1.76
190.674	-1.04
191.147	0.96
191.619	-9.34
192.092	6.46
192.565	3.06
193.038	-1.24
193.511	0.46
193.984	1.76
194.456	-3.34
194.929	0.36
195.402	-2.14
195.874	0.96
196.347	-2.64
196.82	-12.54
197.292	-1.84
197.765	-5.04
198.237	-15.34
198.71	1.56
199.182	-2.24
199.655	2.86
200.127	-3.64
200.6	-5.54
201.072	-7.74
201.544	-6.64
202.017	-5.54
202.489	-0.34
202.961	-1.44
203.433	-4.64
203.906	-7.24
204.378	-6.74
204.85	-1.24
205.322	-7.94
205.794	-0.34
206.266	-4.64
206.739	-11.24
207.211	-2.64
207.683	-9.54
208.155	-6.44
208.627	-8.44
209.099	-5.24
209.57	-10.04
210.042	-8.14
210.514	-0.14
210.986	-0.14
211.458	-12.04
211.93	0.66
212.402	1.86
212.873	-8.64
213.345	-16.74
213.817	-17.24
214.288	-10.74
214.76	-11.64
215.232	-4.64
215.703	-10.74
216.175	-8.64
216.646	-4.54
217.118	-6.54
217.589	-8.84
218.061	-3.64
218.532	-10.24
219.004	-4.74
219.475	-8.04
219.946	-4.04
220.418	-8.64
220.889	3.56
221.36	-5.94
221.832	-6.44
222.303	-8.04
222.774	-5.24
223.245	-13.54
223.717	-11.94
224.188	-3.44
224.659	-7.14
225.13	-6.24
225.601	-1.44
226.072	-3.44
226.543	-8.64
227.014	-3.04
227.485	0.96
227.956	-3.44
228.427	-2.44
228.898	-3.74
229.369	2.06
229.839	-8.64
230.31	-11.24
230.781	3.86
231.252	-4.14
231.722	-4.14
232.193	-7.14
232.664	1.26
233.135	0.96
233.605	-6.94
234.076	-9.44
234.546	1.86
235.017	0.06
235.487	2.56
235.958	-4.34
236.428	-5.04
236.899	-3.44
237.369	1.26
237.84	-6.64
238.31	2.16
238.78	-1.54
239.251	-3.04
239.721	2.46
240.191	-5.74
240.662	-8.64
241.132	-0.84
241.602	-6.54
242.072	-1.14
242.542	3.86
243.013	-5.04
243.483	-4.14
243.953	0.16
244.423	1.46
244.893	-2.44
245.363	2.46
245.833	0.46
246.303	-5.54
246.773	-4.14
247.243	1.46
247.712	5.96
248.182	3.46
248.652	1.86
249.122	-1.64
249.592	7.46
250.061	14.56
250.531	21.16
251.001	9.36
251.471	16.06
251.94	20.26
252.41	7.16
252.879	-1.14
253.349	10.76
253.818	4.76
254.288	1.76
254.757	2.76
255.227	-4.04
255.696	-0.74
256.166	0.96
256.635	5.56
257.105	2.76
257.574	4.96
258.043	2.86
258.513	6.46
258.982	11.96
259.451	1.66
259.92	11.06
260.389	9.46
260.859	13.16
261.328	6.86
261.797	20.26
262.266	3.86
262.735	9.36
263.204	0.46
263.673	-1.74
264.142	-1.54
264.611	-10.74
265.08	-2.64
265.549	0.26
266.018	9.56
266.487	-3.84
266.955	-4.54
267.424	-0.64
267.893	4.16
268.362	2.46
268.83	-0.94
269.299	8.66
269.768	-3.34
270.236	6.26
270.705	4.36
271.174	1.86
271.642	6.06
272.111	7.56
272.579	14.46
273.048	16.86
273.516	21.46
273.985	19.66
274.453	19.36
274.922	17.56
275.39	7.06
275.858	0.96
276.327	11.36
276.795	14.76
277.263	2.76
277.731	23.36
278.2	46.56
278.668	52.76
279.136	38.36
279.604	19.36
280.072	10.06
280.54	4.86
281.008	10.06
281.477	8.26
281.945	3.36
282.413	9.06
282.881	7.16
283.348	3.66
283.816	10.16
284.284	7.86
284.752	18.76
285.22	7.76
285.688	12.86
286.156	19.66
286.623	45.06
287.091	51.56
287.559	28.16
288.026	20.06
288.494	19.06
288.962	4.66
289.429	4.16
289.897	10.56
290.364	15.96
290.832	17.46
291.3	9.56
291.767	15.66
292.234	12.96
292.702	5.46
293.169	14.16
293.637	19.06
294.104	19.56
294.571	8.76
295.039	13.46
295.506	13.56
295.973	15.06
296.44	9.06
296.908	18.86
297.375	15.06
297.842	14.66
298.309	11.46
298.776	9.76
299.243	19.96
299.71	14.06
300.177	21.76
300.644	13.46
301.111	20.16
301.578	23.36
302.045	15.26
302.512	19.26
302.979	20.76
303.446	13.26
303.913	16.16
304.379	16.56
304.846	23.56
305.313	19.06
305.78	24.46
306.246	23.36
306.713	31.06
307.18	22.46
307.646	23.96
308.113	25.96
308.579	12.86
309.046	20.36
309.512	26.76
309.979	11.66
310.445	30.06
310.912	23.06
311.378	25.76
311.845	21.06
312.311	30.96
312.777	31.96
313.244	26.36
313.71	31.16
314.176	26.46
314.642	29.26
315.109	32.86
315.575	33.96
316.041	37.06
316.507	32.36
316.973	36.36
317.439	34.26
317.905	31.66
318.371	28.66
318.837	25.26
319.303	32.06
319.769	29.06
320.235	27.86
320.701	35.66
321.167	33.96
321.633	32.86
322.099	36.26
322.564	39.86
323.03	33.16
323.496	39.86
323.962	36.86
324.427	27.86
324.893	39.36
325.359	34.06
325.824	36.36
326.29	33.96
326.755	41.56
327.221	34.36
327.686	36.56
328.152	45.46
328.617	38.66
329.083	48.76
329.548	48.06
330.014	42.36
330.479	39.46
330.944	43.66
331.41	35.86
331.875	44.36
332.34	43.26
332.805	32.36
333.271	46.36
333.736	40.96
334.201	50.96
334.666	46.56
335.131	50.86
335.596	44.46
336.061	42.76
336.526	34.16
336.991	44.06
337.456	49.36
337.921	48.26
338.386	37.46
338.851	40.66
339.316	41.26
339.781	41.56
340.246	50.26
340.711	48.06
341.175	49.26
341.64	42.86
342.105	49.36
342.569	49.36
343.034	52.66
343.499	58.06
343.963	44.46
344.428	57.86
344.893	51.66
345.357	55.86
345.822	58.66
346.286	65.46
346.751	71.86
347.215	62.46
347.679	80.26
348.144	97.66
348.608	79.36
349.073	64.26
349.537	68.16
350.001	74.56
350.465	81.96
350.93	77.16
351.394	76.56
351.858	70.96
352.322	76.46
352.786	80.46
353.25	99.26
353.715	109.76
354.179	101.76
354.643	114.86
355.107	118.16
355.571	103.46
356.035	99.76
356.498	110.16
356.962	118.16
357.426	130.66
357.89	117.86
358.354	87.46
358.818	83.16
359.281	79.16
359.745	72.86
360.209	72.76
360.673	72.46
361.136	74.86
361.6	84.46
362.064	78.26
362.527	78.36
362.991	87.26
363.454	78.46
363.918	70.26
364.381	76.56
364.845	79.36
365.308	79.16
365.772	82.76
366.235	86.06
366.698	81.46
367.162	83.56
367.625	81.16
368.088	89.16
368.552	85.96
369.015	92.06
369.478	94.66
369.941	93.56
370.404	91.16
370.867	100.26
371.331	105.86
371.794	107.36
372.257	103.56
372.72	114.16
373.183	103.66
373.646	96.56
374.109	93.36
374.572	105.76
375.035	108.66
375.497	108.56
375.96	101.16
376.423	103.86
376.886	112.26
377.349	109.36
377.811	99.66
378.274	104.36
378.737	106.26
379.199	111.76
379.662	110.86
380.125	115.36
380.587	115.56
381.05	117.76
381.512	127.26
381.975	130.56
382.437	119.96
382.9	127.66
383.362	129.06
383.825	140.06
384.287	148.96
384.75	140.86
385.212	136.96
385.674	137.56
386.136	132.26
386.599	128.46
387.061	121.96
387.523	126.86
387.985	139.16
388.447	145.46
388.91	140.76
389.372	159.96
389.834	151.26
390.296	141.26
390.758	153.86
391.22	166.76
391.682	211.06
392.144	305.96
392.606	230.36
393.068	160.16
393.529	169.56
393.991	148.76
394.453	143.56
394.915	159.56
395.377	196.36
395.838	217.16
396.3	159.06
396.762	139.46
397.224	132.06
397.685	127.46
398.147	128.76
398.608	125.06
399.07	128.56
399.531	128.66
399.993	139.56
400.454	146.56
400.916	140.56
401.377	143.46
401.839	147.86
402.3	148.36
402.762	168.16
403.223	181.06
403.684	169.26
404.145	156.96
404.607	158.66
405.068	167.96
405.529	172.96
405.99	190.76
406.451	176.06
406.913	173.26
407.374	163.06
407.835	160.86
408.296	166.16
408.757	176.26
409.218	181.86
409.679	180.56
410.14	178.16
410.601	176.66
411.062	187.26
411.522	187.76
411.983	186.66
412.444	173.26
412.905	182.06
413.366	174.56
413.826	188.16
414.287	214.26
414.748	255.56
415.208	245.96
415.669	209.26
416.13	204.06
416.59	200.36
417.051	211.96
417.511	217.26
417.972	233.86
418.432	241.26
418.893	288.36
419.353	247.86
419.814	202.86
420.274	185.36
420.734	178.86
421.195	192.36
421.655	195.96
422.115	197.46
422.576	189.16
423.036	200.86
423.496	204.16
423.956	217.36
424.416	232.46
424.876	263.56
425.336	259.96
425.797	261.46
426.257	254.66
426.717	234.76
427.177	229.86
427.637	221.76
428.097	227.76
428.556	244.26
429.016	269.66
429.476	257.76
429.936	280.06
430.396	277.26
430.856	290.76
431.315	317.26
431.775	356.96
432.235	380.96
432.694	350.76
433.154	367.86
433.614	394.26
434.073	340.06
434.533	292.36
434.993	268.16
435.452	284.26
435.912	303.36
436.371	288.86
436.83	288.56
437.29	267.46
437.749	252.26
438.209	242.96
438.668	275.26
439.127	290.56
439.587	264.86
440.046	250.66
440.505	256.96
440.964	275.86
441.424	328.76
441.883	317.56
442.342	252.36
442.801	213.96
443.26	218.36
443.719	217.76
444.178	219.66
444.637	211.76
445.096	215.86
445.555	224.56
446.014	223.66
446.473	221.86
446.932	233.96
447.391	227.26
447.849	218.96
448.308	218.56
448.767	216.76
449.226	242.96
449.685	237.66
450.143	243.16
450.602	229.76
451.061	227.56
451.519	229.26
451.978	229.36
452.436	229.96
452.895	238.16
453.353	250.46
453.812	243.76
454.27	240.26
454.729	238.56
455.187	238.36
455.646	242.86
456.104	253.36
456.562	258.96
457.021	270.56
457.479	258.46
457.937	276.46
458.395	262.26
458.854	248.36
459.312	259.66
459.77	274.06
460.228	251.86
460.686	241.46
461.144	250.96
461.602	239.86
462.06	242.76
462.518	255.56
462.976	254.46
463.434	250.06
463.892	263.66
464.35	272.76
464.808	285.66
465.266	261.06
465.724	265.16
466.181	265.66
466.639	261.66
467.097	280.26
467.555	291.76
468.012	296.06
468.47	307.36
468.928	326.66
469.385	347.26
469.843	347.66
470.3	343.36
470.758	360.76
471.215	378.06
471.673	406.96
472.13	410.26
472.588	418.36
473.045	371.66
473.503	377.06
473.96	391.46
474.417	393.86
474.875	433.36
475.332	475.56
475.789	462.66
476.246	468.06
476.704	485.16
477.161	501.16
477.618	522.86
478.075	547.26
478.532	601.56
478.989	689.96
479.446	814.86
479.903	766.56
480.36	808.06
480.817	854.06
481.274	962.46
481.731	1075.36
482.188	1157.86
482.645	1288.56
483.102	1399.86
483.558	1532.96
484.015	1581.16
484.472	1560.66
484.929	1515.66
485.385	1468.86
485.842	1425.26
486.299	1347.06
486.755	1294.36
487.212	1086.46
487.668	914.46
488.125	846.26
488.582	774.06
489.038	743.56
489.494	703.16
489.951	674.76
490.407	672.36
490.864	641.46
491.32	635.66
491.776	631.86
492.233	639.66
492.689	607.86
493.145	595.66
493.602	584.26
494.058	608.26
494.514	609.16
494.97	634.16
495.426	648.36
495.882	619.16
496.338	611.36
496.794	619.36
497.251	612.76
497.707	628.56
498.163	624.66
498.618	641.56
499.074	644.56
499.53	672.36
499.986	671.16
500.442	640.86
500.898	626.26
501.354	622.06
501.809	636.66
502.265	637.36
502.721	655.66
503.177	665.36
503.632	666.46
504.088	677.66
504.543	707.36
504.999	696.86
505.455	650.86
505.91	627.56
506.366	622.56
506.821	622.36
507.277	621.26
507.732	627.36
508.187	616.96
508.643	624.56
509.098	621.96
509.553	643.56
510.009	661.06
510.464	673.96
510.919	680.66
511.375	685.06
511.83	695.26
512.285	714.96
512.74	745.26
513.195	781.66
513.65	761.96
514.105	758.06
514.56	761.36
515.015	785.26
515.47	793.46
515.925	783.66
516.38	783.06
516.835	782.46
517.29	763.56
517.745	760.46
518.2	760.96
518.655	742.76
519.109	731.16
519.564	728.16
520.019	722.06
520.474	715.26
520.928	711.96
521.383	710.96
521.838	702.26
522.292	707.86
522.747	700.66
523.201	694.46
523.656	684.46
524.11	687.66
524.565	681.76
525.019	676.76
525.474	693.96
525.928	694.16
526.382	684.36
526.837	693.46
527.291	700.96
527.745	684.06
528.2	684.86
528.654	690.66
529.108	678.36
529.562	675.06
530.016	682.16
530.47	680.66
530.925	684.26
531.379	684.26
531.833	700.36
532.287	696.16
532.741	696.66
533.195	697.26
533.649	703.46
534.103	709.26
534.556	709.06
535.01	694.56
535.464	694.16
535.918	702.46
536.372	703.16
536.826	716.56
537.279	695.36
537.733	703.26
538.187	703.96
538.64	703.56
539.094	714.96
539.548	720.56
540.001	712.36
540.455	715.46
540.908	724.96
541.362	732.26
541.815	744.56
542.269	751.36
542.722	751.56
543.175	766.56
543.629	759.96
544.082	784.76
544.536	772.16
544.989	771.16
545.442	789.66
545.895	776.96
546.349	782.96
546.802	795.16
547.255	783.16
547.708	791.46
548.161	810.06
548.614	816.46
549.067	816.76
549.52	801.66
549.973	805.26
550.426	800.66
550.879	788.06
551.332	791.56
551.785	794.56
552.238	796.86
552.691	805.26
553.144	825.56
553.596	840.16
554.049	849.66
554.502	889.76
554.955	908.26
555.407	909.46
555.86	892.16
556.313	880.66
556.765	861.46
557.218	880.86
557.67	868.26
558.123	854.76
558.576	865.16
559.028	864.16
559.48	878.96
559.933	860.66
560.385	826.36
560.838	812.56
561.29	781.46
561.742	772.86
562.195	770.96
562.647	758.76
563.099	764.76
563.551	769.36
564.004	777.86
564.456	767.46
564.908	749.06
565.36	745.06
565.812	729.06
566.264	727.46
566.716	723.46
567.168	706.96
567.62	716.76
568.072	698.96
568.524	692.46
568.976	688.46
569.428	667.86
569.88	665.26
570.332	678.36
570.784	678.06
571.235	676.16
571.687	688.16
572.139	691.26
572.59	705.06
573.042	691.36
573.494	704.76
573.945	709.66
574.397	675.36
574.849	680.76
575.3	686.86
575.752	670.96
576.203	672.36
576.655	676.16
577.106	667.96
577.557	657.56
578.009	663.56
578.46	665.96
578.912	655.66
579.363	664.36
579.814	665.06
580.265	661.36
580.717	659.86
581.168	672.66
581.619	669.86
582.07	673.46
582.521	674.66
582.972	669.56
583.423	676.96
583.875	679.86
584.326	712.06
584.777	741.96
585.227	826.86
585.678	929.86
586.129	1014.46
586.58	1090.76
587.031	1188.56
587.482	1324.96
587.933	1516.96
588.384	1319.46
588.834	984.96
589.285	805.16
589.736	782.16
590.186	777.46
590.637	755.86
591.088	746.56
591.538	737.36
591.989	731.36
592.439	720.36
592.89	715.76
593.34	706.26
593.791	714.36
594.241	703.66
594.692	719.76
595.142	705.86
595.593	703.36
596.043	715.96
596.493	712.06
596.943	719.66
597.394	724.96
597.844	716.16
598.294	731.26
598.744	747.76
599.195	778.96
599.645	816.56
600.095	852.26
600.545	911.36
600.995	964.86
601.445	1009.76
601.895	1087.46
602.345	1138.86
602.795	1115.86
603.245	1063.56
603.695	1002.76
604.145	954.56
604.594	907.86
605.044	860.46
605.494	806.36
605.944	757.56
606.393	731.66
606.843	726.06
607.293	728.86
607.743	737.56
608.192	745.06
608.642	750.56
609.091	766.16
609.541	777.06
609.99	763.46
610.44	767.96
610.889	722.86
611.339	706.16
611.788	689.06
612.238	701.36
612.687	717.76
613.136	729.46
613.586	733.76
614.035	735.96
614.484	755.16
614.933	756.56
615.383	753.26
615.832	744.16
616.281	731.26
616.73	691.06
617.179	672.16
617.628	659.26
618.077	638.26
618.526	621.06
618.975	627.46
619.424	611.76
619.873	614.06
620.322	618.46
620.771	607.46
621.22	604.66
621.669	595.86
622.118	591.06
622.567	575.66
623.015	575.06
623.464	566.86
623.913	559.06
624.361	549.26
624.81	556.76
625.259	555.36
625.707	551.06
626.156	556.96
626.604	566.36
627.053	560.96
627.501	562.16
627.95	572.56
628.398	590.16
628.847	566.56
629.295	566.66
629.744	582.56
630.192	570.66
630.64	570.16
631.089	571.16
631.537	590.86
631.985	602.76
632.433	606.46
632.881	614.86
633.33	670.56
633.778	648.56
634.226	576.76
634.674	572.66
635.122	582.06
635.57	603.46
636.018	637.76
636.466	582.06
636.914	553.06
637.362	577.46
637.81	570.66
638.258	575.76
638.705	570.36
639.153	602.46
639.601	612.86
640.049	645.76
640.497	680.16
640.944	692.56
641.392	641.66
641.84	608.36
642.287	588.86
642.735	565.86
643.182	571.06
643.63	576.66
644.078	580.86
644.525	590.36
644.973	604.36
645.42	608.76
645.867	624.16
646.315	644.86
646.762	664.16
647.21	691.76
647.657	711.96
648.104	746.96
648.551	783.86
648.999	843.06
649.446	931.96
649.893	1021.16
650.34	1180.06
650.787	1410.06
651.234	1759.96
651.682	2302.36
652.129	3199.56
652.576	4564.16
653.023	6761.26
653.47	9262.46
653.917	11468.56
654.363	13173.36
654.81	14411.26
655.257	13675.86
655.704	8977.86
656.151	5308.86
656.598	3447.26
657.044	2434.66
657.491	1875.26
657.938	1492.26
658.385	1245.96
658.831	1089.96
659.278	968.96
659.724	866.06
660.171	790.46
660.618	722.16
661.064	689.16
661.511	677.96
661.957	658.96
662.404	657.16
662.85	674.66
663.296	628.96
663.743	560.76
664.189	541.56
664.635	529.66
665.082	520.96
665.528	526.16
665.974	515.46
666.42	511.76
666.867	508.66
667.313	498.66
667.759	475.56
668.205	479.66
668.651	487.16
669.097	490.96
669.543	509.56
669.989	471.96
670.435	458.16
670.881	444.26
671.327	449.56
671.773	475.06
672.219	484.66
672.665	544.56
673.11	583.46
673.556	626.66
674.002	667.76
674.448	660.46
674.893	548.76
675.339	477.26
675.785	441.46
676.23	425.86
676.676	389.06
677.122	382.96
677.567	371.46
678.013	374.26
678.458	355.06
678.904	354.76
679.349	350.76
679.794	351.36
680.24	348.56
680.685	353.96
681.131	347.06
681.576	349.96
682.021	354.06
682.466	341.36
682.912	344.66
683.357	354.46
683.802	388.36
684.247	408.86
684.692	462.26
685.137	493.66
685.583	535.06
686.028	561.66
686.473	521.46
686.918	443.36
687.363	421.36
687.807	394.36
688.252	362.66
688.697	354.96
689.142	335.16
689.587	332.16
690.032	320.26
690.477	351.16
690.921	358.76
691.366	382.16
691.811	399.96
692.255	436.66
692.7	464.06
693.145	516.26
693.589	722.06
694.034	1151.26
694.478	1549.96
694.923	1713.66
695.367	2242.76
695.812	1188.36
696.256	505.86
696.701	368.16
697.145	350.16
697.59	332.46
698.034	320.36
698.478	334.56
698.922	323.26
699.367	327.56
699.811	342.46
700.255	361.86
700.699	389.36
701.143	437.06
701.588	490.46
702.032	527.96
702.476	508.36
702.92	483.36
703.364	502.56
703.808	658.16
704.252	1054.56
704.696	1471.16
705.14	1665.86
705.584	2101.36
706.027	1063.46
706.471	524.76
706.915	396.16
707.359	353.96
707.803	316.16
708.246	306.56
708.69	313.86
709.134	312.66
709.577	310.76
710.021	316.46
710.465	310.86
710.908	298.56
711.352	302.56
711.795	309.76
712.239	360.26
712.682	390.66
713.126	420.46
713.569	465.16
714.012	375.56
714.456	329.96
714.899	296.16
715.342	281.96
715.786	255.76
716.229	262.06
716.672	249.76
717.115	244.46
717.558	256.76
718.002	250.66
718.445	263.46
718.888	294.76
719.331	300.56
719.774	307.76
720.217	305.96
720.66	285.86
721.103	271.46
721.546	249.66
721.989	247.36
722.432	241.06
722.874	239.86
723.317	232.36
723.76	239.16
724.203	254.76
724.645	325.06
725.088	457.06
725.531	581.56
725.974	639.36
726.416	543.36
726.859	310.16
727.301	249.26
727.744	240.36
728.187	233.06
728.629	238.76
729.071	247.16
729.514	266.36
729.956	267.66
730.399	279.86
730.841	283.16
731.283	274.76
731.726	264.66
732.168	258.86
732.61	271.36
733.053	289.36
733.495	313.46
733.937	354.36
734.379	401.16
734.821	434.36
735.263	545.46
735.705	857.46
736.148	1624.16
736.59	2602.76
737.032	2972.16
737.474	2447.36
737.916	802.46
738.357	428.26
738.799	316.96
739.241	298.96
739.683	278.06
740.125	294.86
740.567	300.26
741.008	318.96
741.45	319.86
741.892	315.36
742.334	344.76
742.775	357.86
743.217	342.16
743.658	270.36
744.1	249.46
744.542	258.36
744.983	308.16
745.425	343.56
745.866	343.76
746.307	289.76
746.749	284.66
747.19	328.36
747.632	472.26
748.073	915.36
748.514	1909.96
748.956	2851.86
749.397	3585.06
749.838	2972.56
750.279	2907.66
750.72	1482.36
751.162	544.26
751.603	325.96
752.044	248.36
752.485	214.16
752.926	212.76
753.367	200.26
753.808	194.46
754.249	188.46
754.69	183.76
755.131	193.46
755.572	182.56
756.013	178.76
756.453	185.36
756.894	187.76
757.335	190.66
757.776	189.36
758.216	194.66
758.657	201.76
759.098	206.26
759.538	231.66
759.979	264.96
760.42	373.96
760.86	730.26
761.301	1901.36
761.741	4501.16
762.182	6302.96
762.622	4431.86
763.063	1304.76
763.503	542.56
763.943	349.26
764.384	354.56
764.824	412.76
765.264	443.16
765.705	304.16
766.145	212.56
766.585	188.76
767.025	183.76
767.465	183.06
767.906	249.96
768.346	331.86
768.786	345.26
769.226	263.96
769.666	330.46
770.106	648.06
770.546	1621.26
770.986	2621.56
771.426	2332.86
771.866	788.16
772.306	326.46
772.745	208.76
773.185	178.86
773.625	170.26
774.065	169.16
774.505	193.26
774.944	319.06
775.384	700.06
775.824	1231.26
776.263	1189.16
776.703	512.86
777.142	223.16
777.582	156.76
778.021	138.66
778.461	139.96
778.9	145.06
779.34	128.76
779.779	122.96
780.219	105.26
780.658	108.76
781.097	111.76
781.537	110.86
781.976	115.06
782.415	104.66
782.855	103.86
783.294	102.06
783.733	107.06
784.172	107.86
784.611	99.06
785.05	111.86
785.489	111.06
785.928	116.06
786.367	119.06
786.806	119.96
787.245	131.56
787.684	133.66
788.123	143.56
788.562	136.16
789.001	128.36
789.44	123.06
789.879	117.36
790.317	118.86
790.756	128.06
791.195	128.66
791.634	140.76
792.072	200.46
792.511	378.46
792.95	1053.66
793.388	2147.16
793.827	1889.46
794.265	681.86
794.704	284.56
795.142	178.16
795.581	155.56
796.019	133.36
796.458	130.16
796.896	118.66
797.334	132.26
797.773	159.56
798.211	227.16
798.649	452.86
799.087	1042.36
799.526	1612.16
799.964	2039.06
800.402	1985.86
800.84	753.66
801.278	308.16
801.716	191.46
802.154	152.76
802.592	140.86
803.03	144.76
803.468	142.06
803.906	141.36
804.344	149.56
804.782	134.86
805.22	133.56
805.658	135.26
806.096	144.16
806.533	155.36
806.971	180.86
807.409	218.26
807.847	325.76
808.284	685.86
808.722	1915.66
809.16	3276.66
809.597	3169.66
810.035	5452.86
810.472	5629.56
810.91	2053.46
811.347	791.86
811.785	402.86
812.222	260.76
812.66	193.26
813.097	166.46
813.535	135.66
813.972	124.06
814.409	118.86
814.846	114.66
815.284	108.16
815.721	95.86
816.158	107.36
816.595	120.86
817.032	180.66
817.47	192.56
817.907	160.46
818.344	154.86
818.781	113.26
819.218	100.76
819.655	121.66
820.092	184.06
820.529	210.26
820.966	179.56
821.403	132.06
821.839	114.36
822.276	99.66
822.713	125.46
823.15	135.76
823.587	118.66
824.023	146.76
824.46	314.66
824.897	919.56
825.333	1334.66
825.77	578.86
826.206	225.86
826.643	132.16
827.08	103.16
827.516	85.86
827.953	76.86
828.389	87.26
828.825	63.36
829.262	68.86
829.698	62.66
830.135	58.66
830.571	62.06
831.007	68.36
831.443	61.16
831.88	61.36
832.316	59.86
832.752	68.56
833.188	64.46
833.624	65.86
834.06	63.76
834.497	62.46
834.933	69.06
835.369	74.56
835.805	70.76
836.241	70.46
836.677	80.86
837.112	90.16
837.548	98.66
837.984	127.76
838.42	202.16
838.856	511.06
839.292	1540.06
839.727	2267.86
840.163	1064.16
840.599	959.26
841.034	2053.46
841.47	2073.16
841.906	771.36
842.341	338.26
842.777	233.56
843.212	321.36
843.648	300.16
844.083	154.76
844.519	97.76
844.954	75.46
845.39	59.96
845.825	60.86
846.261	56.66
846.696	54.06
847.131	52.66
847.566	61.86
848.002	49.56
848.437	57.86
848.872	57.76
849.307	63.06
849.742	87.36
850.177	196.26
850.613	570.06
851.048	859.56
851.483	372.86
851.918	156.06
852.353	86.86
852.788	63.56
853.223	63.06
853.657	57.76
854.092	43.96
854.527	36.96
854.962	38.66
855.397	43.96
855.832	47.86
856.266	41.16
856.701	41.56
857.136	35.56
857.57	42.96
858.005	49.76
858.44	57.16
858.874	41.76
859.309	51.66
859.743	38.86
860.178	48.26
860.612	42.36
861.047	53.16
861.481	62.36
861.915	70.96
862.35	44.16
862.784	32.76
863.218	33.46
863.653	36.36
864.087	48.16
864.521	53.16
864.955	71.26
865.39	156.76
865.824	172.76
866.258	115.96
866.692	156.26
867.126	164.06
867.56	99.46
867.994	48.16
868.428	36.46
868.862	44.36
869.296	50.26
869.73	55.86
870.164	55.46
870.598	46.06
871.031	38.16
871.465	29.06
871.899	30.66
872.333	21.06
872.766	23.26
873.2	25.46
873.634	34.76
874.067	29.46
874.501	27.96
874.935	31.76
875.368	28.16
875.802	25.96
876.235	19.76
876.669	19.76
877.102	21.36
877.535	26.76
877.969	19.46
878.402	23.86
878.836	19.56
879.269	20.16
879.702	27.06
880.135	16.16
880.569	23.16
881.002	21.26
881.435	18.96
881.868	20.16
882.301	22.56
882.734	16.86
883.167	17.46
883.601	18.46
884.034	21.06
884.467	11.46
884.899	16.76
885.332	15.96
885.765	13.96
886.198	13.16
886.631	12.76
887.064	18.76
887.497	18.06
887.929	17.16
888.362	11.96
888.795	17.16
889.228	16.46
889.66	19.96
890.093	16.06
890.526	7.06
890.958	11.96
891.391	16.66
891.823	16.46
892.256	13.56
892.688	11.76
893.121	11.16
893.553	12.86
893.985	24.76
894.418	21.46
894.85	12.86
895.282	16.06
895.715	19.46
896.147	20.06
896.579	14.26
897.011	8.36
897.444	11.26
897.876	14.66
898.308	11.86
898.74	9.46
899.172	12.36
899.604	19.06
900.036	20.96
900.468	10.76
900.9	14.06
901.332	14.56
901.764	14.86
902.196	13.36
902.628	14.46
903.06	17.56
903.491	23.86
903.923	19.86
904.355	22.56
904.787	26.06
905.218	22.86
905.65	22.76
906.082	19.56
906.513	14.16
906.945	14.46
907.376	12.76
907.808	16.46
908.239	23.16
908.671	22.26
909.102	22.16
909.534	26.06
909.965	43.16
910.397	94.36
910.828	316.26
911.259	465.96
911.691	221.06
912.122	105.26
912.553	48.86
912.984	37.76
913.415	20.86
913.847	23.66
914.278	16.46
914.709	15.56
915.14	18.76
915.571	18.76
916.002	11.76
916.433	17.76
916.864	10.36
917.295	9.56
917.726	14.26
918.157	18.26
918.587	25.16
919.018	10.36
919.449	19.36
919.88	22.96
920.311	31.26
920.741	42.26
921.172	168.26
921.603	147.56
922.033	69.46
922.464	44.26
922.895	22.86
923.325	20.36
923.756	11.56
924.186	12.06
924.617	21.06
925.047	43.96
925.478	56.06
925.908	39.26
926.338	20.36
926.769	17.86
927.199	21.06
927.629	1.36
928.06	13.96
928.49	12.26
928.92	11.16
929.35	11.66
929.78	10.56
930.21	6.26
930.641	4.76
931.071	10.56
931.501	7.46
931.931	8.06
932.361	3.56
932.791	-3.94
933.221	-0.94
933.651	4.36
934.08	16.86
934.51	27.66
934.94	10.56
935.37	11.76
935.8	12.46
936.229	5.66
936.659	5.96
937.089	-1.24
937.519	13.46
937.948	21.66
938.378	10.36
938.807	6.16
939.237	-3.34
939.666	8.16
940.096	-2.14
940.525	2.36
940.955	1.96
941.384	-1.94
941.814	-6.44
942.243	-2.94
942.672	5.36
943.102	-2.24
943.531	-0.04
943.96	0.46
944.39	4.26
944.819	-3.54
945.248	-1.64
945.677	-0.44
946.106	4.76
946.535	4.56
946.964	1.56
947.393	6.16
947.822	3.06
948.251	-2.14
948.68	6.56
949.109	5.26
949.538	-1.24
949.967	-2.74
950.396	-0.94
950.825	3.06
951.254	0.56
951.682	-3.74
952.111	2.56
952.54	3.06
952.969	-0.54
953.397	-10.64
953.826	-2.24
954.254	-8.14
954.683	-4.84
955.112	-0.54
955.54	-1.84
955.969	-0.34
956.397	-3.24
956.826	-2.04
957.254	-1.34
957.682	0.76
958.111	2.96
958.539	-2.84
958.967	-1.04
959.396	-3.54
959.824	-3.04
960.252	-1.94
960.68	-7.44
961.109	-8.74
961.537	-6.44
961.965	-6.94
962.393	-1.64
962.821	-4.14
963.249	-3.94
963.677	5.16
964.105	2.16
964.533	45.56
964.961	33.96
965.389	20.96
965.817	11.36
966.245	1.96
966.672	-0.34
967.1	-9.34
967.528	-1.94
967.956	-6.94
968.383	2.86
968.811	-4.74
969.239	-7.04
969.666	-8.64
970.094	-6.54
970.522	-1.74
970.949	-1.54
971.377	-4.54
971.804	-2.24
972.232	-8.24
972.659	-4.54
973.087	-6.24
973.514	-6.64
973.941	-3.64
974.369	-2.94
974.796	-3.34
975.223	1.56
975.651	-3.14
976.078	-1.34
976.505	-4.64
976.932	0.16
977.359	9.96
977.786	12.96
978.214	-1.44
978.641	-2.54
979.068	-4.14
979.495	-2.04
979.922	-5.24
980.349	-10.04
980.776	1.96
981.202	-0.54
981.629	-0.54
982.056	0.56
982.483	-4.74
982.91	1.06
983.337	-2.14
983.763	4.36
984.19	-7.24
984.617	-7.24
985.043	-15.14
985.47	-4.14
985.897	-2.64
986.323	-7.14
986.75	-2.14
987.176	-6.94
987.603	-4.04
988.029	-9.14
988.456	-0.54
988.882	-2.64
989.308	-6.24
989.735	-7.64
990.161	-1.44
990.587	-4.14
991.014	0.76
991.44	5.66
991.866	-2.04
992.292	-6.14
992.719	-9.44
993.145	0.56
993.571	-11.54
993.997	-7.54
994.423	-3.64
994.849	-6.94
995.275	0.96
995.701	4.86
996.127	-7.04
996.553	-3.34
996.979	-5.84
997.405	-2.24
997.83	-1.84
998.256	-6.04
998.682	-4.84
999.108	-7.74
999.534	-7.34
999.959	-5.34
1000.385	-2.54
1000.811	-1.04
1001.236	-4.64
1001.662	-11.14
1002.087	-7.74
1002.513	-7.74
1002.938	-3.74
1003.364	-4.04
1003.789	-3.94
1004.215	-0.14
1004.64	-12.04
1005.066	1.16
1005.491	-2.64
1005.916	0.06
1006.342	-4.14
1006.767	-10.64
1007.192	2.46
1007.617	-6.44
1008.042	-15.94
1008.468	-9.14
1008.893	-10.04
1009.318	-4.74
1009.743	-2.04
1010.168	1.26
1010.593	-4.84
1011.018	-6.74
1011.443	-8.04
1011.868	-3.64
1012.293	-10.64
1012.718	-10.24
1013.143	-7.64
1013.567	-3.04
1013.992	-5.14
1014.417	-11.44
1014.842	-3.24
1015.267	-5.84
1015.691	-4.74
1016.116	0.66
1016.541	1.86
1016.965	0.76
1017.39	1.86
1017.814	-0.14
1018.239	-0.24
1018.663	-11.74
1019.088	-15.94
1019.512	-14.24
1019.937	-5.34
1020.361	-5.14
1020.785	-9.34
1021.21	-2.84
1021.634	-2.64
1022.058	-2.04
1022.483	-2.04
1022.907	-4.84
1023.331	-6.14
1023.755	-0.94
1024.179	-3.34
1024.604	-8.14
1025.028	-4.74
1025.452	-10.74
1025.876	-1.94
1026.3	-3.94
1026.724	-14.14
1027.148	-10.54
1027.572	-3.74
1027.996	-6.04
1028.42	-0.74
1028.843	-4.84
1029.267	-8.94
1029.691	-3.14
1030.115	-6.64
1030.539	-9.24
1030.962	-5.24
1031.386	-13.04
1031.81	-4.94
1032.233	0.36
1032.657	-3.14
1033.08	0.06
1033.504	-7.84
1033.927	-6.74
1034.351	0.66
1034.774	-7.34
1035.198	-5.24
1035.621	-9.54
1036.045	-7.44
1036.468	-4.54
1036.891	-19.24
1037.315	-10.74
1037.738	-17.44
1038.161	-5.74
1038.584	-12.44
1039.008	-5.24
1039.431	-9.64
1039.854	-2.14
1040.277	-15.24
1040.7	-17.54
1041.123	-4.64
1041.546	-11.14
1041.969	-5.94
1042.392	-9.74
1042.815	-3.94
1043.238	-4.54
1043.661	-4.64
1044.084	-8.94
1044.507	-8.24
1044.93	-6.74
1045.352	-2.94
1045.775	0.36
1046.198	-6.14
1046.621	-3.04
1047.043	-4.84
1047.466	-0.44
1047.889	-7.04
1048.311	-9.94
1048.734	-7.44
1049.156	-7.94
1049.579	-3.14
1050.001	-6.84
1050.424	-5.54
1050.846	-11.44
1051.269	-3.64
1051.691	-10.04
1052.113	-4.74
1052.536	-5.74
1052.958	-5.54
1053.38	1.56
1053.802	-10.54
1054.225	-0.84
1054.647	-12.54
1055.069	-4.24
1055.491	-1.74
1055.913	-9.84
1056.335	0.26
1056.757	-6.44
1057.179	-9.44
1057.601	-4.64
1058.023	-5.34
1058.445	-5.14
1058.867	-5.54
1059.289	-10.44
1059.711	-8.94
1060.133	-3.14
1060.555	-8.14
1060.976	-5.04
1061.398	-9.34
1061.82	-10.44
1062.241	-7.54
1062.663	-13.24
1063.085	-8.34
1063.506	-2.84
1063.928	-6.44
1064.35	-4.14
1064.771	-8.44
1065.193	-7.24
1065.614	-10.44
1066.035	-0.84
1066.457	-7.64
1066.878	-4.24
1067.3	-12.44
1067.721	-7.94
1068.142	-9.34
1068.564	-3.14
1068.985	-8.94
1069.406	-5.84
1069.827	-10.34
1070.248	-3.84
1070.67	-17.24
1071.091	-10.34
1071.512	-3.84
1071.933	-9.04
1072.354	-14.24
1072.775	-9.04
1073.196	-10.24
1073.617	-4.54
1074.038	-11.24
1074.459	-11.44
1074.88	-9.74
1075.3	1.86
1075.721	-10.84
1076.142	1.86
1076.563	-5.84
1076.983	-15.34
1077.404	-11.04
1077.825	-10.64
1078.246	-5.24
1078.666	-14.14
1079.087	-9.64
1079.507	-11.84
1079.928	-1.34
1080.348	-5.94
1080.769	-13.54
1081.189	-5.74
1081.61	-6.54
1082.03	-8.14
1082.451	-8.34
1082.871	-5.64
1083.291	-6.94
1083.711	-17.54
1084.132	-8.34
1084.552	-4.44
1084.972	-2.84
1085.392	-10.04
1085.813	-9.74
1086.233	-5.24
1086.653	-10.84
1087.073	-3.54
1087.493	-4.54
1087.913	-11.04
1088.333	-6.84
1088.753	-8.64
1089.173	-0.84
1089.593	-5.34
1090.013	-5.04
1090.433	2.66
1090.852	-10.14
1091.272	-9.74
1091.692	-5.14
1092.112	-2.44
1092.531	-9.84
1092.951	-15.94
1093.371	-7.34
1093.79	-4.94
1094.21	-7.64
1094.63	-11.04
1095.049	-6.74
1095.469	-8.04
1095.888	-2.44
1096.308	-1.24
1096.727	-2.04
1097.146	-10.74
1097.566	-2.14
1097.985	-9.54
1098.405	-5.04
1098.824	-8.54
1099.243	-1.74
1099.662	-11.34
1100.082	-8.74
1100.501	-0.84
1100.92	-11.94
1101.339	-9.24
1101.758	-8.34
