Data from 20171114-ORNL-Ar_H_NY_Subt18_08-08-56-935.txt Node
Date: Tue Nov 14 08:08:56 EST 2017
User: Ender
Spectrometer: HR+D1039
Trigger mode: 0
Integration Time (sec): 2.730000E-2
Scans to average: 10
Electric dark correction enabled: true
Nonlinearity correction enabled: false
Boxcar width: 0
XAxis mode: Wavelengths
Number of Pixels in Spectrum: 2048
>>>>>Begin Spectral Data<<<<<
187.836	-5.87
188.309	-5.87
188.782	-5.87
189.255	2.53
189.728	0.13
190.201	-0.27
190.674	0.03
191.147	3.63
191.619	-8.07
192.092	0.43
192.565	11.43
193.038	-1.47
193.511	2.83
193.984	-4.47
194.456	-2.97
194.929	-0.37
195.402	-0.07
195.874	2.53
196.347	-3.27
196.82	-8.37
197.292	2.33
197.765	-3.97
198.237	-9.07
198.71	0.13
199.182	-3.37
199.655	-1.17
200.127	-1.07
200.6	-3.37
201.072	0.23
201.544	-6.97
202.017	-4.77
202.489	1.03
202.961	6.73
203.433	-6.97
203.906	-8.37
204.378	-5.37
204.85	-8.47
205.322	-8.67
205.794	1.23
206.266	0.93
206.739	-10.07
207.211	-6.17
207.683	-4.97
208.155	-2.37
208.627	-12.97
209.099	-6.87
209.57	-7.37
210.042	-6.17
210.514	-1.67
210.986	-6.67
211.458	-6.37
211.93	-4.27
212.402	3.33
212.873	-2.77
213.345	-6.77
213.817	-14.17
214.288	-8.97
214.76	-8.77
215.232	-6.27
215.703	-7.57
216.175	-5.27
216.646	-6.07
217.118	-5.87
217.589	-3.27
218.061	-5.97
218.532	-7.57
219.004	-7.47
219.475	-4.77
219.946	-3.07
220.418	-7.47
220.889	5.83
221.36	-3.67
221.832	-1.77
222.303	-2.47
222.774	-1.27
223.245	-7.67
223.717	-9.77
224.188	-2.07
224.659	-5.37
225.13	-10.37
225.601	-5.37
226.072	0.63
226.543	-7.97
227.014	-2.17
227.485	-0.87
227.956	-5.77
228.427	-3.47
228.898	2.43
229.369	3.83
229.839	-0.67
230.31	-5.77
230.781	2.13
231.252	-5.87
231.722	-4.67
232.193	-11.07
232.664	-2.67
233.135	3.33
233.605	0.13
234.076	-6.57
234.546	-5.87
235.017	5.53
235.487	-4.97
235.958	-2.87
236.428	-9.67
236.899	1.13
237.369	-1.37
237.84	-4.97
238.31	0.03
238.78	-7.77
239.251	-6.17
239.721	-2.87
240.191	-7.27
240.662	-4.57
241.132	-2.57
241.602	-5.47
242.072	0.83
242.542	0.33
243.013	-8.57
243.483	1.53
243.953	-1.07
244.423	-0.87
244.893	-7.77
245.363	2.23
245.833	2.53
246.303	-10.77
246.773	1.43
247.243	-2.47
247.712	1.53
248.182	4.73
248.652	2.73
249.122	-6.97
249.592	1.73
250.061	11.33
250.531	12.73
251.001	-0.27
251.471	2.43
251.94	10.33
252.41	1.93
252.879	-1.77
253.349	0.23
253.818	1.63
254.288	-1.47
254.757	2.03
255.227	-2.67
255.696	-3.17
256.166	4.03
256.635	1.13
257.105	5.53
257.574	-0.57
258.043	5.33
258.513	-1.97
258.982	-0.27
259.451	-2.97
259.92	1.33
260.389	1.73
260.859	1.43
261.328	3.33
261.797	0.73
262.266	-0.47
262.735	1.93
263.204	0.33
263.673	-4.77
264.142	3.73
264.611	-3.97
265.08	-1.87
265.549	1.33
266.018	-2.37
266.487	1.53
266.955	-8.67
267.424	-1.87
267.893	-0.57
268.362	-5.17
268.83	-1.07
269.299	3.93
269.768	-0.57
270.236	3.33
270.705	2.43
271.174	1.03
271.642	2.93
272.111	2.93
272.579	3.53
273.048	6.33
273.516	4.53
273.985	7.53
274.453	9.23
274.922	11.33
275.39	-1.17
275.858	-5.77
276.327	0.33
276.795	7.83
277.263	4.13
277.731	11.13
278.2	22.73
278.668	23.73
279.136	21.33
279.604	4.53
280.072	7.63
280.54	4.23
281.008	11.73
281.477	9.73
281.945	2.23
282.413	10.03
282.881	10.23
283.348	2.03
283.816	10.03
284.284	11.13
284.752	15.83
285.22	6.43
285.688	10.63
286.156	9.63
286.623	23.43
287.091	24.23
287.559	12.13
288.026	3.13
288.494	10.63
288.962	2.03
289.429	-0.97
289.897	12.53
290.364	7.83
290.832	15.93
291.3	4.53
291.767	7.73
292.234	6.33
292.702	7.13
293.169	8.73
293.637	13.33
294.104	12.63
294.571	5.13
295.039	5.83
295.506	9.63
295.973	12.63
296.44	8.63
296.908	10.93
297.375	9.23
297.842	11.43
298.309	8.93
298.776	1.73
299.243	12.83
299.71	6.93
300.177	20.43
300.644	17.43
301.111	12.63
301.578	16.73
302.045	13.23
302.512	16.43
302.979	25.33
303.446	19.13
303.913	14.13
304.379	16.13
304.846	19.43
305.313	16.43
305.78	13.53
306.246	22.43
306.713	15.43
307.18	13.23
307.646	18.73
308.113	21.03
308.579	16.03
309.046	17.13
309.512	18.53
309.979	14.83
310.445	18.33
310.912	20.63
311.378	19.93
311.845	23.43
312.311	15.63
312.777	25.13
313.244	23.43
313.71	29.13
314.176	20.53
314.642	23.03
315.109	16.83
315.575	24.03
316.041	29.03
316.507	19.23
316.973	26.63
317.439	18.43
317.905	27.13
318.371	26.43
318.837	22.33
319.303	18.73
319.769	30.43
320.235	20.43
320.701	20.23
321.167	37.73
321.633	16.83
322.099	29.23
322.564	27.23
323.03	27.73
323.496	24.93
323.962	34.53
324.427	22.03
324.893	29.63
325.359	27.43
325.824	26.03
326.29	30.83
326.755	26.93
327.221	25.73
327.686	30.23
328.152	36.23
328.617	26.53
329.083	33.23
329.548	40.93
330.014	41.93
330.479	27.33
330.944	27.83
331.41	25.03
331.875	32.93
332.34	34.03
332.805	35.03
333.271	32.53
333.736	30.83
334.201	45.93
334.666	44.13
335.131	40.23
335.596	33.63
336.061	36.43
336.526	32.23
336.991	31.73
337.456	41.43
337.921	33.43
338.386	33.13
338.851	36.73
339.316	41.73
339.781	38.23
340.246	42.03
340.711	34.63
341.175	41.53
341.64	37.33
342.105	43.33
342.569	46.33
343.034	50.93
343.499	42.93
343.963	43.83
344.428	53.73
344.893	48.03
345.357	45.23
345.822	48.83
346.286	59.73
346.751	59.33
347.215	54.93
347.679	52.43
348.144	73.43
348.608	60.63
349.073	59.93
349.537	61.93
350.001	60.13
350.465	71.33
350.93	58.73
351.394	68.33
351.858	56.23
352.322	67.43
352.786	71.53
353.25	81.83
353.715	91.63
354.179	82.13
354.643	99.83
355.107	101.73
355.571	85.83
356.035	83.73
356.498	92.13
356.962	97.23
357.426	111.03
357.89	92.93
358.354	77.33
358.818	65.63
359.281	66.13
359.745	61.43
360.209	64.93
360.673	61.33
361.136	71.83
361.6	67.93
362.064	64.93
362.527	68.73
362.991	71.13
363.454	69.63
363.918	62.63
364.381	68.03
364.845	71.13
365.308	74.13
365.772	73.73
366.235	69.83
366.698	67.13
367.162	69.23
367.625	75.73
368.088	78.33
368.552	79.93
369.015	78.23
369.478	78.23
369.941	84.03
370.404	86.23
370.867	93.93
371.331	88.03
371.794	96.83
372.257	87.43
372.72	101.63
373.183	89.93
373.646	87.53
374.109	82.63
374.572	93.93
375.035	98.03
375.497	95.33
375.96	100.33
376.423	90.33
376.886	97.53
377.349	95.53
377.811	87.93
378.274	96.03
378.737	95.83
379.199	102.83
379.662	98.83
380.125	100.83
380.587	99.03
381.05	99.53
381.512	109.33
381.975	116.63
382.437	112.63
382.9	111.33
383.362	109.73
383.825	126.73
384.287	122.93
384.75	117.03
385.212	121.03
385.674	126.63
386.136	126.53
386.599	114.63
387.061	112.83
387.523	112.43
387.985	121.63
388.447	121.93
388.91	124.23
389.372	132.33
389.834	128.53
390.296	123.63
390.758	135.23
391.22	145.03
391.682	158.13
392.144	201.33
392.606	170.33
393.068	147.73
393.529	147.33
393.991	136.83
394.453	131.63
394.915	137.03
395.377	152.83
395.838	157.63
396.3	126.83
396.762	137.33
397.224	122.63
397.685	126.73
398.147	123.13
398.608	116.73
399.07	119.73
399.531	131.23
399.993	136.33
400.454	144.83
400.916	139.83
401.377	133.93
401.839	139.93
402.3	147.03
402.762	155.23
403.223	165.93
403.684	154.53
404.145	148.23
404.607	153.33
405.068	153.43
405.529	161.03
405.99	171.33
406.451	162.23
406.913	160.63
407.374	160.13
407.835	158.53
408.296	157.73
408.757	155.43
409.218	173.33
409.679	169.53
410.14	167.53
410.601	170.83
411.062	159.73
411.522	188.23
411.983	179.63
412.444	170.93
412.905	175.53
413.366	176.63
413.826	192.13
414.287	211.03
414.748	256.93
415.208	236.33
415.669	209.63
416.13	196.43
416.59	198.03
417.051	209.93
417.511	212.53
417.972	235.43
418.432	241.63
418.893	289.53
419.353	249.03
419.814	196.13
420.274	175.53
420.734	179.53
421.195	193.93
421.655	196.53
422.115	190.53
422.576	189.83
423.036	195.73
423.496	207.73
423.956	219.53
424.416	219.73
424.876	263.53
425.336	251.13
425.797	249.83
426.257	256.53
426.717	233.83
427.177	226.43
427.637	219.43
428.097	226.63
428.556	235.13
429.016	263.43
429.476	254.73
429.936	275.83
430.396	272.83
430.856	284.33
431.315	299.43
431.775	327.93
432.235	364.43
432.694	342.23
433.154	351.93
433.614	370.53
434.073	325.43
434.533	279.63
434.993	262.43
435.452	275.23
435.912	277.13
436.371	279.03
436.83	265.53
437.29	260.03
437.749	245.43
438.209	239.63
438.668	271.33
439.127	276.53
439.587	256.23
440.046	238.93
440.505	259.73
440.964	268.13
441.424	315.83
441.883	296.83
442.342	269.13
442.801	226.53
443.26	213.93
443.719	223.33
444.178	215.43
444.637	212.23
445.096	215.23
445.555	226.13
446.014	226.53
446.473	222.43
446.932	226.03
447.391	224.03
447.849	231.13
448.308	216.93
448.767	217.23
449.226	236.23
449.685	230.13
450.143	249.93
450.602	239.93
451.061	231.03
451.519	236.83
451.978	226.73
452.436	231.23
452.895	232.93
453.353	246.43
453.812	242.63
454.27	242.03
454.729	245.73
455.187	239.93
455.646	246.73
456.104	244.53
456.562	261.53
457.021	268.83
457.479	262.63
457.937	271.23
458.395	259.33
458.854	250.33
459.312	248.63
459.77	272.53
460.228	266.73
460.686	241.43
461.144	246.33
461.602	248.03
462.06	246.13
462.518	252.73
462.976	263.93
463.434	256.13
463.892	263.23
464.35	279.13
464.808	278.53
465.266	265.73
465.724	268.93
466.181	270.33
466.639	270.03
467.097	292.53
467.555	302.03
468.012	304.23
468.47	307.93
468.928	323.03
469.385	342.93
469.843	352.53
470.3	355.33
470.758	360.43
471.215	377.33
471.673	399.33
472.13	413.53
472.588	420.93
473.045	377.13
473.503	383.03
473.96	394.53
474.417	396.13
474.875	432.23
475.332	475.43
475.789	458.73
476.246	466.23
476.704	487.63
477.161	508.43
477.618	522.23
478.075	551.83
478.532	612.13
478.989	676.83
479.446	791.53
479.903	749.73
480.36	789.93
480.817	833.63
481.274	931.23
481.731	1019.23
482.188	1113.13
482.645	1221.43
483.102	1304.83
483.558	1432.53
484.015	1475.73
484.472	1455.53
484.929	1408.73
485.385	1368.43
485.842	1342.43
486.299	1269.63
486.755	1234.13
487.212	1051.03
487.668	900.53
488.125	824.53
488.582	763.03
489.038	725.63
489.494	704.13
489.951	672.43
490.407	656.63
490.864	648.43
491.32	631.43
491.776	646.93
492.233	652.73
492.689	612.83
493.145	612.33
493.602	599.63
494.058	613.43
494.514	611.43
494.97	639.03
495.426	646.83
495.882	619.03
496.338	603.73
496.794	613.53
497.251	606.33
497.707	616.93
498.163	624.73
498.618	634.63
499.074	640.73
499.53	667.33
499.986	665.43
500.442	644.33
500.898	628.83
501.354	618.13
501.809	628.93
502.265	632.23
502.721	645.33
503.177	650.63
503.632	657.33
504.088	664.23
504.543	677.23
504.999	704.93
505.455	655.13
505.91	625.23
506.366	636.53
506.821	630.53
507.277	633.83
507.732	635.73
508.187	641.23
508.643	645.03
509.098	647.43
509.553	668.43
510.009	671.63
510.464	673.43
510.919	693.93
511.375	706.83
511.83	719.03
512.285	723.13
512.74	768.23
513.195	788.53
513.65	767.93
514.105	773.33
514.56	775.93
515.015	791.43
515.47	812.13
515.925	791.03
516.38	802.03
516.835	800.33
517.29	780.63
517.745	783.23
518.2	768.93
518.655	755.23
519.109	743.83
519.564	752.13
520.019	727.43
520.474	736.63
520.928	730.73
521.383	726.33
521.838	715.53
522.292	720.13
522.747	716.93
523.201	713.83
523.656	716.13
524.11	695.53
524.565	701.73
525.019	699.93
525.474	700.53
525.928	706.33
526.382	706.93
526.837	705.53
527.291	706.63
527.745	699.43
528.2	695.73
528.654	692.13
529.108	689.53
529.562	703.13
530.016	694.83
530.47	684.33
530.925	691.13
531.379	701.83
531.833	707.73
532.287	707.43
532.741	694.73
533.195	704.13
533.649	711.93
534.103	725.83
534.556	709.93
535.01	720.03
535.464	704.53
535.918	720.63
536.372	725.33
536.826	724.03
537.279	721.73
537.733	722.93
538.187	712.53
538.64	717.23
539.094	729.43
539.548	730.33
540.001	733.83
540.455	736.23
540.908	733.13
541.362	740.33
541.815	750.13
542.269	767.93
542.722	782.33
543.175	781.53
543.629	777.13
544.082	805.33
544.536	798.43
544.989	785.83
545.442	793.03
545.895	803.43
546.349	809.23
546.802	806.13
547.255	808.13
547.708	821.83
548.161	823.93
548.614	828.43
549.067	838.73
549.52	828.73
549.973	829.83
550.426	822.83
550.879	806.53
551.332	804.03
551.785	820.03
552.238	823.23
552.691	821.83
553.144	841.93
553.596	862.43
554.049	863.43
554.502	898.23
554.955	923.33
555.407	925.83
555.86	908.53
556.313	913.03
556.765	892.03
557.218	900.03
557.67	897.63
558.123	880.03
558.576	884.73
559.028	892.23
559.48	902.43
559.933	885.63
560.385	852.03
560.838	829.93
561.29	797.83
561.742	788.83
562.195	786.23
562.647	781.53
563.099	787.23
563.551	784.53
564.004	800.93
564.456	783.43
564.908	772.23
565.36	763.13
565.812	738.63
566.264	728.43
566.716	728.73
567.168	716.63
567.62	726.03
568.072	709.53
568.524	708.13
568.976	702.03
569.428	700.53
569.88	687.73
570.332	690.93
570.784	698.43
571.235	704.43
571.687	709.93
572.139	719.23
572.59	724.73
573.042	716.93
573.494	719.83
573.945	725.93
574.397	701.23
574.849	704.03
575.3	705.63
575.752	695.43
576.203	689.53
576.655	693.33
577.106	685.93
577.557	691.93
578.009	675.13
578.46	680.83
578.912	678.03
579.363	685.53
579.814	679.13
580.265	678.03
580.717	684.93
581.168	681.03
581.619	682.23
582.07	694.33
582.521	694.93
582.972	686.53
583.423	687.73
583.875	700.33
584.326	704.63
584.777	740.33
585.227	777.83
585.678	825.83
586.129	875.03
586.58	921.83
587.031	954.43
587.482	1032.03
587.933	1129.13
588.384	1031.03
588.834	878.43
589.285	798.53
589.736	788.23
590.186	783.23
590.637	785.63
591.088	754.93
591.538	745.73
591.989	746.53
592.439	739.93
592.89	733.93
593.34	727.13
593.791	718.63
594.241	719.63
594.692	726.03
595.142	715.53
595.593	713.93
596.043	719.63
596.493	723.33
596.943	725.13
597.394	734.93
597.844	727.93
598.294	751.93
598.744	777.63
599.195	794.33
599.645	837.53
600.095	886.13
600.545	936.53
600.995	999.83
601.445	1047.73
601.895	1114.63
602.345	1158.93
602.795	1154.23
603.245	1081.23
603.695	1042.13
604.145	982.43
604.594	927.83
605.044	882.23
605.494	813.73
605.944	778.93
606.393	766.53
606.843	740.13
607.293	748.23
607.743	754.33
608.192	758.83
608.642	774.63
609.091	772.73
609.541	774.23
609.99	775.23
610.44	783.83
610.889	724.63
611.339	715.33
611.788	696.23
612.238	711.33
612.687	730.73
613.136	714.23
613.586	739.63
614.035	737.03
614.484	738.03
614.933	742.43
615.383	733.23
615.832	736.73
616.281	732.23
616.73	695.73
617.179	677.33
617.628	661.33
618.077	646.93
618.526	646.73
618.975	629.43
619.424	628.73
619.873	624.83
620.322	637.43
620.771	624.53
621.22	619.73
621.669	606.13
622.118	605.93
622.567	588.83
623.015	580.03
623.464	580.03
623.913	572.63
624.361	566.93
624.81	576.13
625.259	580.13
625.707	567.23
626.156	569.13
626.604	579.43
627.053	568.93
627.501	579.13
627.95	591.13
628.398	590.23
628.847	582.33
629.295	589.63
629.744	588.33
630.192	584.73
630.64	574.93
631.089	571.93
631.537	572.63
631.985	568.93
632.433	579.73
632.881	575.43
633.33	601.93
633.778	588.63
634.226	559.73
634.674	564.53
635.122	570.33
635.57	586.43
636.018	599.73
636.466	588.33
636.914	570.63
637.362	587.43
637.81	590.63
638.258	608.23
638.705	592.33
639.153	626.93
639.601	641.43
640.049	664.93
640.497	690.73
640.944	703.53
641.392	666.53
641.84	645.03
642.287	596.33
642.735	584.03
643.182	576.93
643.63	576.63
644.078	579.33
644.525	594.53
644.973	599.33
645.42	621.93
645.867	627.33
646.315	646.43
646.762	680.93
647.21	706.53
647.657	721.93
648.104	762.03
648.551	774.93
648.999	848.23
649.446	926.73
649.893	1006.03
650.34	1153.73
650.787	1382.63
651.234	1730.53
651.682	2231.73
652.129	3042.83
652.576	4333.03
653.023	6342.03
653.47	8582.23
653.917	10590.43
654.363	12123.43
654.81	13278.73
655.257	12586.03
655.704	8325.73
656.151	4991.93
656.598	3272.33
657.044	2345.03
657.491	1804.23
657.938	1447.83
658.385	1214.33
658.831	1056.83
659.278	957.23
659.724	855.73
660.171	773.33
660.618	724.83
661.064	700.33
661.511	672.63
661.957	660.93
662.404	647.33
662.85	651.33
663.296	631.73
663.743	569.03
664.189	554.83
664.635	544.03
665.082	531.83
665.528	543.33
665.974	533.23
666.42	526.33
666.867	515.93
667.313	497.03
667.759	480.83
668.205	472.03
668.651	480.43
669.097	477.43
669.543	469.63
669.989	460.73
670.435	460.33
670.881	461.43
671.327	468.73
671.773	485.03
672.219	511.33
672.665	571.33
673.11	609.93
673.556	657.63
674.002	690.83
674.448	679.03
674.893	574.63
675.339	488.23
675.785	454.93
676.23	432.33
676.676	417.23
677.122	404.73
677.567	389.23
678.013	388.43
678.458	372.13
678.904	371.63
679.349	356.93
679.794	359.43
680.24	371.73
680.685	366.43
681.131	359.43
681.576	360.43
682.021	363.33
682.466	360.83
682.912	360.23
683.357	365.63
683.802	395.73
684.247	432.73
684.692	475.03
685.137	518.73
685.583	551.13
686.028	577.03
686.473	538.93
686.918	456.13
687.363	427.23
687.807	407.33
688.252	383.33
688.697	365.83
689.142	344.83
689.587	339.73
690.032	343.93
690.477	360.23
690.921	365.53
691.366	395.33
691.811	414.63
692.255	449.93
692.7	484.03
693.145	539.23
693.589	750.73
694.034	1233.63
694.478	1638.63
694.923	1805.63
695.367	2323.93
695.812	1249.03
696.256	512.33
696.701	390.83
697.145	353.93
697.59	342.23
698.034	333.23
698.478	344.33
698.922	334.63
699.367	339.73
699.811	348.13
700.255	365.83
700.699	404.23
701.143	446.73
701.588	498.23
702.032	541.13
702.476	525.93
702.92	513.53
703.364	517.73
703.808	685.73
704.252	1122.53
704.696	1547.43
705.14	1729.43
705.584	2194.93
706.027	1116.03
706.471	541.53
706.915	412.23
707.359	365.73
707.803	336.33
708.246	320.63
708.69	321.93
709.134	334.03
709.577	332.43
710.021	333.53
710.465	316.33
710.908	315.43
711.352	311.23
711.795	323.63
712.239	373.33
712.682	407.43
713.126	425.73
713.569	466.03
714.012	373.33
714.456	322.23
714.899	306.33
715.342	286.53
715.786	271.93
716.229	270.13
716.672	267.83
717.115	261.73
717.558	267.43
718.002	262.93
718.445	278.43
718.888	300.73
719.331	300.63
719.774	317.43
720.217	315.73
720.66	293.53
721.103	279.63
721.546	255.33
721.989	260.93
722.432	242.93
722.874	247.53
723.317	239.73
723.76	247.63
724.203	265.43
724.645	335.33
725.088	476.33
725.531	599.63
725.974	667.33
726.416	571.83
726.859	319.63
727.301	256.73
727.744	251.03
728.187	240.93
728.629	245.53
729.071	249.23
729.514	278.83
729.956	288.03
730.399	305.83
730.841	299.53
731.283	291.43
731.726	277.33
732.168	275.13
732.61	282.43
733.053	305.23
733.495	337.03
733.937	377.23
734.379	424.53
734.821	468.63
735.263	574.83
735.705	907.63
736.148	1721.93
736.59	2754.03
737.032	3152.23
737.474	2574.13
737.916	860.73
738.357	453.43
738.799	340.33
739.241	309.63
739.683	296.83
740.125	306.43
740.567	308.33
741.008	331.43
741.45	323.23
741.892	330.83
742.334	355.93
742.775	370.43
743.217	358.13
743.658	275.83
744.1	263.93
744.542	269.63
744.983	329.83
745.425	354.23
745.866	358.33
746.307	293.13
746.749	299.03
747.19	348.23
747.632	494.83
748.073	975.53
748.514	2036.43
748.956	3010.93
749.397	3783.63
749.838	3148.73
750.279	3066.53
750.72	1566.83
751.162	582.93
751.603	337.93
752.044	263.43
752.485	225.23
752.926	219.13
753.367	206.93
753.808	199.33
754.249	197.33
754.69	196.63
755.131	187.23
755.572	197.03
756.013	187.13
756.453	191.53
756.894	192.53
757.335	203.83
757.776	205.93
758.216	202.33
758.657	207.33
759.098	215.23
759.538	238.03
759.979	283.53
760.42	403.03
760.86	786.63
761.301	2057.33
761.741	4806.93
762.182	6631.63
762.622	4692.73
763.063	1395.03
763.503	570.23
763.943	355.13
764.384	309.73
764.824	326.83
765.264	329.83
765.705	261.83
766.145	202.13
766.585	195.23
767.025	179.73
767.465	181.73
767.906	215.23
768.346	259.63
768.786	264.23
769.226	244.83
769.666	342.33
770.106	689.43
770.546	1709.33
770.986	2757.53
771.426	2442.13
771.866	826.73
772.306	350.13
772.745	218.03
773.185	173.03
773.625	173.03
774.065	162.63
774.505	184.43
774.944	263.13
775.384	502.03
775.824	821.23
776.263	782.63
776.703	367.73
777.142	193.03
777.582	146.83
778.021	132.53
778.461	137.83
778.9	133.83
779.34	134.03
779.779	117.63
780.219	107.93
780.658	108.73
781.097	118.23
781.537	118.03
781.976	106.23
782.415	111.83
782.855	104.93
783.294	108.63
783.733	108.13
784.172	111.93
784.611	106.53
785.05	111.23
785.489	117.93
785.928	120.63
786.367	121.73
786.806	124.13
787.245	139.03
787.684	141.93
788.123	155.73
788.562	149.63
789.001	134.83
789.44	125.23
789.879	114.23
790.317	119.63
790.756	131.83
791.195	127.23
791.634	159.83
792.072	220.33
792.511	401.33
792.95	1108.33
793.388	2212.83
793.827	1960.93
794.265	706.93
794.704	295.63
795.142	191.43
795.581	155.03
796.019	142.83
796.458	134.93
796.896	127.13
797.334	139.33
797.773	164.03
798.211	236.83
798.649	481.93
799.087	1102.43
799.526	1699.23
799.964	2147.73
800.402	2056.63
800.84	785.33
801.278	322.03
801.716	199.23
802.154	166.23
802.592	152.33
803.03	145.63
803.468	144.23
803.906	156.43
804.344	154.03
804.782	156.03
805.22	144.63
805.658	141.83
806.096	153.43
806.533	168.63
806.971	187.43
807.409	231.23
807.847	338.83
808.284	733.83
808.722	2050.83
809.16	3439.43
809.597	3391.63
810.035	5807.93
810.472	5906.03
810.91	2183.83
811.347	858.83
811.785	428.63
812.222	271.03
812.66	207.03
813.097	174.03
813.535	145.13
813.972	133.13
814.409	119.93
814.846	114.43
815.284	109.63
815.721	105.33
816.158	109.43
816.595	115.63
817.032	162.83
817.47	186.63
817.907	144.73
818.344	121.83
818.781	108.53
819.218	100.53
819.655	134.43
820.092	195.83
820.529	217.13
820.966	178.33
821.403	132.03
821.839	104.13
822.276	100.93
822.713	128.53
823.15	135.93
823.587	124.33
824.023	157.43
824.46	335.73
824.897	974.53
825.333	1391.23
825.77	603.93
826.206	238.03
826.643	147.03
827.08	108.03
827.516	81.03
827.953	78.23
828.389	84.53
828.825	73.63
829.262	67.43
829.698	68.63
830.135	61.83
830.571	65.83
831.007	58.03
831.443	65.73
831.88	62.23
832.316	56.73
832.752	68.93
833.188	65.03
833.624	72.03
834.06	66.13
834.497	68.33
834.933	72.73
835.369	80.33
835.805	68.53
836.241	78.23
836.677	85.83
837.112	92.23
837.548	117.93
837.984	148.33
838.42	214.53
838.856	551.03
839.292	1641.63
839.727	2383.03
840.163	1136.93
840.599	1022.53
841.034	2184.63
841.47	2192.83
841.906	818.43
842.341	350.43
842.777	222.53
843.212	243.23
843.648	233.83
844.083	129.53
844.519	89.23
844.954	72.43
845.39	60.83
845.825	60.93
846.261	63.33
846.696	52.93
847.131	57.03
847.566	58.23
848.002	54.73
848.437	50.83
848.872	64.93
849.307	66.63
849.742	92.83
850.177	197.93
850.613	602.23
851.048	911.23
851.483	397.43
851.918	170.23
852.353	94.63
852.788	56.03
853.223	56.33
853.657	57.23
854.092	51.33
854.527	47.53
854.962	45.93
855.397	42.23
855.832	51.23
856.266	39.93
856.701	42.73
857.136	44.33
857.57	43.83
858.005	53.13
858.44	60.73
858.874	42.13
859.309	49.83
859.743	42.33
860.178	43.73
860.612	44.03
861.047	62.43
861.481	69.73
861.915	80.93
862.35	52.13
862.784	37.43
863.218	42.93
863.653	34.93
864.087	45.33
864.521	53.43
864.955	71.83
865.39	165.83
865.824	181.33
866.258	116.33
866.692	175.73
867.126	183.43
867.56	110.83
867.994	56.43
868.428	42.13
868.862	47.63
869.296	55.13
869.73	63.33
870.164	60.73
870.598	48.63
871.031	39.23
871.465	33.33
871.899	26.93
872.333	22.63
872.766	27.13
873.2	27.43
873.634	26.83
874.067	19.93
874.501	27.83
874.935	41.23
875.368	33.63
875.802	28.33
876.235	25.63
876.669	32.23
877.102	23.43
877.535	28.13
877.969	24.53
878.402	27.33
878.836	19.83
879.269	23.83
879.702	28.73
880.135	23.23
880.569	22.93
881.002	25.23
881.435	19.93
881.868	17.33
882.301	23.83
882.734	18.13
883.167	22.13
883.601	18.53
884.034	18.33
884.467	16.23
884.899	22.13
885.332	18.03
885.765	16.33
886.198	19.13
886.631	14.93
887.064	20.43
887.497	22.83
887.929	20.33
888.362	12.93
888.795	19.13
889.228	20.23
889.66	24.53
890.093	18.73
890.526	17.03
890.958	14.33
891.391	18.53
891.823	27.93
892.256	19.73
892.688	15.23
893.121	17.13
893.553	17.53
893.985	15.13
894.418	16.83
894.85	10.53
895.282	17.23
895.715	15.93
896.147	15.63
896.579	17.33
897.011	15.43
897.444	14.43
897.876	17.93
898.308	17.73
898.74	14.13
899.172	13.83
899.604	19.93
900.036	19.13
900.468	16.33
900.9	14.53
901.332	13.53
901.764	12.03
902.196	21.13
902.628	16.23
903.06	16.23
903.491	31.83
903.923	20.93
904.355	18.53
904.787	24.13
905.218	22.33
905.65	18.93
906.082	15.93
906.513	12.33
906.945	15.63
907.376	16.23
907.808	14.73
908.239	18.13
908.671	21.43
909.102	21.93
909.534	28.43
909.965	52.53
910.397	103.13
910.828	334.13
911.259	484.63
911.691	225.73
912.122	109.33
912.553	54.13
912.984	39.53
913.415	29.93
913.847	25.83
914.278	17.53
914.709	12.33
915.14	17.43
915.571	11.83
916.002	8.83
916.433	20.63
916.864	16.13
917.295	11.53
917.726	21.43
918.157	12.43
918.587	30.23
919.018	21.23
919.449	23.93
919.88	24.83
920.311	28.03
920.741	50.33
921.172	184.83
921.603	156.83
922.033	76.63
922.464	43.33
922.895	24.03
923.325	25.13
923.756	11.03
924.186	17.23
924.617	16.73
925.047	29.73
925.478	36.83
925.908	34.33
926.338	24.53
926.769	13.13
927.199	16.83
927.629	9.43
928.06	15.83
928.49	12.33
928.92	17.33
929.35	13.83
929.78	8.63
930.21	7.83
930.641	11.43
931.071	7.23
931.501	-2.07
931.931	11.93
932.361	4.03
932.791	5.53
933.221	0.53
933.651	6.53
934.08	16.13
934.51	29.53
934.94	7.13
935.37	7.53
935.8	14.53
936.229	0.93
936.659	8.13
937.089	2.73
937.519	15.93
937.948	21.53
938.378	16.83
938.807	3.83
939.237	1.83
939.666	11.53
940.096	-2.87
940.525	8.43
940.955	5.63
941.384	7.43
941.814	-3.57
942.243	0.63
942.672	0.73
943.102	-4.17
943.531	2.43
943.96	6.63
944.39	2.03
944.819	1.23
945.248	7.93
945.677	1.93
946.106	4.53
946.535	9.63
946.964	-2.57
947.393	3.83
947.822	1.33
948.251	-2.87
948.68	-1.37
949.109	3.63
949.538	-0.87
949.967	3.03
950.396	0.03
950.825	-1.87
951.254	0.93
951.682	-5.87
952.111	4.03
952.54	4.53
952.969	-8.77
953.397	-9.67
953.826	5.73
954.254	-10.37
954.683	6.33
955.112	1.03
955.54	1.53
955.969	8.43
956.397	0.83
956.826	2.43
957.254	0.93
957.682	5.13
958.111	7.03
958.539	-0.87
958.967	-1.07
959.396	-1.37
959.824	4.33
960.252	-2.97
960.68	1.13
961.109	-9.17
961.537	-10.27
961.965	-0.37
962.393	-0.77
962.821	0.93
963.249	-4.67
963.677	8.73
964.105	5.23
964.533	44.13
964.961	42.43
965.389	25.63
965.817	10.73
966.245	0.73
966.672	-1.57
967.1	-6.47
967.528	-3.97
967.956	-9.87
968.383	-1.07
968.811	-4.27
969.239	-0.37
969.666	-7.47
970.094	-3.87
970.522	0.73
970.949	-6.37
971.377	-4.37
971.804	-5.17
972.232	-1.57
972.659	-1.47
973.087	-4.67
973.514	-3.07
973.941	-5.57
974.369	3.43
974.796	-3.87
975.223	2.13
975.651	-3.17
976.078	1.13
976.505	0.73
976.932	3.13
977.359	11.33
977.786	8.93
978.214	5.33
978.641	1.53
979.068	-8.37
979.495	-4.27
979.922	0.33
980.349	-8.97
980.776	8.23
981.202	-3.27
981.629	0.53
982.056	1.73
982.483	-2.37
982.91	4.43
983.337	-5.57
983.763	2.23
984.19	-4.07
984.617	-2.07
985.043	-9.57
985.47	2.63
985.897	-1.87
986.323	-4.77
986.75	10.13
987.176	-1.47
987.603	-1.37
988.029	-1.47
988.456	-9.27
988.882	0.83
989.308	-9.07
989.735	-5.67
990.161	2.43
990.587	-2.17
991.014	-11.47
991.44	7.93
991.866	-0.27
992.292	-8.07
992.719	-4.47
993.145	3.33
993.571	-12.57
993.997	-6.07
994.423	-4.47
994.849	-5.97
995.275	1.13
995.701	-1.07
996.127	-2.77
996.553	-0.17
996.979	-1.47
997.405	-2.77
997.83	-12.27
998.256	-5.87
998.682	-10.97
999.108	-8.07
999.534	-0.47
999.959	2.33
1000.385	-1.17
1000.811	-0.07
1001.236	-5.47
1001.662	-9.57
1002.087	-7.97
1002.513	2.13
1002.938	-4.97
1003.364	-6.17
1003.789	-5.67
1004.215	-2.27
1004.64	-4.27
1005.066	0.63
1005.491	-3.37
1005.916	-4.57
1006.342	-5.07
1006.767	-4.97
1007.192	4.83
1007.617	-2.17
1008.042	-2.17
1008.468	-8.67
1008.893	-6.97
1009.318	-2.27
1009.743	-2.17
1010.168	2.03
1010.593	3.63
1011.018	-3.67
1011.443	-7.47
1011.868	-2.17
1012.293	-2.37
1012.718	-7.37
1013.143	-1.17
1013.567	-2.57
1013.992	-4.67
1014.417	-11.77
1014.842	-6.47
1015.267	-4.37
1015.691	-9.97
1016.116	4.13
1016.541	-1.97
1016.965	3.63
1017.39	3.13
1017.814	-5.67
1018.239	3.03
1018.663	-4.47
1019.088	-7.47
1019.512	1.83
1019.937	0.53
1020.361	-8.67
1020.785	-14.27
1021.21	-3.57
1021.634	-2.87
1022.058	-0.97
1022.483	1.33
1022.907	-3.67
1023.331	-5.07
1023.755	-3.57
1024.179	-3.77
1024.604	-1.67
1025.028	-9.67
1025.452	-6.47
1025.876	-0.47
1026.3	-6.07
1026.724	-13.67
1027.148	-5.97
1027.572	-10.77
1027.996	-4.37
1028.42	-0.97
1028.843	0.53
1029.267	-7.67
1029.691	-4.97
1030.115	-7.57
1030.539	-2.97
1030.962	-10.87
1031.386	-10.57
1031.81	-0.17
1032.233	-1.57
1032.657	-3.57
1033.08	-0.37
1033.504	-1.27
1033.927	-7.87
1034.351	-1.47
1034.774	-2.17
1035.198	0.53
1035.621	-8.67
1036.045	-7.77
1036.468	-1.77
1036.891	-12.37
1037.315	-10.17
1037.738	-8.67
1038.161	-4.27
1038.584	-8.37
1039.008	-8.77
1039.431	-1.17
1039.854	4.33
1040.277	-4.17
1040.7	-14.07
1041.123	-2.87
1041.546	-8.07
1041.969	-9.37
1042.392	-7.07
1042.815	-4.07
1043.238	-1.67
1043.661	-1.07
1044.084	-4.47
1044.507	-4.37
1044.93	-8.47
1045.352	-6.07
1045.775	-2.87
1046.198	-4.07
1046.621	-1.07
1047.043	-1.27
1047.466	5.23
1047.889	-4.67
1048.311	-1.57
1048.734	1.33
1049.156	-4.67
1049.579	-3.47
1050.001	-7.67
1050.424	3.73
1050.846	-6.07
1051.269	-7.27
1051.691	-8.57
1052.113	-8.27
1052.536	-3.57
1052.958	-0.77
1053.38	-4.07
1053.802	-6.37
1054.225	3.13
1054.647	-7.57
1055.069	-0.87
1055.491	3.13
1055.913	-5.07
1056.335	-0.87
1056.757	-2.47
1057.179	-11.77
1057.601	-5.07
1058.023	-3.77
1058.445	-4.97
1058.867	-7.37
1059.289	-3.17
1059.711	-6.47
1060.133	-0.47
1060.555	-8.97
1060.976	-8.27
1061.398	-13.07
1061.82	-5.97
1062.241	-7.57
1062.663	-11.47
1063.085	-10.47
1063.506	-3.27
1063.928	-2.17
1064.35	-2.07
1064.771	-14.27
1065.193	-4.97
1065.614	-8.57
1066.035	-4.07
1066.457	0.23
1066.878	5.73
1067.3	-7.37
1067.721	-3.67
1068.142	-8.07
1068.564	-3.17
1068.985	-6.87
1069.406	-8.77
1069.827	-12.07
1070.248	-3.17
1070.67	-11.87
1071.091	-7.77
1071.512	-6.77
1071.933	-9.77
1072.354	-5.67
1072.775	-7.07
1073.196	-11.67
1073.617	-1.97
1074.038	-10.27
1074.459	-4.77
1074.88	-9.57
1075.3	-2.37
1075.721	-8.17
1076.142	0.13
1076.563	-5.97
1076.983	-16.57
1077.404	-6.97
1077.825	-8.27
1078.246	-7.97
1078.666	-16.47
1079.087	-5.57
1079.507	-9.17
1079.928	-0.17
1080.348	-2.67
1080.769	-3.77
1081.189	-5.87
1081.61	-6.07
1082.03	-3.87
1082.451	-8.07
1082.871	-0.77
1083.291	-8.87
1083.711	-12.47
1084.132	-6.17
1084.552	-7.17
1084.972	-6.07
1085.392	-6.37
1085.813	-14.97
1086.233	-5.87
1086.653	-10.47
1087.073	-4.27
1087.493	-1.87
1087.913	-6.87
1088.333	-13.07
1088.753	-10.17
1089.173	-3.07
1089.593	-7.67
1090.013	0.03
1090.433	0.83
1090.852	-1.17
1091.272	-3.17
1091.692	-5.07
1092.112	-0.77
1092.531	-11.27
1092.951	-16.67
1093.371	-5.57
1093.79	1.53
1094.21	-5.67
1094.63	-6.77
1095.049	-4.87
1095.469	-6.97
1095.888	-8.17
1096.308	-0.17
1096.727	7.53
1097.146	-5.07
1097.566	-5.77
1097.985	-8.17
1098.405	1.03
1098.824	-9.87
1099.243	-9.57
1099.662	-9.87
1100.082	-10.27
1100.501	-0.17
1100.92	-6.77
1101.339	-0.67
1101.758	-8.37
