Data from 20171114-ORNL-Ar_H_NY_Subt18_08-04-46-557.txt Node
Date: Tue Nov 14 08:04:46 EST 2017
User: Ender
Spectrometer: HR+D1039
Trigger mode: 0
Integration Time (sec): 2.730000E-2
Scans to average: 10
Electric dark correction enabled: true
Nonlinearity correction enabled: false
Boxcar width: 0
XAxis mode: Wavelengths
Number of Pixels in Spectrum: 2048
>>>>>Begin Spectral Data<<<<<
187.836	-5.29
188.309	-5.29
188.782	-5.29
189.255	2.41
189.728	-1.49
190.201	11.51
190.674	2.71
191.147	0.11
191.619	-5.89
192.092	-3.69
192.565	5.51
193.038	-0.69
193.511	-0.89
193.984	4.31
194.456	-3.19
194.929	-3.09
195.402	2.51
195.874	-4.89
196.347	1.41
196.82	-7.79
197.292	5.41
197.765	-3.69
198.237	-6.69
198.71	-0.59
199.182	0.21
199.655	-1.09
200.127	4.31
200.6	-2.19
201.072	1.01
201.544	-5.99
202.017	-3.49
202.489	0.31
202.961	0.41
203.433	-8.79
203.906	0.11
204.378	-3.29
204.85	-5.39
205.322	-7.79
205.794	-4.79
206.266	-2.09
206.739	-9.29
207.211	4.81
207.683	-6.69
208.155	3.91
208.627	-3.09
209.099	-1.29
209.57	-3.89
210.042	-1.69
210.514	-2.49
210.986	-1.89
211.458	-2.99
211.93	-7.49
212.402	0.91
212.873	-9.39
213.345	-5.59
213.817	-14.69
214.288	-3.39
214.76	-13.99
215.232	-4.69
215.703	1.21
216.175	-3.09
216.646	-2.79
217.118	-1.39
217.589	-4.09
218.061	1.81
218.532	-5.69
219.004	-1.29
219.475	-1.09
219.946	-1.49
220.418	-7.19
220.889	4.61
221.36	-0.09
221.832	-5.29
222.303	-4.89
222.774	-3.89
223.245	-6.89
223.717	-6.19
224.188	-5.89
224.659	-5.89
225.13	-10.39
225.601	3.31
226.072	5.51
226.543	3.31
227.014	-0.79
227.485	-4.69
227.956	-4.39
228.427	-2.69
228.898	-0.49
229.369	-0.99
229.839	-1.39
230.31	-3.09
230.781	6.21
231.252	-3.69
231.722	-6.69
232.193	-1.19
232.664	4.81
233.135	0.91
233.605	2.21
234.076	-8.09
234.546	6.31
235.017	4.21
235.487	4.51
235.958	-3.99
236.428	0.91
236.899	4.91
237.369	4.41
237.84	2.31
238.31	8.71
238.78	4.01
239.251	-1.99
239.721	3.01
240.191	0.91
240.662	-2.29
241.132	6.71
241.602	-0.29
242.072	0.71
242.542	9.61
243.013	-2.49
243.483	4.81
243.953	5.61
244.423	-1.59
244.893	-0.29
245.363	2.91
245.833	4.21
246.303	4.51
246.773	8.31
247.243	6.21
247.712	1.31
248.182	10.21
248.652	10.31
249.122	2.11
249.592	18.81
250.061	19.91
250.531	33.01
251.001	19.01
251.471	26.61
251.94	24.41
252.41	13.31
252.879	3.31
253.349	13.81
253.818	9.41
254.288	0.11
254.757	9.11
255.227	9.51
255.696	0.91
256.166	1.71
256.635	11.41
257.105	10.51
257.574	5.71
258.043	10.41
258.513	12.91
258.982	17.31
259.451	7.31
259.92	17.91
260.389	12.71
260.859	25.61
261.328	19.71
261.797	17.81
262.266	8.01
262.735	16.01
263.204	12.11
263.673	2.81
264.142	7.01
264.611	-0.09
265.08	7.11
265.549	9.31
266.018	6.01
266.487	0.31
266.955	-7.19
267.424	4.11
267.893	8.41
268.362	1.61
268.83	2.31
269.299	12.51
269.768	7.51
270.236	14.51
270.705	0.81
271.174	10.81
271.642	12.31
272.111	13.81
272.579	15.81
273.048	26.01
273.516	30.01
273.985	35.11
274.453	27.51
274.922	19.61
275.39	14.01
275.858	6.21
276.327	13.61
276.795	17.91
277.263	17.01
277.731	27.41
278.2	61.21
278.668	64.41
279.136	57.11
279.604	27.01
280.072	22.31
280.54	13.81
281.008	9.41
281.477	18.71
281.945	16.71
282.413	16.01
282.881	10.61
283.348	10.31
283.816	18.01
284.284	20.71
284.752	21.01
285.22	18.11
285.688	18.61
286.156	17.71
286.623	48.11
287.091	57.61
287.559	31.41
288.026	21.81
288.494	14.91
288.962	10.91
289.429	13.61
289.897	21.61
290.364	12.71
290.832	17.71
291.3	14.71
291.767	18.11
292.234	21.01
292.702	18.01
293.169	18.81
293.637	26.71
294.104	22.81
294.571	19.21
295.039	13.31
295.506	14.61
295.973	22.81
296.44	21.01
296.908	18.31
297.375	24.01
297.842	20.61
298.309	21.11
298.776	18.31
299.243	25.01
299.71	24.91
300.177	22.91
300.644	22.31
301.111	22.61
301.578	24.51
302.045	19.91
302.512	35.61
302.979	28.11
303.446	20.51
303.913	27.01
304.379	18.51
304.846	29.31
305.313	29.81
305.78	21.41
306.246	30.11
306.713	26.81
307.18	32.31
307.646	31.21
308.113	29.41
308.579	28.81
309.046	35.11
309.512	32.51
309.979	23.81
310.445	28.31
310.912	25.91
311.378	31.81
311.845	30.31
312.311	35.51
312.777	39.01
313.244	34.31
313.71	37.11
314.176	31.91
314.642	38.11
315.109	33.71
315.575	35.11
316.041	41.01
316.507	32.41
316.973	38.01
317.439	36.61
317.905	40.71
318.371	40.81
318.837	39.01
319.303	37.51
319.769	39.01
320.235	34.01
320.701	37.61
321.167	45.91
321.633	37.41
322.099	42.91
322.564	45.21
323.03	40.51
323.496	47.41
323.962	45.11
324.427	46.11
324.893	40.21
325.359	41.11
325.824	43.01
326.29	34.21
326.755	43.51
327.221	45.31
327.686	41.01
328.152	52.51
328.617	44.71
329.083	47.71
329.548	54.51
330.014	46.91
330.479	44.21
330.944	46.11
331.41	45.41
331.875	50.61
332.34	45.31
332.805	47.71
333.271	50.41
333.736	47.11
334.201	53.71
334.666	52.41
335.131	50.41
335.596	49.21
336.061	50.81
336.526	41.71
336.991	50.01
337.456	56.71
337.921	51.31
338.386	45.91
338.851	48.21
339.316	47.11
339.781	45.21
340.246	54.81
340.711	47.01
341.175	52.81
341.64	49.41
342.105	52.31
342.569	54.21
343.034	62.61
343.499	56.11
343.963	52.71
344.428	64.51
344.893	60.11
345.357	62.01
345.822	68.31
346.286	70.01
346.751	66.91
347.215	74.11
347.679	79.11
348.144	98.81
348.608	83.21
349.073	67.91
349.537	73.81
350.001	79.91
350.465	84.81
350.93	76.31
351.394	76.51
351.858	73.81
352.322	80.81
352.786	88.61
353.25	94.81
353.715	115.11
354.179	106.61
354.643	123.31
355.107	122.91
355.571	110.21
356.035	101.21
356.498	116.71
356.962	122.01
357.426	128.11
357.89	118.11
358.354	97.01
358.818	80.21
359.281	79.31
359.745	80.81
360.209	76.31
360.673	75.01
361.136	85.51
361.6	87.91
362.064	80.91
362.527	87.01
362.991	93.01
363.454	79.01
363.918	77.71
364.381	81.21
364.845	80.81
365.308	86.81
365.772	79.21
366.235	81.31
366.698	87.11
367.162	90.01
367.625	83.11
368.088	86.81
368.552	89.41
369.015	89.41
369.478	92.21
369.941	93.61
370.404	89.31
370.867	100.31
371.331	105.81
371.794	113.11
372.257	113.01
372.72	111.21
373.183	106.91
373.646	98.51
374.109	99.51
374.572	107.01
375.035	108.71
375.497	106.11
375.96	103.11
376.423	104.01
376.886	108.11
377.349	111.31
377.811	94.21
378.274	99.01
378.737	103.81
379.199	104.41
379.662	114.91
380.125	116.41
380.587	109.41
381.05	123.01
381.512	130.01
381.975	125.71
382.437	126.41
382.9	121.51
383.362	124.21
383.825	138.01
384.287	140.91
384.75	132.41
385.212	132.81
385.674	126.61
386.136	133.11
386.599	118.51
387.061	124.11
387.523	125.21
387.985	136.01
388.447	146.01
388.91	134.21
389.372	154.21
389.834	146.21
390.296	141.91
390.758	155.01
391.22	162.21
391.682	201.01
392.144	285.31
392.606	219.01
393.068	163.21
393.529	160.51
393.991	149.11
394.453	140.81
394.915	143.41
395.377	185.61
395.838	210.51
396.3	150.91
396.762	135.11
397.224	130.01
397.685	127.01
398.147	125.71
398.608	128.01
399.07	123.11
399.531	133.31
399.993	139.51
400.454	145.21
400.916	128.61
401.377	142.21
401.839	148.01
402.3	145.91
402.762	165.91
403.223	169.41
403.684	165.91
404.145	149.91
404.607	153.81
405.068	155.61
405.529	161.41
405.99	183.71
406.451	165.41
406.913	162.61
407.374	156.21
407.835	156.21
408.296	164.91
408.757	166.21
409.218	166.71
409.679	163.21
410.14	168.51
410.601	165.81
411.062	179.81
411.522	182.41
411.983	180.11
412.444	167.41
412.905	171.81
413.366	172.11
413.826	191.91
414.287	208.91
414.748	256.11
415.208	235.31
415.669	203.41
416.13	197.41
416.59	187.71
417.051	199.91
417.511	203.31
417.972	224.41
418.432	230.81
418.893	273.81
419.353	239.91
419.814	195.51
420.274	173.11
420.734	170.91
421.195	187.01
421.655	184.21
422.115	186.11
422.576	187.81
423.036	187.61
423.496	192.91
423.956	201.51
424.416	228.71
424.876	254.61
425.336	248.61
425.797	254.01
426.257	240.81
426.717	222.01
427.177	218.21
427.637	213.41
428.097	225.31
428.556	237.71
429.016	260.81
429.476	253.61
429.936	266.01
430.396	263.91
430.856	274.71
431.315	297.81
431.775	335.91
432.235	364.61
432.694	330.81
433.154	344.91
433.614	365.51
434.073	318.31
434.533	267.21
434.993	258.01
435.452	266.11
435.912	283.91
436.371	278.01
436.83	268.51
437.29	255.71
437.749	244.71
438.209	232.11
438.668	255.61
439.127	272.91
439.587	258.91
440.046	240.71
440.505	241.41
440.964	260.21
441.424	302.51
441.883	289.81
442.342	246.81
442.801	219.91
443.26	204.51
443.719	212.31
444.178	205.81
444.637	197.61
445.096	208.61
445.555	204.51
446.014	212.81
446.473	210.11
446.932	223.61
447.391	217.31
447.849	216.21
448.308	211.31
448.767	208.31
449.226	228.31
449.685	222.11
450.143	236.31
450.602	226.81
451.061	219.21
451.519	225.31
451.978	220.31
452.436	227.41
452.895	230.41
453.353	246.61
453.812	232.41
454.27	229.41
454.729	228.71
455.187	224.31
455.646	232.71
456.104	239.61
456.562	245.31
457.021	255.11
457.479	242.01
457.937	267.01
458.395	250.21
458.854	232.71
459.312	238.91
459.77	262.01
460.228	244.61
460.686	232.01
461.144	232.81
461.602	225.61
462.06	223.61
462.518	240.41
462.976	244.31
463.434	244.21
463.892	248.21
464.35	260.71
464.808	268.11
465.266	249.21
465.724	255.31
466.181	261.41
466.639	257.61
467.097	275.31
467.555	284.01
468.012	280.31
468.47	299.71
468.928	315.01
469.385	313.31
469.843	324.61
470.3	331.91
470.758	349.11
471.215	369.61
471.673	383.11
472.13	383.11
472.588	396.31
473.045	353.81
473.503	360.91
473.96	370.61
474.417	384.51
474.875	413.71
475.332	454.11
475.789	439.61
476.246	443.21
476.704	462.41
477.161	478.61
477.618	489.01
478.075	533.21
478.532	590.41
478.989	648.01
479.446	759.31
479.903	730.41
480.36	773.51
480.817	822.41
481.274	922.21
481.731	1016.01
482.188	1112.21
482.645	1251.41
483.102	1347.81
483.558	1474.11
484.015	1527.01
484.472	1523.61
484.929	1476.51
485.385	1416.11
485.842	1373.51
486.299	1323.51
486.755	1244.31
487.212	1044.11
487.668	878.91
488.125	796.41
488.582	744.51
489.038	714.11
489.494	686.81
489.951	657.61
490.407	632.61
490.864	616.81
491.32	609.11
491.776	598.51
492.233	617.31
492.689	576.21
493.145	567.21
493.602	568.91
494.058	591.81
494.514	578.01
494.97	603.21
495.426	618.21
495.882	597.41
496.338	593.51
496.794	590.71
497.251	591.41
497.707	612.61
498.163	613.21
498.618	613.71
499.074	618.41
499.53	641.91
499.986	647.21
500.442	610.51
500.898	591.51
501.354	589.71
501.809	598.81
502.265	602.21
502.721	626.91
503.177	637.41
503.632	631.31
504.088	648.51
504.543	673.41
504.999	677.91
505.455	623.91
505.91	597.41
506.366	608.61
506.821	599.91
507.277	589.31
507.732	594.11
508.187	593.51
508.643	593.41
509.098	603.01
509.553	618.31
510.009	625.31
510.464	637.71
510.919	650.41
511.375	663.41
511.83	670.61
512.285	685.11
512.74	720.21
513.195	744.91
513.65	736.41
514.105	732.81
514.56	734.61
515.015	746.71
515.47	782.81
515.925	751.71
516.38	746.11
516.835	764.51
517.29	747.61
517.745	745.81
518.2	731.51
518.655	718.81
519.109	701.41
519.564	706.01
520.019	696.11
520.474	689.61
520.928	689.81
521.383	690.71
521.838	677.01
522.292	679.51
522.747	674.11
523.201	665.21
523.656	663.01
524.11	646.01
524.565	654.91
525.019	650.41
525.474	665.81
525.928	658.21
526.382	656.61
526.837	656.21
527.291	671.31
527.745	653.31
528.2	660.81
528.654	650.11
529.108	648.41
529.562	649.71
530.016	661.61
530.47	654.61
530.925	659.01
531.379	664.21
531.833	665.01
532.287	667.51
532.741	668.11
533.195	670.61
533.649	678.01
534.103	682.41
534.556	677.01
535.01	674.01
535.464	670.71
535.918	678.51
536.372	683.41
536.826	682.91
537.279	669.71
537.733	672.11
538.187	673.11
538.64	679.51
539.094	680.21
539.548	679.81
540.001	677.41
540.455	678.21
540.908	689.01
541.362	682.41
541.815	709.41
542.269	716.21
542.722	713.81
543.175	724.11
543.629	727.61
544.082	736.01
544.536	730.91
544.989	738.11
545.442	742.91
545.895	744.41
546.349	742.11
546.802	740.41
547.255	738.41
547.708	747.91
548.161	766.41
548.614	773.31
549.067	779.21
549.52	774.11
549.973	761.51
550.426	761.21
550.879	740.31
551.332	741.81
551.785	747.61
552.238	756.81
552.691	763.11
553.144	768.51
553.596	787.91
554.049	811.31
554.502	835.01
554.955	849.41
555.407	851.41
555.86	838.31
556.313	841.81
556.765	826.61
557.218	822.81
557.67	822.91
558.123	822.71
558.576	821.51
559.028	814.11
559.48	825.71
559.933	813.81
560.385	791.11
560.838	765.11
561.29	721.61
561.742	723.71
562.195	704.61
562.647	697.41
563.099	721.41
563.551	723.11
564.004	723.01
564.456	722.11
564.908	715.11
565.36	696.01
565.812	688.01
566.264	671.71
566.716	674.81
567.168	652.41
567.62	669.01
568.072	653.21
568.524	642.51
568.976	647.91
569.428	629.61
569.88	631.31
570.332	625.11
570.784	634.91
571.235	635.61
571.687	632.71
572.139	652.41
572.59	657.41
573.042	660.01
573.494	653.91
573.945	655.71
574.397	634.71
574.849	641.91
575.3	638.71
575.752	634.91
576.203	633.01
576.655	636.21
577.106	620.61
577.557	614.61
578.009	618.51
578.46	608.51
578.912	611.01
579.363	611.11
579.814	615.11
580.265	612.31
580.717	620.11
581.168	613.31
581.619	626.01
582.07	628.71
582.521	618.91
582.972	612.91
583.423	619.11
583.875	630.61
584.326	640.51
584.777	673.81
585.227	751.01
585.678	843.51
586.129	917.81
586.58	984.71
587.031	1069.21
587.482	1220.31
587.933	1386.21
588.384	1207.61
588.834	897.91
589.285	736.61
589.736	722.71
590.186	705.41
590.637	704.21
591.088	682.31
591.538	669.41
591.989	662.01
592.439	662.61
592.89	656.11
593.34	651.21
593.791	648.61
594.241	647.91
594.692	644.31
595.142	634.61
595.593	627.41
596.043	637.11
596.493	658.51
596.943	648.51
597.394	663.81
597.844	645.11
598.294	663.81
598.744	684.01
599.195	699.41
599.645	733.01
600.095	776.41
600.545	824.11
600.995	871.91
601.445	928.31
601.895	994.81
602.345	1027.91
602.795	1009.41
603.245	972.51
603.695	918.01
604.145	870.91
604.594	826.41
605.044	776.91
605.494	720.61
605.944	676.41
606.393	673.91
606.843	658.61
607.293	665.01
607.743	657.01
608.192	668.91
608.642	683.81
609.091	692.21
609.541	695.81
609.99	707.71
610.44	688.51
610.889	645.71
611.339	634.01
611.788	626.31
612.238	631.31
612.687	642.01
613.136	638.51
613.586	665.61
614.035	659.31
614.484	682.91
614.933	685.61
615.383	674.41
615.832	666.41
616.281	646.31
616.73	619.71
617.179	592.81
617.628	587.61
618.077	568.81
618.526	555.91
618.975	555.01
619.424	556.01
619.873	552.31
620.322	551.71
620.771	543.21
621.22	544.01
621.669	532.81
622.118	521.71
622.567	518.31
623.015	504.61
623.464	517.61
623.913	503.21
624.361	490.11
624.81	491.01
625.259	495.61
625.707	504.81
626.156	492.41
626.604	505.71
627.053	499.01
627.501	500.41
627.95	509.51
628.398	519.91
628.847	509.21
629.295	507.81
629.744	514.01
630.192	506.61
630.64	508.81
631.089	506.61
631.537	513.11
631.985	517.81
632.433	526.21
632.881	541.21
633.33	583.71
633.778	564.81
634.226	499.01
634.674	506.11
635.122	513.51
635.57	535.61
636.018	560.41
636.466	515.31
636.914	487.51
637.362	514.11
637.81	512.11
638.258	518.61
638.705	507.71
639.153	535.01
639.601	541.71
640.049	571.71
640.497	595.41
640.944	625.21
641.392	567.11
641.84	541.31
642.287	519.11
642.735	495.41
643.182	509.51
643.63	505.91
644.078	504.21
644.525	516.11
644.973	529.11
645.42	534.21
645.867	551.91
646.315	570.11
646.762	591.11
647.21	608.61
647.657	625.41
648.104	659.11
648.551	676.21
648.999	735.71
649.446	799.11
649.893	889.21
650.34	1015.91
650.787	1230.51
651.234	1510.61
651.682	1975.91
652.129	2691.81
652.576	3866.01
653.023	5709.61
653.47	7894.41
653.917	9980.21
654.363	11642.51
654.81	13057.31
655.257	12367.41
655.704	8027.91
656.151	4722.11
656.598	3037.11
657.044	2159.71
657.491	1653.61
657.938	1316.61
658.385	1103.91
658.831	952.41
659.278	855.61
659.724	750.81
660.171	702.61
660.618	638.31
661.064	613.41
661.511	589.61
661.957	577.31
662.404	560.81
662.85	573.71
663.296	543.01
663.743	484.41
664.189	468.01
664.635	474.61
665.082	457.81
665.528	457.91
665.974	452.61
666.42	452.21
666.867	445.71
667.313	431.51
667.759	423.31
668.205	411.01
668.651	424.81
669.097	422.51
669.543	438.21
669.989	418.31
670.435	389.51
670.881	389.31
671.327	389.01
671.773	404.51
672.219	420.11
672.665	483.61
673.11	509.61
673.556	549.01
674.002	594.71
674.448	581.11
674.893	478.71
675.339	412.71
675.785	390.51
676.23	361.11
676.676	349.31
677.122	336.91
677.567	328.21
678.013	318.91
678.458	312.01
678.904	316.81
679.349	299.71
679.794	306.71
680.24	305.41
680.685	302.11
681.131	301.71
681.576	304.61
682.021	304.01
682.466	307.71
682.912	303.51
683.357	303.11
683.802	322.41
684.247	356.61
684.692	392.21
685.137	428.11
685.583	470.51
686.028	485.01
686.473	459.51
686.918	388.41
687.363	368.31
687.807	340.71
688.252	319.61
688.697	302.81
689.142	294.31
689.587	282.71
690.032	284.01
690.477	288.21
690.921	302.21
691.366	336.21
691.811	343.61
692.255	378.11
692.7	402.21
693.145	431.71
693.589	574.71
694.034	954.61
694.478	1324.11
694.923	1522.81
695.367	2001.41
695.812	1042.71
696.256	431.71
696.701	318.01
697.145	305.21
697.59	285.11
698.034	276.91
698.478	288.01
698.922	279.51
699.367	287.81
699.811	293.21
700.255	307.41
700.699	331.21
701.143	373.21
701.588	417.91
702.032	436.61
702.476	446.81
702.92	425.81
703.364	418.31
703.808	534.31
704.252	877.61
704.696	1238.01
705.14	1454.31
705.584	1890.71
706.027	937.31
706.471	448.71
706.915	345.31
707.359	302.41
707.803	271.91
708.246	263.61
708.69	270.91
709.134	273.41
709.577	270.21
710.021	277.81
710.465	262.21
710.908	253.71
711.352	258.61
711.795	269.41
712.239	298.41
712.682	327.41
713.126	356.61
713.569	402.91
714.012	329.41
714.456	286.21
714.899	260.11
715.342	239.01
715.786	224.51
716.229	220.11
716.672	217.91
717.115	210.81
717.558	217.71
718.002	219.51
718.445	228.31
718.888	246.21
719.331	251.21
719.774	267.51
720.217	263.21
720.66	240.71
721.103	228.21
721.546	217.61
721.989	217.91
722.432	202.81
722.874	207.01
723.317	199.51
723.76	203.81
724.203	224.71
724.645	269.11
725.088	372.61
725.531	487.11
725.974	562.71
726.416	476.11
726.859	264.71
727.301	214.81
727.744	204.41
728.187	200.21
728.629	209.31
729.071	209.71
729.514	222.51
729.956	233.01
730.399	240.21
730.841	241.61
731.283	232.81
731.726	227.21
732.168	219.41
732.61	229.21
733.053	250.21
733.495	269.11
733.937	297.21
734.379	342.21
734.821	371.01
735.263	456.21
735.705	702.11
736.148	1309.51
736.59	2202.11
737.032	2697.81
737.474	2198.51
737.916	699.01
738.357	368.71
738.799	286.81
739.241	257.01
739.683	241.51
740.125	252.81
740.567	251.01
741.008	276.21
741.45	272.71
741.892	285.31
742.334	305.31
742.775	312.91
743.217	292.91
743.658	232.41
744.1	212.61
744.542	225.01
744.983	266.71
745.425	298.01
745.866	300.11
746.307	245.41
746.749	242.91
747.19	280.41
747.632	372.31
748.073	729.51
748.514	1560.61
748.956	2445.11
749.397	3069.11
749.838	2545.31
750.279	2606.21
750.72	1310.31
751.162	468.31
751.603	276.91
752.044	220.01
752.485	186.51
752.926	181.61
753.367	176.51
753.808	169.11
754.249	162.01
754.69	163.51
755.131	159.61
755.572	154.41
756.013	156.41
756.453	155.41
756.894	157.61
757.335	159.41
757.776	163.41
758.216	168.61
758.657	172.21
759.098	172.21
759.538	189.11
759.979	228.11
760.42	316.21
760.86	582.81
761.301	1498.81
761.741	3736.71
762.182	5720.41
762.622	4007.41
763.063	1151.61
763.503	470.31
763.943	298.51
764.384	291.11
764.824	343.51
765.264	383.91
765.705	267.91
766.145	186.81
766.585	163.81
767.025	152.61
767.465	158.71
767.906	204.91
768.346	276.11
768.786	296.71
769.226	220.11
769.666	261.61
770.106	513.81
770.546	1295.51
770.986	2300.31
771.426	2090.41
771.866	685.81
772.306	276.11
772.745	177.71
773.185	153.21
773.625	139.61
774.065	141.31
774.505	177.91
774.944	264.71
775.384	574.11
775.824	1080.91
776.263	1081.11
776.703	445.81
777.142	191.01
777.582	139.21
778.021	119.51
778.461	121.01
778.9	125.91
779.34	115.51
779.779	101.51
780.219	95.61
780.658	86.91
781.097	98.41
781.537	98.71
781.976	96.61
782.415	86.71
782.855	91.41
783.294	87.91
783.733	94.51
784.172	93.31
784.611	87.11
785.05	89.31
785.489	96.61
785.928	103.11
786.367	100.81
786.806	98.41
787.245	113.81
787.684	115.01
788.123	123.41
788.562	118.71
789.001	110.31
789.44	107.91
789.879	100.51
790.317	101.71
790.756	108.81
791.195	101.01
791.634	120.71
792.072	163.91
792.511	294.61
792.95	827.31
793.388	1850.11
793.827	1716.11
794.265	588.31
794.704	244.01
795.142	153.01
795.581	131.61
796.019	114.51
796.458	107.71
796.896	102.71
797.334	109.91
797.773	134.81
798.211	184.21
798.649	359.31
799.087	867.81
799.526	1368.61
799.964	1726.01
800.402	1775.01
800.84	649.61
801.278	256.91
801.716	156.61
802.154	133.51
802.592	126.01
803.03	118.31
803.468	108.01
803.906	120.31
804.344	124.91
804.782	113.71
805.22	119.11
805.658	113.91
806.096	126.11
806.533	134.01
806.971	148.91
807.409	179.21
807.847	264.31
808.284	546.11
808.722	1562.31
809.16	2869.11
809.597	2661.41
810.035	4684.51
810.472	5189.31
810.91	1829.21
811.347	688.51
811.785	348.21
812.222	212.61
812.66	170.61
813.097	138.91
813.535	117.81
813.972	105.61
814.409	107.21
814.846	92.81
815.284	99.71
815.721	92.91
816.158	94.51
816.595	108.21
817.032	156.41
817.47	170.71
817.907	142.31
818.344	131.01
818.781	98.11
819.218	82.11
819.655	105.91
820.092	160.71
820.529	184.81
820.966	160.61
821.403	116.61
821.839	98.81
822.276	84.11
822.713	103.81
823.15	120.61
823.587	98.11
824.023	124.61
824.46	244.91
824.897	758.41
825.333	1195.61
825.77	519.01
826.206	200.31
826.643	119.91
827.08	90.31
827.516	72.41
827.953	64.61
828.389	68.81
828.825	53.51
829.262	57.91
829.698	48.01
830.135	49.71
830.571	53.51
831.007	54.01
831.443	56.91
831.88	56.71
832.316	48.61
832.752	66.21
833.188	47.21
833.624	61.31
834.06	59.01
834.497	62.71
834.933	62.01
835.369	64.41
835.805	57.61
836.241	67.31
836.677	75.01
837.112	77.81
837.548	91.91
837.984	115.11
838.42	161.71
838.856	408.11
839.292	1284.21
839.727	2025.81
840.163	936.21
840.599	781.61
841.034	1745.61
841.47	1892.61
841.906	674.21
842.341	290.51
842.777	199.61
843.212	267.81
843.648	272.61
844.083	132.31
844.519	86.31
844.954	69.31
845.39	46.71
845.825	48.21
846.261	51.71
846.696	50.01
847.131	47.61
847.566	51.71
848.002	45.21
848.437	44.21
848.872	53.11
849.307	57.01
849.742	68.91
850.177	145.51
850.613	466.71
851.048	779.31
851.483	335.31
851.918	137.31
852.353	72.91
852.788	46.31
853.223	47.91
853.657	45.61
854.092	37.61
854.527	31.21
854.962	32.41
855.397	38.61
855.832	41.11
856.266	31.21
856.701	36.41
857.136	27.51
857.57	39.01
858.005	38.51
858.44	53.31
858.874	35.91
859.309	50.01
859.743	37.91
860.178	39.41
860.612	35.11
861.047	48.11
861.481	61.71
861.915	64.81
862.35	44.01
862.784	30.41
863.218	34.61
863.653	22.91
864.087	38.51
864.521	46.21
864.955	59.51
865.39	128.21
865.824	150.91
866.258	99.01
866.692	142.81
867.126	153.11
867.56	98.51
867.994	46.81
868.428	35.01
868.862	41.01
869.296	46.41
869.73	51.91
870.164	51.21
870.598	37.71
871.031	31.51
871.465	29.41
871.899	27.71
872.333	15.21
872.766	24.11
873.2	18.21
873.634	25.51
874.067	23.21
874.501	20.01
874.935	28.81
875.368	22.91
875.802	25.81
876.235	24.61
876.669	23.01
877.102	20.41
877.535	20.31
877.969	22.31
878.402	19.61
878.836	17.11
879.269	25.01
879.702	24.01
880.135	17.61
880.569	23.11
881.002	18.81
881.435	22.71
881.868	17.31
882.301	22.01
882.734	16.01
883.167	21.61
883.601	16.61
884.034	17.91
884.467	10.01
884.899	11.81
885.332	16.21
885.765	5.51
886.198	16.11
886.631	12.01
887.064	18.71
887.497	23.31
887.929	22.01
888.362	15.71
888.795	8.91
889.228	7.51
889.66	21.41
890.093	10.71
890.526	16.31
890.958	15.31
891.391	14.51
891.823	18.91
892.256	10.71
892.688	7.21
893.121	20.31
893.553	8.61
893.985	21.71
894.418	14.11
894.85	5.21
895.282	12.51
895.715	13.91
896.147	16.51
896.579	12.81
897.011	9.61
897.444	16.61
897.876	12.11
898.308	17.91
898.74	16.11
899.172	10.81
899.604	22.51
900.036	18.61
900.468	11.41
900.9	11.51
901.332	13.21
901.764	7.21
902.196	13.31
902.628	11.81
903.06	13.71
903.491	20.71
903.923	20.21
904.355	17.31
904.787	14.21
905.218	19.01
905.65	17.01
906.082	8.91
906.513	16.31
906.945	15.41
907.376	10.61
907.808	16.11
908.239	13.51
908.671	16.21
909.102	20.21
909.534	19.41
909.965	37.61
910.397	79.01
910.828	276.61
911.259	422.81
911.691	188.71
912.122	95.71
912.553	44.41
912.984	29.51
913.415	22.11
913.847	24.71
914.278	19.11
914.709	13.11
915.14	15.01
915.571	18.11
916.002	12.21
916.433	15.61
916.864	16.81
917.295	13.81
917.726	14.51
918.157	13.61
918.587	31.61
919.018	22.91
919.449	20.51
919.88	17.31
920.311	21.01
920.741	44.91
921.172	142.61
921.603	123.71
922.033	67.61
922.464	38.81
922.895	16.41
923.325	18.71
923.756	15.71
924.186	11.61
924.617	21.71
925.047	34.11
925.478	42.91
925.908	39.31
926.338	24.41
926.769	13.31
927.199	15.61
927.629	10.71
928.06	16.21
928.49	13.71
928.92	10.41
929.35	9.21
929.78	11.81
930.21	6.71
930.641	10.91
931.071	7.61
931.501	0.81
931.931	9.71
932.361	11.01
932.791	-0.19
933.221	4.91
933.651	4.91
934.08	14.11
934.51	28.71
934.94	4.71
935.37	12.11
935.8	13.61
936.229	6.21
936.659	8.71
937.089	3.41
937.519	15.71
937.948	20.61
938.378	15.51
938.807	3.21
939.237	-0.39
939.666	6.91
940.096	-1.89
940.525	-3.59
940.955	4.11
941.384	-1.59
941.814	-4.69
942.243	-0.29
942.672	2.01
943.102	-3.69
943.531	-0.99
943.96	6.11
944.39	6.31
944.819	0.41
945.248	4.11
945.677	7.81
946.106	7.81
946.535	2.51
946.964	4.61
947.393	-0.89
947.822	3.21
948.251	-0.49
948.68	3.21
949.109	1.51
949.538	2.11
949.967	0.11
950.396	0.51
950.825	-1.19
951.254	3.91
951.682	-6.39
952.111	3.61
952.54	3.31
952.969	-3.99
953.397	-6.29
953.826	2.11
954.254	-4.09
954.683	-4.09
955.112	-8.29
955.54	3.61
955.969	-3.19
956.397	1.41
956.826	-3.79
957.254	8.41
957.682	4.51
958.111	3.31
958.539	0.01
958.967	0.31
959.396	0.01
959.824	-5.29
960.252	-1.39
960.68	-2.39
961.109	-3.59
961.537	-8.89
961.965	-3.69
962.393	5.61
962.821	-5.89
963.249	-5.39
963.677	7.51
964.105	1.21
964.533	38.51
964.961	39.21
965.389	17.11
965.817	8.01
966.245	-0.59
966.672	-3.89
967.1	-8.69
967.528	-1.49
967.956	-0.59
968.383	0.01
968.811	-0.39
969.239	-6.89
969.666	-4.59
970.094	0.61
970.522	-1.39
970.949	3.71
971.377	-5.09
971.804	-4.89
972.232	-6.69
972.659	-2.79
973.087	-8.69
973.514	-3.59
973.941	-4.89
974.369	-0.19
974.796	2.61
975.223	2.41
975.651	-1.09
976.078	-0.69
976.505	-0.69
976.932	3.51
977.359	9.11
977.786	16.81
978.214	3.21
978.641	0.31
979.068	-3.09
979.495	-4.39
979.922	-4.89
980.349	-3.09
980.776	8.71
981.202	-4.69
981.629	1.21
982.056	3.21
982.483	-6.49
982.91	-1.99
983.337	-7.99
983.763	2.11
984.19	4.31
984.617	4.51
985.043	-0.99
985.47	-2.79
985.897	-4.89
986.323	-10.19
986.75	2.31
987.176	-0.29
987.603	2.61
988.029	-2.19
988.456	-5.19
988.882	2.31
989.308	-5.79
989.735	1.61
990.161	0.01
990.587	-5.99
991.014	-0.09
991.44	1.31
991.866	-0.99
992.292	-8.79
992.719	-0.89
993.145	-3.59
993.571	-9.59
993.997	-8.79
994.423	2.21
994.849	-1.49
995.275	-1.09
995.701	0.61
996.127	-6.99
996.553	-0.19
996.979	-7.39
997.405	0.91
997.83	-3.19
998.256	-4.19
998.682	-3.69
999.108	-13.39
999.534	0.61
999.959	-1.69
1000.385	-8.69
1000.811	1.91
1001.236	-11.79
1001.662	-9.39
1002.087	-3.89
1002.513	-1.69
1002.938	-2.79
1003.364	-2.19
1003.789	-3.29
1004.215	3.81
1004.64	-4.89
1005.066	5.21
1005.491	-0.79
1005.916	-0.09
1006.342	2.41
1006.767	-6.09
1007.192	0.41
1007.617	-6.39
1008.042	-5.79
1008.468	-0.59
1008.893	-8.49
1009.318	-5.29
1009.743	-4.09
1010.168	2.01
1010.593	-0.89
1011.018	-9.89
1011.443	-3.69
1011.868	-1.39
1012.293	-4.09
1012.718	-11.69
1013.143	1.81
1013.567	-0.69
1013.992	-6.09
1014.417	-14.69
1014.842	3.81
1015.267	-5.69
1015.691	-3.79
1016.116	1.31
1016.541	-1.09
1016.965	-1.79
1017.39	-1.79
1017.814	0.11
1018.239	3.41
1018.663	-9.09
1019.088	-12.99
1019.512	-3.69
1019.937	-3.99
1020.361	-7.09
1020.785	-7.79
1021.21	-2.09
1021.634	-2.99
1022.058	-0.69
1022.483	2.51
1022.907	-1.09
1023.331	-5.19
1023.755	-6.49
1024.179	-0.59
1024.604	-5.69
1025.028	-8.99
1025.452	-8.39
1025.876	-4.49
1026.3	-2.09
1026.724	-7.79
1027.148	3.21
1027.572	-7.69
1027.996	-7.29
1028.42	-0.89
1028.843	-0.39
1029.267	-0.49
1029.691	-0.69
1030.115	-2.59
1030.539	-2.49
1030.962	-7.89
1031.386	-9.89
1031.81	-0.99
1032.233	-2.89
1032.657	1.21
1033.08	-1.89
1033.504	-5.79
1033.927	-2.09
1034.351	-2.99
1034.774	-6.79
1035.198	-5.19
1035.621	-6.49
1036.045	-7.89
1036.468	-4.19
1036.891	-17.79
1037.315	-14.59
1037.738	-8.29
1038.161	3.41
1038.584	-8.69
1039.008	-8.29
1039.431	-5.89
1039.854	-5.89
1040.277	-8.99
1040.7	-9.79
1041.123	-4.29
1041.546	-7.29
1041.969	-4.69
1042.392	-3.79
1042.815	-0.59
1043.238	2.41
1043.661	-0.09
1044.084	-6.49
1044.507	-3.59
1044.93	-4.49
1045.352	-8.19
1045.775	-2.09
1046.198	0.31
1046.621	-5.99
1047.043	-0.89
1047.466	6.51
1047.889	-5.09
1048.311	-8.19
1048.734	-2.89
1049.156	1.41
1049.579	-0.49
1050.001	-6.59
1050.424	6.21
1050.846	-3.59
1051.269	-3.29
1051.691	-10.19
1052.113	-6.79
1052.536	-5.29
1052.958	-4.89
1053.38	-2.69
1053.802	-12.49
1054.225	0.51
1054.647	-8.19
1055.069	-7.99
1055.491	2.31
1055.913	-7.29
1056.335	-3.79
1056.757	-6.29
1057.179	-10.29
1057.601	-6.19
1058.023	-2.59
1058.445	-2.79
1058.867	-0.39
1059.289	1.51
1059.711	-6.09
1060.133	-0.69
1060.555	-2.49
1060.976	-5.19
1061.398	-11.49
1061.82	-6.79
1062.241	1.01
1062.663	-9.09
1063.085	-6.09
1063.506	-4.39
1063.928	-5.69
1064.35	-1.59
1064.771	-8.59
1065.193	-4.39
1065.614	-6.29
1066.035	0.71
1066.457	-0.59
1066.878	5.51
1067.3	0.71
1067.721	-0.59
1068.142	-7.09
1068.564	-2.39
1068.985	-4.99
1069.406	-9.19
1069.827	1.11
1070.248	1.01
1070.67	-2.79
1071.091	0.21
1071.512	-3.29
1071.933	-2.69
1072.354	-10.19
1072.775	-11.39
1073.196	-9.79
1073.617	-6.39
1074.038	-5.89
1074.459	-3.19
1074.88	-7.79
1075.3	1.31
1075.721	-7.99
1076.142	4.71
1076.563	-8.59
1076.983	-14.79
1077.404	-6.59
1077.825	-8.09
1078.246	-6.19
1078.666	-12.59
1079.087	-8.39
1079.507	-6.09
1079.928	-3.69
1080.348	0.71
1080.769	-3.79
1081.189	-3.59
1081.61	-4.29
1082.03	-6.89
1082.451	-7.39
1082.871	-5.49
1083.291	-10.49
1083.711	-6.59
1084.132	-8.59
1084.552	-10.29
1084.972	0.31
1085.392	-7.49
1085.813	-6.49
1086.233	-7.89
1086.653	-6.79
1087.073	-5.59
1087.493	-11.79
1087.913	-7.69
1088.333	-7.59
1088.753	-4.09
1089.173	-2.29
1089.593	-2.19
1090.013	-1.69
1090.433	-1.79
1090.852	-2.59
1091.272	3.51
1091.692	-1.69
1092.112	-5.39
1092.531	-7.99
1092.951	-10.19
1093.371	0.41
1093.79	-2.19
1094.21	-6.29
1094.63	-8.99
1095.049	-6.39
1095.469	-3.29
1095.888	-6.19
1096.308	2.11
1096.727	2.01
1097.146	-10.39
1097.566	3.81
1097.985	-7.99
1098.405	0.21
1098.824	-3.29
1099.243	-2.99
1099.662	-4.69
1100.082	-2.49
1100.501	0.31
1100.92	-6.39
1101.339	-7.89
1101.758	-6.59
