Data from 20171114-ORNL-Ar_H_NY_Subt18_08-06-50-761.txt Node
Date: Tue Nov 14 08:06:50 EST 2017
User: Ender
Spectrometer: HR+D1039
Trigger mode: 0
Integration Time (sec): 2.730000E-2
Scans to average: 10
Electric dark correction enabled: true
Nonlinearity correction enabled: false
Boxcar width: 0
XAxis mode: Wavelengths
Number of Pixels in Spectrum: 2048
>>>>>Begin Spectral Data<<<<<
187.836	-3.58
188.309	-3.58
188.782	-3.58
189.255	0.92
189.728	-2.78
190.201	-0.58
190.674	2.02
191.147	2.92
191.619	-7.88
192.092	0.52
192.565	0.62
193.038	0.32
193.511	0.52
193.984	-1.08
194.456	0.52
194.929	5.92
195.402	-0.48
195.874	2.02
196.347	-6.48
196.82	-6.98
197.292	3.22
197.765	0.72
198.237	-3.48
198.71	0.42
199.182	-0.28
199.655	1.32
200.127	1.92
200.6	-0.18
201.072	-0.38
201.544	-5.88
202.017	-5.38
202.489	5.62
202.961	0.42
203.433	-6.28
203.906	-8.88
204.378	-5.08
204.85	-4.88
205.322	-4.68
205.794	0.22
206.266	0.62
206.739	-5.58
207.211	-4.28
207.683	-3.88
208.155	-3.68
208.627	-4.98
209.099	-3.58
209.57	-7.48
210.042	-3.68
210.514	2.82
210.986	4.42
211.458	-1.28
211.93	-3.78
212.402	1.12
212.873	-3.68
213.345	-9.88
213.817	-12.68
214.288	-0.48
214.76	-10.18
215.232	2.92
215.703	-1.28
216.175	-1.68
216.646	-5.98
217.118	-2.78
217.589	-5.58
218.061	1.22
218.532	-4.98
219.004	-2.98
219.475	-3.28
219.946	0.52
220.418	-3.18
220.889	7.42
221.36	-3.58
221.832	2.22
222.303	-2.48
222.774	2.92
223.245	-4.58
223.717	-3.28
224.188	1.62
224.659	-5.18
225.13	-4.18
225.601	-3.28
226.072	1.12
226.543	0.42
227.014	-0.58
227.485	1.42
227.956	-8.58
228.427	-1.78
228.898	-1.78
229.369	-0.68
229.839	2.72
230.31	-11.08
230.781	1.52
231.252	-4.68
231.722	-5.68
232.193	-8.18
232.664	-0.38
233.135	1.12
233.605	-1.88
234.076	-3.88
234.546	-2.58
235.017	3.72
235.487	-0.88
235.958	-3.48
236.428	-3.28
236.899	0.22
237.369	-4.38
237.84	-3.28
238.31	-0.58
238.78	-0.38
239.251	-2.78
239.721	-3.68
240.191	1.32
240.662	-1.68
241.132	1.12
241.602	-1.88
242.072	1.32
242.542	5.02
243.013	2.02
243.483	3.62
243.953	1.32
244.423	-2.38
244.893	-7.78
245.363	-0.08
245.833	-1.78
246.303	-0.18
246.773	6.32
247.243	2.22
247.712	2.02
248.182	3.52
248.652	4.32
249.122	-9.28
249.592	1.92
250.061	2.82
250.531	17.92
251.001	-0.58
251.471	0.02
251.94	12.72
252.41	2.22
252.879	0.12
253.349	6.02
253.818	4.32
254.288	-0.68
254.757	-1.08
255.227	1.42
255.696	0.72
256.166	-0.28
256.635	-0.38
257.105	7.82
257.574	0.62
258.043	4.32
258.513	-0.48
258.982	6.72
259.451	-1.48
259.92	0.72
260.389	7.62
260.859	8.92
261.328	4.92
261.797	4.02
262.266	5.72
262.735	12.62
263.204	-0.58
263.673	-1.38
264.142	8.22
264.611	4.22
265.08	3.82
265.549	10.22
266.018	7.02
266.487	1.72
266.955	-5.88
267.424	-1.78
267.893	3.62
268.362	0.92
268.83	4.32
269.299	6.52
269.768	3.42
270.236	7.22
270.705	0.72
271.174	3.12
271.642	7.12
272.111	0.32
272.579	2.82
273.048	7.12
273.516	0.62
273.985	12.12
274.453	9.52
274.922	11.62
275.39	12.22
275.858	-1.08
276.327	4.82
276.795	16.62
277.263	4.02
277.731	12.92
278.2	8.12
278.668	8.62
279.136	12.82
279.604	1.12
280.072	14.12
280.54	7.82
281.008	2.52
281.477	14.22
281.945	12.72
282.413	13.12
282.881	13.82
283.348	3.62
283.816	6.92
284.284	9.82
284.752	17.72
285.22	9.92
285.688	16.12
286.156	19.52
286.623	20.42
287.091	10.92
287.559	12.22
288.026	12.72
288.494	14.22
288.962	5.72
289.429	7.92
289.897	18.42
290.364	13.82
290.832	10.52
291.3	10.92
291.767	17.12
292.234	12.62
292.702	18.12
293.169	14.52
293.637	13.82
294.104	20.02
294.571	9.72
295.039	13.42
295.506	13.62
295.973	21.62
296.44	11.52
296.908	15.72
297.375	13.62
297.842	18.22
298.309	11.52
298.776	12.32
299.243	12.82
299.71	8.92
300.177	21.02
300.644	14.72
301.111	17.52
301.578	23.22
302.045	17.02
302.512	18.52
302.979	23.12
303.446	24.12
303.913	19.62
304.379	17.02
304.846	29.32
305.313	21.52
305.78	20.52
306.246	22.72
306.713	21.72
307.18	21.82
307.646	25.42
308.113	25.82
308.579	18.52
309.046	22.62
309.512	21.02
309.979	19.32
310.445	29.12
310.912	25.32
311.378	30.22
311.845	24.22
312.311	27.42
312.777	33.92
313.244	29.02
313.71	35.32
314.176	26.22
314.642	25.22
315.109	27.72
315.575	35.52
316.041	30.42
316.507	29.12
316.973	32.62
317.439	29.82
317.905	32.82
318.371	30.92
318.837	30.72
319.303	29.72
319.769	36.32
320.235	32.22
320.701	28.52
321.167	33.32
321.633	33.02
322.099	35.22
322.564	34.72
323.03	39.62
323.496	36.82
323.962	38.82
324.427	31.72
324.893	43.92
325.359	39.42
325.824	39.62
326.29	38.72
326.755	38.12
327.221	43.42
327.686	40.82
328.152	47.82
328.617	42.92
329.083	35.52
329.548	52.02
330.014	47.22
330.479	40.12
330.944	41.32
331.41	41.82
331.875	38.02
332.34	42.72
332.805	31.82
333.271	39.12
333.736	37.02
334.201	45.42
334.666	45.02
335.131	48.62
335.596	46.42
336.061	43.02
336.526	47.82
336.991	46.12
337.456	48.12
337.921	47.52
338.386	43.92
338.851	49.02
339.316	44.62
339.781	49.42
340.246	52.92
340.711	49.32
341.175	55.82
341.64	44.32
342.105	55.62
342.569	54.92
343.034	55.62
343.499	52.82
343.963	52.72
344.428	65.12
344.893	59.62
345.357	60.52
345.822	54.02
346.286	65.52
346.751	68.42
347.215	65.42
347.679	71.52
348.144	89.72
348.608	78.42
349.073	72.92
349.537	76.02
350.001	70.52
350.465	85.02
350.93	75.22
351.394	75.92
351.858	70.02
352.322	83.92
352.786	79.42
353.25	87.62
353.715	96.62
354.179	93.52
354.643	110.52
355.107	110.92
355.571	102.32
356.035	88.92
356.498	105.52
356.962	109.32
357.426	122.42
357.89	109.32
358.354	86.22
358.818	74.52
359.281	73.72
359.745	69.62
360.209	70.52
360.673	72.42
361.136	79.02
361.6	84.62
362.064	82.72
362.527	81.62
362.991	84.92
363.454	72.72
363.918	77.42
364.381	78.92
364.845	83.62
365.308	85.32
365.772	89.32
366.235	83.02
366.698	81.52
367.162	85.42
367.625	78.82
368.088	88.12
368.552	84.52
369.015	90.72
369.478	95.32
369.941	95.02
370.404	91.82
370.867	93.52
371.331	105.82
371.794	108.82
372.257	94.72
372.72	99.82
373.183	100.72
373.646	89.52
374.109	91.52
374.572	99.62
375.035	94.72
375.497	102.32
375.96	103.82
376.423	108.82
376.886	110.82
377.349	110.12
377.811	94.32
378.274	97.22
378.737	100.82
379.199	105.82
379.662	102.72
380.125	106.32
380.587	105.12
381.05	109.72
381.512	112.62
381.975	119.22
382.437	120.22
382.9	113.62
383.362	118.22
383.825	130.22
384.287	123.52
384.75	119.72
385.212	119.32
385.674	133.52
386.136	129.72
386.599	117.42
387.061	120.02
387.523	119.82
387.985	124.32
388.447	124.02
388.91	121.32
389.372	128.62
389.834	136.32
390.296	129.92
390.758	132.62
391.22	139.62
391.682	148.92
392.144	156.42
392.606	146.62
393.068	136.32
393.529	150.62
393.991	136.52
394.453	134.82
394.915	141.72
395.377	138.12
395.838	140.32
396.3	143.72
396.762	145.62
397.224	135.82
397.685	135.92
398.147	138.42
398.608	133.52
399.07	138.12
399.531	142.72
399.993	152.12
400.454	159.32
400.916	155.12
401.377	152.82
401.839	163.32
402.3	148.42
402.762	171.32
403.223	183.52
403.684	163.22
404.145	162.52
404.607	162.12
405.068	164.92
405.529	173.92
405.99	191.02
406.451	175.02
406.913	177.52
407.374	166.02
407.835	165.12
408.296	173.32
408.757	169.52
409.218	188.32
409.679	179.72
410.14	176.32
410.601	185.32
411.062	181.52
411.522	186.12
411.983	178.92
412.444	178.12
412.905	189.52
413.366	190.32
413.826	196.82
414.287	231.92
414.748	270.12
415.208	265.02
415.669	228.52
416.13	213.52
416.59	214.62
417.051	225.92
417.511	237.72
417.972	250.92
418.432	265.32
418.893	294.52
419.353	257.12
419.814	209.02
420.274	187.62
420.734	189.42
421.195	201.22
421.655	197.22
422.115	200.92
422.576	200.72
423.036	211.62
423.496	220.82
423.956	226.42
424.416	237.32
424.876	274.42
425.336	264.82
425.797	270.22
426.257	266.82
426.717	250.32
427.177	244.12
427.637	228.92
428.097	246.42
428.556	251.92
429.016	277.72
429.476	262.52
429.936	282.12
430.396	284.32
430.856	287.62
431.315	318.42
431.775	357.82
432.235	383.42
432.694	352.52
433.154	369.92
433.614	385.12
434.073	338.12
434.533	285.72
434.993	280.62
435.452	291.72
435.912	297.02
436.371	287.12
436.83	291.32
437.29	278.12
437.749	250.32
438.209	254.62
438.668	286.62
439.127	296.22
439.587	272.32
440.046	261.62
440.505	268.32
440.964	285.52
441.424	318.12
441.883	316.92
442.342	270.52
442.801	240.52
443.26	238.72
443.719	234.72
444.178	232.32
444.637	224.92
445.096	241.92
445.555	237.12
446.014	242.22
446.473	244.12
446.932	248.22
447.391	240.62
447.849	244.72
448.308	233.02
448.767	234.72
449.226	243.22
449.685	247.52
450.143	259.62
450.602	253.72
451.061	242.52
451.519	253.92
451.978	245.62
452.436	251.02
452.895	249.72
453.353	265.52
453.812	247.82
454.27	247.42
454.729	255.02
455.187	251.62
455.646	259.92
456.104	265.42
456.562	277.12
457.021	285.22
457.479	274.32
457.937	291.42
458.395	274.62
458.854	268.22
459.312	275.02
459.77	291.02
460.228	275.42
460.686	262.32
461.144	264.52
461.602	264.02
462.06	262.32
462.518	275.72
462.976	270.52
463.434	278.92
463.892	286.42
464.35	294.52
464.808	311.22
465.266	286.32
465.724	289.42
466.181	295.92
466.639	290.22
467.097	314.22
467.555	316.82
468.012	321.72
468.47	322.52
468.928	357.12
469.385	367.52
469.843	365.92
470.3	374.42
470.758	385.52
471.215	412.52
471.673	421.92
472.13	429.32
472.588	439.72
473.045	388.62
473.503	398.72
473.96	417.02
474.417	431.82
474.875	460.22
475.332	503.32
475.789	488.42
476.246	505.32
476.704	510.72
477.161	524.42
477.618	547.52
478.075	577.82
478.532	647.52
478.989	710.92
479.446	827.72
479.903	788.32
480.36	817.02
480.817	864.52
481.274	963.82
481.731	1061.52
482.188	1142.82
482.645	1248.53
483.102	1357.53
483.558	1477.03
484.015	1512.93
484.472	1497.92
484.929	1452.32
485.385	1403.42
485.842	1376.92
486.299	1329.12
486.755	1278.52
487.212	1099.72
487.668	940.12
488.125	868.82
488.582	798.32
489.038	771.02
489.494	734.42
489.951	710.92
490.407	698.52
490.864	678.02
491.32	665.82
491.776	666.02
492.233	666.62
492.689	652.52
493.145	640.12
493.602	628.42
494.058	652.82
494.514	653.72
494.97	665.32
495.426	684.92
495.882	657.82
496.338	653.22
496.794	665.02
497.251	650.52
497.707	676.62
498.163	661.12
498.618	679.72
499.074	676.62
499.53	707.92
499.986	700.32
500.442	678.32
500.898	661.22
501.354	644.82
501.809	657.12
502.265	656.32
502.721	674.72
503.177	678.12
503.632	684.82
504.088	684.42
504.543	707.22
504.999	731.22
505.455	700.52
505.91	678.42
506.366	688.92
506.821	669.92
507.277	665.72
507.732	665.52
508.187	667.82
508.643	684.72
509.098	688.32
509.553	704.52
510.009	714.12
510.464	711.42
510.919	737.32
511.375	738.62
511.83	751.52
512.285	774.72
512.74	798.72
513.195	832.12
513.65	815.82
514.105	808.22
514.56	818.32
515.015	840.62
515.47	838.12
515.925	832.32
516.38	828.92
516.835	837.02
517.29	827.12
517.745	821.62
518.2	813.92
518.655	786.92
519.109	794.72
519.564	788.32
520.019	776.72
520.474	775.52
520.928	775.72
521.383	764.82
521.838	756.92
522.292	748.62
522.747	763.72
523.201	758.12
523.656	739.02
524.11	745.12
524.565	749.62
525.019	732.82
525.474	742.12
525.928	739.62
526.382	744.52
526.837	743.92
527.291	742.52
527.745	750.52
528.2	737.32
528.654	739.32
529.108	739.22
529.562	735.72
530.016	730.12
530.47	731.52
530.925	727.82
531.379	730.72
531.833	741.72
532.287	739.02
532.741	742.32
533.195	746.52
533.649	762.12
534.103	767.22
534.556	749.32
535.01	759.82
535.464	749.52
535.918	766.52
536.372	766.82
536.826	763.22
537.279	749.82
537.733	749.72
538.187	767.82
538.64	758.12
539.094	771.02
539.548	767.22
540.001	764.82
540.455	769.62
540.908	783.42
541.362	785.82
541.815	781.52
542.269	805.02
542.722	809.92
543.175	813.62
543.629	808.22
544.082	838.32
544.536	842.42
544.989	831.82
545.442	842.82
545.895	845.72
546.349	842.02
546.802	848.22
547.255	853.82
547.708	864.52
548.161	864.42
548.614	873.22
549.067	883.32
549.52	876.02
549.973	865.12
550.426	871.52
550.879	856.92
551.332	849.22
551.785	864.02
552.238	857.12
552.691	879.72
553.144	894.12
553.596	912.72
554.049	914.02
554.502	947.52
554.955	971.82
555.407	985.52
555.86	956.62
556.313	956.32
556.765	937.62
557.218	943.62
557.67	947.22
558.123	934.02
558.576	932.42
559.028	930.22
559.48	946.22
559.933	935.72
560.385	902.92
560.838	864.22
561.29	839.02
561.742	845.22
562.195	819.92
562.647	822.32
563.099	812.72
563.551	834.52
564.004	843.52
564.456	822.82
564.908	807.22
565.36	787.42
565.812	765.52
566.264	766.52
566.716	768.02
567.168	740.82
567.62	747.02
568.072	733.92
568.524	744.12
568.976	739.52
569.428	717.82
569.88	722.62
570.332	720.42
570.784	730.12
571.235	735.22
571.687	738.52
572.139	751.02
572.59	749.22
573.042	753.22
573.494	765.02
573.945	756.42
574.397	726.42
574.849	735.12
575.3	739.62
575.752	734.62
576.203	714.32
576.655	719.22
577.106	717.82
577.557	708.02
578.009	716.12
578.46	703.52
578.912	707.42
579.363	712.62
579.814	708.02
580.265	701.12
580.717	713.52
581.168	718.92
581.619	710.92
582.07	726.22
582.521	710.62
582.972	715.92
583.423	717.82
583.875	721.22
584.326	720.32
584.777	736.52
585.227	770.42
585.678	778.42
586.129	805.72
586.58	824.22
587.031	847.72
587.482	875.62
587.933	910.12
588.384	870.82
588.834	839.52
589.285	822.12
589.736	831.22
590.186	819.12
590.637	816.92
591.088	792.42
591.538	768.72
591.989	766.82
592.439	770.62
592.89	759.02
593.34	752.42
593.791	741.12
594.241	740.92
594.692	732.62
595.142	736.82
595.593	729.42
596.043	740.82
596.493	747.02
596.943	747.02
597.394	761.62
597.844	758.22
598.294	777.82
598.744	794.82
599.195	828.82
599.645	866.82
600.095	906.42
600.545	968.62
600.995	1031.72
601.445	1080.12
601.895	1150.72
602.345	1199.82
602.795	1178.62
603.245	1137.62
603.695	1072.92
604.145	1010.52
604.594	971.42
605.044	909.32
605.494	859.12
605.944	804.62
606.393	786.62
606.843	768.12
607.293	774.72
607.743	764.62
608.192	769.42
608.642	796.62
609.091	795.02
609.541	803.52
609.99	801.42
610.44	800.22
610.889	745.22
611.339	735.92
611.788	714.82
612.238	724.42
612.687	740.72
613.136	728.42
613.586	744.22
614.035	728.92
614.484	747.22
614.933	738.82
615.383	745.72
615.832	748.62
616.281	727.92
616.73	695.12
617.179	689.72
617.628	676.42
618.077	655.92
618.526	649.82
618.975	643.52
619.424	646.62
619.873	642.12
620.322	641.82
620.771	635.72
621.22	634.92
621.669	627.02
622.118	626.52
622.567	612.52
623.015	604.22
623.464	597.82
623.913	588.52
624.361	579.32
624.81	575.02
625.259	589.32
625.707	578.82
626.156	582.52
626.604	592.52
627.053	594.52
627.501	590.12
627.95	598.82
628.398	615.72
628.847	604.02
629.295	602.72
629.744	600.82
630.192	598.12
630.64	588.92
631.089	568.82
631.537	570.42
631.985	559.82
632.433	560.02
632.881	548.42
633.33	559.12
633.778	550.82
634.226	544.82
634.674	567.92
635.122	563.42
635.57	576.52
636.018	582.22
636.466	586.52
636.914	590.72
637.362	602.82
637.81	603.12
638.258	601.72
638.705	614.52
639.153	641.42
639.601	657.72
640.049	670.02
640.497	707.12
640.944	713.02
641.392	668.42
641.84	640.92
642.287	611.32
642.735	593.92
643.182	594.22
643.63	581.42
644.078	586.92
644.525	594.32
644.973	611.92
645.42	624.72
645.867	639.72
646.315	661.32
646.762	677.62
647.21	715.52
647.657	729.82
648.104	762.92
648.551	775.92
648.999	850.72
649.446	928.22
649.893	999.32
650.34	1148.02
650.787	1355.42
651.234	1678.43
651.682	2161.32
652.129	2902.62
652.576	4129.43
653.023	6008.02
653.47	8151.12
653.917	10148.82
654.363	11685.03
654.81	12927.02
655.257	12227.73
655.704	8088.13
656.151	4886.02
656.598	3222.03
657.044	2293.62
657.491	1777.32
657.938	1446.62
658.385	1225.42
658.831	1065.52
659.278	953.72
659.724	848.72
660.171	798.42
660.618	732.92
661.064	696.42
661.511	686.82
661.957	670.22
662.404	656.12
662.85	667.02
663.296	644.22
663.743	571.32
664.189	557.92
664.635	557.92
665.082	557.72
665.528	552.42
665.974	540.72
666.42	528.22
666.867	526.02
667.313	503.62
667.759	490.52
668.205	471.62
668.651	471.12
669.097	469.62
669.543	455.72
669.989	466.42
670.435	462.62
670.881	473.92
671.327	477.72
671.773	488.02
672.219	517.02
672.665	573.02
673.11	608.22
673.556	658.32
674.002	705.12
674.448	689.52
674.893	591.72
675.339	513.42
675.785	466.32
676.23	440.42
676.676	413.32
677.122	402.62
677.567	392.32
678.013	379.22
678.458	381.62
678.904	385.62
679.349	372.92
679.794	367.32
680.24	370.82
680.685	364.42
681.131	365.62
681.576	369.92
682.021	372.02
682.466	367.02
682.912	367.32
683.357	367.92
683.802	408.12
684.247	434.42
684.692	484.72
685.137	525.82
685.583	560.22
686.028	599.62
686.473	551.32
686.918	462.42
687.363	436.42
687.807	416.42
688.252	379.12
688.697	370.02
689.142	355.12
689.587	353.92
690.032	345.12
690.477	359.62
690.921	371.32
691.366	403.42
691.811	426.32
692.255	457.02
692.7	487.02
693.145	533.02
693.589	732.52
694.034	1190.22
694.478	1630.42
694.923	1833.93
695.367	2408.03
695.812	1270.72
696.256	523.82
696.701	383.42
697.145	360.62
697.59	344.12
698.034	330.12
698.478	342.92
698.922	334.62
699.367	345.52
699.811	354.12
700.255	367.02
700.699	403.32
701.143	440.02
701.588	497.02
702.032	539.82
702.476	543.72
702.92	512.72
703.364	526.42
703.808	664.92
704.252	1103.22
704.696	1540.42
705.14	1779.92
705.584	2262.03
706.027	1120.32
706.471	553.12
706.915	411.92
707.359	374.92
707.803	333.82
708.246	325.32
708.69	328.02
709.134	332.32
709.577	328.92
710.021	324.52
710.465	319.02
710.908	317.62
711.352	310.52
711.795	326.52
712.239	377.52
712.682	404.02
713.126	423.92
713.569	477.62
714.012	372.32
714.456	313.82
714.899	301.22
715.342	289.12
715.786	277.42
716.229	266.82
716.672	267.62
717.115	263.32
717.558	259.52
718.002	266.52
718.445	272.62
718.888	297.82
719.331	307.12
719.774	318.92
720.217	320.62
720.66	295.22
721.103	278.02
721.546	266.02
721.989	262.12
722.432	240.52
722.874	251.62
723.317	240.82
723.76	246.52
724.203	268.82
724.645	325.02
725.088	468.82
725.531	604.82
725.974	686.72
726.416	574.02
726.859	321.22
727.301	258.02
727.744	246.22
728.187	239.92
728.629	252.92
729.071	256.62
729.514	265.12
729.956	287.62
730.399	300.62
730.841	302.42
731.283	283.02
731.726	284.02
732.168	279.62
732.61	285.62
733.053	301.22
733.495	334.72
733.937	370.72
734.379	415.12
734.821	463.82
735.263	571.22
735.705	886.92
736.148	1664.53
736.59	2751.02
737.032	3238.32
737.474	2610.82
737.916	860.32
738.357	460.22
738.799	350.22
739.241	316.52
739.683	295.02
740.125	301.12
740.567	313.62
741.008	336.92
741.45	334.02
741.892	333.12
742.334	367.12
742.775	378.72
743.217	373.22
743.658	291.62
744.1	273.72
744.542	287.22
744.983	346.12
745.425	363.02
745.866	365.92
746.307	305.42
746.749	286.52
747.19	341.52
747.632	483.52
748.073	940.62
748.514	1995.73
748.956	3012.42
749.397	3793.62
749.838	3151.23
750.279	3135.12
750.72	1585.02
751.162	588.02
751.603	343.42
752.044	267.52
752.485	228.72
752.926	216.22
753.367	216.12
753.808	200.22
754.249	201.42
754.69	196.82
755.131	193.82
755.572	196.02
756.013	187.12
756.453	198.02
756.894	200.02
757.335	204.52
757.776	204.52
758.216	210.62
758.657	209.22
759.098	215.92
759.538	238.92
759.979	280.72
760.42	395.02
760.86	744.72
761.301	1935.42
761.741	4722.23
762.182	6808.52
762.622	4781.43
763.063	1391.32
763.503	562.32
763.943	347.22
764.384	292.62
764.824	267.22
765.264	257.02
765.705	222.42
766.145	186.92
766.585	189.42
767.025	184.42
767.465	169.12
767.906	191.32
768.346	208.12
768.786	226.72
769.226	228.82
769.666	320.62
770.106	657.42
770.546	1648.03
770.986	2814.93
771.426	2494.23
771.866	836.72
772.306	338.52
772.745	209.52
773.185	182.12
773.625	168.22
774.065	161.62
774.505	168.92
774.944	211.92
775.384	376.72
775.824	626.02
776.263	607.52
776.703	295.72
777.142	165.12
777.582	143.52
778.021	132.12
778.461	128.12
778.9	132.52
779.34	133.42
779.779	124.32
780.219	116.02
780.658	113.62
781.097	119.32
781.537	125.62
781.976	115.52
782.415	110.92
782.855	109.22
783.294	108.02
783.733	113.52
784.172	108.22
784.611	103.12
785.05	107.52
785.489	121.62
785.928	125.02
786.367	129.62
786.806	120.42
787.245	132.02
787.684	143.22
788.123	152.12
788.562	144.52
789.001	135.12
789.44	128.32
789.879	122.92
790.317	124.42
790.756	139.92
791.195	136.02
791.634	153.22
792.072	207.92
792.511	387.32
792.95	1047.02
793.388	2237.12
793.827	2011.62
794.265	699.82
794.704	291.72
795.142	188.92
795.581	159.72
796.019	152.42
796.458	141.22
796.896	126.92
797.334	136.02
797.773	163.92
798.211	237.52
798.649	469.22
799.087	1079.02
799.526	1696.32
799.964	2136.62
800.402	2109.03
800.84	793.62
801.278	322.52
801.716	199.52
802.154	168.12
802.592	153.92
803.03	147.72
803.468	145.62
803.906	153.12
804.344	157.92
804.782	142.02
805.22	140.62
805.658	140.32
806.096	162.62
806.533	168.02
806.971	182.22
807.409	227.72
807.847	339.12
808.284	703.72
808.722	1996.72
809.16	3478.02
809.597	3305.62
810.035	5747.62
810.472	6097.93
810.91	2217.53
811.347	848.52
811.785	437.42
812.222	274.72
812.66	209.52
813.097	175.22
813.535	150.92
813.972	136.92
814.409	121.12
814.846	114.22
815.284	119.32
815.721	113.32
816.158	110.32
816.595	114.92
817.032	164.42
817.47	195.62
817.907	144.12
818.344	107.52
818.781	106.62
819.218	106.92
819.655	132.12
820.092	207.82
820.529	235.32
820.966	180.92
821.403	137.12
821.839	103.92
822.276	99.92
822.713	127.82
823.15	146.92
823.587	121.12
824.023	156.32
824.46	318.02
824.897	959.23
825.333	1422.72
825.77	614.62
826.206	246.02
826.643	138.92
827.08	107.22
827.516	92.52
827.953	82.02
828.389	81.92
828.825	72.92
829.262	72.42
829.698	70.72
830.135	64.62
830.571	65.12
831.007	69.02
831.443	65.82
831.88	66.82
832.316	70.32
832.752	67.82
833.188	70.32
833.624	76.42
834.06	70.22
834.497	74.02
834.933	73.12
835.369	77.72
835.805	69.42
836.241	79.92
836.677	89.72
837.112	98.12
837.548	109.62
837.984	140.62
838.42	220.12
838.856	533.92
839.292	1597.82
839.727	2423.62
840.163	1145.52
840.599	991.92
841.034	2148.03
841.47	2237.03
841.906	814.82
842.341	354.52
842.777	205.22
843.212	214.02
843.648	204.22
844.083	113.42
844.519	92.72
844.954	75.02
845.39	56.32
845.825	58.72
846.261	59.72
846.696	59.92
847.131	54.72
847.566	58.82
848.002	58.52
848.437	53.82
848.872	59.02
849.307	71.52
849.742	87.72
850.177	196.82
850.613	586.62
851.048	921.12
851.483	406.42
851.918	168.62
852.353	92.42
852.788	56.62
853.223	52.42
853.657	52.32
854.092	53.42
854.527	43.62
854.962	46.02
855.397	50.02
855.832	51.92
856.266	49.22
856.701	43.02
857.136	37.22
857.57	44.62
858.005	51.42
858.44	64.62
858.874	40.72
859.309	61.22
859.743	45.12
860.178	51.52
860.612	43.02
861.047	56.42
861.481	73.52
861.915	73.12
862.35	56.12
862.784	41.72
863.218	41.72
863.653	40.92
864.087	47.42
864.521	60.12
864.955	66.32
865.39	160.92
865.824	188.62
866.258	123.92
866.692	185.22
867.126	191.92
867.56	116.82
867.994	56.52
868.428	38.12
868.862	51.02
869.296	56.12
869.73	64.12
870.164	59.52
870.598	55.12
871.031	38.32
871.465	33.52
871.899	37.72
872.333	31.12
872.766	30.52
873.2	25.32
873.634	30.52
874.067	25.02
874.501	32.72
874.935	32.42
875.368	29.52
875.802	33.92
876.235	25.92
876.669	29.42
877.102	24.62
877.535	33.12
877.969	22.32
878.402	18.52
878.836	19.22
879.269	25.52
879.702	22.82
880.135	20.82
880.569	22.92
881.002	24.12
881.435	26.12
881.868	17.52
882.301	24.82
882.734	18.32
883.167	32.12
883.601	21.72
884.034	22.82
884.467	18.12
884.899	17.82
885.332	21.72
885.765	11.92
886.198	14.72
886.631	19.62
887.064	18.02
887.497	23.52
887.929	23.02
888.362	7.22
888.795	12.12
889.228	24.52
889.66	17.82
890.093	22.12
890.526	15.62
890.958	18.42
891.391	19.22
891.823	23.92
892.256	20.62
892.688	12.82
893.121	12.32
893.553	11.72
893.985	23.62
894.418	20.42
894.85	14.02
895.282	17.02
895.715	19.72
896.147	16.92
896.579	19.72
897.011	20.52
897.444	14.92
897.876	12.22
898.308	21.42
898.74	20.22
899.172	16.52
899.604	28.22
900.036	18.62
900.468	15.62
900.9	16.72
901.332	21.92
901.764	17.92
902.196	20.72
902.628	22.02
903.06	10.62
903.491	32.12
903.923	25.02
904.355	22.22
904.787	25.12
905.218	23.62
905.65	25.72
906.082	8.22
906.513	19.52
906.945	19.72
907.376	14.62
907.808	17.92
908.239	19.32
908.671	17.42
909.102	17.32
909.534	29.32
909.965	49.72
910.397	101.92
910.828	324.52
911.259	500.42
911.691	239.32
912.122	114.62
912.553	56.52
912.984	41.22
913.415	26.72
913.847	27.62
914.278	19.62
914.709	14.02
915.14	21.92
915.571	17.12
916.002	14.22
916.433	22.72
916.864	19.02
917.295	24.02
917.726	25.12
918.157	16.52
918.587	28.92
919.018	24.22
919.449	22.32
919.88	29.12
920.311	33.32
920.741	47.72
921.172	182.12
921.603	160.92
922.033	79.72
922.464	46.42
922.895	23.42
923.325	21.42
923.756	12.02
924.186	12.92
924.617	20.62
925.047	20.22
925.478	23.52
925.908	29.22
926.338	15.22
926.769	17.02
927.199	14.12
927.629	10.52
928.06	17.12
928.49	16.42
928.92	13.52
929.35	7.12
929.78	9.22
930.21	15.42
930.641	14.52
931.071	15.52
931.501	5.52
931.931	18.22
932.361	9.92
932.791	-0.08
933.221	6.62
933.651	2.82
934.08	14.62
934.51	31.82
934.94	14.62
935.37	6.72
935.8	14.72
936.229	13.72
936.659	12.32
937.089	5.22
937.519	14.22
937.948	22.62
938.378	27.52
938.807	6.52
939.237	5.32
939.666	9.72
940.096	-5.38
940.525	8.02
940.955	2.02
941.384	3.82
941.814	-1.18
942.243	4.42
942.672	1.72
943.102	-3.08
943.531	0.52
943.96	0.52
944.39	-1.88
944.819	4.72
945.248	8.12
945.677	0.72
946.106	9.72
946.535	8.82
946.964	2.32
947.393	2.62
947.822	7.22
948.251	3.42
948.68	3.82
949.109	4.02
949.538	5.62
949.967	-1.98
950.396	0.12
950.825	6.02
951.254	0.12
951.682	3.82
952.111	7.32
952.54	3.92
952.969	-1.08
953.397	-9.98
953.826	4.32
954.254	-0.28
954.683	0.42
955.112	-3.08
955.54	5.32
955.969	1.12
956.397	0.22
956.826	1.02
957.254	4.92
957.682	2.82
958.111	7.32
958.539	0.72
958.967	3.92
959.396	-1.08
959.824	5.72
960.252	7.42
960.68	-3.28
961.109	-1.78
961.537	0.72
961.965	0.62
962.393	6.02
962.821	1.12
963.249	-0.18
963.677	5.12
964.105	7.12
964.533	51.52
964.961	40.72
965.389	22.12
965.817	7.12
966.245	0.82
966.672	-0.38
967.1	-0.98
967.528	5.22
967.956	1.62
968.383	2.12
968.811	-1.88
969.239	3.32
969.666	-2.08
970.094	1.72
970.522	2.12
970.949	2.52
971.377	-2.48
971.804	5.02
972.232	0.82
972.659	2.42
973.087	-0.58
973.514	-4.28
973.941	-4.48
974.369	3.32
974.796	2.12
975.223	-2.18
975.651	0.02
976.078	1.32
976.505	-1.28
976.932	5.32
977.359	14.42
977.786	17.52
978.214	0.62
978.641	-5.68
979.068	-0.68
979.495	-3.98
979.922	0.52
980.349	2.72
980.776	5.12
981.202	-4.18
981.629	7.92
982.056	1.02
982.483	2.22
982.91	2.22
983.337	-4.88
983.763	2.92
984.19	-3.88
984.617	1.02
985.043	-8.58
985.47	-0.48
985.897	-4.98
986.323	-4.78
986.75	-1.78
987.176	0.82
987.603	3.22
988.029	0.02
988.456	0.52
988.882	-0.58
989.308	-7.28
989.735	-6.88
990.161	3.22
990.587	-3.78
991.014	-1.98
991.44	7.22
991.866	0.92
992.292	-2.48
992.719	-3.98
993.145	4.92
993.571	-9.28
993.997	1.72
994.423	1.82
994.849	-6.38
995.275	2.42
995.701	2.82
996.127	-4.78
996.553	1.02
996.979	-5.88
997.405	-0.48
997.83	0.02
998.256	-7.18
998.682	-0.68
999.108	-9.78
999.534	-1.08
999.959	-8.18
1000.385	-2.58
1000.811	-0.08
1001.236	-11.48
1001.662	-2.98
1002.087	-5.68
1002.513	1.62
1002.938	0.72
1003.364	-3.18
1003.789	-2.78
1004.215	2.22
1004.64	0.12
1005.066	2.22
1005.491	3.32
1005.916	-2.88
1006.342	-4.68
1006.767	-7.28
1007.192	8.32
1007.617	0.52
1008.042	-2.68
1008.468	-0.88
1008.893	0.12
1009.318	-0.48
1009.743	-2.38
1010.168	7.62
1010.593	-0.48
1011.018	-4.28
1011.443	-2.38
1011.868	2.32
1012.293	0.02
1012.718	-6.48
1013.143	8.12
1013.567	1.02
1013.992	-3.18
1014.417	-10.08
1014.842	2.12
1015.267	-0.48
1015.691	-5.98
1016.116	4.82
1016.541	-6.28
1016.965	5.62
1017.39	-2.68
1017.814	-5.68
1018.239	-5.88
1018.663	-10.48
1019.088	-14.38
1019.512	-1.58
1019.937	-2.28
1020.361	-2.08
1020.785	-12.18
1021.21	-6.48
1021.634	-5.68
1022.058	5.32
1022.483	2.52
1022.907	-1.38
1023.331	-0.68
1023.755	-0.38
1024.179	-2.58
1024.604	-2.08
1025.028	-6.68
1025.452	-1.48
1025.876	-7.68
1026.3	1.72
1026.724	-6.08
1027.148	-2.68
1027.572	-3.28
1027.996	-3.88
1028.42	1.62
1028.843	-6.18
1029.267	-3.48
1029.691	-2.68
1030.115	-5.18
1030.539	-5.28
1030.962	-3.38
1031.386	-6.88
1031.81	-1.38
1032.233	-2.08
1032.657	0.12
1033.08	2.72
1033.504	-0.38
1033.927	-4.58
1034.351	-0.38
1034.774	-2.98
1035.198	3.32
1035.621	-3.38
1036.045	-5.58
1036.468	0.02
1036.891	-8.58
1037.315	-8.18
1037.738	-4.38
1038.161	-3.68
1038.584	-4.08
1039.008	-2.68
1039.431	0.52
1039.854	3.22
1040.277	-2.78
1040.7	-9.28
1041.123	0.02
1041.546	-4.98
1041.969	-3.98
1042.392	-3.38
1042.815	-1.88
1043.238	5.92
1043.661	-1.48
1044.084	-4.18
1044.507	0.62
1044.93	-6.98
1045.352	-5.08
1045.775	-4.78
1046.198	-4.58
1046.621	-2.78
1047.043	-0.98
1047.466	10.92
1047.889	-5.48
1048.311	-4.38
1048.734	-0.38
1049.156	-2.78
1049.579	0.72
1050.001	-4.08
1050.424	-4.18
1050.846	-7.78
1051.269	1.02
1051.691	-8.08
1052.113	-1.68
1052.536	-6.68
1052.958	1.12
1053.38	-4.98
1053.802	-14.48
1054.225	1.82
1054.647	-2.88
1055.069	-5.08
1055.491	6.12
1055.913	-3.68
1056.335	1.52
1056.757	0.62
1057.179	-5.78
1057.601	-2.88
1058.023	0.02
1058.445	-4.18
1058.867	-6.38
1059.289	-1.48
1059.711	-3.68
1060.133	-3.48
1060.555	-2.08
1060.976	-6.68
1061.398	0.92
1061.82	-5.38
1062.241	-1.58
1062.663	-5.98
1063.085	-4.38
1063.506	4.42
1063.928	-1.78
1064.35	2.22
1064.771	-11.38
1065.193	-4.58
1065.614	-8.98
1066.035	-1.98
1066.457	0.32
1066.878	4.32
1067.3	-2.08
1067.721	-4.08
1068.142	-3.88
1068.564	-2.98
1068.985	-7.18
1069.406	-4.38
1069.827	-5.38
1070.248	-3.18
1070.67	-10.98
1071.091	-4.78
1071.512	-7.88
1071.933	0.82
1072.354	-5.68
1072.775	-3.28
1073.196	-12.18
1073.617	-6.18
1074.038	-4.38
1074.459	-1.38
1074.88	-5.18
1075.3	-0.38
1075.721	-6.58
1076.142	-2.08
1076.563	-0.38
1076.983	-11.38
1077.404	-9.58
1077.825	-9.68
1078.246	-0.88
1078.666	-4.48
1079.087	-5.38
1079.507	-5.88
1079.928	1.12
1080.348	-0.98
1080.769	-7.88
1081.189	0.62
1081.61	-2.28
1082.03	-5.08
1082.451	0.32
1082.871	-1.18
1083.291	-6.68
1083.711	-10.38
1084.132	-4.48
1084.552	-5.68
1084.972	2.52
1085.392	-7.98
1085.813	-12.88
1086.233	-6.98
1086.653	-8.38
1087.073	-2.18
1087.493	-6.18
1087.913	-5.78
1088.333	-3.48
1088.753	-6.88
1089.173	2.32
1089.593	-3.68
1090.013	-1.38
1090.433	1.42
1090.852	-4.28
1091.272	-5.08
1091.692	-0.48
1092.112	-8.38
1092.531	-7.08
1092.951	-10.48
1093.371	-1.68
1093.79	4.72
1094.21	-4.88
1094.63	-8.28
1095.049	-1.68
1095.469	-3.18
1095.888	2.62
1096.308	4.52
1096.727	2.72
1097.146	-3.18
1097.566	-1.78
1097.985	-2.98
1098.405	-1.68
1098.824	-2.78
1099.243	-3.58
1099.662	-6.88
1100.082	0.52
1100.501	1.52
1100.92	-9.98
1101.339	-4.38
1101.758	-7.18
