Data from 20171114-ORNL-Ar_H_NY_Subt18_08-08-10-743.txt Node
Date: Tue Nov 14 08:08:10 EST 2017
User: Ender
Spectrometer: HR+D1039
Trigger mode: 0
Integration Time (sec): 2.730000E-2
Scans to average: 10
Electric dark correction enabled: true
Nonlinearity correction enabled: false
Boxcar width: 0
XAxis mode: Wavelengths
Number of Pixels in Spectrum: 2048
>>>>>Begin Spectral Data<<<<<
187.836	-7.97
188.309	-7.97
188.782	-7.97
189.255	-1.97
189.728	-4.37
190.201	7.03
190.674	-2.67
191.147	1.83
191.619	-5.27
192.092	6.73
192.565	4.23
193.038	-2.47
193.511	2.63
193.984	3.93
194.456	2.13
194.929	-2.67
195.402	-3.47
195.874	2.33
196.347	-0.77
196.82	-5.77
197.292	3.63
197.765	-2.67
198.237	-6.37
198.71	1.33
199.182	-1.37
199.655	-1.17
200.127	0.23
200.6	-3.27
201.072	0.63
201.544	-3.27
202.017	0.93
202.489	0.53
202.961	2.33
203.433	-2.57
203.906	-3.17
204.378	-9.67
204.85	-1.67
205.322	-10.17
205.794	-4.77
206.266	0.53
206.739	-2.37
207.211	1.83
207.683	-4.17
208.155	-4.77
208.627	-6.07
209.099	-4.77
209.57	-10.17
210.042	-4.47
210.514	-7.47
210.986	1.93
211.458	-5.17
211.93	-8.57
212.402	1.03
212.873	-8.57
213.345	-9.17
213.817	-12.17
214.288	0.13
214.76	-7.67
215.232	-3.17
215.703	-9.47
216.175	-2.97
216.646	-8.27
217.118	-3.57
217.589	-3.47
218.061	-4.87
218.532	-4.57
219.004	0.03
219.475	-5.27
219.946	4.63
220.418	-4.97
220.889	1.33
221.36	-1.77
221.832	-10.47
222.303	-7.57
222.774	0.23
223.245	-10.17
223.717	-11.57
224.188	-9.17
224.659	-7.67
225.13	-8.27
225.601	-3.77
226.072	-0.27
226.543	-4.57
227.014	0.73
227.485	-3.97
227.956	-9.47
228.427	-0.47
228.898	4.03
229.369	3.13
229.839	-0.27
230.31	-6.47
230.781	5.53
231.252	-3.07
231.722	-7.87
232.193	-4.37
232.664	0.03
233.135	3.23
233.605	3.73
234.076	-3.37
234.546	-1.67
235.017	5.03
235.487	-2.87
235.958	0.93
236.428	-4.37
236.899	0.63
237.369	1.93
237.84	0.83
238.31	5.53
238.78	3.53
239.251	-3.47
239.721	2.33
240.191	3.23
240.662	-4.77
241.132	2.53
241.602	-2.07
242.072	2.73
242.542	1.43
243.013	2.63
243.483	5.33
243.953	2.33
244.423	-1.57
244.893	-1.27
245.363	1.03
245.833	0.83
246.303	-3.97
246.773	4.33
247.243	-1.67
247.712	1.63
248.182	4.03
248.652	4.93
249.122	-8.67
249.592	12.93
250.061	18.53
250.531	31.03
251.001	12.43
251.471	26.23
251.94	16.43
252.41	5.43
252.879	0.33
253.349	9.93
253.818	10.83
254.288	0.63
254.757	3.43
255.227	6.73
255.696	-0.37
256.166	5.33
256.635	11.13
257.105	3.93
257.574	6.33
258.043	12.13
258.513	8.33
258.982	20.13
259.451	4.53
259.92	13.23
260.389	6.63
260.859	12.33
261.328	15.13
261.797	18.03
262.266	9.93
262.735	9.83
263.204	8.53
263.673	1.43
264.142	9.83
264.611	1.43
265.08	6.83
265.549	2.73
266.018	2.43
266.487	-1.67
266.955	-1.27
267.424	-0.67
267.893	6.93
268.362	6.33
268.83	2.53
269.299	15.23
269.768	4.73
270.236	9.03
270.705	6.33
271.174	4.33
271.642	9.63
272.111	7.53
272.579	17.03
273.048	25.33
273.516	31.73
273.985	30.23
274.453	20.33
274.922	18.03
275.39	7.23
275.858	1.43
276.327	7.43
276.795	19.43
277.263	13.93
277.731	31.13
278.2	48.53
278.668	56.03
279.136	43.43
279.604	19.43
280.072	14.93
280.54	15.93
281.008	11.83
281.477	15.53
281.945	18.23
282.413	10.43
282.881	18.03
283.348	7.83
283.816	16.43
284.284	12.23
284.752	19.73
285.22	13.33
285.688	14.53
286.156	16.03
286.623	47.43
287.091	51.73
287.559	29.43
288.026	17.93
288.494	14.73
288.962	3.03
289.429	7.23
289.897	21.13
290.364	16.73
290.832	17.23
291.3	16.13
291.767	18.73
292.234	18.53
292.702	12.83
293.169	23.23
293.637	24.03
294.104	24.23
294.571	10.33
295.039	6.53
295.506	14.13
295.973	17.93
296.44	20.43
296.908	19.13
297.375	22.43
297.842	20.53
298.309	20.13
298.776	9.23
299.243	17.93
299.71	12.63
300.177	22.53
300.644	23.23
301.111	17.43
301.578	25.73
302.045	15.83
302.512	20.93
302.979	23.03
303.446	16.83
303.913	16.33
304.379	18.13
304.846	29.23
305.313	26.43
305.78	18.13
306.246	23.73
306.713	28.23
307.18	21.73
307.646	30.23
308.113	32.03
308.579	27.13
309.046	24.63
309.512	24.03
309.979	15.03
310.445	29.13
310.912	28.13
311.378	28.73
311.845	29.23
312.311	31.53
312.777	31.03
313.244	27.53
313.71	36.33
314.176	31.13
314.642	34.33
315.109	30.33
315.575	33.23
316.041	31.53
316.507	31.13
316.973	38.13
317.439	36.43
317.905	40.83
318.371	31.73
318.837	30.13
319.303	32.53
319.769	36.53
320.235	28.23
320.701	34.03
321.167	36.33
321.633	33.33
322.099	42.63
322.564	46.53
323.03	39.43
323.496	36.23
323.962	34.13
324.427	35.13
324.893	39.53
325.359	33.73
325.824	34.53
326.29	34.33
326.755	35.83
327.221	42.33
327.686	36.53
328.152	42.33
328.617	42.23
329.083	45.23
329.548	44.13
330.014	47.63
330.479	38.03
330.944	45.93
331.41	38.43
331.875	44.83
332.34	37.53
332.805	47.93
333.271	47.73
333.736	48.23
334.201	56.43
334.666	56.93
335.131	51.73
335.596	50.13
336.061	48.13
336.526	40.73
336.991	57.73
337.456	59.43
337.921	45.73
338.386	46.13
338.851	40.33
339.316	47.93
339.781	48.13
340.246	50.53
340.711	44.83
341.175	51.83
341.64	42.13
342.105	51.63
342.569	53.13
343.034	60.13
343.499	54.53
343.963	52.23
344.428	64.53
344.893	58.63
345.357	59.83
345.822	54.53
346.286	70.23
346.751	70.03
347.215	68.63
347.679	74.43
348.144	95.53
348.608	85.23
349.073	73.43
349.537	72.63
350.001	80.63
350.465	93.83
350.93	84.73
351.394	84.03
351.858	63.23
352.322	87.73
352.786	84.93
353.25	104.03
353.715	111.83
354.179	107.63
354.643	116.03
355.107	130.93
355.571	114.93
356.035	109.33
356.498	117.03
356.962	130.13
357.426	133.03
357.89	111.13
358.354	91.13
358.818	80.93
359.281	77.23
359.745	84.43
360.209	78.83
360.673	78.13
361.136	79.73
361.6	86.23
362.064	82.43
362.527	84.03
362.991	89.23
363.454	81.53
363.918	77.53
364.381	81.63
364.845	84.83
365.308	86.73
365.772	91.43
366.235	84.63
366.698	86.33
367.162	87.73
367.625	86.93
368.088	92.23
368.552	86.43
369.015	89.93
369.478	94.43
369.941	101.03
370.404	100.43
370.867	105.13
371.331	105.43
371.794	117.13
372.257	105.23
372.72	115.43
373.183	115.83
373.646	108.43
374.109	114.53
374.572	104.83
375.035	111.83
375.497	114.43
375.96	108.53
376.423	103.03
376.886	116.93
377.349	110.43
377.811	102.73
378.274	107.33
378.737	106.63
379.199	120.13
379.662	111.83
380.125	119.13
380.587	113.73
381.05	126.83
381.512	128.33
381.975	137.23
382.437	144.23
382.9	126.63
383.362	136.53
383.825	145.13
384.287	157.63
384.75	144.33
385.212	146.73
385.674	146.53
386.136	140.13
386.599	124.53
387.061	130.73
387.523	142.63
387.985	139.43
388.447	151.23
388.91	154.13
389.372	164.73
389.834	161.23
390.296	148.13
390.758	159.93
391.22	179.33
391.682	226.53
392.144	318.03
392.606	236.93
393.068	177.93
393.529	176.53
393.991	159.13
394.453	153.33
394.915	167.33
395.377	200.43
395.838	225.63
396.3	155.43
396.762	140.93
397.224	135.03
397.685	132.33
398.147	139.83
398.608	136.43
399.07	133.53
399.531	140.73
399.993	153.83
400.454	154.03
400.916	144.93
401.377	151.13
401.839	152.43
402.3	153.53
402.762	166.03
403.223	190.03
403.684	181.33
404.145	160.93
404.607	161.53
405.068	170.43
405.529	174.33
405.99	193.63
406.451	176.93
406.913	173.43
407.374	167.63
407.835	167.53
408.296	175.53
408.757	177.43
409.218	199.23
409.679	183.93
410.14	181.53
410.601	184.83
411.062	191.73
411.522	203.43
411.983	202.33
412.444	188.33
412.905	183.73
413.366	189.83
413.826	193.13
414.287	220.13
414.748	265.03
415.208	250.43
415.669	215.83
416.13	207.53
416.59	210.73
417.051	214.13
417.511	225.03
417.972	238.63
418.432	251.73
418.893	294.83
419.353	255.13
419.814	207.53
420.274	187.53
420.734	186.23
421.195	211.33
421.655	206.53
422.115	204.73
422.576	196.43
423.036	198.83
423.496	211.13
423.956	223.23
424.416	235.93
424.876	269.93
425.336	268.43
425.797	273.53
426.257	264.13
426.717	248.03
427.177	240.43
427.637	225.23
428.097	238.23
428.556	252.83
429.016	273.43
429.476	279.33
429.936	286.93
430.396	285.23
430.856	300.93
431.315	325.33
431.775	355.83
432.235	393.63
432.694	367.43
433.154	372.33
433.614	410.03
434.073	349.93
434.533	298.13
434.993	284.23
435.452	284.63
435.912	300.43
436.371	290.33
436.83	292.13
437.29	274.23
437.749	256.43
438.209	251.93
438.668	283.63
439.127	289.43
439.587	268.33
440.046	246.43
440.505	267.43
440.964	283.23
441.424	332.73
441.883	317.23
442.342	267.13
442.801	229.53
443.26	224.33
443.719	228.73
444.178	221.43
444.637	219.53
445.096	221.83
445.555	233.63
446.014	229.63
446.473	227.73
446.932	235.43
447.391	234.83
447.849	237.93
448.308	220.43
448.767	227.43
449.226	237.93
449.685	239.23
450.143	252.43
450.602	241.53
451.061	233.43
451.519	236.93
451.978	236.63
452.436	235.73
452.895	240.83
453.353	258.33
453.812	247.23
454.27	244.03
454.729	247.13
455.187	244.93
455.646	249.23
456.104	247.13
456.562	264.83
457.021	271.73
457.479	266.03
457.937	282.53
458.395	266.33
458.854	255.03
459.312	262.93
459.77	285.83
460.228	266.13
460.686	246.23
461.144	255.43
461.602	244.93
462.06	247.13
462.518	261.03
462.976	256.43
463.434	258.13
463.892	260.63
464.35	275.83
464.808	293.43
465.266	270.53
465.724	277.33
466.181	276.63
466.639	274.93
467.097	291.73
467.555	303.73
468.012	308.93
468.47	309.43
468.928	333.33
469.385	339.73
469.843	349.23
470.3	354.53
470.758	358.23
471.215	392.23
471.673	421.33
472.13	413.33
472.588	430.13
473.045	381.73
473.503	386.63
473.96	407.13
474.417	400.93
474.875	438.93
475.332	489.93
475.789	465.53
476.246	471.13
476.704	491.73
477.161	514.83
477.618	529.03
478.075	566.63
478.532	625.33
478.989	707.13
479.446	831.23
479.903	788.73
480.36	814.53
480.817	882.13
481.274	981.83
481.731	1088.13
482.188	1191.73
482.645	1325.03
483.102	1430.53
483.558	1570.93
484.015	1609.93
484.472	1593.13
484.929	1538.83
485.385	1489.13
485.842	1437.33
486.299	1361.63
486.755	1307.53
487.212	1115.73
487.668	943.63
488.125	862.23
488.582	790.83
489.038	752.83
489.494	712.73
489.951	676.33
490.407	664.63
490.864	650.13
491.32	644.23
491.776	648.43
492.233	651.63
492.689	621.83
493.145	614.43
493.602	615.03
494.058	625.73
494.514	617.53
494.97	647.03
495.426	659.53
495.882	633.53
496.338	608.83
496.794	611.53
497.251	623.93
497.707	633.63
498.163	633.03
498.618	643.73
499.074	639.83
499.53	671.63
499.986	681.23
500.442	650.43
500.898	642.83
501.354	628.43
501.809	649.93
502.265	652.73
502.721	670.83
503.177	678.33
503.632	676.03
504.088	689.03
504.543	710.93
504.999	716.83
505.455	646.93
505.91	634.73
506.366	627.83
506.821	629.23
507.277	617.63
507.732	631.53
508.187	632.83
508.643	631.33
509.098	635.63
509.553	649.73
510.009	664.13
510.464	668.13
510.919	674.93
511.375	690.93
511.83	705.33
512.285	726.43
512.74	757.93
513.195	790.33
513.65	773.93
514.105	763.73
514.56	770.43
515.015	792.43
515.47	808.33
515.925	786.43
516.38	775.93
516.835	796.93
517.29	789.83
517.745	773.73
518.2	765.43
518.655	745.53
519.109	750.73
519.564	733.73
520.019	727.73
520.474	724.83
520.928	715.13
521.383	702.03
521.838	708.53
522.292	713.23
522.747	697.53
523.201	707.53
523.656	700.83
524.11	695.53
524.565	694.93
525.019	696.13
525.474	700.03
525.928	708.03
526.382	689.43
526.837	700.43
527.291	695.53
527.745	687.13
528.2	685.53
528.654	693.03
529.108	690.13
529.562	695.43
530.016	692.63
530.47	687.43
530.925	684.13
531.379	692.93
531.833	701.03
532.287	700.13
532.741	702.93
533.195	696.43
533.649	702.33
534.103	713.03
534.556	704.83
535.01	698.93
535.464	704.43
535.918	713.93
536.372	712.83
536.826	716.93
537.279	702.33
537.733	710.23
538.187	710.63
538.64	709.83
539.094	723.83
539.548	723.73
540.001	718.93
540.455	735.63
540.908	728.83
541.362	723.13
541.815	742.23
542.269	758.03
542.722	747.93
543.175	756.43
543.629	770.33
544.082	788.73
544.536	785.83
544.989	774.53
545.442	795.43
545.895	792.53
546.349	783.03
546.802	792.93
547.255	799.23
547.708	807.73
548.161	813.73
548.614	821.03
549.067	824.13
549.52	818.53
549.973	816.13
550.426	800.13
550.879	779.83
551.332	802.43
551.785	793.83
552.238	799.53
552.691	816.73
553.144	830.13
553.596	844.43
554.049	856.83
554.502	893.63
554.955	904.33
555.407	894.53
555.86	899.43
556.313	885.43
556.765	877.33
557.218	877.43
557.67	875.03
558.123	866.83
558.576	861.33
559.028	879.93
559.48	874.43
559.933	861.73
560.385	828.93
560.838	804.83
561.29	785.33
561.742	784.73
562.195	766.93
562.647	768.53
563.099	778.23
563.551	768.13
564.004	786.23
564.456	777.03
564.908	757.33
565.36	751.53
565.812	732.43
566.264	719.63
566.716	725.73
567.168	717.73
567.62	723.83
568.072	715.43
568.524	700.03
568.976	691.43
569.428	674.13
569.88	689.23
570.332	683.03
570.784	673.83
571.235	683.93
571.687	685.13
572.139	692.43
572.59	709.63
573.042	710.93
573.494	706.03
573.945	704.53
574.397	676.93
574.849	678.33
575.3	678.63
575.752	671.93
576.203	677.73
576.655	686.23
577.106	662.03
577.557	652.03
578.009	669.83
578.46	652.43
578.912	662.13
579.363	673.73
579.814	675.53
580.265	654.03
580.717	671.03
581.168	667.43
581.619	683.03
582.07	683.43
582.521	674.93
582.972	680.03
583.423	683.43
583.875	688.23
584.326	714.63
584.777	756.63
585.227	837.23
585.678	934.03
586.129	1033.53
586.58	1102.03
587.031	1201.83
587.482	1353.43
587.933	1551.13
588.384	1335.73
588.834	992.93
589.285	819.03
589.736	789.93
590.186	778.03
590.637	765.93
591.088	757.03
591.538	733.53
591.989	729.03
592.439	730.83
592.89	713.13
593.34	708.13
593.791	704.53
594.241	706.63
594.692	717.73
595.142	700.53
595.593	702.83
596.043	709.73
596.493	725.43
596.943	722.03
597.394	715.73
597.844	705.03
598.294	721.83
598.744	748.43
599.195	775.33
599.645	814.93
600.095	855.63
600.545	919.43
600.995	959.53
601.445	1016.23
601.895	1078.33
602.345	1124.43
602.795	1101.53
603.245	1069.63
603.695	1015.03
604.145	948.13
604.594	905.93
605.044	854.53
605.494	792.43
605.944	754.03
606.393	748.93
606.843	717.53
607.293	729.23
607.743	736.43
608.192	756.93
608.642	761.23
609.091	776.33
609.541	767.03
609.99	766.13
610.44	774.53
610.889	730.73
611.339	701.73
611.788	693.83
612.238	698.83
612.687	723.93
613.136	730.93
613.586	739.13
614.035	752.23
614.484	766.03
614.933	766.93
615.383	750.93
615.832	733.73
616.281	730.73
616.73	690.13
617.179	668.23
617.628	653.23
618.077	634.83
618.526	622.83
618.975	625.43
619.424	620.13
619.873	611.03
620.322	620.23
620.771	608.03
621.22	595.43
621.669	594.73
622.118	591.03
622.567	582.43
623.015	572.73
623.464	580.23
623.913	570.73
624.361	550.73
624.81	549.33
625.259	560.73
625.707	557.73
626.156	556.83
626.604	560.83
627.053	568.53
627.501	568.73
627.95	569.13
628.398	570.23
628.847	570.73
629.295	581.03
629.744	575.93
630.192	570.63
630.64	573.43
631.089	563.13
631.537	584.93
631.985	597.83
632.433	618.93
632.881	620.33
633.33	672.63
633.778	653.13
634.226	578.73
634.674	579.93
635.122	578.63
635.57	607.93
636.018	644.13
636.466	577.83
636.914	563.83
637.362	572.23
637.81	575.23
638.258	575.23
638.705	579.53
639.153	616.43
639.601	623.23
640.049	644.23
640.497	669.63
640.944	696.43
641.392	652.63
641.84	609.23
642.287	586.03
642.735	576.53
643.182	577.83
643.63	583.93
644.078	579.43
644.525	594.83
644.973	616.13
645.42	605.23
645.867	627.23
646.315	639.43
646.762	670.03
647.21	695.43
647.657	719.23
648.104	754.03
648.551	788.13
648.999	845.23
649.446	932.73
649.893	1016.13
650.34	1174.43
650.787	1416.73
651.234	1765.23
651.682	2310.03
652.129	3187.23
652.576	4599.33
653.023	6774.03
653.47	9291.63
653.917	11497.93
654.363	13170.93
654.81	14468.43
655.257	13798.83
655.704	9014.83
656.151	5302.93
656.598	3448.83
657.044	2447.73
657.491	1877.73
657.938	1502.33
658.385	1253.23
658.831	1076.93
659.278	959.13
659.724	856.13
660.171	798.03
660.618	721.73
661.064	692.33
661.511	670.43
661.957	656.23
662.404	649.43
662.85	651.33
663.296	625.73
663.743	571.03
664.189	536.73
664.635	534.53
665.082	527.13
665.528	530.33
665.974	530.13
666.42	513.53
666.867	512.63
667.313	498.63
667.759	488.73
668.205	484.43
668.651	493.53
669.097	497.53
669.543	508.13
669.989	482.23
670.435	449.63
670.881	438.13
671.327	447.83
671.773	475.23
672.219	492.83
672.665	552.03
673.11	583.23
673.556	632.73
674.002	667.63
674.448	660.93
674.893	556.33
675.339	476.03
675.785	448.13
676.23	420.23
676.676	394.23
677.122	380.13
677.567	375.53
678.013	371.53
678.458	359.83
678.904	363.13
679.349	347.83
679.794	366.23
680.24	355.43
680.685	359.03
681.131	356.43
681.576	358.93
682.021	353.73
682.466	341.83
682.912	347.73
683.357	354.03
683.802	383.93
684.247	413.83
684.692	455.23
685.137	499.53
685.583	536.13
686.028	565.23
686.473	520.03
686.918	448.23
687.363	416.73
687.807	387.93
688.252	371.53
688.697	355.23
689.142	332.33
689.587	340.33
690.032	324.03
690.477	341.63
690.921	350.43
691.366	381.73
691.811	404.53
692.255	426.83
692.7	464.23
693.145	506.43
693.589	717.03
694.034	1150.33
694.478	1542.03
694.923	1710.93
695.367	2235.33
695.812	1194.23
696.256	497.53
696.701	371.23
697.145	337.63
697.59	327.53
698.034	326.83
698.478	333.53
698.922	333.13
699.367	328.83
699.811	340.03
700.255	357.23
700.699	391.73
701.143	433.53
701.588	479.03
702.032	516.93
702.476	506.43
702.92	482.53
703.364	493.93
703.808	652.03
704.252	1059.03
704.696	1467.93
705.14	1652.93
705.584	2106.43
706.027	1042.93
706.471	517.93
706.915	398.33
707.359	356.83
707.803	326.43
708.246	315.73
708.69	313.73
709.134	311.83
709.577	308.63
710.021	320.33
710.465	304.73
710.908	299.13
711.352	307.43
711.795	308.83
712.239	371.53
712.682	387.63
713.126	414.93
713.569	465.33
714.012	384.13
714.456	329.43
714.899	299.33
715.342	284.83
715.786	267.13
716.229	260.83
716.672	253.43
717.115	250.23
717.558	249.83
718.002	253.93
718.445	262.23
718.888	292.23
719.331	292.13
719.774	311.23
720.217	296.83
720.66	280.93
721.103	267.83
721.546	258.63
721.989	250.63
722.432	236.23
722.874	246.53
723.317	231.83
723.76	243.03
724.203	258.03
724.645	332.13
725.088	448.43
725.531	571.13
725.974	642.93
726.416	547.33
726.859	312.43
727.301	250.83
727.744	237.73
728.187	234.03
728.629	244.83
729.071	245.33
729.514	260.33
729.956	271.53
730.399	283.33
730.841	290.23
731.283	275.43
731.726	269.83
732.168	253.63
732.61	266.63
733.053	290.53
733.495	318.13
733.937	351.93
734.379	397.33
734.821	441.03
735.263	537.73
735.705	851.43
736.148	1606.33
736.59	2598.93
737.032	2983.33
737.474	2454.43
737.916	805.43
738.357	430.03
738.799	332.03
739.241	296.53
739.683	282.13
740.125	286.53
740.567	293.23
741.008	317.13
741.45	317.43
741.892	318.83
742.334	345.73
742.775	363.33
743.217	336.73
743.658	270.53
744.1	252.73
744.542	265.63
744.983	310.03
745.425	340.83
745.866	340.13
746.307	296.63
746.749	290.23
747.19	327.03
747.632	466.03
748.073	920.63
748.514	1892.53
748.956	2840.23
749.397	3575.33
749.838	2964.43
750.279	2910.53
750.72	1477.93
751.162	545.93
751.603	321.53
752.044	255.23
752.485	221.23
752.926	205.43
753.367	204.73
753.808	199.23
754.249	193.93
754.69	189.23
755.131	183.13
755.572	181.93
756.013	173.03
756.453	190.03
756.894	190.23
757.335	195.13
757.776	198.03
758.216	195.13
758.657	197.53
759.098	206.03
759.538	232.13
759.979	268.33
760.42	382.33
760.86	733.13
761.301	1895.93
761.741	4502.03
762.182	6303.03
762.622	4411.63
763.063	1299.33
763.503	543.53
763.943	355.93
764.384	355.33
764.824	422.53
765.264	460.03
765.705	322.33
766.145	217.63
766.585	196.53
767.025	190.93
767.465	198.63
767.906	259.93
768.346	339.33
768.786	352.93
769.226	275.43
769.666	330.63
770.106	648.33
770.546	1609.83
770.986	2640.83
771.426	2326.53
771.866	795.03
772.306	327.23
772.745	206.13
773.185	176.33
773.625	170.33
774.065	170.03
774.505	202.43
774.944	334.63
775.384	722.73
775.824	1280.03
776.263	1226.73
776.703	518.23
777.142	226.63
777.582	162.93
778.021	141.93
778.461	144.63
778.9	144.53
779.34	134.23
779.779	115.33
780.219	108.03
780.658	105.63
781.097	114.43
781.537	115.53
781.976	114.53
782.415	105.23
782.855	114.73
783.294	107.83
783.733	106.83
784.172	116.23
784.611	108.13
785.05	113.63
785.489	119.63
785.928	119.43
786.367	130.03
786.806	126.53
787.245	131.13
787.684	144.33
788.123	144.93
788.562	134.33
789.001	128.43
789.44	124.53
789.879	121.43
790.317	116.73
790.756	131.63
791.195	134.53
791.634	146.03
792.072	216.93
792.511	383.53
792.95	1041.83
793.388	2124.23
793.827	1884.93
794.265	675.93
794.704	281.83
795.142	178.83
795.581	154.13
796.019	138.33
796.458	130.73
796.896	121.23
797.334	128.53
797.773	160.63
798.211	223.73
798.649	451.53
799.087	1028.23
799.526	1604.03
799.964	2026.03
800.402	1964.73
800.84	744.63
801.278	297.13
801.716	189.73
802.154	148.23
802.592	144.23
803.03	145.13
803.468	132.23
803.906	136.63
804.344	157.03
804.782	139.33
805.22	137.13
805.658	125.03
806.096	142.63
806.533	155.93
806.971	183.03
807.409	214.83
807.847	324.13
808.284	688.43
808.722	1910.43
809.16	3263.33
809.597	3167.53
810.035	5428.83
810.472	5605.13
810.91	2053.93
811.347	793.53
811.785	402.83
812.222	256.93
812.66	196.73
813.097	169.33
813.535	142.33
813.972	131.33
814.409	120.73
814.846	113.43
815.284	108.33
815.721	100.13
816.158	106.03
816.595	127.33
817.032	190.63
817.47	197.73
817.907	167.73
818.344	164.33
818.781	119.43
819.218	103.13
819.655	122.33
820.092	189.63
820.529	214.13
820.966	175.63
821.403	139.53
821.839	111.43
822.276	103.43
822.713	123.53
823.15	129.33
823.587	117.43
824.023	150.43
824.46	312.93
824.897	910.53
825.333	1336.83
825.77	572.03
826.206	228.33
826.643	136.03
827.08	100.73
827.516	84.83
827.953	83.83
828.389	84.23
828.825	68.03
829.262	69.03
829.698	65.23
830.135	65.83
830.571	60.63
831.007	65.33
831.443	67.73
831.88	58.83
832.316	68.73
832.752	64.93
833.188	68.93
833.624	64.03
834.06	65.93
834.497	67.23
834.933	71.13
835.369	74.83
835.805	65.83
836.241	75.23
836.677	71.53
837.112	86.73
837.548	96.53
837.984	134.03
838.42	199.43
838.856	513.83
839.292	1530.63
839.727	2254.83
840.163	1065.53
840.599	931.43
841.034	2038.13
841.47	2065.83
841.906	766.63
842.341	331.63
842.777	235.53
843.212	326.23
843.648	315.13
844.083	152.13
844.519	99.73
844.954	74.13
845.39	61.33
845.825	63.03
846.261	61.83
846.696	51.13
847.131	52.83
847.566	63.53
848.002	54.73
848.437	59.13
848.872	62.83
849.307	58.53
849.742	87.33
850.177	184.63
850.613	561.33
851.048	864.63
851.483	378.63
851.918	150.73
852.353	91.43
852.788	64.13
853.223	63.33
853.657	56.83
854.092	47.43
854.527	42.83
854.962	43.13
855.397	44.73
855.832	49.23
856.266	43.23
856.701	38.93
857.136	41.53
857.57	45.43
858.005	49.13
858.44	58.53
858.874	49.33
859.309	56.43
859.743	36.03
860.178	49.33
860.612	45.03
861.047	53.93
861.481	66.33
861.915	62.93
862.35	51.73
862.784	36.63
863.218	37.13
863.653	34.03
864.087	47.83
864.521	58.13
864.955	75.93
865.39	162.93
865.824	169.33
866.258	115.33
866.692	164.33
867.126	165.13
867.56	102.73
867.994	55.03
868.428	37.63
868.862	44.33
869.296	55.23
869.73	53.83
870.164	51.13
870.598	50.23
871.031	37.83
871.465	28.63
871.899	31.23
872.333	18.53
872.766	27.63
873.2	22.13
873.634	26.33
874.067	29.83
874.501	27.43
874.935	35.73
875.368	33.13
875.802	28.43
876.235	25.83
876.669	24.13
877.102	21.33
877.535	23.53
877.969	19.03
878.402	24.73
878.836	25.93
879.269	25.03
879.702	26.83
880.135	23.83
880.569	27.93
881.002	27.63
881.435	17.83
881.868	12.03
882.301	23.03
882.734	15.63
883.167	22.63
883.601	12.43
884.034	20.93
884.467	12.03
884.899	23.33
885.332	16.73
885.765	12.23
886.198	18.63
886.631	20.03
887.064	18.43
887.497	22.53
887.929	23.53
888.362	12.33
888.795	13.43
889.228	17.23
889.66	19.93
890.093	17.33
890.526	13.93
890.958	9.73
891.391	11.83
891.823	20.93
892.256	15.33
892.688	14.13
893.121	13.53
893.553	18.13
893.985	19.23
894.418	19.03
894.85	14.23
895.282	19.03
895.715	17.63
896.147	16.53
896.579	19.63
897.011	10.73
897.444	15.73
897.876	16.33
898.308	14.13
898.74	19.23
899.172	17.73
899.604	25.23
900.036	23.63
900.468	14.93
900.9	16.13
901.332	24.93
901.764	9.83
902.196	15.23
902.628	15.53
903.06	14.93
903.491	28.63
903.923	20.73
904.355	16.23
904.787	24.43
905.218	24.93
905.65	15.93
906.082	14.33
906.513	12.13
906.945	20.13
907.376	12.43
907.808	23.63
908.239	23.03
908.671	20.33
909.102	19.23
909.534	22.73
909.965	51.33
910.397	96.03
910.828	312.83
911.259	471.93
911.691	220.53
912.122	106.33
912.553	51.03
912.984	34.63
913.415	26.73
913.847	25.33
914.278	15.83
914.709	15.93
915.14	22.03
915.571	18.73
916.002	17.63
916.433	13.73
916.864	20.23
917.295	14.03
917.726	24.43
918.157	14.73
918.587	29.93
919.018	24.23
919.449	17.43
919.88	29.13
920.311	35.43
920.741	55.43
921.172	168.03
921.603	143.13
922.033	71.83
922.464	49.53
922.895	24.43
923.325	24.83
923.756	14.63
924.186	14.13
924.617	27.93
925.047	47.23
925.478	53.53
925.908	45.03
926.338	26.63
926.769	19.33
927.199	24.53
927.629	10.93
928.06	12.93
928.49	14.73
928.92	12.83
929.35	14.33
929.78	9.43
930.21	5.63
930.641	6.53
931.071	7.03
931.501	-2.87
931.931	5.83
932.361	14.33
932.791	5.63
933.221	2.23
933.651	7.73
934.08	19.83
934.51	32.83
934.94	9.43
935.37	6.23
935.8	9.33
936.229	6.63
936.659	13.33
937.089	6.73
937.519	15.93
937.948	25.83
938.378	18.43
938.807	8.23
939.237	2.53
939.666	15.13
940.096	3.83
940.525	1.83
940.955	7.93
941.384	0.43
941.814	-1.57
942.243	0.53
942.672	4.53
943.102	0.63
943.531	4.13
943.96	4.43
944.39	2.73
944.819	5.93
945.248	4.03
945.677	4.13
946.106	5.43
946.535	8.03
946.964	0.23
947.393	4.03
947.822	2.83
948.251	-7.37
948.68	7.83
949.109	7.33
949.538	4.73
949.967	3.73
950.396	-1.57
950.825	1.23
951.254	3.03
951.682	-4.57
952.111	6.13
952.54	4.73
952.969	-4.37
953.397	-5.77
953.826	5.33
954.254	-6.57
954.683	0.83
955.112	1.03
955.54	-1.77
955.969	0.13
956.397	5.23
956.826	-8.87
957.254	1.53
957.682	2.53
958.111	6.23
958.539	4.03
958.967	0.03
959.396	-2.17
959.824	-4.67
960.252	3.13
960.68	-3.07
961.109	-3.27
961.537	-10.27
961.965	-1.37
962.393	-5.57
962.821	-2.67
963.249	0.73
963.677	2.93
964.105	3.43
964.533	46.33
964.961	38.93
965.389	18.33
965.817	7.13
966.245	5.93
966.672	-0.87
967.1	-6.57
967.528	3.63
967.956	-0.87
968.383	-0.17
968.811	-4.17
969.239	0.23
969.666	-2.27
970.094	0.03
970.522	-1.07
970.949	1.23
971.377	-8.07
971.804	-0.17
972.232	0.53
972.659	1.93
973.087	-2.77
973.514	-3.77
973.941	-6.97
974.369	7.13
974.796	-0.97
975.223	-3.07
975.651	-1.27
976.078	1.23
976.505	-0.87
976.932	-0.87
977.359	14.53
977.786	9.43
978.214	1.33
978.641	-3.77
979.068	-6.27
979.495	-4.27
979.922	-2.87
980.349	-2.07
980.776	0.93
981.202	-1.77
981.629	0.33
982.056	1.23
982.483	-0.47
982.91	0.13
983.337	-10.47
983.763	-0.77
984.19	-6.07
984.617	-6.87
985.043	-3.27
985.47	-6.07
985.897	0.53
986.323	-5.47
986.75	5.33
987.176	4.43
987.603	-0.67
988.029	2.63
988.456	-3.57
988.882	-0.67
989.308	-5.07
989.735	0.33
990.161	-3.67
990.587	-2.77
991.014	1.13
991.44	1.73
991.866	-3.87
992.292	-9.17
992.719	-8.57
993.145	2.93
993.571	-7.97
993.997	-2.77
994.423	0.33
994.849	-6.77
995.275	0.63
995.701	2.13
996.127	-3.57
996.553	-0.87
996.979	-8.37
997.405	0.93
997.83	-8.17
998.256	-6.07
998.682	-7.57
999.108	-2.97
999.534	-3.07
999.959	4.33
1000.385	-5.47
1000.811	-1.87
1001.236	-4.77
1001.662	-7.37
1002.087	-9.27
1002.513	1.83
1002.938	0.43
1003.364	-0.77
1003.789	-2.17
1004.215	-1.87
1004.64	0.23
1005.066	2.43
1005.491	0.23
1005.916	-2.17
1006.342	-4.47
1006.767	-16.97
1007.192	6.43
1007.617	-2.77
1008.042	-3.07
1008.468	-6.57
1008.893	-5.57
1009.318	-4.07
1009.743	-3.77
1010.168	1.83
1010.593	-2.97
1011.018	-5.37
1011.443	-4.87
1011.868	-0.77
1012.293	-6.47
1012.718	-3.57
1013.143	-2.37
1013.567	3.03
1013.992	-2.37
1014.417	-13.97
1014.842	5.03
1015.267	-9.87
1015.691	-2.77
1016.116	4.43
1016.541	-0.37
1016.965	-0.47
1017.39	3.63
1017.814	-3.27
1018.239	-3.57
1018.663	-7.77
1019.088	-9.77
1019.512	-9.47
1019.937	-4.57
1020.361	-3.37
1020.785	-7.67
1021.21	1.03
1021.634	-3.37
1022.058	0.73
1022.483	4.93
1022.907	-1.17
1023.331	-4.67
1023.755	-7.27
1024.179	-3.97
1024.604	-12.47
1025.028	-7.67
1025.452	-6.27
1025.876	2.33
1026.3	-1.27
1026.724	-13.37
1027.148	-3.27
1027.572	-7.17
1027.996	-1.67
1028.42	-0.17
1028.843	-2.77
1029.267	-2.37
1029.691	-4.57
1030.115	-2.07
1030.539	-4.57
1030.962	-8.27
1031.386	-11.27
1031.81	5.93
1032.233	-0.27
1032.657	0.03
1033.08	-0.27
1033.504	-0.17
1033.927	3.73
1034.351	-5.57
1034.774	-7.57
1035.198	-5.67
1035.621	-7.97
1036.045	-7.47
1036.468	-3.87
1036.891	-7.27
1037.315	-8.87
1037.738	-7.27
1038.161	-0.87
1038.584	-7.87
1039.008	-7.37
1039.431	-0.27
1039.854	-0.87
1040.277	-9.77
1040.7	-12.57
1041.123	2.63
1041.546	-11.27
1041.969	-2.37
1042.392	-4.57
1042.815	-4.17
1043.238	-3.87
1043.661	0.03
1044.084	-8.07
1044.507	-6.17
1044.93	-8.87
1045.352	-5.67
1045.775	-0.47
1046.198	-0.87
1046.621	-5.67
1047.043	-0.97
1047.466	2.93
1047.889	-3.87
1048.311	-8.67
1048.734	-13.87
1049.156	-2.07
1049.579	-5.07
1050.001	-2.67
1050.424	3.23
1050.846	-9.17
1051.269	-6.87
1051.691	-0.57
1052.113	-6.07
1052.536	0.73
1052.958	-3.87
1053.38	0.53
1053.802	-8.27
1054.225	0.93
1054.647	-6.37
1055.069	-0.87
1055.491	-1.47
1055.913	-6.37
1056.335	0.93
1056.757	-4.37
1057.179	-6.07
1057.601	-6.77
1058.023	-2.77
1058.445	-2.77
1058.867	-5.77
1059.289	-4.97
1059.711	-8.87
1060.133	0.33
1060.555	-4.67
1060.976	-11.27
1061.398	-6.67
1061.82	-7.07
1062.241	-1.97
1062.663	-9.57
1063.085	-5.57
1063.506	3.73
1063.928	-1.37
1064.35	-1.57
1064.771	-8.27
1065.193	-2.67
1065.614	-8.57
1066.035	-5.97
1066.457	-10.17
1066.878	-2.07
1067.3	-5.57
1067.721	-3.97
1068.142	-4.67
1068.564	-4.07
1068.985	-4.97
1069.406	-3.47
1069.827	-5.47
1070.248	-0.57
1070.67	-7.67
1071.091	-6.87
1071.512	-1.77
1071.933	-7.37
1072.354	-4.07
1072.775	-8.27
1073.196	-6.87
1073.617	-6.47
1074.038	-12.47
1074.459	-3.37
1074.88	-9.47
1075.3	-2.47
1075.721	-9.17
1076.142	-4.87
1076.563	-5.37
1076.983	-12.67
1077.404	-10.27
1077.825	-11.07
1078.246	-0.37
1078.666	-8.17
1079.087	-3.97
1079.507	-6.57
1079.928	-1.17
1080.348	-1.07
1080.769	-2.97
1081.189	0.73
1081.61	-6.27
1082.03	-4.47
1082.451	-8.07
1082.871	-4.67
1083.291	-8.67
1083.711	-11.77
1084.132	-6.67
1084.552	-8.07
1084.972	0.53
1085.392	-13.57
1085.813	-13.67
1086.233	-8.37
1086.653	-9.27
1087.073	-4.37
1087.493	-7.27
1087.913	-7.77
1088.333	-9.77
1088.753	-5.47
1089.173	-1.77
1089.593	-9.27
1090.013	0.33
1090.433	-1.37
1090.852	-5.27
1091.272	-0.27
1091.692	-5.07
1092.112	-5.77
1092.531	-3.17
1092.951	-14.87
1093.371	-2.47
1093.79	1.23
1094.21	-0.17
1094.63	-6.37
1095.049	-4.27
1095.469	-5.97
1095.888	-6.97
1096.308	3.23
1096.727	1.33
1097.146	-5.47
1097.566	-6.97
1097.985	-3.97
1098.405	-7.87
1098.824	-9.07
1099.243	-6.47
1099.662	-7.47
1100.082	-0.57
1100.501	-7.27
1100.92	-6.17
1101.339	-4.77
1101.758	-3.47
