Data from 20171114-ORNL-Ar_H_NY_Subt18_08-07-12-054.txt Node
Date: Tue Nov 14 08:07:12 EST 2017
User: Ender
Spectrometer: HR+D1039
Trigger mode: 0
Integration Time (sec): 2.730000E-2
Scans to average: 10
Electric dark correction enabled: true
Nonlinearity correction enabled: false
Boxcar width: 0
XAxis mode: Wavelengths
Number of Pixels in Spectrum: 2048
>>>>>Begin Spectral Data<<<<<
187.836	-2.17
188.309	-2.17
188.782	-2.17
189.255	3.73
189.728	0.83
190.201	4.43
190.674	0.63
191.147	2.23
191.619	-8.07
192.092	3.53
192.565	7.23
193.038	-1.27
193.511	-5.17
193.984	5.23
194.456	-3.87
194.929	-4.37
195.402	-1.17
195.874	-1.77
196.347	-3.47
196.82	-4.97
197.292	3.73
197.765	-1.47
198.237	-4.77
198.71	0.83
199.182	-7.17
199.655	1.23
200.127	-0.27
200.6	-2.97
201.072	-5.57
201.544	-3.37
202.017	3.23
202.489	5.53
202.961	-1.27
203.433	-4.17
203.906	-8.87
204.378	-5.67
204.85	-3.57
205.322	-12.27
205.794	-3.07
206.266	-3.97
206.739	-9.47
207.211	2.23
207.683	-6.87
208.155	-4.67
208.627	-3.97
209.099	-3.47
209.57	-4.37
210.042	-2.87
210.514	-4.37
210.986	-3.17
211.458	-7.77
211.93	-7.87
212.402	-0.77
212.873	-9.67
213.345	-6.07
213.817	-14.27
214.288	-3.17
214.76	-15.77
215.232	-8.97
215.703	-6.47
216.175	-3.47
216.646	-1.47
217.118	-7.17
217.589	-8.07
218.061	1.13
218.532	-8.57
219.004	-1.07
219.475	-6.67
219.946	-2.97
220.418	-9.97
220.889	4.53
221.36	-3.17
221.832	-4.57
222.303	-10.37
222.774	1.73
223.245	-9.47
223.717	-6.67
224.188	-0.47
224.659	-6.17
225.13	-9.67
225.601	-9.97
226.072	-3.67
226.543	2.43
227.014	-5.17
227.485	-3.07
227.956	-8.57
228.427	-2.67
228.898	-4.47
229.369	-1.47
229.839	-10.27
230.31	-9.87
230.781	-6.37
231.252	-7.97
231.722	-11.17
232.193	-3.57
232.664	-0.77
233.135	1.23
233.605	-4.17
234.076	-7.97
234.546	-1.67
235.017	2.43
235.487	-6.47
235.958	-8.17
236.428	-7.77
236.899	-2.97
237.369	-7.37
237.84	-8.57
238.31	-0.47
238.78	-9.87
239.251	-3.47
239.721	-5.67
240.191	-7.57
240.662	-8.07
241.132	-4.17
241.602	-7.17
242.072	-10.67
242.542	0.03
243.013	-6.37
243.483	1.33
243.953	-4.87
244.423	1.33
244.893	-5.57
245.363	1.93
245.833	-1.17
246.303	-8.77
246.773	-0.87
247.243	0.83
247.712	0.03
248.182	0.33
248.652	1.93
249.122	-15.77
249.592	-1.47
250.061	-1.57
250.531	7.93
251.001	-5.07
251.471	4.23
251.94	10.53
252.41	-5.07
252.879	-6.47
253.349	0.93
253.818	-1.67
254.288	-1.17
254.757	-5.47
255.227	-5.47
255.696	-2.67
256.166	-0.77
256.635	-1.67
257.105	2.43
257.574	2.03
258.043	2.63
258.513	-7.47
258.982	0.43
259.451	-4.87
259.92	-0.97
260.389	-1.07
260.859	9.93
261.328	2.33
261.797	4.53
262.266	-2.07
262.735	-1.47
263.204	5.53
263.673	0.83
264.142	1.73
264.611	-9.27
265.08	-2.57
265.549	-8.17
266.018	5.13
266.487	-1.47
266.955	-8.87
267.424	-2.87
267.893	-2.57
268.362	-1.07
268.83	-4.97
269.299	3.43
269.768	1.13
270.236	2.63
270.705	-9.37
271.174	1.83
271.642	4.03
272.111	1.73
272.579	-2.97
273.048	4.23
273.516	-3.47
273.985	-0.47
274.453	4.73
274.922	13.83
275.39	5.83
275.858	-0.67
276.327	7.23
276.795	5.53
277.263	1.83
277.731	12.33
278.2	-1.97
278.668	2.73
279.136	2.03
279.604	-5.57
280.072	5.33
280.54	3.23
281.008	3.53
281.477	9.83
281.945	3.93
282.413	6.33
282.881	7.43
283.348	4.43
283.816	8.43
284.284	10.83
284.752	16.43
285.22	5.23
285.688	6.63
286.156	7.43
286.623	15.03
287.091	7.53
287.559	4.93
288.026	6.73
288.494	6.53
288.962	-7.57
289.429	6.63
289.897	13.63
290.364	12.53
290.832	9.73
291.3	8.13
291.767	9.83
292.234	11.33
292.702	11.23
293.169	10.93
293.637	11.63
294.104	12.93
294.571	4.13
295.039	5.73
295.506	4.33
295.973	11.93
296.44	10.43
296.908	12.93
297.375	6.33
297.842	11.43
298.309	10.53
298.776	2.23
299.243	14.23
299.71	4.33
300.177	16.33
300.644	15.03
301.111	16.03
301.578	14.23
302.045	15.03
302.512	14.83
302.979	23.43
303.446	17.13
303.913	5.03
304.379	10.83
304.846	13.13
305.313	14.93
305.78	12.23
306.246	17.13
306.713	17.63
307.18	23.83
307.646	23.63
308.113	22.03
308.579	15.73
309.046	18.33
309.512	19.13
309.979	10.13
310.445	19.43
310.912	21.63
311.378	17.13
311.845	21.33
312.311	19.23
312.777	23.73
313.244	24.03
313.71	31.83
314.176	21.63
314.642	19.93
315.109	18.93
315.575	23.43
316.041	23.63
316.507	19.03
316.973	24.53
317.439	22.13
317.905	27.63
318.371	23.43
318.837	25.43
319.303	27.83
319.769	23.73
320.235	29.93
320.701	28.13
321.167	25.83
321.633	24.53
322.099	33.33
322.564	31.13
323.03	26.83
323.496	25.73
323.962	32.43
324.427	28.93
324.893	34.23
325.359	25.33
325.824	22.23
326.29	27.53
326.755	32.53
327.221	27.73
327.686	30.83
328.152	37.03
328.617	34.93
329.083	30.83
329.548	44.43
330.014	38.03
330.479	33.83
330.944	35.63
331.41	36.73
331.875	35.13
332.34	29.63
332.805	27.73
333.271	35.73
333.736	31.93
334.201	37.13
334.666	42.43
335.131	36.53
335.596	38.13
336.061	34.03
336.526	34.23
336.991	43.73
337.456	45.03
337.921	36.03
338.386	36.93
338.851	33.53
339.316	42.83
339.781	41.43
340.246	37.33
340.711	40.93
341.175	39.73
341.64	35.93
342.105	44.13
342.569	40.23
343.034	47.63
343.499	43.63
343.963	47.53
344.428	54.93
344.893	52.43
345.357	50.73
345.822	50.13
346.286	51.13
346.751	60.53
347.215	51.73
347.679	56.83
348.144	76.03
348.608	65.73
349.073	59.93
349.537	60.03
350.001	62.53
350.465	77.13
350.93	60.93
351.394	71.03
351.858	58.73
352.322	68.23
352.786	66.73
353.25	77.13
353.715	88.43
354.179	78.63
354.643	94.83
355.107	99.73
355.571	87.83
356.035	82.03
356.498	88.53
356.962	86.63
357.426	102.53
357.89	91.93
358.354	73.03
358.818	68.03
359.281	65.43
359.745	62.53
360.209	60.43
360.673	62.13
361.136	62.23
361.6	71.53
362.064	71.93
362.527	71.43
362.991	79.23
363.454	70.73
363.918	60.53
364.381	68.53
364.845	71.53
365.308	79.43
365.772	82.83
366.235	73.73
366.698	71.03
367.162	77.63
367.625	79.23
368.088	72.33
368.552	75.93
369.015	80.63
369.478	82.53
369.941	91.93
370.404	83.73
370.867	88.23
371.331	90.93
371.794	93.63
372.257	80.23
372.72	97.33
373.183	87.73
373.646	79.23
374.109	83.93
374.572	88.23
375.035	88.23
375.497	92.83
375.96	92.13
376.423	92.53
376.886	101.93
377.349	104.43
377.811	87.23
378.274	93.63
378.737	89.73
379.199	98.03
379.662	105.83
380.125	97.23
380.587	95.83
381.05	98.43
381.512	99.13
381.975	107.93
382.437	112.93
382.9	107.13
383.362	117.83
383.825	117.03
384.287	112.93
384.75	100.33
385.212	117.23
385.674	119.03
386.136	119.83
386.599	108.13
387.061	105.73
387.523	112.23
387.985	110.43
388.447	125.43
388.91	114.33
389.372	119.43
389.834	117.03
390.296	117.23
390.758	113.53
391.22	123.03
391.682	135.83
392.144	139.03
392.606	132.23
393.068	134.63
393.529	144.13
393.991	129.83
394.453	123.63
394.915	116.83
395.377	118.33
395.838	124.63
396.3	125.73
396.762	131.73
397.224	128.23
397.685	119.63
398.147	127.33
398.608	125.73
399.07	124.83
399.531	128.03
399.993	133.03
400.454	145.83
400.916	139.43
401.377	137.43
401.839	141.93
402.3	141.63
402.762	153.23
403.223	166.73
403.684	161.73
404.145	151.83
404.607	146.83
405.068	155.73
405.529	161.33
405.99	172.23
406.451	162.03
406.913	170.23
407.374	162.83
407.835	155.83
408.296	159.73
408.757	166.03
409.218	168.23
409.679	167.13
410.14	171.93
410.601	170.03
411.062	180.03
411.522	173.13
411.983	168.93
412.444	172.13
412.905	178.23
413.366	184.23
413.826	193.23
414.287	214.03
414.748	261.43
415.208	248.03
415.669	211.83
416.13	207.43
416.59	202.43
417.051	214.03
417.511	215.33
417.972	237.43
418.432	244.13
418.893	290.23
419.353	251.43
419.814	205.63
420.274	182.63
420.734	177.43
421.195	190.63
421.655	187.53
422.115	191.43
422.576	193.83
423.036	196.63
423.496	207.53
423.956	216.13
424.416	227.13
424.876	266.33
425.336	257.53
425.797	263.83
426.257	247.93
426.717	232.93
427.177	227.93
427.637	220.33
428.097	228.53
428.556	240.63
429.016	269.43
429.476	258.13
429.936	267.93
430.396	266.43
430.856	285.83
431.315	304.93
431.775	337.13
432.235	366.83
432.694	334.33
433.154	344.53
433.614	362.33
434.073	321.43
434.533	274.03
434.993	257.53
435.452	274.43
435.912	286.53
436.371	277.43
436.83	273.83
437.29	259.73
437.749	243.93
438.209	237.23
438.668	261.73
439.127	282.63
439.587	260.53
440.046	247.63
440.505	259.33
440.964	271.43
441.424	314.53
441.883	308.93
442.342	262.23
442.801	225.13
443.26	221.83
443.719	231.23
444.178	228.73
444.637	210.53
445.096	220.03
445.555	229.83
446.014	224.53
446.473	225.23
446.932	229.03
447.391	226.63
447.849	241.53
448.308	222.83
448.767	228.33
449.226	235.63
449.685	244.23
450.143	255.53
450.602	242.73
451.061	230.93
451.519	238.13
451.978	237.13
452.436	235.23
452.895	237.03
453.353	260.03
453.812	245.83
454.27	246.73
454.729	251.93
455.187	240.73
455.646	252.63
456.104	253.73
456.562	272.63
457.021	278.83
457.479	262.83
457.937	279.33
458.395	269.13
458.854	257.43
459.312	262.93
459.77	275.43
460.228	260.93
460.686	253.43
461.144	259.93
461.602	254.33
462.06	248.23
462.518	262.73
462.976	271.23
463.434	271.13
463.892	267.33
464.35	277.73
464.808	290.63
465.266	276.63
465.724	278.93
466.181	284.73
466.639	279.73
467.097	304.33
467.555	310.53
468.012	312.73
468.47	318.63
468.928	326.43
469.385	345.73
469.843	358.33
470.3	366.63
470.758	367.73
471.215	384.33
471.673	413.43
472.13	413.93
472.588	427.73
473.045	385.33
473.503	393.63
473.96	405.03
474.417	420.73
474.875	442.13
475.332	484.43
475.789	474.03
476.246	480.33
476.704	497.23
477.161	518.33
477.618	533.03
478.075	570.53
478.532	613.33
478.989	696.13
479.446	793.13
479.903	761.83
480.36	790.83
480.817	840.43
481.274	930.73
481.731	1022.53
482.188	1111.93
482.645	1223.33
483.102	1316.03
483.558	1430.43
484.015	1459.03
484.472	1441.43
484.929	1398.73
485.385	1359.03
485.842	1342.73
486.299	1285.33
486.755	1245.33
487.212	1052.53
487.668	902.73
488.125	837.63
488.582	780.33
489.038	753.43
489.494	715.43
489.951	687.73
490.407	674.43
490.864	644.43
491.32	653.33
491.776	658.53
492.233	668.63
492.689	632.03
493.145	628.03
493.602	619.63
494.058	624.53
494.514	630.93
494.97	652.23
495.426	660.73
495.882	634.73
496.338	636.03
496.794	646.53
497.251	634.63
497.707	646.53
498.163	657.33
498.618	654.23
499.074	656.53
499.53	689.43
499.986	692.13
500.442	660.23
500.898	636.33
501.354	627.03
501.809	636.23
502.265	632.43
502.721	650.53
503.177	658.33
503.632	665.53
504.088	671.33
504.543	676.43
504.999	702.33
505.455	671.73
505.91	657.43
506.366	661.93
506.821	657.63
507.277	650.53
507.732	656.43
508.187	661.33
508.643	663.13
509.098	660.53
509.553	683.93
510.009	698.13
510.464	701.03
510.919	727.53
511.375	726.63
511.83	738.03
512.285	741.93
512.74	781.83
513.195	816.23
513.65	797.23
514.105	799.53
514.56	791.23
515.015	819.23
515.47	822.53
515.925	807.13
516.38	806.13
516.835	819.33
517.29	804.33
517.745	803.63
518.2	798.73
518.655	775.73
519.109	765.63
519.564	771.93
520.019	759.83
520.474	757.03
520.928	760.63
521.383	750.23
521.838	732.23
522.292	730.23
522.747	734.23
523.201	734.83
523.656	719.83
524.11	716.43
524.565	720.83
525.019	713.53
525.474	724.03
525.928	724.83
526.382	715.13
526.837	716.93
527.291	739.43
527.745	725.43
528.2	724.43
528.654	720.33
529.108	715.93
529.562	711.13
530.016	712.13
530.47	716.93
530.925	717.43
531.379	722.03
531.833	718.73
532.287	733.13
532.741	736.83
533.195	728.73
533.649	727.83
534.103	744.93
534.556	732.93
535.01	733.03
535.464	734.13
535.918	744.73
536.372	751.13
536.826	741.03
537.279	733.13
537.733	740.63
538.187	730.83
538.64	739.93
539.094	748.53
539.548	753.83
540.001	745.93
540.455	752.13
540.908	760.83
541.362	765.63
541.815	777.03
542.269	796.43
542.722	793.33
543.175	806.73
543.629	803.93
544.082	818.13
544.536	821.83
544.989	814.33
545.442	823.63
545.895	827.43
546.349	823.93
546.802	834.63
547.255	832.23
547.708	852.83
548.161	859.93
548.614	863.23
549.067	867.03
549.52	859.53
549.973	836.43
550.426	838.43
550.879	835.03
551.332	830.73
551.785	839.23
552.238	841.23
552.691	869.23
553.144	874.43
553.596	876.73
554.049	905.63
554.502	923.63
554.955	951.43
555.407	944.43
555.86	941.93
556.313	930.63
556.765	917.63
557.218	918.73
557.67	925.43
558.123	908.83
558.576	919.93
559.028	917.93
559.48	932.53
559.933	918.33
560.385	877.93
560.838	851.53
561.29	819.73
561.742	811.43
562.195	801.23
562.647	796.93
563.099	802.93
563.551	806.83
564.004	820.33
564.456	801.03
564.908	796.33
565.36	772.33
565.812	755.83
566.264	747.73
566.716	747.03
567.168	737.73
567.62	732.53
568.072	725.03
568.524	726.13
568.976	726.63
569.428	703.93
569.88	698.33
570.332	715.63
570.784	710.03
571.235	717.23
571.687	734.73
572.139	735.83
572.59	741.13
573.042	744.13
573.494	739.33
573.945	743.63
574.397	711.93
574.849	721.93
575.3	722.63
575.752	701.33
576.203	708.83
576.655	720.73
577.106	693.43
577.557	693.43
578.009	694.23
578.46	682.93
578.912	684.63
579.363	691.13
579.814	696.73
580.265	685.13
580.717	705.03
581.168	696.43
581.619	708.73
582.07	705.73
582.521	703.43
582.972	690.33
583.423	706.63
583.875	700.33
584.326	714.73
584.777	720.03
585.227	736.43
585.678	748.83
586.129	752.63
586.58	780.93
587.031	798.93
587.482	815.43
587.933	825.73
588.384	817.13
588.834	801.63
589.285	800.73
589.736	799.83
590.186	794.43
590.637	786.73
591.088	766.83
591.538	765.73
591.989	766.83
592.439	751.83
592.89	746.33
593.34	730.73
593.791	735.13
594.241	725.13
594.692	729.23
595.142	723.83
595.593	713.93
596.043	720.13
596.493	719.73
596.943	726.83
597.394	748.73
597.844	739.43
598.294	762.93
598.744	785.13
599.195	805.03
599.645	838.63
600.095	889.83
600.545	952.13
600.995	997.53
601.445	1069.73
601.895	1134.13
602.345	1190.13
602.795	1145.33
603.245	1116.33
603.695	1052.83
604.145	998.93
604.594	944.73
605.044	898.13
605.494	835.93
605.944	781.93
606.393	766.73
606.843	753.03
607.293	747.93
607.743	755.93
608.192	761.13
608.642	777.83
609.091	786.43
609.541	786.63
609.99	795.13
610.44	788.23
610.889	738.43
611.339	716.23
611.788	695.63
612.238	710.03
612.687	716.83
613.136	721.83
613.586	730.83
614.035	714.03
614.484	724.33
614.933	723.63
615.383	734.23
615.832	726.33
616.281	725.43
616.73	687.13
617.179	676.53
617.628	660.43
618.077	658.03
618.526	638.03
618.975	642.43
619.424	636.23
619.873	637.03
620.322	631.13
620.771	620.63
621.22	621.13
621.669	620.43
622.118	613.73
622.567	592.33
623.015	581.43
623.464	593.33
623.913	575.63
624.361	566.03
624.81	565.53
625.259	567.23
625.707	576.93
626.156	575.93
626.604	588.13
627.053	582.43
627.501	576.23
627.95	582.53
628.398	596.53
628.847	580.03
629.295	586.53
629.744	594.53
630.192	595.43
630.64	578.13
631.089	567.23
631.537	554.83
631.985	540.13
632.433	547.13
632.881	535.33
633.33	548.03
633.778	538.03
634.226	528.43
634.674	560.13
635.122	555.63
635.57	565.03
636.018	570.23
636.466	585.73
636.914	566.93
637.362	596.73
637.81	579.93
638.258	591.83
638.705	589.53
639.153	627.33
639.601	630.33
640.049	662.23
640.497	688.73
640.944	715.83
641.392	671.63
641.84	634.83
642.287	589.03
642.735	578.93
643.182	580.53
643.63	561.13
644.078	575.13
644.525	587.53
644.973	588.63
645.42	608.63
645.867	625.43
646.315	644.93
646.762	668.53
647.21	695.93
647.657	716.33
648.104	742.03
648.551	761.23
648.999	824.53
649.446	898.63
649.893	981.83
650.34	1119.83
650.787	1326.93
651.234	1651.43
651.682	2111.83
652.129	2848.63
652.576	4056.53
653.023	5908.33
653.47	7987.23
653.917	9951.63
654.363	11459.63
654.81	12637.83
655.257	11996.93
655.704	7936.63
656.151	4763.53
656.598	3157.43
657.044	2253.33
657.491	1761.93
657.938	1423.33
658.385	1194.03
658.831	1046.63
659.278	944.83
659.724	849.63
660.171	774.53
660.618	716.33
661.064	688.43
661.511	665.53
661.957	654.53
662.404	648.23
662.85	652.33
663.296	626.53
663.743	569.33
664.189	545.53
664.635	535.23
665.082	546.63
665.528	536.03
665.974	534.73
666.42	520.53
666.867	509.53
667.313	494.73
667.759	483.33
668.205	468.43
668.651	463.53
669.097	452.63
669.543	445.23
669.989	451.33
670.435	458.83
670.881	458.43
671.327	468.43
671.773	479.33
672.219	505.63
672.665	567.33
673.11	610.03
673.556	642.13
674.002	688.53
674.448	679.53
674.893	580.63
675.339	495.03
675.785	455.93
676.23	431.43
676.676	406.73
677.122	393.43
677.567	385.73
678.013	383.33
678.458	372.53
678.904	374.13
679.349	347.83
679.794	360.23
680.24	367.43
680.685	364.93
681.131	361.63
681.576	359.13
682.021	371.53
682.466	356.83
682.912	358.83
683.357	368.73
683.802	399.23
684.247	429.43
684.692	477.53
685.137	511.63
685.583	555.93
686.028	572.43
686.473	539.13
686.918	464.43
687.363	431.93
687.807	398.53
688.252	374.63
688.697	362.83
689.142	358.43
689.587	351.73
690.032	331.93
690.477	359.03
690.921	360.03
691.366	401.13
691.811	410.23
692.255	440.13
692.7	470.93
693.145	523.93
693.589	732.93
694.034	1192.73
694.478	1608.43
694.923	1810.43
695.367	2340.53
695.812	1246.63
696.256	516.83
696.701	385.83
697.145	352.93
697.59	345.93
698.034	328.03
698.478	340.33
698.922	334.63
699.367	330.53
699.811	337.63
700.255	361.83
700.699	397.73
701.143	430.03
701.588	487.13
702.032	530.63
702.476	525.73
702.92	502.43
703.364	520.33
703.808	669.03
704.252	1084.83
704.696	1516.63
705.14	1734.73
705.584	2218.43
706.027	1105.93
706.471	538.33
706.915	417.93
707.359	373.03
707.803	331.83
708.246	315.53
708.69	319.13
709.134	324.03
709.577	319.73
710.021	322.73
710.465	317.43
710.908	312.13
711.352	305.93
711.795	315.43
712.239	364.73
712.682	399.33
713.126	420.33
713.569	474.83
714.012	364.63
714.456	314.83
714.899	296.43
715.342	285.03
715.786	267.23
716.229	266.43
716.672	261.03
717.115	256.53
717.558	258.03
718.002	266.13
718.445	281.73
718.888	297.23
719.331	295.03
719.774	318.43
720.217	315.33
720.66	298.33
721.103	270.33
721.546	263.13
721.989	257.23
722.432	234.43
722.874	245.63
723.317	229.23
723.76	238.53
724.203	264.53
724.645	323.73
725.088	455.63
725.531	582.23
725.974	658.23
726.416	562.53
726.859	324.23
727.301	248.73
727.744	244.43
728.187	236.33
728.629	246.93
729.071	255.43
729.514	263.93
729.956	273.73
730.399	294.13
730.841	301.63
731.283	283.53
731.726	270.33
732.168	269.93
732.61	274.03
733.053	295.63
733.495	330.73
733.937	363.33
734.379	410.33
734.821	450.13
735.263	560.53
735.705	873.53
736.148	1666.53
736.59	2710.63
737.032	3186.63
737.474	2601.23
737.916	856.23
738.357	451.33
738.799	347.03
739.241	308.13
739.683	299.83
740.125	303.13
740.567	308.83
741.008	331.83
741.45	330.43
741.892	324.13
742.334	359.53
742.775	379.23
743.217	364.93
743.658	276.83
744.1	265.03
744.542	277.73
744.983	331.43
745.425	362.93
745.866	355.83
746.307	294.03
746.749	284.83
747.19	337.73
747.632	478.23
748.073	938.03
748.514	1973.93
748.956	2990.13
749.397	3772.03
749.838	3114.13
750.279	3088.93
750.72	1575.33
751.162	576.03
751.603	340.13
752.044	263.93
752.485	229.63
752.926	217.93
753.367	208.03
753.808	205.23
754.249	199.73
754.69	197.63
755.131	191.63
755.572	185.33
756.013	189.63
756.453	192.03
756.894	193.33
757.335	194.23
757.776	197.03
758.216	202.73
758.657	202.23
759.098	209.03
759.538	235.23
759.979	279.43
760.42	382.73
760.86	741.93
761.301	1948.63
761.741	4684.03
762.182	6707.93
762.622	4758.73
763.063	1384.63
763.503	565.63
763.943	333.63
764.384	268.53
764.824	243.93
765.264	223.73
765.705	209.43
766.145	180.13
766.585	174.33
767.025	174.93
767.465	165.33
767.906	182.13
768.346	190.33
768.786	198.83
769.226	219.13
769.666	313.23
770.106	647.13
770.546	1632.73
770.986	2745.53
771.426	2458.33
771.866	827.63
772.306	337.93
772.745	216.23
773.185	170.93
773.625	158.53
774.065	149.23
774.505	159.83
774.944	212.93
775.384	366.23
775.824	583.53
776.263	562.73
776.703	279.13
777.142	164.13
777.582	142.43
778.021	127.83
778.461	124.63
778.9	124.33
779.34	122.03
779.779	125.83
780.219	105.13
780.658	112.23
781.097	108.13
781.537	110.83
781.976	110.53
782.415	103.33
782.855	102.83
783.294	99.33
783.733	116.43
784.172	106.93
784.611	108.73
785.05	109.93
785.489	115.03
785.928	116.43
786.367	118.93
786.806	109.63
787.245	134.73
787.684	133.43
788.123	146.33
788.562	137.93
789.001	132.03
789.44	129.23
789.879	117.53
790.317	128.93
790.756	133.73
791.195	131.23
791.634	155.13
792.072	204.93
792.511	374.43
792.95	1051.03
793.388	2219.93
793.827	1993.03
794.265	696.03
794.704	291.13
795.142	190.03
795.581	150.53
796.019	143.33
796.458	137.73
796.896	121.63
797.334	131.83
797.773	160.53
798.211	229.63
798.649	465.23
799.087	1073.83
799.526	1678.73
799.964	2117.93
800.402	2085.63
800.84	793.53
801.278	322.73
801.716	195.83
802.154	150.73
802.592	146.03
803.03	147.13
803.468	142.23
803.906	148.83
804.344	159.63
804.782	147.23
805.22	130.83
805.658	133.73
806.096	152.33
806.533	165.03
806.971	182.73
807.409	229.83
807.847	337.33
808.284	705.93
808.722	1973.03
809.16	3460.13
809.597	3305.73
810.035	5696.03
810.472	6045.83
810.91	2192.53
811.347	838.43
811.785	421.23
812.222	269.53
812.66	204.03
813.097	174.63
813.535	145.53
813.972	132.53
814.409	119.33
814.846	115.13
815.284	120.03
815.721	101.83
816.158	109.03
816.595	117.03
817.032	159.33
817.47	183.23
817.907	145.73
818.344	96.43
818.781	94.03
819.218	97.53
819.655	121.83
820.092	198.43
820.529	226.23
820.966	179.83
821.403	127.43
821.839	100.83
822.276	98.53
822.713	135.63
823.15	143.13
823.587	122.73
824.023	159.83
824.46	318.23
824.897	932.53
825.333	1417.33
825.77	605.03
826.206	241.23
826.643	143.93
827.08	107.93
827.516	90.63
827.953	79.03
828.389	81.23
828.825	72.23
829.262	62.93
829.698	64.73
830.135	67.33
830.571	56.73
831.007	57.23
831.443	59.43
831.88	60.63
832.316	57.13
832.752	69.63
833.188	65.13
833.624	62.13
834.06	73.33
834.497	69.93
834.933	73.13
835.369	70.43
835.805	66.73
836.241	78.13
836.677	84.13
837.112	86.03
837.548	110.03
837.984	135.13
838.42	211.13
838.856	532.23
839.292	1599.03
839.727	2411.53
840.163	1112.93
840.599	984.13
841.034	2141.93
841.47	2207.23
841.906	809.73
842.341	338.13
842.777	199.53
843.212	207.03
843.648	190.93
844.083	114.53
844.519	87.33
844.954	68.33
845.39	54.03
845.825	60.93
846.261	58.13
846.696	53.93
847.131	53.53
847.566	63.53
848.002	47.73
848.437	54.83
848.872	54.73
849.307	66.73
849.742	85.03
850.177	184.13
850.613	579.63
851.048	917.03
851.483	392.93
851.918	163.93
852.353	92.13
852.788	50.73
853.223	54.83
853.657	57.33
854.092	46.23
854.527	43.53
854.962	45.73
855.397	47.13
855.832	50.33
856.266	42.63
856.701	39.13
857.136	38.33
857.57	43.63
858.005	50.03
858.44	56.53
858.874	45.63
859.309	51.23
859.743	40.13
860.178	50.43
860.612	37.33
861.047	52.53
861.481	71.73
861.915	81.63
862.35	54.43
862.784	37.93
863.218	42.73
863.653	40.43
864.087	53.13
864.521	54.13
864.955	70.73
865.39	161.53
865.824	180.03
866.258	120.53
866.692	178.13
867.126	191.33
867.56	117.23
867.994	49.23
868.428	32.53
868.862	48.83
869.296	53.53
869.73	66.63
870.164	56.03
870.598	49.63
871.031	37.83
871.465	31.73
871.899	31.83
872.333	25.13
872.766	28.53
873.2	21.53
873.634	29.03
874.067	26.03
874.501	25.43
874.935	33.73
875.368	33.23
875.802	31.73
876.235	24.13
876.669	24.03
877.102	18.53
877.535	19.33
877.969	22.43
878.402	28.53
878.836	19.03
879.269	26.43
879.702	25.13
880.135	17.13
880.569	19.33
881.002	24.03
881.435	22.73
881.868	20.43
882.301	27.83
882.734	12.83
883.167	28.43
883.601	15.53
884.034	15.23
884.467	10.73
884.899	18.73
885.332	18.43
885.765	12.83
886.198	15.63
886.631	16.93
887.064	19.43
887.497	19.23
887.929	19.93
888.362	14.43
888.795	8.83
889.228	18.93
889.66	22.73
890.093	16.73
890.526	13.83
890.958	14.23
891.391	19.83
891.823	23.93
892.256	15.03
892.688	8.83
893.121	19.73
893.553	11.73
893.985	27.53
894.418	17.93
894.85	14.53
895.282	15.33
895.715	19.53
896.147	16.73
896.579	14.73
897.011	13.83
897.444	19.93
897.876	9.43
898.308	12.93
898.74	16.93
899.172	11.23
899.604	13.33
900.036	20.43
900.468	17.43
900.9	20.83
901.332	13.73
901.764	14.93
902.196	18.53
902.628	12.93
903.06	18.93
903.491	24.33
903.923	22.53
904.355	22.03
904.787	21.73
905.218	21.83
905.65	18.33
906.082	18.03
906.513	12.63
906.945	15.73
907.376	7.83
907.808	19.93
908.239	18.23
908.671	25.73
909.102	20.43
909.534	18.93
909.965	50.83
910.397	95.83
910.828	321.83
911.259	497.23
911.691	226.93
912.122	112.23
912.553	54.43
912.984	34.63
913.415	29.73
913.847	27.63
914.278	16.03
914.709	13.63
915.14	18.43
915.571	17.83
916.002	11.63
916.433	18.93
916.864	16.83
917.295	8.03
917.726	16.63
918.157	11.23
918.587	26.93
919.018	22.53
919.449	18.63
919.88	27.13
920.311	36.53
920.741	52.73
921.172	180.13
921.603	152.13
922.033	73.03
922.464	48.43
922.895	26.23
923.325	16.73
923.756	12.23
924.186	16.53
924.617	15.03
925.047	19.53
925.478	22.73
925.908	24.83
926.338	12.83
926.769	11.63
927.199	19.03
927.629	4.73
928.06	16.03
928.49	11.13
928.92	14.53
929.35	8.33
929.78	15.43
930.21	8.03
930.641	2.43
931.071	9.53
931.501	10.33
931.931	8.43
932.361	1.63
932.791	0.43
933.221	2.73
933.651	3.43
934.08	19.43
934.51	33.93
934.94	5.43
935.37	13.03
935.8	11.53
936.229	2.53
936.659	8.13
937.089	4.53
937.519	15.53
937.948	24.03
938.378	24.23
938.807	4.33
939.237	3.93
939.666	6.13
940.096	-6.07
940.525	-1.87
940.955	1.93
941.384	1.83
941.814	-2.67
942.243	2.63
942.672	5.23
943.102	-1.37
943.531	1.13
943.96	4.43
944.39	4.63
944.819	-1.47
945.248	1.53
945.677	1.53
946.106	3.03
946.535	-0.27
946.964	5.83
947.393	5.03
947.822	1.63
948.251	-2.37
948.68	1.63
949.109	-2.17
949.538	2.13
949.967	1.63
950.396	-0.77
950.825	1.13
951.254	-2.87
951.682	-9.27
952.111	2.93
952.54	2.93
952.969	0.23
953.397	1.93
953.826	2.63
954.254	-7.17
954.683	-1.47
955.112	1.13
955.54	1.83
955.969	4.73
956.397	-1.77
956.826	-9.07
957.254	2.73
957.682	0.93
958.111	-0.37
958.539	-2.37
958.967	4.73
959.396	-1.57
959.824	3.93
960.252	-6.17
960.68	-4.57
961.109	-4.97
961.537	-5.87
961.965	2.73
962.393	2.33
962.821	-6.77
963.249	1.93
963.677	2.43
964.105	6.63
964.533	48.03
964.961	43.33
965.389	18.63
965.817	5.53
966.245	-3.67
966.672	0.73
967.1	-7.47
967.528	0.63
967.956	-4.47
968.383	1.73
968.811	-4.67
969.239	-1.37
969.666	-8.67
970.094	-2.87
970.522	-1.47
970.949	6.33
971.377	-1.37
971.804	-3.97
972.232	-4.67
972.659	-1.87
973.087	-6.17
973.514	-5.67
973.941	-3.67
974.369	1.13
974.796	-2.67
975.223	-2.07
975.651	-4.27
976.078	5.93
976.505	-1.67
976.932	5.93
977.359	7.23
977.786	10.13
978.214	1.73
978.641	-3.57
979.068	0.53
979.495	-7.67
979.922	-2.57
980.349	-8.77
980.776	5.43
981.202	-6.87
981.629	1.23
982.056	5.73
982.483	-1.77
982.91	2.13
983.337	-2.77
983.763	-0.87
984.19	-3.67
984.617	-4.87
985.043	-6.97
985.47	1.03
985.897	0.93
986.323	-13.17
986.75	4.93
987.176	-5.37
987.603	-1.07
988.029	-4.17
988.456	-5.97
988.882	-2.87
989.308	-8.87
989.735	-3.27
990.161	-3.77
990.587	-4.37
991.014	-0.37
991.44	7.83
991.866	-2.07
992.292	-6.07
992.719	-4.27
993.145	2.83
993.571	-10.67
993.997	-3.67
994.423	0.13
994.849	-6.27
995.275	3.13
995.701	0.43
996.127	-4.27
996.553	0.93
996.979	-4.27
997.405	-2.37
997.83	-9.47
998.256	-10.47
998.682	-5.07
999.108	-10.77
999.534	-5.97
999.959	-3.77
1000.385	-2.87
1000.811	-2.57
1001.236	-6.67
1001.662	-9.17
1002.087	-12.17
1002.513	-0.27
1002.938	-1.47
1003.364	0.23
1003.789	-2.57
1004.215	0.03
1004.64	-2.97
1005.066	0.93
1005.491	-5.47
1005.916	-0.67
1006.342	-3.87
1006.767	-7.27
1007.192	5.43
1007.617	-6.67
1008.042	-2.97
1008.468	-5.27
1008.893	-5.77
1009.318	-8.67
1009.743	-1.07
1010.168	2.23
1010.593	1.33
1011.018	-10.67
1011.443	-3.27
1011.868	-0.07
1012.293	-2.07
1012.718	-6.87
1013.143	4.63
1013.567	3.63
1013.992	-5.97
1014.417	-14.27
1014.842	3.33
1015.267	-4.97
1015.691	-6.97
1016.116	6.03
1016.541	-0.07
1016.965	5.03
1017.39	-4.67
1017.814	-1.87
1018.239	3.53
1018.663	-4.07
1019.088	-6.47
1019.512	-8.67
1019.937	4.43
1020.361	-6.17
1020.785	-6.37
1021.21	-0.97
1021.634	-2.07
1022.058	0.83
1022.483	0.03
1022.907	-4.27
1023.331	-13.57
1023.755	-6.17
1024.179	-2.77
1024.604	-8.97
1025.028	-2.17
1025.452	-3.57
1025.876	-2.67
1026.3	-1.27
1026.724	-11.87
1027.148	-6.27
1027.572	-5.87
1027.996	-5.57
1028.42	-4.07
1028.843	-2.77
1029.267	-7.67
1029.691	-4.27
1030.115	-5.07
1030.539	-9.97
1030.962	-10.37
1031.386	-8.17
1031.81	-1.87
1032.233	1.23
1032.657	1.63
1033.08	-1.67
1033.504	-0.27
1033.927	-9.17
1034.351	2.03
1034.774	-5.57
1035.198	0.53
1035.621	-5.87
1036.045	-5.27
1036.468	-0.77
1036.891	-15.87
1037.315	-9.17
1037.738	-8.67
1038.161	1.03
1038.584	-3.27
1039.008	-4.77
1039.431	-3.37
1039.854	-2.97
1040.277	-3.47
1040.7	-7.77
1041.123	-2.17
1041.546	-11.97
1041.969	-6.67
1042.392	-4.07
1042.815	-7.37
1043.238	4.13
1043.661	-0.77
1044.084	-4.97
1044.507	-4.67
1044.93	-9.57
1045.352	-8.67
1045.775	-1.47
1046.198	-6.17
1046.621	-4.37
1047.043	0.73
1047.466	8.83
1047.889	-4.37
1048.311	-5.17
1048.734	-0.87
1049.156	2.33
1049.579	-5.27
1050.001	-4.47
1050.424	-9.17
1050.846	-4.97
1051.269	-6.77
1051.691	-6.17
1052.113	-0.97
1052.536	2.03
1052.958	-6.67
1053.38	0.83
1053.802	-15.17
1054.225	-1.87
1054.647	-11.07
1055.069	-7.97
1055.491	0.53
1055.913	-7.17
1056.335	-2.07
1056.757	-2.37
1057.179	-7.07
1057.601	-8.57
1058.023	-5.77
1058.445	-1.77
1058.867	-4.27
1059.289	-0.57
1059.711	-7.77
1060.133	-5.47
1060.555	-8.67
1060.976	-11.47
1061.398	1.23
1061.82	-13.27
1062.241	-3.87
1062.663	-7.37
1063.085	-1.77
1063.506	-1.87
1063.928	-5.47
1064.35	0.63
1064.771	-10.87
1065.193	-0.47
1065.614	-10.67
1066.035	-9.27
1066.457	-6.17
1066.878	-1.77
1067.3	-3.27
1067.721	-2.87
1068.142	-7.77
1068.564	-5.47
1068.985	-5.17
1069.406	-6.67
1069.827	-6.67
1070.248	1.93
1070.67	-12.37
1071.091	-6.17
1071.512	-3.67
1071.933	-1.97
1072.354	-7.37
1072.775	-3.97
1073.196	-9.27
1073.617	-3.27
1074.038	-12.27
1074.459	-6.27
1074.88	-4.97
1075.3	-4.37
1075.721	-1.27
1076.142	-2.27
1076.563	-3.07
1076.983	-6.97
1077.404	-9.67
1077.825	-8.57
1078.246	-8.47
1078.666	-11.37
1079.087	-10.07
1079.507	-8.97
1079.928	0.03
1080.348	-4.17
1080.769	2.03
1081.189	-1.77
1081.61	-6.57
1082.03	-6.17
1082.451	-6.97
1082.871	-3.07
1083.291	-7.97
1083.711	-8.47
1084.132	-3.77
1084.552	-4.07
1084.972	2.93
1085.392	-12.47
1085.813	-13.67
1086.233	-9.47
1086.653	-6.97
1087.073	-1.97
1087.493	-7.27
1087.913	-4.17
1088.333	-3.47
1088.753	-7.87
1089.173	0.03
1089.593	-12.37
1090.013	2.33
1090.433	-3.47
1090.852	-4.67
1091.272	1.43
1091.692	-5.87
1092.112	-9.07
1092.531	-9.37
1092.951	-11.07
1093.371	-2.77
1093.79	1.43
1094.21	-4.67
1094.63	-8.27
1095.049	-8.87
1095.469	-6.67
1095.888	-8.87
1096.308	-0.47
1096.727	2.83
1097.146	-4.57
1097.566	0.63
1097.985	-3.17
1098.405	-1.37
1098.824	-10.27
1099.243	-6.37
1099.662	-11.67
1100.082	-8.87
1100.501	-3.17
1100.92	-11.17
1101.339	-1.37
1101.758	-7.77
