Data from 20171114-ORNL-Ar_H_NY_Subt18_08-07-22-154.txt Node
Date: Tue Nov 14 08:07:22 EST 2017
User: Ender
Spectrometer: HR+D1039
Trigger mode: 0
Integration Time (sec): 2.730000E-2
Scans to average: 10
Electric dark correction enabled: true
Nonlinearity correction enabled: false
Boxcar width: 0
XAxis mode: Wavelengths
Number of Pixels in Spectrum: 2048
>>>>>Begin Spectral Data<<<<<
187.836	-0.98
188.309	-0.98
188.782	-0.98
189.255	1.92
189.728	-0.08
190.201	3.62
190.674	0.02
191.147	3.92
191.619	-5.38
192.092	3.52
192.565	3.52
193.038	-2.58
193.511	0.92
193.984	0.92
194.456	-5.08
194.929	-2.18
195.402	-4.18
195.874	2.02
196.347	-1.48
196.82	-4.38
197.292	5.22
197.765	-3.08
198.237	-8.58
198.71	3.82
199.182	2.22
199.655	2.82
200.127	6.42
200.6	1.22
201.072	-5.88
201.544	-3.48
202.017	-1.38
202.489	5.92
202.961	1.42
203.433	-3.18
203.906	-5.08
204.378	-6.18
204.85	-6.38
205.322	-9.78
205.794	-2.68
206.266	0.22
206.739	-6.28
207.211	0.92
207.683	-4.88
208.155	-6.98
208.627	-5.18
209.099	0.52
209.57	-12.18
210.042	-3.58
210.514	-5.58
210.986	2.32
211.458	-6.08
211.93	-1.08
212.402	4.52
212.873	-5.68
213.345	-10.08
213.817	-9.08
214.288	-1.18
214.76	-8.18
215.232	-0.78
215.703	-8.18
216.175	-6.08
216.646	-0.38
217.118	-0.88
217.589	1.52
218.061	-4.78
218.532	-2.88
219.004	-3.08
219.475	-7.78
219.946	-6.88
220.418	-7.58
220.889	4.92
221.36	-1.58
221.832	-4.38
222.303	-3.48
222.774	5.92
223.245	-10.48
223.717	2.42
224.188	2.82
224.659	-3.48
225.13	1.12
225.601	-4.98
226.072	0.72
226.543	-1.88
227.014	-2.08
227.485	1.62
227.956	-2.78
228.427	0.12
228.898	1.32
229.369	-0.98
229.839	-2.18
230.31	-8.38
230.781	-0.48
231.252	0.52
231.722	-6.48
232.193	-3.28
232.664	0.32
233.135	0.82
233.605	-1.48
234.076	-3.88
234.546	-1.38
235.017	5.32
235.487	-1.78
235.958	-1.38
236.428	0.22
236.899	-0.38
237.369	2.62
237.84	-9.68
238.31	4.02
238.78	6.62
239.251	-5.98
239.721	-2.48
240.191	-3.38
240.662	0.52
241.132	-3.98
241.602	-3.88
242.072	-6.58
242.542	5.62
243.013	-0.28
243.483	2.12
243.953	1.72
244.423	-6.48
244.893	-1.58
245.363	1.32
245.833	-4.68
246.303	-0.78
246.773	7.62
247.243	-2.18
247.712	-0.88
248.182	8.02
248.652	3.12
249.122	-3.78
249.592	1.72
250.061	14.12
250.531	23.52
251.001	5.72
251.471	12.12
251.94	16.72
252.41	0.12
252.879	3.52
253.349	10.72
253.818	1.42
254.288	7.32
254.757	1.52
255.227	-0.98
255.696	-2.28
256.166	5.32
256.635	4.62
257.105	1.42
257.574	-0.98
258.043	4.42
258.513	7.02
258.982	6.52
259.451	1.62
259.92	5.92
260.389	6.12
260.859	10.32
261.328	7.82
261.797	10.52
262.266	4.02
262.735	10.62
263.204	5.42
263.673	-3.58
264.142	8.32
264.611	-7.08
265.08	-0.88
265.549	-1.88
266.018	-0.78
266.487	-5.28
266.955	-5.38
267.424	-5.48
267.893	1.12
268.362	2.52
268.83	-0.28
269.299	3.12
269.768	3.92
270.236	3.62
270.705	-1.58
271.174	-3.18
271.642	8.02
272.111	6.22
272.579	9.02
273.048	17.82
273.516	19.82
273.985	14.02
274.453	16.22
274.922	11.42
275.39	5.92
275.858	-2.58
276.327	7.12
276.795	13.42
277.263	7.62
277.731	24.52
278.2	39.12
278.668	34.92
279.136	24.02
279.604	7.72
280.072	12.82
280.54	7.82
281.008	5.42
281.477	8.82
281.945	9.72
282.413	9.82
282.881	14.82
283.348	1.22
283.816	13.02
284.284	7.12
284.752	11.22
285.22	6.22
285.688	10.42
286.156	8.62
286.623	34.62
287.091	37.32
287.559	19.82
288.026	11.42
288.494	9.72
288.962	-3.58
289.429	3.22
289.897	16.32
290.364	7.62
290.832	8.32
291.3	7.12
291.767	14.92
292.234	17.92
292.702	6.62
293.169	15.02
293.637	15.42
294.104	15.32
294.571	-3.78
295.039	3.42
295.506	7.62
295.973	11.12
296.44	13.62
296.908	14.72
297.375	10.12
297.842	12.72
298.309	15.42
298.776	6.92
299.243	10.42
299.71	10.22
300.177	15.82
300.644	8.12
301.111	10.32
301.578	18.82
302.045	10.92
302.512	11.02
302.979	15.32
303.446	16.82
303.913	12.52
304.379	7.82
304.846	19.02
305.313	14.02
305.78	20.22
306.246	17.12
306.713	18.62
307.18	19.32
307.646	25.12
308.113	16.92
308.579	13.22
309.046	24.72
309.512	20.02
309.979	12.62
310.445	18.72
310.912	25.22
311.378	23.32
311.845	23.02
312.311	23.52
312.777	28.22
313.244	29.42
313.71	29.02
314.176	18.82
314.642	24.92
315.109	24.12
315.575	30.52
316.041	28.92
316.507	21.52
316.973	33.12
317.439	29.32
317.905	23.92
318.371	27.42
318.837	27.62
319.303	23.02
319.769	23.72
320.235	22.82
320.701	33.32
321.167	29.62
321.633	24.52
322.099	33.22
322.564	34.82
323.03	30.02
323.496	31.92
323.962	31.12
324.427	29.22
324.893	35.42
325.359	28.62
325.824	34.42
326.29	26.52
326.755	37.52
327.221	29.82
327.686	35.32
328.152	36.62
328.617	32.92
329.083	34.92
329.548	38.52
330.014	38.62
330.479	30.12
330.944	35.72
331.41	30.42
331.875	36.22
332.34	32.12
332.805	34.52
333.271	38.12
333.736	34.52
334.201	40.52
334.666	36.72
335.131	37.32
335.596	41.92
336.061	41.22
336.526	29.42
336.991	43.52
337.456	43.22
337.921	41.72
338.386	38.22
338.851	39.22
339.316	39.52
339.781	29.72
340.246	38.62
340.711	39.52
341.175	41.42
341.64	35.52
342.105	41.02
342.569	42.92
343.034	48.62
343.499	45.82
343.963	41.22
344.428	51.62
344.893	45.22
345.357	47.02
345.822	49.32
346.286	58.02
346.751	55.82
347.215	55.72
347.679	60.22
348.144	72.62
348.608	65.42
349.073	57.22
349.537	60.32
350.001	68.42
350.465	71.22
350.93	68.72
351.394	71.52
351.858	58.62
352.322	68.02
352.786	75.52
353.25	73.12
353.715	80.42
354.179	76.42
354.643	97.72
355.107	96.62
355.571	87.92
356.035	78.02
356.498	90.12
356.962	95.82
357.426	101.12
357.89	86.52
358.354	84.72
358.818	67.82
359.281	66.22
359.745	66.42
360.209	57.62
360.673	64.72
361.136	66.22
361.6	77.22
362.064	71.82
362.527	72.22
362.991	83.22
363.454	67.82
363.918	66.02
364.381	63.72
364.845	64.22
365.308	71.52
365.772	75.72
366.235	70.82
366.698	66.12
367.162	68.02
367.625	81.62
368.088	81.42
368.552	71.62
369.015	77.52
369.478	84.02
369.941	90.62
370.404	86.82
370.867	89.32
371.331	88.82
371.794	96.92
372.257	96.02
372.72	100.62
373.183	93.52
373.646	87.62
374.109	90.32
374.572	95.72
375.035	96.82
375.497	98.52
375.96	90.92
376.423	89.42
376.886	99.92
377.349	97.32
377.811	88.02
378.274	94.32
378.737	97.52
379.199	101.22
379.662	99.82
380.125	104.22
380.587	106.22
381.05	99.72
381.512	109.22
381.975	117.22
382.437	112.12
382.9	112.82
383.362	110.82
383.825	124.62
384.287	127.92
384.75	124.52
385.212	122.82
385.674	126.12
386.136	114.22
386.599	117.12
387.061	117.32
387.523	108.52
387.985	110.92
388.447	128.82
388.91	127.32
389.372	140.32
389.834	129.22
390.296	127.42
390.758	134.42
391.22	150.42
391.682	174.92
392.144	246.02
392.606	197.42
393.068	150.52
393.529	146.82
393.991	134.12
394.453	125.52
394.915	139.62
395.377	170.82
395.838	180.12
396.3	140.92
396.762	128.92
397.224	127.02
397.685	117.72
398.147	117.02
398.608	118.82
399.07	116.32
399.531	123.22
399.993	128.62
400.454	139.22
400.916	137.42
401.377	136.12
401.839	141.02
402.3	139.02
402.762	145.32
403.223	165.72
403.684	158.42
404.145	147.02
404.607	148.32
405.068	152.92
405.529	154.72
405.99	172.02
406.451	159.22
406.913	156.22
407.374	152.42
407.835	149.72
408.296	158.32
408.757	158.22
409.218	164.62
409.679	162.42
410.14	164.82
410.601	161.02
411.062	174.52
411.522	180.52
411.983	179.52
412.444	171.22
412.905	159.32
413.366	172.52
413.826	189.52
414.287	204.62
414.748	249.72
415.208	228.22
415.669	207.62
416.13	198.72
416.59	192.82
417.051	202.12
417.511	210.32
417.972	228.82
418.432	228.02
418.893	268.12
419.353	233.52
419.814	190.32
420.274	171.32
420.734	172.02
421.195	186.42
421.655	181.02
422.115	180.02
422.576	182.22
423.036	184.92
423.496	196.22
423.956	203.42
424.416	215.42
424.876	252.52
425.336	241.82
425.797	243.52
426.257	238.72
426.717	222.12
427.177	220.52
427.637	213.32
428.097	220.62
428.556	229.02
429.016	250.52
429.476	251.72
429.936	261.52
430.396	272.92
430.856	276.02
431.315	300.22
431.775	326.02
432.235	343.82
432.694	326.72
433.154	344.42
433.614	371.52
434.073	319.02
434.533	272.52
434.993	248.42
435.452	263.72
435.912	281.92
436.371	268.12
436.83	264.82
437.29	258.82
437.749	232.02
438.209	229.12
438.668	261.32
439.127	263.12
439.587	254.22
440.046	232.52
440.505	245.72
440.964	264.72
441.424	296.22
441.883	288.62
442.342	244.32
442.801	209.22
443.26	206.52
443.719	214.12
444.178	210.92
444.637	203.82
445.096	208.52
445.555	213.22
446.014	214.92
446.473	218.12
446.932	223.62
447.391	217.72
447.849	218.02
448.308	203.02
448.767	213.82
449.226	226.22
449.685	225.72
450.143	236.32
450.602	233.02
451.061	213.92
451.519	221.02
451.978	223.02
452.436	228.72
452.895	229.82
453.353	235.12
453.812	231.22
454.27	233.52
454.729	231.82
455.187	228.72
455.646	229.82
456.104	237.92
456.562	248.62
457.021	261.32
457.479	253.42
457.937	264.32
458.395	251.92
458.854	237.62
459.312	251.02
459.77	261.82
460.228	246.62
460.686	235.92
461.144	240.42
461.602	238.92
462.06	237.32
462.518	246.82
462.976	250.92
463.434	245.02
463.892	251.42
464.35	265.92
464.808	280.32
465.266	258.12
465.724	270.92
466.181	267.42
466.639	255.92
467.097	279.52
467.555	283.62
468.012	285.92
468.47	301.82
468.928	305.92
469.385	328.32
469.843	340.52
470.3	335.02
470.758	352.02
471.215	371.32
471.673	388.02
472.13	393.72
472.588	393.12
473.045	352.92
473.503	375.82
473.96	380.82
474.417	396.02
474.875	420.82
475.332	457.22
475.789	442.72
476.246	446.22
476.704	471.12
477.161	493.62
477.618	500.92
478.075	545.42
478.532	587.82
478.989	657.42
479.446	774.32
479.903	744.92
480.36	782.32
480.817	837.92
481.274	925.32
481.731	1036.62
482.188	1113.02
482.645	1242.82
483.102	1349.72
483.558	1470.03
484.015	1524.93
484.472	1501.22
484.929	1467.32
485.385	1413.92
485.842	1370.22
486.299	1303.02
486.755	1239.52
487.212	1058.82
487.668	896.72
488.125	818.52
488.582	748.32
489.038	716.02
489.494	686.12
489.951	654.42
490.407	646.82
490.864	625.62
491.32	626.32
491.776	613.32
492.233	625.62
492.689	585.52
493.145	582.22
493.602	570.62
494.058	592.72
494.514	591.32
494.97	615.62
495.426	625.72
495.882	597.12
496.338	591.72
496.794	595.12
497.251	603.62
497.707	614.12
498.163	602.62
498.618	617.22
499.074	612.02
499.53	649.12
499.986	655.52
500.442	622.12
500.898	614.82
501.354	595.42
501.809	602.42
502.265	629.12
502.721	637.42
503.177	644.72
503.632	634.22
504.088	655.42
504.543	682.02
504.999	674.22
505.455	641.62
505.91	614.12
506.366	617.32
506.821	605.12
507.277	602.82
507.732	610.82
508.187	613.12
508.643	615.92
509.098	615.42
509.553	623.42
510.009	655.42
510.464	646.52
510.919	676.52
511.375	676.52
511.83	685.22
512.285	698.02
512.74	730.72
513.195	761.32
513.65	735.52
514.105	744.02
514.56	757.22
515.015	771.92
515.47	782.02
515.925	766.82
516.38	766.02
516.835	766.12
517.29	755.92
517.745	753.62
518.2	744.52
518.655	728.12
519.109	716.32
519.564	714.42
520.019	706.42
520.474	708.52
520.928	695.22
521.383	702.02
521.838	699.42
522.292	695.12
522.747	685.32
523.201	682.42
523.656	680.72
524.11	681.92
524.565	677.42
525.019	669.12
525.474	688.12
525.928	690.12
526.382	669.52
526.837	680.62
527.291	688.22
527.745	677.12
528.2	678.32
528.654	677.02
529.108	673.52
529.562	670.52
530.016	669.62
530.47	688.42
530.925	678.92
531.379	682.02
531.833	685.02
532.287	682.92
532.741	685.82
533.195	688.12
533.649	692.52
534.103	696.82
534.556	681.92
535.01	688.12
535.464	674.02
535.918	702.22
536.372	701.82
536.826	699.52
537.279	693.62
537.733	692.12
538.187	695.32
538.64	691.92
539.094	709.42
539.548	709.12
540.001	707.02
540.455	703.32
540.908	710.12
541.362	723.12
541.815	723.82
542.269	740.42
542.722	742.92
543.175	751.22
543.629	749.92
544.082	770.72
544.536	776.72
544.989	774.22
545.442	769.62
545.895	762.62
546.349	775.52
546.802	770.52
547.255	782.42
547.708	792.22
548.161	791.92
548.614	807.52
549.067	816.02
549.52	789.32
549.973	782.12
550.426	786.52
550.879	768.02
551.332	783.62
551.785	781.02
552.238	787.92
552.691	806.02
553.144	817.32
553.596	818.22
554.049	830.92
554.502	877.92
554.955	893.02
555.407	888.72
555.86	875.12
556.313	855.22
556.765	860.62
557.218	864.42
557.67	861.72
558.123	850.52
558.576	848.02
559.028	869.52
559.48	863.32
559.933	849.02
560.385	810.42
560.838	778.12
561.29	774.32
561.742	768.62
562.195	759.02
562.647	751.62
563.099	754.02
563.551	750.02
564.004	765.92
564.456	745.92
564.908	748.52
565.36	728.92
565.812	714.52
566.264	702.62
566.716	712.92
567.168	693.42
567.62	708.72
568.072	684.62
568.524	679.82
568.976	675.12
569.428	665.12
569.88	658.32
570.332	669.92
570.784	669.72
571.235	667.32
571.687	686.62
572.139	687.02
572.59	697.02
573.042	687.82
573.494	689.12
573.945	687.12
574.397	668.42
574.849	677.02
575.3	672.32
575.752	659.22
576.203	659.22
576.655	670.52
577.106	653.62
577.557	645.02
578.009	645.52
578.46	644.92
578.912	649.12
579.363	649.42
579.814	643.42
580.265	644.82
580.717	644.12
581.168	651.92
581.619	659.32
582.07	673.62
582.521	655.82
582.972	657.52
583.423	658.42
583.875	660.62
584.326	683.32
584.777	727.62
585.227	798.22
585.678	886.12
586.129	951.72
586.58	1014.42
587.031	1090.12
587.482	1242.83
587.933	1401.02
588.384	1213.12
588.834	930.22
589.285	779.02
589.736	771.02
590.186	760.52
590.637	745.92
591.088	732.02
591.538	724.42
591.989	708.22
592.439	714.12
592.89	700.62
593.34	697.92
593.791	689.22
594.241	679.52
594.692	680.92
595.142	687.22
595.593	685.42
596.043	686.12
596.493	703.12
596.943	696.42
597.394	705.72
597.844	698.42
598.294	697.72
598.744	745.72
599.195	763.92
599.645	794.72
600.095	838.82
600.545	895.72
600.995	946.52
601.445	1010.92
601.895	1066.33
602.345	1109.12
602.795	1091.53
603.245	1036.12
603.695	989.22
604.145	932.32
604.594	892.72
605.044	830.22
605.494	774.92
605.944	737.52
606.393	713.32
606.843	709.72
607.293	714.72
607.743	710.32
608.192	729.12
608.642	736.02
609.091	746.32
609.541	753.02
609.99	757.52
610.44	741.72
610.889	712.92
611.339	690.02
611.788	673.42
612.238	687.62
612.687	703.12
613.136	700.22
613.586	724.42
614.035	712.22
614.484	733.22
614.933	734.62
615.383	729.92
615.832	715.52
616.281	708.42
616.73	671.82
617.179	649.32
617.628	631.82
618.077	621.92
618.526	606.42
618.975	599.52
619.424	596.12
619.873	596.82
620.322	606.52
620.771	596.52
621.22	586.82
621.669	581.12
622.118	575.32
622.567	568.32
623.015	562.12
623.464	551.62
623.913	545.82
624.361	540.12
624.81	539.62
625.259	533.82
625.707	539.62
626.156	545.02
626.604	557.22
627.053	552.92
627.501	554.12
627.95	560.22
628.398	572.32
628.847	560.42
629.295	557.12
629.744	565.42
630.192	549.32
630.64	541.32
631.089	537.82
631.537	556.22
631.985	560.42
632.433	572.82
632.881	570.42
633.33	612.92
633.778	601.72
634.226	543.12
634.674	545.12
635.122	553.32
635.57	572.72
636.018	594.82
636.466	567.72
636.914	544.42
637.362	563.32
637.81	555.12
638.258	569.62
638.705	562.82
639.153	588.32
639.601	601.82
640.049	624.92
640.497	661.72
640.944	692.12
641.392	626.72
641.84	590.52
642.287	584.82
642.735	563.82
643.182	563.12
643.63	558.02
644.078	560.82
644.525	566.02
644.973	575.72
645.42	585.42
645.867	612.22
646.315	619.72
646.762	650.72
647.21	677.12
647.657	689.12
648.104	735.72
648.551	752.42
648.999	824.02
649.446	889.72
649.893	987.92
650.34	1124.52
650.787	1348.02
651.234	1668.03
651.682	2202.72
652.129	2998.42
652.576	4340.93
653.023	6398.12
653.47	8741.73
653.917	10909.82
654.363	12574.83
654.81	13865.62
655.257	13175.62
655.704	8594.32
656.151	5052.12
656.598	3300.43
657.044	2338.62
657.491	1801.82
657.938	1436.53
658.385	1211.72
658.831	1044.92
659.278	935.82
659.724	831.62
660.171	762.62
660.618	713.22
661.064	674.32
661.511	641.22
661.957	643.22
662.404	623.32
662.85	629.92
663.296	606.52
663.743	552.02
664.189	521.52
664.635	518.02
665.082	522.42
665.528	507.02
665.974	506.72
666.42	495.52
666.867	485.22
667.313	481.62
667.759	468.62
668.205	464.12
668.651	467.32
669.097	455.02
669.543	476.42
669.989	459.92
670.435	440.92
670.881	438.32
671.327	438.62
671.773	459.72
672.219	479.12
672.665	532.62
673.11	566.42
673.556	609.62
674.002	658.62
674.448	643.92
674.893	534.12
675.339	468.12
675.785	427.92
676.23	410.12
676.676	382.02
677.122	369.02
677.567	365.32
678.013	366.82
678.458	355.32
678.904	351.32
679.349	341.12
679.794	341.12
680.24	343.02
680.685	338.92
681.131	338.02
681.576	345.12
682.021	345.82
682.466	338.32
682.912	332.22
683.357	347.32
683.802	375.82
684.247	399.82
684.692	444.22
685.137	484.72
685.583	524.92
686.028	549.32
686.473	504.92
686.918	437.62
687.363	413.92
687.807	384.72
688.252	363.22
688.697	345.72
689.142	331.92
689.587	336.12
690.032	320.72
690.477	324.42
690.921	338.62
691.366	368.22
691.811	396.42
692.255	422.52
692.7	451.82
693.145	490.92
693.589	689.02
694.034	1113.22
694.478	1518.83
694.923	1702.72
695.367	2183.22
695.812	1162.42
696.256	486.72
696.701	368.92
697.145	338.52
697.59	326.32
698.034	317.62
698.478	323.32
698.922	315.22
699.367	317.32
699.811	333.52
700.255	351.82
700.699	377.62
701.143	414.72
701.588	463.42
702.032	504.82
702.476	504.12
702.92	477.52
703.364	486.32
703.808	635.52
704.252	1032.53
704.696	1419.83
705.14	1634.02
705.584	2077.53
706.027	1038.52
706.471	512.42
706.915	390.52
707.359	339.02
707.803	313.92
708.246	300.72
708.69	308.62
709.134	309.52
709.577	304.02
710.021	314.12
710.465	298.82
710.908	292.02
711.352	290.92
711.795	305.42
712.239	348.12
712.682	380.62
713.126	412.52
713.569	452.62
714.012	365.12
714.456	318.42
714.899	288.42
715.342	263.72
715.786	256.92
716.229	246.52
716.672	245.72
717.115	238.72
717.558	239.52
718.002	244.92
718.445	255.62
718.888	281.32
719.331	283.22
719.774	300.92
720.217	294.72
720.66	279.52
721.103	259.82
721.546	250.42
721.989	241.32
722.432	224.82
722.874	238.82
723.317	225.32
723.76	236.52
724.203	256.32
724.645	311.72
725.088	436.92
725.531	561.22
725.974	631.92
726.416	526.92
726.859	301.52
727.301	244.92
727.744	231.02
728.187	227.52
728.629	233.92
729.071	241.12
729.514	250.92
729.956	264.82
730.399	278.02
730.841	291.22
731.283	267.12
731.726	262.72
732.168	252.12
732.61	261.42
733.053	278.12
733.495	311.52
733.937	344.92
734.379	388.42
734.821	426.12
735.263	534.62
735.705	827.52
736.148	1571.62
736.59	2556.82
737.032	3002.12
737.474	2426.22
737.916	783.12
738.357	422.32
738.799	318.52
739.241	285.82
739.683	276.92
740.125	288.22
740.567	287.52
741.008	303.72
741.45	301.42
741.892	310.62
742.334	342.22
742.775	342.32
743.217	334.02
743.658	270.22
744.1	248.32
744.542	254.62
744.983	306.32
745.425	329.42
745.866	331.62
746.307	284.22
746.749	272.02
747.19	323.22
747.632	448.72
748.073	882.12
748.514	1860.23
748.956	2796.62
749.397	3513.53
749.838	2921.93
750.279	2885.12
750.72	1460.83
751.162	537.42
751.603	318.32
752.044	243.62
752.485	208.92
752.926	206.82
753.367	201.42
753.808	192.52
754.249	187.32
754.69	179.82
755.131	183.32
755.572	182.02
756.013	172.52
756.453	179.42
756.894	183.52
757.335	193.82
757.776	199.22
758.216	196.72
758.657	197.22
759.098	203.52
759.538	223.42
759.979	262.62
760.42	369.92
760.86	715.92
761.301	1838.52
761.741	4399.93
762.182	6301.73
762.622	4417.93
763.063	1288.12
763.503	526.32
763.943	333.82
764.384	328.82
764.824	374.22
765.264	399.62
765.705	284.52
766.145	197.02
766.585	188.92
767.025	175.82
767.465	179.92
767.906	223.62
768.346	294.92
768.786	311.72
769.226	252.32
769.666	320.82
770.106	612.92
770.546	1558.32
770.986	2590.43
771.426	2303.73
771.866	763.12
772.306	318.12
772.745	207.42
773.185	171.32
773.625	162.62
774.065	156.82
774.505	185.32
774.944	287.62
775.384	618.52
775.824	1085.52
776.263	1063.62
776.703	461.32
777.142	204.52
777.582	148.72
778.021	132.92
778.461	130.22
778.9	127.02
779.34	129.02
779.779	118.22
780.219	108.92
780.658	107.72
781.097	106.32
781.537	114.02
781.976	108.92
782.415	108.02
782.855	104.92
783.294	102.62
783.733	107.52
784.172	105.22
784.611	107.32
785.05	106.02
785.489	107.92
785.928	111.32
786.367	122.62
786.806	122.12
787.245	133.02
787.684	137.32
788.123	144.52
788.562	128.52
789.001	126.52
789.44	121.62
789.879	116.02
790.317	116.52
790.756	126.42
791.195	130.82
791.634	146.32
792.072	202.32
792.511	368.82
792.95	1001.82
793.388	2105.32
793.827	1870.32
794.265	657.92
794.704	275.82
795.142	178.82
795.581	149.72
796.019	132.32
796.458	123.52
796.896	120.72
797.334	132.92
797.773	146.32
798.211	225.32
798.649	437.12
799.087	1013.22
799.526	1568.93
799.964	1989.72
800.402	1963.93
800.84	742.92
801.278	295.12
801.716	183.02
802.154	148.92
802.592	145.62
803.03	134.52
803.468	135.12
803.906	141.72
804.344	150.52
804.782	134.62
805.22	130.32
805.658	125.12
806.096	152.12
806.533	155.22
806.971	175.72
807.409	215.02
807.847	320.42
808.284	664.72
808.722	1851.22
809.16	3236.62
809.597	3099.62
810.035	5385.43
810.472	5612.02
810.91	2032.72
811.347	783.62
811.785	388.52
812.222	249.22
812.66	193.92
813.097	159.42
813.535	133.32
813.972	126.02
814.409	116.22
814.846	115.62
815.284	112.42
815.721	97.32
816.158	107.92
816.595	113.82
817.032	166.32
817.47	191.42
817.907	151.62
818.344	138.32
818.781	109.52
819.218	98.22
819.655	120.52
820.092	185.02
820.529	211.02
820.966	172.22
821.403	127.92
821.839	106.02
822.276	97.72
822.713	121.72
823.15	124.02
823.587	118.92
824.023	147.82
824.46	296.22
824.897	902.12
825.333	1334.32
825.77	561.32
826.206	223.62
826.643	136.02
827.08	92.02
827.516	84.52
827.953	75.52
828.389	82.52
828.825	73.52
829.262	70.72
829.698	56.12
830.135	69.52
830.571	60.12
831.007	61.32
831.443	65.32
831.88	61.32
832.316	61.72
832.752	58.62
833.188	62.62
833.624	61.82
834.06	72.12
834.497	70.82
834.933	69.12
835.369	73.82
835.805	72.92
836.241	80.42
836.677	78.92
837.112	96.12
837.548	100.62
837.984	127.12
838.42	202.62
838.856	492.62
839.292	1514.12
839.727	2262.82
840.163	1040.12
840.599	929.12
841.034	2008.12
841.47	2069.22
841.906	759.62
842.341	327.82
842.777	223.82
843.212	299.92
843.648	295.12
844.083	147.02
844.519	93.62
844.954	74.42
845.39	59.42
845.825	61.22
846.261	60.32
846.696	57.32
847.131	58.12
847.566	62.12
848.002	52.62
848.437	58.12
848.872	61.42
849.307	58.12
849.742	83.22
850.177	180.82
850.613	557.42
851.048	862.22
851.483	371.62
851.918	157.52
852.353	88.12
852.788	58.82
853.223	55.62
853.657	53.92
854.092	50.12
854.527	39.72
854.962	40.22
855.397	45.22
855.832	49.82
856.266	43.12
856.701	43.62
857.136	37.82
857.57	45.82
858.005	51.22
858.44	59.62
858.874	45.82
859.309	52.62
859.743	45.62
860.178	49.12
860.612	43.12
861.047	53.62
861.481	63.02
861.915	67.12
862.35	45.02
862.784	35.32
863.218	46.42
863.653	35.52
864.087	43.22
864.521	54.42
864.955	69.72
865.39	153.92
865.824	168.72
866.258	113.52
866.692	151.92
867.126	164.22
867.56	102.52
867.994	51.02
868.428	44.92
868.862	37.82
869.296	49.92
869.73	57.22
870.164	52.92
870.598	44.82
871.031	35.72
871.465	30.82
871.899	26.92
872.333	20.52
872.766	26.32
873.2	32.72
873.634	31.42
874.067	22.92
874.501	22.42
874.935	34.42
875.368	34.72
875.802	23.52
876.235	30.42
876.669	23.52
877.102	30.72
877.535	26.82
877.969	24.12
878.402	22.12
878.836	20.72
879.269	20.12
879.702	27.62
880.135	25.82
880.569	19.62
881.002	30.52
881.435	24.62
881.868	16.72
882.301	24.92
882.734	19.82
883.167	20.02
883.601	16.72
884.034	25.52
884.467	11.22
884.899	21.32
885.332	17.52
885.765	12.52
886.198	16.12
886.631	15.02
887.064	17.32
887.497	27.22
887.929	32.12
888.362	21.72
888.795	16.62
889.228	21.02
889.66	24.22
890.093	18.32
890.526	19.92
890.958	17.02
891.391	21.32
891.823	27.02
892.256	20.42
892.688	13.12
893.121	18.02
893.553	12.02
893.985	20.12
894.418	21.62
894.85	17.62
895.282	18.02
895.715	16.62
896.147	17.72
896.579	24.02
897.011	12.22
897.444	14.92
897.876	17.92
898.308	20.82
898.74	21.12
899.172	16.92
899.604	30.72
900.036	18.72
900.468	18.02
900.9	14.82
901.332	14.12
901.764	12.32
902.196	13.12
902.628	20.72
903.06	18.22
903.491	29.32
903.923	23.42
904.355	26.52
904.787	24.42
905.218	23.42
905.65	19.72
906.082	11.62
906.513	12.72
906.945	20.52
907.376	13.52
907.808	18.32
908.239	22.92
908.671	20.72
909.102	17.32
909.534	29.22
909.965	49.72
910.397	95.82
910.828	316.52
911.259	465.62
911.691	215.32
912.122	111.92
912.553	48.82
912.984	31.52
913.415	23.92
913.847	32.32
914.278	15.92
914.709	15.92
915.14	21.02
915.571	15.12
916.002	14.42
916.433	22.52
916.864	20.52
917.295	16.72
917.726	23.72
918.157	16.92
918.587	30.32
919.018	16.92
919.449	18.42
919.88	22.02
920.311	32.72
920.741	52.22
921.172	167.62
921.603	153.72
922.033	74.92
922.464	42.92
922.895	25.92
923.325	19.42
923.756	15.82
924.186	16.42
924.617	26.52
925.047	35.92
925.478	47.52
925.908	44.42
926.338	26.62
926.769	14.92
927.199	13.52
927.629	8.32
928.06	15.22
928.49	10.62
928.92	14.82
929.35	10.02
929.78	14.32
930.21	10.42
930.641	7.52
931.071	8.12
931.501	1.12
931.931	13.92
932.361	12.32
932.791	2.62
933.221	11.02
933.651	6.62
934.08	22.22
934.51	27.22
934.94	13.02
935.37	10.52
935.8	15.22
936.229	8.22
936.659	2.92
937.089	2.52
937.519	19.32
937.948	23.62
938.378	18.52
938.807	8.02
939.237	2.62
939.666	12.12
940.096	0.92
940.525	3.52
940.955	4.12
941.384	5.52
941.814	-1.28
942.243	7.52
942.672	4.62
943.102	1.02
943.531	2.12
943.96	2.22
944.39	7.52
944.819	7.52
945.248	5.92
945.677	5.12
946.106	7.32
946.535	6.72
946.964	1.62
947.393	6.32
947.822	2.92
948.251	1.62
948.68	5.22
949.109	7.92
949.538	11.42
949.967	0.42
950.396	1.42
950.825	-1.58
951.254	-0.58
951.682	-4.28
952.111	6.32
952.54	3.42
952.969	-2.28
953.397	-3.38
953.826	-0.78
954.254	-2.08
954.683	-2.48
955.112	-1.88
955.54	4.52
955.969	0.92
956.397	-1.78
956.826	0.22
957.254	4.82
957.682	4.52
958.111	9.52
958.539	-3.28
958.967	1.12
959.396	-6.98
959.824	3.52
960.252	2.42
960.68	-9.38
961.109	-2.08
961.537	-4.98
961.965	1.52
962.393	-4.18
962.821	-4.98
963.249	8.22
963.677	4.82
964.105	6.92
964.533	48.02
964.961	44.72
965.389	16.92
965.817	11.22
966.245	0.22
966.672	2.22
967.1	-1.88
967.528	1.42
967.956	-4.78
968.383	-0.58
968.811	1.32
969.239	-0.18
969.666	-5.98
970.094	-1.08
970.522	2.52
970.949	-5.08
971.377	-5.58
971.804	-0.48
972.232	0.62
972.659	1.42
973.087	-2.88
973.514	2.22
973.941	-3.78
974.369	5.22
974.796	0.32
975.223	-0.28
975.651	4.12
976.078	-2.98
976.505	1.32
976.932	4.72
977.359	13.32
977.786	16.42
978.214	2.12
978.641	-5.38
979.068	-3.88
979.495	-2.08
979.922	-0.28
980.349	-5.18
980.776	7.22
981.202	2.82
981.629	4.12
982.056	4.42
982.483	0.52
982.91	1.72
983.337	-2.78
983.763	-1.68
984.19	-7.08
984.617	1.32
985.043	-5.58
985.47	3.32
985.897	1.02
986.323	-7.28
986.75	5.82
987.176	3.82
987.603	-0.28
988.029	8.82
988.456	1.82
988.882	2.02
989.308	-4.58
989.735	-2.68
990.161	3.32
990.587	-6.18
991.014	3.42
991.44	3.32
991.866	1.32
992.292	-3.18
992.719	-0.98
993.145	-0.78
993.571	-4.98
993.997	-4.48
994.423	-5.88
994.849	-5.88
995.275	-4.38
995.701	6.72
996.127	-4.98
996.553	-0.28
996.979	-1.28
997.405	-1.18
997.83	3.22
998.256	-0.38
998.682	-5.18
999.108	-6.98
999.534	0.72
999.959	3.72
1000.385	-7.78
1000.811	1.82
1001.236	-1.78
1001.662	-5.88
1002.087	-6.38
1002.513	-1.18
1002.938	4.22
1003.364	1.12
1003.789	0.12
1004.215	6.22
1004.64	1.02
1005.066	9.72
1005.491	0.52
1005.916	-2.38
1006.342	-2.78
1006.767	-6.38
1007.192	8.12
1007.617	-3.28
1008.042	2.92
1008.468	-3.78
1008.893	-6.68
1009.318	-1.98
1009.743	-0.38
1010.168	1.62
1010.593	1.82
1011.018	-2.48
1011.443	1.62
1011.868	5.92
1012.293	-3.18
1012.718	-6.58
1013.143	-2.28
1013.567	2.22
1013.992	1.52
1014.417	-10.78
1014.842	-1.28
1015.267	-0.38
1015.691	1.82
1016.116	3.22
1016.541	-8.08
1016.965	3.32
1017.39	3.52
1017.814	0.62
1018.239	-0.48
1018.663	-2.48
1019.088	-6.88
1019.512	-2.08
1019.937	4.82
1020.361	-1.18
1020.785	-9.68
1021.21	-5.38
1021.634	-5.08
1022.058	4.12
1022.483	2.22
1022.907	-6.88
1023.331	-0.28
1023.755	-2.48
1024.179	1.22
1024.604	-6.28
1025.028	-1.38
1025.452	-3.48
1025.876	3.92
1026.3	6.02
1026.724	-11.68
1027.148	-1.38
1027.572	-11.58
1027.996	-4.48
1028.42	1.42
1028.843	-6.68
1029.267	-6.28
1029.691	-6.88
1030.115	-10.58
1030.539	-5.08
1030.962	-4.98
1031.386	-12.78
1031.81	-4.38
1032.233	-0.38
1032.657	-0.78
1033.08	-2.78
1033.504	-4.38
1033.927	-1.68
1034.351	-2.48
1034.774	-1.88
1035.198	-3.48
1035.621	-7.58
1036.045	-5.68
1036.468	4.32
1036.891	-6.88
1037.315	-10.38
1037.738	-15.28
1038.161	-1.18
1038.584	-5.08
1039.008	-5.08
1039.431	-2.18
1039.854	0.92
1040.277	-5.58
1040.7	-9.18
1041.123	1.62
1041.546	-7.78
1041.969	-5.48
1042.392	-3.58
1042.815	-1.98
1043.238	3.62
1043.661	2.02
1044.084	-3.08
1044.507	-3.18
1044.93	-4.68
1045.352	-1.78
1045.775	-0.78
1046.198	6.22
1046.621	1.62
1047.043	1.52
1047.466	11.02
1047.889	-7.08
1048.311	-4.08
1048.734	-0.48
1049.156	-3.48
1049.579	-1.88
1050.001	-3.78
1050.424	4.22
1050.846	-1.38
1051.269	-2.38
1051.691	-7.88
1052.113	-8.88
1052.536	1.12
1052.958	-0.58
1053.38	-0.88
1053.802	-2.68
1054.225	-2.88
1054.647	-12.08
1055.069	-4.68
1055.491	5.42
1055.913	-3.58
1056.335	-1.48
1056.757	-2.68
1057.179	-6.68
1057.601	-6.78
1058.023	-6.38
1058.445	-1.88
1058.867	-2.98
1059.289	-6.78
1059.711	-7.58
1060.133	-3.98
1060.555	-8.68
1060.976	-6.18
1061.398	-1.68
1061.82	-8.58
1062.241	-0.08
1062.663	-5.68
1063.085	-3.08
1063.506	-4.98
1063.928	-6.98
1064.35	0.12
1064.771	-9.58
1065.193	-3.98
1065.614	-11.68
1066.035	0.72
1066.457	-7.48
1066.878	1.62
1067.3	-2.08
1067.721	-3.58
1068.142	1.12
1068.564	-0.58
1068.985	-3.78
1069.406	-10.68
1069.827	-10.38
1070.248	-1.88
1070.67	-3.58
1071.091	-7.18
1071.512	2.02
1071.933	-8.88
1072.354	-6.78
1072.775	-3.68
1073.196	-10.88
1073.617	-3.58
1074.038	-12.08
1074.459	-7.68
1074.88	-9.48
1075.3	0.62
1075.721	-3.68
1076.142	-2.48
1076.563	-4.68
1076.983	-11.08
1077.404	-2.88
1077.825	-7.18
1078.246	-0.78
1078.666	-15.58
1079.087	-6.48
1079.507	-0.58
1079.928	2.32
1080.348	2.32
1080.769	-5.78
1081.189	1.42
1081.61	-3.78
1082.03	-8.68
1082.451	-8.88
1082.871	-6.68
1083.291	-1.48
1083.711	-8.18
1084.132	-6.98
1084.552	-1.28
1084.972	-4.88
1085.392	-2.18
1085.813	-8.98
1086.233	-5.78
1086.653	-3.48
1087.073	-0.48
1087.493	-5.68
1087.913	-8.08
1088.333	-4.88
1088.753	3.02
1089.173	2.82
1089.593	-2.68
1090.013	-2.98
1090.433	5.72
1090.852	-2.78
1091.272	-5.78
1091.692	-2.98
1092.112	-4.48
1092.531	-3.38
1092.951	-9.58
1093.371	-1.48
1093.79	0.22
1094.21	-7.38
1094.63	-6.78
1095.049	-6.28
1095.469	-2.18
1095.888	-4.38
1096.308	7.12
1096.727	10.42
1097.146	-9.48
1097.566	-2.98
1097.985	1.62
1098.405	-1.98
1098.824	-4.98
1099.243	-6.68
1099.662	-5.38
1100.082	-3.28
1100.501	-0.38
1100.92	-5.68
1101.339	-5.68
1101.758	-3.88
