Data from 20171114-ORNL-Ar_H_NY_Subt18_08-06-41-207.txt Node
Date: Tue Nov 14 08:06:41 EST 2017
User: Ender
Spectrometer: HR+D1039
Trigger mode: 0
Integration Time (sec): 2.730000E-2
Scans to average: 10
Electric dark correction enabled: true
Nonlinearity correction enabled: false
Boxcar width: 0
XAxis mode: Wavelengths
Number of Pixels in Spectrum: 2048
>>>>>Begin Spectral Data<<<<<
187.836	-2.73
188.309	-2.73
188.782	-2.73
189.255	1.07
189.728	-3.73
190.201	4.17
190.674	3.17
191.147	7.37
191.619	-0.23
192.092	-1.83
192.565	2.67
193.038	-2.43
193.511	-2.03
193.984	1.57
194.456	-3.03
194.929	-5.13
195.402	1.47
195.874	-0.33
196.347	2.27
196.82	-7.93
197.292	6.57
197.765	-1.33
198.237	-8.13
198.71	6.07
199.182	-0.53
199.655	2.07
200.127	-1.53
200.6	-2.03
201.072	2.47
201.544	-4.03
202.017	-1.23
202.489	4.67
202.961	-1.93
203.433	0.17
203.906	-5.33
204.378	-9.23
204.85	-2.13
205.322	-10.63
205.794	-1.53
206.266	3.87
206.739	-9.53
207.211	-0.63
207.683	-7.23
208.155	-2.83
208.627	-6.33
209.099	-2.63
209.57	-7.83
210.042	-4.33
210.514	-8.33
210.986	-8.83
211.458	-7.03
211.93	-6.93
212.402	-2.73
212.873	-4.53
213.345	-7.43
213.817	-9.93
214.288	-0.43
214.76	-8.33
215.232	-6.53
215.703	-5.43
216.175	-3.53
216.646	-4.93
217.118	-2.03
217.589	-2.13
218.061	-4.63
218.532	-3.53
219.004	1.37
219.475	-4.13
219.946	-6.23
220.418	-5.13
220.889	2.97
221.36	0.17
221.832	0.37
222.303	-8.53
222.774	-0.93
223.245	-4.73
223.717	-6.13
224.188	-6.63
224.659	-9.83
225.13	-10.23
225.601	-0.33
226.072	-0.03
226.543	1.37
227.014	1.27
227.485	-5.63
227.956	-8.73
228.427	-5.53
228.898	0.07
229.369	7.67
229.839	-4.43
230.31	-0.83
230.781	-0.53
231.252	-8.43
231.722	-4.13
232.193	-0.03
232.664	-0.63
233.135	-0.83
233.605	-5.63
234.076	-7.23
234.546	-1.13
235.017	0.57
235.487	0.07
235.958	-6.53
236.428	-5.03
236.899	-0.23
237.369	0.57
237.84	-1.93
238.31	4.17
238.78	0.07
239.251	-3.83
239.721	1.97
240.191	-4.73
240.662	0.67
241.132	-6.23
241.602	-3.93
242.072	-0.33
242.542	-0.23
243.013	-2.33
243.483	5.87
243.953	0.87
244.423	0.47
244.893	0.77
245.363	4.77
245.833	2.27
246.303	-3.43
246.773	7.47
247.243	2.37
247.712	-1.13
248.182	2.57
248.652	3.07
249.122	-7.33
249.592	0.87
250.061	5.17
250.531	14.67
251.001	-2.03
251.471	4.27
251.94	7.27
252.41	0.17
252.879	-6.73
253.349	8.97
253.818	2.57
254.288	-0.03
254.757	6.27
255.227	-1.83
255.696	3.77
256.166	-0.23
256.635	5.27
257.105	6.37
257.574	2.27
258.043	2.17
258.513	-4.93
258.982	6.77
259.451	4.67
259.92	3.77
260.389	1.37
260.859	8.67
261.328	5.37
261.797	5.87
262.266	4.77
262.735	13.17
263.204	7.77
263.673	9.27
264.142	7.57
264.611	-5.33
265.08	0.67
265.549	-3.43
266.018	3.77
266.487	1.27
266.955	-0.23
267.424	0.37
267.893	9.37
268.362	-0.43
268.83	4.67
269.299	11.27
269.768	2.07
270.236	4.77
270.705	-0.43
271.174	4.67
271.642	3.37
272.111	5.07
272.579	8.57
273.048	10.87
273.516	2.87
273.985	7.97
274.453	12.87
274.922	13.17
275.39	13.47
275.858	1.07
276.327	8.17
276.795	18.77
277.263	11.77
277.731	15.57
278.2	12.77
278.668	13.47
279.136	15.77
279.604	8.67
280.072	14.87
280.54	11.27
281.008	7.77
281.477	11.87
281.945	7.57
282.413	14.27
282.881	14.27
283.348	11.77
283.816	13.97
284.284	13.17
284.752	22.57
285.22	13.07
285.688	12.27
286.156	6.47
286.623	16.97
287.091	8.67
287.559	21.97
288.026	9.47
288.494	13.07
288.962	8.77
289.429	12.37
289.897	21.57
290.364	12.67
290.832	20.17
291.3	11.47
291.767	16.37
292.234	16.87
292.702	15.47
293.169	16.57
293.637	20.77
294.104	18.17
294.571	8.77
295.039	14.77
295.506	14.97
295.973	21.27
296.44	11.17
296.908	12.37
297.375	17.37
297.842	15.57
298.309	19.77
298.776	16.57
299.243	24.67
299.71	14.97
300.177	21.37
300.644	26.37
301.111	21.07
301.578	22.67
302.045	15.97
302.512	24.07
302.979	27.27
303.446	22.07
303.913	20.37
304.379	18.47
304.846	32.47
305.313	21.17
305.78	29.67
306.246	29.17
306.713	25.57
307.18	26.27
307.646	25.57
308.113	24.77
308.579	27.67
309.046	31.37
309.512	29.27
309.979	25.47
310.445	28.97
310.912	32.17
311.378	29.97
311.845	22.77
312.311	32.57
312.777	24.37
313.244	27.07
313.71	37.97
314.176	34.87
314.642	31.77
315.109	27.77
315.575	32.07
316.041	37.47
316.507	34.17
316.973	35.57
317.439	29.87
317.905	36.27
318.371	38.47
318.837	29.17
319.303	31.77
319.769	32.17
320.235	36.07
320.701	35.07
321.167	42.57
321.633	36.07
322.099	38.47
322.564	39.67
323.03	35.97
323.496	39.27
323.962	45.17
324.427	35.27
324.893	43.47
325.359	39.37
325.824	41.67
326.29	36.47
326.755	44.47
327.221	45.87
327.686	42.27
328.152	52.27
328.617	40.97
329.083	48.17
329.548	54.07
330.014	47.27
330.479	41.87
330.944	46.07
331.41	46.67
331.875	46.47
332.34	46.07
332.805	46.97
333.271	41.97
333.736	38.87
334.201	50.37
334.666	55.27
335.131	57.47
335.596	54.67
336.061	53.67
336.526	46.87
336.991	50.67
337.456	60.27
337.921	54.67
338.386	44.77
338.851	51.47
339.316	46.17
339.781	53.57
340.246	55.07
340.711	53.27
341.175	54.17
341.64	46.17
342.105	52.97
342.569	55.57
343.034	59.87
343.499	62.27
343.963	53.87
344.428	68.97
344.893	67.07
345.357	60.47
345.822	64.87
346.286	72.27
346.751	71.07
347.215	66.97
347.679	74.87
348.144	95.67
348.608	85.07
349.073	71.37
349.537	72.17
350.001	80.97
350.465	89.97
350.93	88.67
351.394	85.17
351.858	76.57
352.322	91.37
352.786	87.77
353.25	103.87
353.715	113.47
354.179	107.27
354.643	130.17
355.107	125.47
355.571	108.17
356.035	98.17
356.498	111.87
356.962	111.87
357.426	131.27
357.89	115.47
358.354	84.87
358.818	89.07
359.281	83.77
359.745	79.27
360.209	71.87
360.673	65.67
361.136	79.67
361.6	90.97
362.064	86.57
362.527	93.87
362.991	96.67
363.454	86.47
363.918	79.57
364.381	83.57
364.845	92.07
365.308	96.67
365.772	93.47
366.235	92.27
366.698	93.17
367.162	92.37
367.625	87.37
368.088	95.87
368.552	91.77
369.015	89.07
369.478	93.17
369.941	102.77
370.404	97.07
370.867	106.67
371.331	104.97
371.794	112.17
372.257	106.27
372.72	112.87
373.183	107.27
373.646	102.67
374.109	100.97
374.572	105.67
375.035	105.27
375.497	109.87
375.96	106.67
376.423	110.57
376.886	114.67
377.349	115.47
377.811	109.07
378.274	113.37
378.737	110.17
379.199	123.67
379.662	116.17
380.125	119.37
380.587	115.37
381.05	115.97
381.512	120.57
381.975	132.47
382.437	130.57
382.9	129.27
383.362	131.57
383.825	144.57
384.287	141.87
384.75	136.77
385.212	129.87
385.674	145.17
386.136	140.37
386.599	126.07
387.061	132.67
387.523	130.77
387.985	135.07
388.447	146.07
388.91	129.27
389.372	138.57
389.834	141.67
390.296	137.77
390.758	139.47
391.22	142.17
391.682	159.27
392.144	173.77
392.606	157.97
393.068	149.47
393.529	160.17
393.991	146.47
394.453	145.97
394.915	149.27
395.377	148.47
395.838	152.97
396.3	147.97
396.762	144.87
397.224	142.17
397.685	143.97
398.147	143.27
398.608	143.67
399.07	141.27
399.531	145.27
399.993	160.57
400.454	168.87
400.916	161.87
401.377	160.37
401.839	162.17
402.3	156.77
402.762	179.47
403.223	189.17
403.684	175.17
404.145	172.27
404.607	174.77
405.068	181.17
405.529	179.67
405.99	191.77
406.451	187.57
406.913	186.47
407.374	177.87
407.835	172.77
408.296	180.67
408.757	188.17
409.218	196.97
409.679	194.57
410.14	189.07
410.601	186.77
411.062	188.77
411.522	190.57
411.983	195.77
412.444	186.57
412.905	195.77
413.366	201.97
413.826	212.27
414.287	236.77
414.748	289.57
415.208	274.97
415.669	230.37
416.13	225.67
416.59	220.57
417.051	236.47
417.511	243.97
417.972	262.27
418.432	277.27
418.893	324.07
419.353	279.97
419.814	215.37
420.274	204.47
420.734	196.87
421.195	218.27
421.655	208.37
422.115	209.97
422.576	211.27
423.036	216.27
423.496	224.37
423.956	235.17
424.416	257.47
424.876	291.27
425.336	283.27
425.797	284.07
426.257	273.27
426.717	263.87
427.177	257.77
427.637	247.07
428.097	259.27
428.556	263.07
429.016	289.17
429.476	278.97
429.936	287.87
430.396	299.47
430.856	301.77
431.315	328.17
431.775	368.07
432.235	401.37
432.694	373.57
433.154	387.07
433.614	416.37
434.073	355.87
434.533	304.77
434.993	290.87
435.452	300.47
435.912	314.37
436.371	304.87
436.83	302.87
437.29	285.67
437.749	276.47
438.209	269.57
438.668	299.47
439.127	312.77
439.587	284.57
440.046	270.47
440.505	287.37
440.964	307.17
441.424	352.27
441.883	337.57
442.342	281.07
442.801	254.87
443.26	247.17
443.719	246.37
444.178	246.27
444.637	233.77
445.096	242.87
445.555	247.07
446.014	250.67
446.473	250.37
446.932	260.37
447.391	252.67
447.849	248.77
448.308	242.97
448.767	252.27
449.226	260.97
449.685	256.97
450.143	284.27
450.602	268.77
451.061	256.67
451.519	260.27
451.978	257.27
452.436	255.67
452.895	264.07
453.353	281.47
453.812	270.37
454.27	263.47
454.729	261.07
455.187	269.97
455.646	271.97
456.104	275.77
456.562	287.57
457.021	292.47
457.479	285.97
457.937	306.67
458.395	292.97
458.854	273.67
459.312	286.77
459.77	301.97
460.228	286.47
460.686	276.07
461.144	277.07
461.602	274.87
462.06	279.27
462.518	282.27
462.976	275.37
463.434	285.27
463.892	293.27
464.35	303.47
464.808	315.97
465.266	297.57
465.724	300.87
466.181	301.97
466.639	299.07
467.097	327.27
467.555	338.57
468.012	322.77
468.47	345.87
468.928	356.57
469.385	367.27
469.843	384.17
470.3	377.17
470.758	395.17
471.215	417.97
471.673	444.07
472.13	449.67
472.588	456.67
473.045	416.27
473.503	415.07
473.96	438.97
474.417	450.87
474.875	472.17
475.332	517.87
475.789	507.77
476.246	516.17
476.704	526.47
477.161	554.17
477.618	569.47
478.075	613.07
478.532	664.07
478.989	748.17
479.446	843.07
479.903	824.27
480.36	851.17
480.817	903.37
481.274	997.47
481.731	1102.77
482.188	1174.97
482.645	1303.67
483.102	1389.17
483.558	1526.17
484.015	1572.97
484.472	1542.17
484.929	1482.57
485.385	1450.67
485.842	1420.97
486.299	1372.27
486.755	1331.47
487.212	1131.17
487.668	969.37
488.125	898.87
488.582	822.07
489.038	802.07
489.494	760.47
489.951	735.27
490.407	722.47
490.864	699.37
491.32	695.17
491.776	703.17
492.233	700.77
492.689	661.97
493.145	659.57
493.602	649.07
494.058	664.57
494.514	672.67
494.97	692.57
495.426	707.77
495.882	675.57
496.338	664.57
496.794	681.47
497.251	668.17
497.707	682.37
498.163	688.77
498.618	696.27
499.074	702.67
499.53	723.07
499.986	732.47
500.442	705.57
500.898	676.27
501.354	671.17
501.809	673.47
502.265	673.47
502.721	688.27
503.177	699.57
503.632	693.27
504.088	708.47
504.543	726.87
504.999	752.87
505.455	713.77
505.91	696.87
506.366	700.57
506.821	680.87
507.277	674.17
507.732	692.87
508.187	685.67
508.643	692.37
509.098	701.67
509.553	720.67
510.009	731.97
510.464	736.17
510.919	748.77
511.375	755.47
511.83	779.57
512.285	793.97
512.74	829.87
513.195	853.07
513.65	836.37
514.105	840.07
514.56	839.27
515.015	863.67
515.47	879.67
515.925	852.27
516.38	849.97
516.835	864.57
517.29	860.77
517.745	843.87
518.2	832.07
518.655	824.47
519.109	805.57
519.564	807.47
520.019	799.67
520.474	786.17
520.928	796.87
521.383	785.17
521.838	779.37
522.292	776.97
522.747	774.37
523.201	766.97
523.656	762.07
524.11	759.87
524.565	760.67
525.019	750.57
525.474	766.67
525.928	762.57
526.382	753.37
526.837	755.77
527.291	764.57
527.745	752.57
528.2	762.57
528.654	747.77
529.108	749.87
529.562	748.37
530.016	737.47
530.47	748.77
530.925	748.97
531.379	747.57
531.833	753.57
532.287	754.57
532.741	764.67
533.195	770.07
533.649	772.67
534.103	776.97
534.556	761.87
535.01	767.47
535.464	773.57
535.918	775.77
536.372	763.57
536.826	781.87
537.279	769.97
537.733	780.27
538.187	773.47
538.64	773.07
539.094	777.07
539.548	792.47
540.001	774.97
540.455	783.37
540.908	790.57
541.362	803.27
541.815	801.57
542.269	815.77
542.722	821.57
543.175	833.27
543.629	844.27
544.082	866.77
544.536	849.57
544.989	846.17
545.442	858.87
545.895	853.57
546.349	861.27
546.802	870.17
547.255	856.47
547.708	874.37
548.161	881.07
548.614	890.07
549.067	890.87
549.52	889.07
549.973	888.17
550.426	881.77
550.879	855.87
551.332	876.57
551.785	884.47
552.238	877.17
552.691	886.67
553.144	899.67
553.596	913.47
554.049	935.87
554.502	969.67
554.955	988.77
555.407	985.27
555.86	970.27
556.313	970.47
556.765	955.77
557.218	957.97
557.67	952.47
558.123	945.37
558.576	947.07
559.028	955.67
559.48	957.57
559.933	942.27
560.385	918.17
560.838	878.67
561.29	853.37
561.742	848.07
562.195	846.37
562.647	835.77
563.099	836.47
563.551	840.97
564.004	846.77
564.456	841.27
564.908	815.07
565.36	797.67
565.812	791.77
566.264	770.27
566.716	781.37
567.168	770.17
567.62	763.47
568.072	758.57
568.524	748.37
568.976	750.97
569.428	729.17
569.88	725.77
570.332	739.47
570.784	735.97
571.235	741.17
571.687	756.67
572.139	758.17
572.59	772.37
573.042	765.67
573.494	769.07
573.945	759.47
574.397	745.37
574.849	736.77
575.3	744.17
575.752	746.97
576.203	740.67
576.655	740.77
577.106	722.97
577.557	722.07
578.009	722.87
578.46	719.17
578.912	717.97
579.363	726.37
579.814	722.67
580.265	707.77
580.717	726.27
581.168	727.97
581.619	728.77
582.07	729.97
582.521	721.97
582.972	719.97
583.423	724.07
583.875	737.57
584.326	741.77
584.777	753.57
585.227	775.67
585.678	793.17
586.129	814.07
586.58	835.77
587.031	864.17
587.482	887.97
587.933	940.27
588.384	908.37
588.834	862.07
589.285	833.07
589.736	824.97
590.186	829.57
590.637	820.47
591.088	799.97
591.538	790.37
591.989	778.67
592.439	769.07
592.89	762.07
593.34	753.57
593.791	755.47
594.241	743.07
594.692	750.17
595.142	745.77
595.593	744.17
596.043	760.57
596.493	757.37
596.943	761.87
597.394	770.67
597.844	766.47
598.294	775.97
598.744	811.07
599.195	834.47
599.645	875.67
600.095	921.47
600.545	982.37
600.995	1033.97
601.445	1092.27
601.895	1156.27
602.345	1207.77
602.795	1188.87
603.245	1148.87
603.695	1078.77
604.145	1018.87
604.594	975.27
605.044	917.07
605.494	863.87
605.944	807.57
606.393	799.07
606.843	769.67
607.293	786.17
607.743	782.47
608.192	791.67
608.642	800.17
609.091	802.77
609.541	803.17
609.99	808.07
610.44	812.27
610.889	755.87
611.339	744.77
611.788	723.07
612.238	725.07
612.687	744.57
613.136	734.87
613.586	751.57
614.035	735.97
614.484	749.27
614.933	754.47
615.383	757.07
615.832	756.27
616.281	744.97
616.73	717.87
617.179	696.07
617.628	684.87
618.077	673.87
618.526	658.17
618.975	663.57
619.424	652.17
619.873	647.07
620.322	656.37
620.771	643.47
621.22	645.07
621.669	627.87
622.118	621.97
622.567	619.57
623.015	610.07
623.464	606.67
623.913	602.87
624.361	587.37
624.81	589.77
625.259	581.57
625.707	584.47
626.156	594.57
626.604	607.97
627.053	600.87
627.501	601.47
627.95	602.07
628.398	618.37
628.847	604.17
629.295	611.57
629.744	612.57
630.192	611.57
630.64	601.27
631.089	583.67
631.537	570.77
631.985	565.87
632.433	566.47
632.881	549.67
633.33	561.87
633.778	564.27
634.226	550.87
634.674	572.97
635.122	568.57
635.57	591.27
636.018	596.17
636.466	589.37
636.914	594.87
637.362	603.37
637.81	610.07
638.258	624.97
638.705	623.17
639.153	652.67
639.601	651.67
640.049	678.97
640.497	713.27
640.944	726.87
641.392	684.47
641.84	649.27
642.287	619.17
642.735	597.77
643.182	600.07
643.63	591.37
644.078	589.47
644.525	611.17
644.973	619.47
645.42	611.77
645.867	649.47
646.315	665.37
646.762	691.37
647.21	718.27
647.657	741.77
648.104	785.27
648.551	786.97
648.999	854.67
649.446	921.87
649.893	1019.87
650.34	1163.97
650.787	1391.27
651.234	1706.47
651.682	2181.47
652.129	2951.97
652.576	4173.27
653.023	6103.57
653.47	8248.67
653.917	10263.67
654.363	11837.97
654.81	13082.77
655.257	12353.57
655.704	8214.87
656.151	4985.97
656.598	3261.17
657.044	2357.67
657.491	1828.77
657.938	1478.57
658.385	1227.37
658.831	1082.57
659.278	969.67
659.724	866.87
660.171	803.47
660.618	734.97
661.064	710.57
661.511	682.37
661.957	671.97
662.404	675.57
662.85	671.47
663.296	653.87
663.743	590.77
664.189	566.67
664.635	559.47
665.082	550.47
665.528	550.17
665.974	546.67
666.42	542.77
666.867	529.87
667.313	514.27
667.759	493.17
668.205	481.67
668.651	473.17
669.097	465.17
669.543	465.87
669.989	467.97
670.435	478.57
670.881	461.17
671.327	476.77
671.773	495.47
672.219	526.07
672.665	581.37
673.11	624.77
673.556	661.97
674.002	714.07
674.448	697.07
674.893	586.77
675.339	512.27
675.785	469.27
676.23	444.97
676.676	413.47
677.122	407.77
677.567	400.57
678.013	393.97
678.458	390.17
678.904	379.97
679.349	379.37
679.794	376.47
680.24	373.87
680.685	370.57
681.131	377.87
681.576	375.37
682.021	376.47
682.466	372.57
682.912	368.57
683.357	372.67
683.802	406.77
684.247	435.67
684.692	485.27
685.137	519.17
685.583	570.07
686.028	593.37
686.473	542.87
686.918	475.07
687.363	436.37
687.807	406.87
688.252	391.87
688.697	370.37
689.142	358.87
689.587	351.87
690.032	345.77
690.477	362.27
690.921	379.97
691.366	404.27
691.811	423.67
692.255	462.87
692.7	478.47
693.145	532.37
693.589	737.67
694.034	1198.77
694.478	1650.17
694.923	1835.77
695.367	2412.87
695.812	1280.87
696.256	523.27
696.701	394.37
697.145	364.87
697.59	347.07
698.034	338.67
698.478	349.07
698.922	338.67
699.367	341.77
699.811	361.67
700.255	365.37
700.699	401.97
701.143	449.37
701.588	498.47
702.032	534.67
702.476	543.07
702.92	522.37
703.364	521.07
703.808	670.47
704.252	1094.97
704.696	1554.37
705.14	1783.67
705.584	2249.47
706.027	1140.87
706.471	564.07
706.915	428.37
707.359	374.87
707.803	343.67
708.246	328.17
708.69	329.07
709.134	332.27
709.577	325.57
710.021	337.17
710.465	327.77
710.908	322.37
711.352	309.97
711.795	330.37
712.239	368.37
712.682	407.97
713.126	434.57
713.569	482.67
714.012	372.37
714.456	320.27
714.899	309.57
715.342	283.57
715.786	276.97
716.229	278.17
716.672	271.17
717.115	257.57
717.558	268.27
718.002	266.87
718.445	270.87
718.888	302.67
719.331	308.77
719.774	324.27
720.217	317.27
720.66	300.17
721.103	277.97
721.546	276.37
721.989	265.07
722.432	244.47
722.874	256.87
723.317	244.97
723.76	247.97
724.203	267.97
724.645	328.17
725.088	467.37
725.531	597.17
725.974	684.47
726.416	583.37
726.859	333.17
727.301	257.47
727.744	252.27
728.187	244.57
728.629	257.97
729.071	263.37
729.514	274.87
729.956	287.87
730.399	301.57
730.841	300.77
731.283	291.47
731.726	285.07
732.168	282.07
732.61	280.07
733.053	306.37
733.495	339.87
733.937	377.47
734.379	426.27
734.821	462.67
735.263	576.97
735.705	884.87
736.148	1683.17
736.59	2750.87
737.032	3251.27
737.474	2643.77
737.916	855.87
738.357	459.37
738.799	351.17
739.241	315.17
739.683	309.27
740.125	308.07
740.567	312.07
741.008	337.77
741.45	343.87
741.892	345.47
742.334	371.47
742.775	383.87
743.217	373.57
743.658	287.17
744.1	270.97
744.542	279.67
744.983	340.77
745.425	369.17
745.866	372.17
746.307	291.67
746.749	300.37
747.19	339.17
747.632	484.17
748.073	931.27
748.514	1975.77
748.956	3033.77
749.397	3823.87
749.838	3166.37
750.279	3149.57
750.72	1590.77
751.162	585.17
751.603	341.67
752.044	271.87
752.485	232.57
752.926	228.17
753.367	220.37
753.808	202.97
754.249	202.17
754.69	201.87
755.131	197.67
755.572	190.77
756.013	187.27
756.453	198.47
756.894	195.27
757.335	200.77
757.776	206.27
758.216	207.77
758.657	210.27
759.098	216.47
759.538	236.67
759.979	282.67
760.42	404.07
760.86	755.87
761.301	1937.87
761.741	4717.17
762.182	6828.07
762.622	4828.97
763.063	1394.27
763.503	566.87
763.943	346.07
764.384	294.77
764.824	275.17
765.264	266.17
765.705	222.07
766.145	195.17
766.585	193.87
767.025	186.37
767.465	171.17
767.906	191.97
768.346	213.97
768.786	226.87
769.226	235.27
769.666	335.97
770.106	653.57
770.546	1655.47
770.986	2808.77
771.426	2520.07
771.866	839.17
772.306	346.07
772.745	218.47
773.185	175.27
773.625	167.27
774.065	163.37
774.505	174.97
774.944	214.47
775.384	380.37
775.824	634.07
776.263	621.47
776.703	304.67
777.142	166.37
777.582	135.77
778.021	128.77
778.461	133.57
778.9	131.07
779.34	134.57
779.779	119.17
780.219	111.67
780.658	109.57
781.097	113.97
781.537	120.97
781.976	115.47
782.415	110.27
782.855	108.37
783.294	112.17
783.733	103.47
784.172	112.87
784.611	112.07
785.05	119.37
785.489	114.27
785.928	129.17
786.367	130.37
786.806	128.37
787.245	133.67
787.684	142.67
788.123	156.27
788.562	145.57
789.001	132.37
789.44	124.57
789.879	123.17
790.317	125.97
790.756	131.17
791.195	138.57
791.634	157.97
792.072	209.77
792.511	383.37
792.95	1060.97
793.388	2249.97
793.827	2028.17
794.265	702.27
794.704	292.87
795.142	195.57
795.581	160.37
796.019	145.47
796.458	131.37
796.896	134.77
797.334	139.87
797.773	161.77
798.211	230.47
798.649	457.07
799.087	1062.77
799.526	1699.37
799.964	2142.87
800.402	2133.27
800.84	806.57
801.278	318.17
801.716	201.27
802.154	159.37
802.592	153.37
803.03	155.17
803.468	141.97
803.906	149.67
804.344	154.47
804.782	146.67
805.22	144.37
805.658	135.97
806.096	163.67
806.533	166.37
806.971	186.77
807.409	235.87
807.847	336.97
808.284	706.17
808.722	1989.47
809.16	3486.87
809.597	3336.77
810.035	5764.37
810.472	6121.87
810.91	2237.87
811.347	848.97
811.785	431.47
812.222	270.97
812.66	211.77
813.097	174.27
813.535	150.27
813.972	140.57
814.409	119.57
814.846	115.37
815.284	116.47
815.721	107.17
816.158	112.67
816.595	116.77
817.032	160.27
817.47	194.77
817.907	147.77
818.344	108.87
818.781	104.57
819.218	100.97
819.655	134.77
820.092	206.77
820.529	235.37
820.966	181.67
821.403	139.17
821.839	108.87
822.276	105.17
822.713	135.87
823.15	136.97
823.587	124.57
824.023	157.47
824.46	323.67
824.897	949.37
825.333	1441.87
825.77	625.37
826.206	246.17
826.643	148.97
827.08	106.97
827.516	93.47
827.953	80.17
828.389	83.17
828.825	79.57
829.262	78.17
829.698	69.07
830.135	69.77
830.571	76.17
831.007	76.37
831.443	69.17
831.88	63.47
832.316	67.97
832.752	69.27
833.188	72.17
833.624	72.57
834.06	67.47
834.497	74.77
834.933	72.07
835.369	74.87
835.805	69.67
836.241	82.57
836.677	87.77
837.112	98.67
837.548	107.27
837.984	135.77
838.42	210.27
838.856	524.37
839.292	1603.77
839.727	2422.57
840.163	1146.57
840.599	983.47
841.034	2152.67
841.47	2243.47
841.906	822.67
842.341	357.27
842.777	212.37
843.212	213.97
843.648	193.87
844.083	114.37
844.519	91.27
844.954	81.97
845.39	61.57
845.825	61.27
846.261	57.67
846.696	57.87
847.131	55.27
847.566	59.17
848.002	59.37
848.437	63.37
848.872	71.67
849.307	62.27
849.742	87.77
850.177	196.17
850.613	590.07
851.048	932.67
851.483	405.17
851.918	168.37
852.353	90.57
852.788	59.67
853.223	49.37
853.657	56.97
854.092	53.87
854.527	46.87
854.962	47.57
855.397	47.77
855.832	52.17
856.266	47.17
856.701	46.87
857.136	42.07
857.57	45.77
858.005	56.87
858.44	68.97
858.874	46.67
859.309	50.77
859.743	48.57
860.178	46.97
860.612	43.57
861.047	58.07
861.481	79.27
861.915	83.37
862.35	53.87
862.784	34.17
863.218	42.87
863.653	36.47
864.087	53.87
864.521	58.47
864.955	72.17
865.39	163.87
865.824	191.37
866.258	125.37
866.692	185.47
867.126	200.17
867.56	115.17
867.994	63.07
868.428	40.47
868.862	55.57
869.296	62.67
869.73	58.87
870.164	55.57
870.598	52.77
871.031	43.37
871.465	32.67
871.899	33.27
872.333	28.47
872.766	33.07
873.2	22.87
873.634	27.27
874.067	32.37
874.501	27.27
874.935	35.67
875.368	32.37
875.802	28.27
876.235	22.07
876.669	26.77
877.102	20.77
877.535	24.57
877.969	23.97
878.402	27.37
878.836	21.77
879.269	22.27
879.702	24.97
880.135	20.17
880.569	19.07
881.002	30.47
881.435	24.57
881.868	14.87
882.301	20.87
882.734	18.47
883.167	25.57
883.601	17.77
884.034	23.77
884.467	16.37
884.899	22.77
885.332	20.57
885.765	15.77
886.198	20.87
886.631	22.27
887.064	18.77
887.497	18.27
887.929	28.17
888.362	21.27
888.795	15.87
889.228	20.67
889.66	22.07
890.093	14.37
890.526	11.47
890.958	13.37
891.391	18.27
891.823	22.47
892.256	15.87
892.688	10.47
893.121	15.77
893.553	16.07
893.985	23.77
894.418	22.47
894.85	10.97
895.282	16.07
895.715	10.67
896.147	17.67
896.579	16.97
897.011	14.07
897.444	19.47
897.876	16.07
898.308	21.87
898.74	14.47
899.172	14.97
899.604	27.07
900.036	19.67
900.468	16.17
900.9	21.97
901.332	24.17
901.764	16.57
902.196	21.27
902.628	18.07
903.06	13.97
903.491	27.97
903.923	25.37
904.355	27.47
904.787	27.07
905.218	18.57
905.65	17.77
906.082	12.87
906.513	15.47
906.945	11.77
907.376	14.47
907.808	20.57
908.239	22.87
908.671	17.47
909.102	19.27
909.534	27.07
909.965	53.87
910.397	96.77
910.828	332.07
911.259	494.67
911.691	234.07
912.122	114.47
912.553	57.67
912.984	39.17
913.415	31.67
913.847	27.07
914.278	14.77
914.709	16.17
915.14	21.47
915.571	17.17
916.002	15.57
916.433	17.67
916.864	18.57
917.295	17.07
917.726	22.17
918.157	16.07
918.587	24.67
919.018	25.47
919.449	25.17
919.88	27.57
920.311	37.37
920.741	54.87
921.172	174.87
921.603	155.57
922.033	73.67
922.464	48.67
922.895	23.27
923.325	22.27
923.756	13.67
924.186	11.87
924.617	18.57
925.047	23.57
925.478	29.27
925.908	23.87
926.338	10.67
926.769	13.07
927.199	23.67
927.629	8.77
928.06	13.97
928.49	17.37
928.92	16.37
929.35	12.27
929.78	9.47
930.21	3.87
930.641	6.97
931.071	6.67
931.501	9.97
931.931	8.67
932.361	10.77
932.791	3.27
933.221	6.47
933.651	9.67
934.08	12.77
934.51	30.17
934.94	3.87
935.37	8.97
935.8	11.57
936.229	8.37
936.659	11.77
937.089	5.57
937.519	15.17
937.948	27.47
938.378	16.77
938.807	8.27
939.237	3.67
939.666	10.17
940.096	-4.73
940.525	0.87
940.955	8.57
941.384	0.27
941.814	-5.73
942.243	0.87
942.672	2.57
943.102	0.17
943.531	6.77
943.96	-0.13
944.39	5.07
944.819	-2.83
945.248	1.57
945.677	2.77
946.106	5.87
946.535	0.87
946.964	-2.13
947.393	7.67
947.822	0.77
948.251	-8.83
948.68	1.47
949.109	5.87
949.538	4.97
949.967	-0.13
950.396	6.77
950.825	1.27
951.254	1.37
951.682	-7.03
952.111	6.87
952.54	11.27
952.969	0.37
953.397	-8.03
953.826	3.37
954.254	-7.33
954.683	1.47
955.112	-5.43
955.54	4.97
955.969	4.57
956.397	4.37
956.826	-0.03
957.254	2.97
957.682	-3.93
958.111	0.47
958.539	-1.03
958.967	2.57
959.396	0.67
959.824	1.57
960.252	-0.93
960.68	0.57
961.109	-0.33
961.537	0.07
961.965	0.87
962.393	3.77
962.821	7.07
963.249	4.87
963.677	3.37
964.105	6.17
964.533	53.27
964.961	43.97
965.389	26.07
965.817	11.27
966.245	6.57
966.672	0.17
967.1	-10.83
967.528	-0.63
967.956	3.67
968.383	1.07
968.811	1.07
969.239	-4.63
969.666	-10.33
970.094	-1.83
970.522	2.77
970.949	-2.03
971.377	-3.43
971.804	-2.63
972.232	-3.43
972.659	2.57
973.087	-1.73
973.514	0.17
973.941	-5.23
974.369	2.97
974.796	1.57
975.223	3.57
975.651	-4.23
976.078	4.47
976.505	0.97
976.932	5.37
977.359	19.97
977.786	15.77
978.214	1.57
978.641	-3.43
979.068	-2.53
979.495	-5.53
979.922	3.37
980.349	-3.53
980.776	4.87
981.202	1.27
981.629	3.67
982.056	-0.13
982.483	-1.33
982.91	4.47
983.337	-3.83
983.763	8.37
984.19	-8.33
984.617	-1.13
985.043	-1.23
985.47	-5.63
985.897	-1.43
986.323	-11.63
986.75	-2.13
987.176	1.47
987.603	-1.33
988.029	0.77
988.456	1.57
988.882	0.27
989.308	-4.73
989.735	-3.23
990.161	1.37
990.587	-9.63
991.014	1.27
991.44	0.27
991.866	-4.43
992.292	-2.63
992.719	-0.63
993.145	7.67
993.571	-5.63
993.997	-4.13
994.423	-1.43
994.849	-3.03
995.275	4.27
995.701	-1.23
996.127	-8.03
996.553	3.77
996.979	-2.73
997.405	-1.53
997.83	1.87
998.256	-3.13
998.682	-6.03
999.108	-3.73
999.534	2.17
999.959	-1.33
1000.385	-4.23
1000.811	-1.43
1001.236	-3.93
1001.662	-12.63
1002.087	-9.73
1002.513	0.47
1002.938	0.27
1003.364	0.07
1003.789	-2.03
1004.215	-1.03
1004.64	-0.43
1005.066	5.77
1005.491	0.97
1005.916	1.37
1006.342	-3.83
1006.767	-6.93
1007.192	5.17
1007.617	-7.73
1008.042	-4.33
1008.468	-3.73
1008.893	-7.53
1009.318	-5.63
1009.743	-7.03
1010.168	0.97
1010.593	3.67
1011.018	-11.43
1011.443	-1.63
1011.868	5.67
1012.293	-5.33
1012.718	-2.93
1013.143	6.47
1013.567	1.87
1013.992	1.77
1014.417	-12.43
1014.842	2.47
1015.267	-4.53
1015.691	-5.33
1016.116	4.27
1016.541	-0.83
1016.965	-1.53
1017.39	-2.33
1017.814	0.87
1018.239	2.47
1018.663	-9.83
1019.088	-6.43
1019.512	-0.63
1019.937	-2.83
1020.361	-8.03
1020.785	-6.83
1021.21	-2.03
1021.634	-9.63
1022.058	-2.63
1022.483	-1.53
1022.907	-3.63
1023.331	0.07
1023.755	0.17
1024.179	-3.43
1024.604	-7.43
1025.028	-7.23
1025.452	0.67
1025.876	-5.53
1026.3	3.37
1026.724	-6.93
1027.148	-2.53
1027.572	-10.73
1027.996	-4.23
1028.42	-2.73
1028.843	-3.03
1029.267	-5.73
1029.691	-0.53
1030.115	-7.93
1030.539	-10.93
1030.962	-4.63
1031.386	-6.93
1031.81	2.77
1032.233	0.17
1032.657	-4.23
1033.08	0.77
1033.504	-3.93
1033.927	-6.03
1034.351	0.47
1034.774	-7.43
1035.198	5.37
1035.621	-9.33
1036.045	-8.13
1036.468	0.67
1036.891	-11.03
1037.315	-9.33
1037.738	-11.23
1038.161	3.67
1038.584	-5.23
1039.008	-2.13
1039.431	0.57
1039.854	-1.33
1040.277	-3.13
1040.7	-8.23
1041.123	-2.03
1041.546	-12.73
1041.969	-6.93
1042.392	-5.53
1042.815	-0.03
1043.238	-1.63
1043.661	0.37
1044.084	-6.43
1044.507	-3.83
1044.93	-6.13
1045.352	-8.73
1045.775	-3.23
1046.198	2.97
1046.621	-3.33
1047.043	-2.73
1047.466	5.37
1047.889	-6.83
1048.311	-4.93
1048.734	-0.73
1049.156	-6.23
1049.579	-3.23
1050.001	-4.23
1050.424	-0.33
1050.846	-2.53
1051.269	-4.13
1051.691	-1.83
1052.113	-10.23
1052.536	-0.73
1052.958	-3.03
1053.38	-1.83
1053.802	-13.03
1054.225	0.07
1054.647	-12.03
1055.069	-5.63
1055.491	2.27
1055.913	-10.23
1056.335	-4.03
1056.757	-3.53
1057.179	-10.03
1057.601	-2.73
1058.023	-8.03
1058.445	-3.93
1058.867	-4.13
1059.289	-5.83
1059.711	-0.03
1060.133	-5.63
1060.555	-6.43
1060.976	-7.43
1061.398	-4.13
1061.82	-1.23
1062.241	-5.23
1062.663	-11.83
1063.085	-4.43
1063.506	-4.23
1063.928	-2.83
1064.35	-0.73
1064.771	-13.73
1065.193	-6.13
1065.614	-4.13
1066.035	-2.23
1066.457	-3.33
1066.878	7.27
1067.3	-6.93
1067.721	-4.63
1068.142	-4.13
1068.564	-3.83
1068.985	-6.33
1069.406	-5.03
1069.827	-6.43
1070.248	0.97
1070.67	-5.33
1071.091	-8.53
1071.512	-1.03
1071.933	-4.33
1072.354	-12.53
1072.775	-8.53
1073.196	-7.93
1073.617	-2.63
1074.038	-9.33
1074.459	-2.13
1074.88	-8.43
1075.3	0.87
1075.721	-6.23
1076.142	-3.13
1076.563	-1.63
1076.983	-9.53
1077.404	-6.53
1077.825	-7.33
1078.246	-4.33
1078.666	-10.43
1079.087	-2.03
1079.507	-8.53
1079.928	2.27
1080.348	-2.43
1080.769	-4.03
1081.189	-1.33
1081.61	-4.53
1082.03	-6.63
1082.451	-11.03
1082.871	-3.63
1083.291	-5.13
1083.711	-6.93
1084.132	-7.73
1084.552	-2.73
1084.972	-0.53
1085.392	-8.53
1085.813	-9.93
1086.233	-9.83
1086.653	-6.63
1087.073	-0.73
1087.493	-7.83
1087.913	-8.13
1088.333	-2.83
1088.753	1.87
1089.173	2.17
1089.593	-3.23
1090.013	2.37
1090.433	-1.73
1090.852	-3.43
1091.272	-0.53
1091.692	-0.23
1092.112	-5.43
1092.531	-9.23
1092.951	-8.23
1093.371	-0.73
1093.79	5.47
1094.21	-6.63
1094.63	-10.23
1095.049	-6.13
1095.469	-2.53
1095.888	-1.53
1096.308	-0.03
1096.727	4.07
1097.146	-3.13
1097.566	-2.63
1097.985	-5.73
1098.405	-6.33
1098.824	1.17
1099.243	-8.23
1099.662	-10.13
1100.082	-2.33
1100.501	-2.63
1100.92	-3.33
1101.339	0.37
1101.758	-4.23
