Data from 20171114-ORNL-Ar_H_NY_Subt18_08-05-46-885.txt Node
Date: Tue Nov 14 08:05:46 EST 2017
User: Ender
Spectrometer: HR+D1039
Trigger mode: 0
Integration Time (sec): 2.730000E-2
Scans to average: 10
Electric dark correction enabled: true
Nonlinearity correction enabled: false
Boxcar width: 0
XAxis mode: Wavelengths
Number of Pixels in Spectrum: 2048
>>>>>Begin Spectral Data<<<<<
187.836	-4.98
188.309	-4.98
188.782	-4.98
189.255	-2.08
189.728	-3.48
190.201	7.32
190.674	4.22
191.147	2.92
191.619	-8.38
192.092	2.82
192.565	2.72
193.038	0.82
193.511	1.82
193.984	-3.58
194.456	0.02
194.929	2.42
195.402	-0.88
195.874	-1.78
196.347	2.42
196.82	-7.78
197.292	-1.08
197.765	-4.98
198.237	-1.68
198.71	-2.38
199.182	-3.08
199.655	-1.48
200.127	3.12
200.6	-4.08
201.072	-5.98
201.544	-0.28
202.017	1.32
202.489	-0.78
202.961	5.52
203.433	-0.98
203.906	-1.48
204.378	-6.28
204.85	-7.08
205.322	-8.38
205.794	0.72
206.266	0.62
206.739	-4.28
207.211	-1.88
207.683	-5.28
208.155	-10.58
208.627	-4.48
209.099	-4.08
209.57	-6.88
210.042	-7.08
210.514	-7.38
210.986	2.62
211.458	-5.28
211.93	-1.78
212.402	4.62
212.873	-7.08
213.345	-6.28
213.817	-8.38
214.288	-8.98
214.76	-10.88
215.232	1.42
215.703	-0.68
216.175	-1.38
216.646	-7.38
217.118	-3.88
217.589	-4.88
218.061	-3.98
218.532	-7.48
219.004	-4.48
219.475	-2.58
219.946	-0.18
220.418	-7.78
220.889	2.32
221.36	2.62
221.832	-3.58
222.303	-10.58
222.774	-0.28
223.245	-8.88
223.717	-5.68
224.188	-5.68
224.659	-6.48
225.13	-5.88
225.601	-9.38
226.072	-6.08
226.543	-2.48
227.014	-0.18
227.485	1.02
227.956	-10.98
228.427	-5.18
228.898	-2.78
229.369	4.12
229.839	-2.28
230.31	-6.28
230.781	4.02
231.252	-4.98
231.722	-3.68
232.193	-3.68
232.664	-3.48
233.135	-4.28
233.605	1.82
234.076	-5.08
234.546	3.72
235.017	1.62
235.487	5.02
235.958	3.42
236.428	0.02
236.899	7.52
237.369	3.62
237.84	-0.48
238.31	4.82
238.78	6.82
239.251	5.42
239.721	7.02
240.191	3.82
240.662	0.02
241.132	1.22
241.602	4.12
242.072	-0.98
242.542	3.72
243.013	-1.08
243.483	5.92
243.953	4.72
244.423	-0.98
244.893	-3.68
245.363	1.52
245.833	0.82
246.303	2.92
246.773	4.12
247.243	2.82
247.712	9.92
248.182	4.52
248.652	9.02
249.122	-3.18
249.592	10.22
250.061	19.42
250.531	34.32
251.001	19.82
251.471	21.82
251.94	22.12
252.41	5.02
252.879	3.92
253.349	13.02
253.818	8.02
254.288	6.12
254.757	5.72
255.227	2.12
255.696	3.32
256.166	10.82
256.635	9.42
257.105	6.72
257.574	7.32
258.043	13.22
258.513	10.82
258.982	16.52
259.451	10.42
259.92	15.62
260.389	15.12
260.859	19.62
261.328	9.52
261.797	23.72
262.266	2.82
262.735	16.82
263.204	8.72
263.673	-2.08
264.142	3.52
264.611	-1.28
265.08	3.82
265.549	3.12
266.018	6.82
266.487	0.02
266.955	-2.98
267.424	-1.88
267.893	10.82
268.362	4.92
268.83	6.32
269.299	9.82
269.768	7.72
270.236	11.12
270.705	8.72
271.174	3.72
271.642	8.32
272.111	13.02
272.579	15.42
273.048	26.22
273.516	23.22
273.985	26.82
274.453	23.62
274.922	16.72
275.39	13.12
275.858	5.42
276.327	13.82
276.795	17.92
277.263	11.92
277.731	26.82
278.2	55.52
278.668	64.02
279.136	53.02
279.604	27.12
280.072	25.92
280.54	15.02
281.008	9.02
281.477	16.22
281.945	13.32
282.413	16.22
282.881	12.72
283.348	6.22
283.816	22.52
284.284	19.42
284.752	19.52
285.22	14.92
285.688	22.62
286.156	17.62
286.623	45.32
287.091	49.32
287.559	34.92
288.026	18.92
288.494	14.42
288.962	6.52
289.429	12.92
289.897	22.72
290.364	7.62
290.832	12.32
291.3	16.82
291.767	22.02
292.234	20.52
292.702	10.52
293.169	18.62
293.637	24.72
294.104	18.92
294.571	11.22
295.039	15.62
295.506	14.02
295.973	21.12
296.44	13.82
296.908	17.42
297.375	15.72
297.842	18.22
298.309	20.12
298.776	18.52
299.243	24.02
299.71	12.42
300.177	27.82
300.644	19.92
301.111	22.82
301.578	23.32
302.045	19.22
302.512	24.12
302.979	25.42
303.446	23.02
303.913	17.32
304.379	15.42
304.846	25.82
305.313	25.72
305.78	20.42
306.246	23.12
306.713	25.62
307.18	24.42
307.646	31.02
308.113	28.72
308.579	30.22
309.046	25.22
309.512	27.62
309.979	24.92
310.445	31.42
310.912	30.52
311.378	37.52
311.845	30.42
312.311	31.82
312.777	36.52
313.244	37.02
313.71	36.82
314.176	28.52
314.642	30.82
315.109	38.12
315.575	35.72
316.041	35.22
316.507	36.22
316.973	39.82
317.439	36.92
317.905	40.52
318.371	37.62
318.837	33.52
319.303	31.92
319.769	36.42
320.235	31.02
320.701	38.52
321.167	37.72
321.633	31.52
322.099	42.32
322.564	53.92
323.03	43.62
323.496	40.62
323.962	43.72
324.427	35.92
324.893	47.92
325.359	45.52
325.824	38.12
326.29	43.02
326.755	40.12
327.221	44.82
327.686	43.12
328.152	48.72
328.617	41.02
329.083	46.32
329.548	53.72
330.014	49.02
330.479	36.32
330.944	41.42
331.41	43.82
331.875	41.22
332.34	43.32
332.805	45.92
333.271	52.42
333.736	51.22
334.201	53.72
334.666	56.42
335.131	50.92
335.596	52.72
336.061	52.72
336.526	41.22
336.991	52.62
337.456	56.52
337.921	50.42
338.386	43.72
338.851	42.02
339.316	44.82
339.781	55.72
340.246	50.02
340.711	48.02
341.175	57.32
341.64	49.92
342.105	52.42
342.569	57.42
343.034	62.12
343.499	53.72
343.963	49.42
344.428	64.42
344.893	65.52
345.357	65.42
345.822	63.82
346.286	70.82
346.751	77.22
347.215	75.32
347.679	75.42
348.144	100.12
348.608	87.32
349.073	70.72
349.537	73.12
350.001	80.12
350.465	94.62
350.93	82.22
351.394	80.52
351.858	70.42
352.322	93.72
352.786	87.62
353.25	96.42
353.715	109.02
354.179	100.32
354.643	126.22
355.107	130.32
355.571	106.32
356.035	99.82
356.498	121.62
356.962	131.62
357.426	130.52
357.89	116.02
358.354	93.62
358.818	84.32
359.281	80.92
359.745	78.62
360.209	72.42
360.673	83.92
361.136	78.32
361.6	87.12
362.064	87.22
362.527	89.62
362.991	90.22
363.454	79.22
363.918	76.62
364.381	78.72
364.845	78.32
365.308	75.02
365.772	85.72
366.235	92.82
366.698	85.52
367.162	91.72
367.625	86.32
368.088	88.42
368.552	85.82
369.015	90.32
369.478	93.32
369.941	99.52
370.404	95.12
370.867	101.82
371.331	109.92
371.794	110.52
372.257	117.12
372.72	114.02
373.183	106.82
373.646	105.42
374.109	105.82
374.572	106.72
375.035	110.52
375.497	114.42
375.96	109.22
376.423	102.42
376.886	112.92
377.349	108.82
377.811	101.72
378.274	104.22
378.737	104.62
379.199	111.72
379.662	114.82
380.125	119.92
380.587	125.22
381.05	118.02
381.512	134.92
381.975	139.72
382.437	134.22
382.9	127.12
383.362	139.32
383.825	143.52
384.287	147.62
384.75	147.52
385.212	137.62
385.674	144.32
386.136	143.32
386.599	123.32
387.061	131.12
387.523	130.92
387.985	136.02
388.447	143.62
388.91	146.92
389.372	152.92
389.834	156.22
390.296	150.02
390.758	154.32
391.22	166.42
391.682	219.92
392.144	304.12
392.606	234.62
393.068	167.02
393.529	170.42
393.991	153.62
394.453	148.62
394.915	152.92
395.377	190.42
395.838	213.22
396.3	157.92
396.762	143.12
397.224	134.42
397.685	133.72
398.147	134.92
398.608	129.42
399.07	133.62
399.531	135.22
399.993	141.42
400.454	151.22
400.916	148.82
401.377	144.02
401.839	154.32
402.3	153.22
402.762	161.42
403.223	179.02
403.684	170.02
404.145	169.02
404.607	159.52
405.068	171.52
405.529	168.22
405.99	196.42
406.451	175.82
406.913	179.62
407.374	167.82
407.835	165.02
408.296	170.32
408.757	173.32
409.218	188.12
409.679	180.92
410.14	174.42
410.601	176.32
411.062	180.72
411.522	191.72
411.983	187.62
412.444	182.72
412.905	177.52
413.366	181.92
413.826	193.52
414.287	214.62
414.748	256.02
415.208	245.32
415.669	214.92
416.13	211.72
416.59	205.52
417.051	212.92
417.511	218.52
417.972	238.02
418.432	245.32
418.893	288.92
419.353	249.62
419.814	201.72
420.274	184.52
420.734	183.92
421.195	198.32
421.655	198.73
422.115	188.82
422.576	193.72
423.036	195.22
423.496	198.72
423.956	213.92
424.416	225.72
424.876	260.12
425.336	264.42
425.797	256.52
426.257	256.32
426.717	234.32
427.177	230.32
427.637	224.72
428.097	233.62
428.556	253.22
429.016	275.82
429.476	258.42
429.936	276.42
430.396	285.92
430.856	291.62
431.315	315.72
431.775	350.62
432.235	378.62
432.694	355.02
433.154	361.92
433.614	393.32
434.073	340.32
434.533	284.42
434.993	270.62
435.452	285.62
435.912	292.02
436.371	284.82
436.83	288.23
437.29	270.42
437.749	253.42
438.209	250.82
438.668	271.92
439.127	285.12
439.587	262.12
440.046	246.22
440.505	257.52
440.964	279.02
441.424	328.42
441.883	311.02
442.342	260.42
442.801	220.12
443.26	215.42
443.719	220.92
444.178	213.62
444.637	205.42
445.096	218.62
445.555	216.32
446.014	223.02
446.473	226.92
446.932	232.02
447.391	222.02
447.849	227.12
448.308	216.52
448.767	225.52
449.226	234.32
449.685	231.82
450.143	247.42
450.602	237.52
451.061	227.52
451.519	236.92
451.978	232.52
452.436	229.92
452.895	239.23
453.353	244.92
453.812	242.52
454.27	234.22
454.729	231.92
455.187	237.52
455.646	242.62
456.104	245.92
456.562	258.62
457.021	276.02
457.479	260.72
457.937	277.12
458.395	262.72
458.854	248.62
459.312	261.32
459.77	272.82
460.228	262.02
460.686	237.42
461.144	249.52
461.602	245.72
462.06	238.12
462.518	249.72
462.976	261.72
463.434	255.32
463.892	265.42
464.35	274.72
464.808	288.02
465.266	258.82
465.724	276.62
466.181	273.52
466.639	270.12
467.097	295.22
467.555	300.42
468.012	301.32
468.47	313.52
468.928	327.82
469.385	345.23
469.843	350.12
470.3	352.82
470.758	354.42
471.215	391.02
471.673	411.02
472.13	408.72
472.588	420.82
473.045	373.52
473.503	374.82
473.96	397.12
474.417	405.72
474.875	430.02
475.332	474.82
475.789	463.42
476.246	474.52
476.704	493.62
477.161	516.82
477.618	525.02
478.075	557.52
478.532	620.32
478.989	697.52
479.446	811.62
479.903	769.52
480.36	804.92
480.817	871.72
481.274	963.43
481.731	1088.53
482.188	1166.82
482.645	1295.83
483.102	1415.53
483.558	1554.93
484.015	1613.72
484.472	1582.03
484.929	1524.43
485.385	1485.52
485.842	1437.42
486.299	1386.52
486.755	1296.02
487.212	1108.03
487.668	929.92
488.125	857.22
488.582	783.52
489.038	741.62
489.494	725.82
489.951	684.22
490.407	665.52
490.864	650.52
491.32	644.12
491.776	635.92
492.233	639.82
492.689	618.42
493.145	604.02
493.602	597.62
494.058	615.82
494.514	615.23
494.97	644.62
495.426	650.52
495.882	618.12
496.338	613.12
496.794	630.12
497.251	625.82
497.707	645.23
498.163	644.92
498.618	648.02
499.074	646.62
499.53	684.52
499.986	685.22
500.442	654.92
500.898	634.02
501.354	629.92
501.809	637.42
502.265	648.52
502.721	662.12
503.177	678.12
503.632	666.82
504.088	681.72
504.543	709.62
504.999	712.12
505.455	661.92
505.91	637.42
506.366	642.72
506.821	628.82
507.277	620.12
507.732	617.12
508.187	624.82
508.643	634.12
509.098	635.32
509.553	653.12
510.009	664.02
510.464	670.12
510.919	689.52
511.375	690.82
511.83	698.82
512.285	731.52
512.74	762.42
513.195	795.62
513.65	779.23
514.105	764.02
514.56	778.32
515.015	796.73
515.47	804.12
515.925	785.12
516.38	796.52
516.835	795.12
517.29	791.52
517.745	787.32
518.2	770.32
518.655	750.82
519.109	749.52
519.564	746.82
520.019	737.82
520.474	726.42
520.928	716.92
521.383	721.02
521.838	705.32
522.292	704.82
522.747	708.52
523.201	702.42
523.656	700.52
524.11	694.42
524.565	694.42
525.019	685.62
525.474	705.32
525.928	704.73
526.382	697.02
526.837	689.02
527.291	696.72
527.745	695.32
528.2	695.02
528.654	689.92
529.108	687.02
529.562	690.12
530.016	685.02
530.47	693.72
530.925	694.02
531.379	698.32
531.833	707.72
532.287	701.42
532.741	706.02
533.195	697.32
533.649	716.02
534.103	713.82
534.556	708.42
535.01	705.72
535.464	700.52
535.918	719.42
536.372	727.72
536.826	723.42
537.279	706.02
537.733	714.42
538.187	714.22
538.64	714.12
539.094	719.82
539.548	725.82
540.001	723.12
540.455	728.42
540.908	722.92
541.362	733.42
541.815	749.42
542.269	762.32
542.722	764.32
543.175	762.92
543.629	780.12
544.082	775.92
544.536	789.82
544.989	787.62
545.442	792.12
545.895	789.22
546.349	789.32
546.802	784.72
547.255	806.52
547.708	806.12
548.161	821.62
548.614	807.72
549.067	829.22
549.52	813.42
549.973	809.52
550.426	802.72
550.879	787.52
551.332	788.32
551.785	796.22
552.238	810.22
552.691	806.62
553.144	825.12
553.596	841.02
554.049	859.12
554.502	887.82
554.955	910.42
555.407	908.52
555.86	891.62
556.313	894.32
556.765	877.22
557.218	869.92
557.67	876.92
558.123	866.72
558.576	863.52
559.028	869.92
559.48	883.62
559.933	872.62
560.385	836.62
560.838	796.82
561.29	769.12
561.742	780.12
562.195	753.62
562.647	749.32
563.099	767.42
563.551	764.52
564.004	777.72
564.456	766.42
564.908	761.42
565.36	741.42
565.812	733.12
566.264	720.82
566.716	714.42
567.168	709.02
567.62	710.02
568.072	701.82
568.524	692.23
568.976	690.02
569.428	675.42
569.88	667.12
570.332	663.92
570.784	681.42
571.235	679.92
571.687	688.82
572.139	695.52
572.59	710.52
573.042	703.82
573.494	706.22
573.945	700.92
574.397	677.12
574.849	679.92
575.3	693.62
575.752	683.42
576.203	670.82
576.655	674.32
577.106	670.02
577.557	663.73
578.009	659.02
578.46	661.22
578.912	655.02
579.363	662.12
579.814	659.72
580.265	662.72
580.717	660.62
581.168	664.42
581.619	670.12
582.07	675.73
582.521	672.32
582.972	664.32
583.423	676.72
583.875	673.22
584.326	698.92
584.777	744.12
585.227	810.92
585.678	902.62
586.129	988.72
586.58	1051.73
587.031	1142.22
587.482	1308.12
587.933	1483.82
588.384	1291.22
588.834	963.42
589.285	800.42
589.736	777.42
590.186	765.32
590.637	755.12
591.088	738.52
591.538	725.92
591.989	717.22
592.439	710.72
592.89	706.92
593.34	694.02
593.791	694.02
594.241	693.62
594.692	693.82
595.142	697.42
595.593	685.82
596.043	696.42
596.493	708.72
596.943	694.02
597.394	710.42
597.844	701.72
598.294	720.12
598.744	738.42
599.195	768.72
599.645	797.12
600.095	827.22
600.545	891.62
600.995	955.12
601.445	1003.12
601.895	1068.23
602.345	1106.42
602.795	1095.03
603.245	1042.72
603.695	994.32
604.145	939.63
604.594	897.32
605.044	842.12
605.494	783.02
605.944	744.72
606.393	743.22
606.843	726.52
607.293	716.52
607.743	714.32
608.192	729.92
608.642	748.72
609.091	751.92
609.541	758.62
609.99	760.82
610.44	757.02
610.889	699.23
611.339	684.52
611.788	675.32
612.238	685.62
612.687	695.82
613.136	704.62
613.586	726.02
614.035	718.32
614.484	742.72
614.933	733.62
615.383	737.42
615.832	729.52
616.281	709.02
616.73	671.22
617.179	648.52
617.628	631.52
618.077	625.72
618.526	603.02
618.975	601.12
619.424	609.52
619.873	605.42
620.322	604.22
620.771	593.92
621.22	584.82
621.669	574.52
622.118	573.22
622.567	571.52
623.015	556.42
623.464	557.72
623.913	540.72
624.361	538.92
624.81	533.92
625.259	537.42
625.707	544.73
626.156	545.72
626.604	559.42
627.053	551.92
627.501	552.62
627.95	557.23
628.398	559.42
628.847	554.32
629.295	553.42
629.744	557.92
630.192	553.82
630.64	556.52
631.089	560.72
631.537	559.62
631.985	568.42
632.433	579.82
632.881	591.92
633.33	639.72
633.778	626.12
634.226	551.02
634.674	568.23
635.122	551.32
635.57	582.52
636.018	616.62
636.466	560.02
636.914	548.82
637.362	550.82
637.81	555.22
638.258	564.32
638.705	566.42
639.153	591.42
639.601	598.82
640.049	621.72
640.497	656.52
640.944	660.62
641.392	621.92
641.84	595.72
642.287	571.22
642.735	563.72
643.182	556.42
643.63	550.72
644.078	553.32
644.525	571.02
644.973	580.32
645.42	583.72
645.867	596.72
646.315	616.52
646.762	641.32
647.21	674.62
647.657	702.82
648.104	733.52
648.551	747.72
648.999	812.32
649.446	885.82
649.893	971.22
650.34	1123.03
650.787	1347.53
651.234	1665.43
651.682	2168.82
652.129	2973.62
652.576	4293.22
653.023	6339.22
653.47	8694.62
653.917	10943.32
654.363	12669.12
654.81	14076.83
655.257	13407.92
655.704	8740.62
656.151	5149.62
656.598	3328.63
657.044	2356.82
657.491	1823.43
657.938	1460.53
658.385	1218.33
658.831	1048.62
659.278	923.72
659.724	835.12
660.171	763.42
660.618	695.82
661.064	678.52
661.511	646.92
661.957	632.02
662.404	628.22
662.85	636.02
663.296	600.82
663.743	541.22
664.189	518.42
664.635	512.92
665.082	511.02
665.528	496.32
665.974	503.62
666.42	489.22
666.867	489.12
667.313	468.02
667.759	464.22
668.205	470.22
668.651	473.32
669.097	467.52
669.543	480.32
669.989	453.92
670.435	433.62
670.881	432.73
671.327	434.12
671.773	452.12
672.219	472.22
672.665	520.72
673.11	554.92
673.556	600.52
674.002	645.02
674.448	633.92
674.893	520.52
675.339	454.52
675.785	426.02
676.23	401.12
676.676	378.32
677.122	367.72
677.567	358.62
678.013	354.72
678.458	342.32
678.904	350.62
679.349	331.12
679.794	339.72
680.24	332.52
680.685	334.62
681.131	329.72
681.576	338.42
682.021	337.92
682.466	336.82
682.912	329.22
683.357	334.32
683.802	362.82
684.247	391.42
684.692	436.62
685.137	478.52
685.583	516.52
686.028	544.22
686.473	493.52
686.918	424.92
687.363	397.02
687.807	376.12
688.252	349.52
688.697	347.42
689.142	323.82
689.587	322.42
690.032	306.12
690.477	328.52
690.921	337.62
691.366	365.02
691.811	385.12
692.255	414.12
692.7	436.92
693.145	478.52
693.589	655.82
694.034	1072.93
694.478	1470.52
694.923	1675.22
695.367	2179.62
695.812	1142.32
696.256	474.52
696.701	358.62
697.145	324.72
697.59	314.42
698.034	308.42
698.478	319.02
698.922	312.82
699.367	317.42
699.811	319.92
700.255	333.73
700.699	369.52
701.143	396.62
701.588	449.62
702.032	486.02
702.476	487.82
702.92	467.12
703.364	472.22
703.808	598.52
704.252	961.62
704.696	1382.63
705.14	1609.92
705.584	2049.53
706.027	1021.02
706.471	499.52
706.915	381.12
707.359	339.32
707.803	309.82
708.246	295.42
708.69	299.02
709.134	301.72
709.577	291.02
710.021	302.42
710.465	292.12
710.908	285.92
711.352	279.52
711.795	295.92
712.239	332.22
712.682	364.82
713.126	408.42
713.569	452.42
714.012	350.32
714.456	317.12
714.899	279.02
715.342	262.23
715.786	244.32
716.229	241.92
716.672	246.32
717.115	236.32
717.558	245.42
718.002	242.12
718.445	252.12
718.888	272.92
719.331	279.73
719.774	288.72
720.217	286.72
720.66	273.42
721.103	260.32
721.546	247.12
721.989	234.52
722.432	216.82
722.874	225.02
723.317	218.62
723.76	224.72
724.203	244.92
724.645	306.22
725.088	418.62
725.531	543.02
725.974	616.42
726.416	524.42
726.859	289.52
727.301	231.42
727.744	219.82
728.187	221.42
728.629	228.92
729.071	223.42
729.514	246.42
729.956	259.12
730.399	265.62
730.841	268.22
731.283	263.52
731.726	251.62
732.168	249.92
732.61	253.52
733.053	266.32
733.495	300.92
733.937	339.32
734.379	382.32
734.821	409.92
735.263	515.62
735.705	778.82
736.148	1474.22
736.59	2434.62
737.032	2934.73
737.474	2385.02
737.916	772.22
738.357	403.92
738.799	313.12
739.241	285.02
739.683	270.02
740.125	276.92
740.567	284.42
741.008	303.02
741.45	296.72
741.892	299.82
742.334	329.73
742.775	345.72
743.217	322.12
743.658	260.12
744.1	238.62
744.542	242.12
744.983	301.92
745.425	321.92
745.866	326.92
746.307	268.72
746.749	273.12
747.19	306.62
747.632	419.62
748.073	814.22
748.514	1745.13
748.956	2706.72
749.397	3382.12
749.838	2812.82
750.279	2835.22
750.72	1420.73
751.162	514.92
751.603	300.32
752.044	235.92
752.485	205.92
752.926	201.92
753.367	192.22
753.808	181.32
754.249	186.82
754.69	168.22
755.131	175.42
755.572	169.52
756.013	174.92
756.453	171.32
756.894	183.72
757.335	183.22
757.776	183.82
758.216	194.82
758.657	187.22
759.098	195.62
759.538	210.92
759.979	254.02
760.42	353.52
760.86	655.72
761.301	1690.82
761.741	4123.82
762.182	6156.92
762.622	4360.02
763.063	1254.03
763.503	507.72
763.943	320.62
764.384	318.92
764.824	388.32
765.264	423.82
765.705	297.62
766.145	204.52
766.585	176.22
767.025	174.12
767.465	180.22
767.906	235.62
768.346	307.72
768.786	328.22
769.226	249.52
769.666	311.02
770.106	580.52
770.546	1439.72
770.986	2516.73
771.426	2274.43
771.866	754.23
772.306	309.92
772.745	202.92
773.185	166.72
773.625	164.42
774.065	157.92
774.505	186.22
774.944	294.32
775.384	624.92
775.824	1167.52
776.263	1149.32
776.703	492.72
777.142	207.72
777.582	151.62
778.021	138.12
778.461	133.52
778.9	135.12
779.34	131.52
779.779	115.42
780.219	105.52
780.658	103.92
781.097	107.42
781.537	111.12
781.976	108.22
782.415	104.52
782.855	95.02
783.294	100.42
783.733	101.52
784.172	104.92
784.611	99.72
785.05	104.32
785.489	101.42
785.928	112.02
786.367	116.12
786.806	121.12
787.245	130.42
787.684	126.72
788.123	141.72
788.562	132.92
789.001	118.32
789.44	116.62
789.879	108.92
790.317	108.22
790.756	123.92
791.195	120.62
791.634	134.22
792.072	197.72
792.511	334.23
792.95	926.22
793.388	2030.22
793.827	1866.32
794.265	641.22
794.704	266.62
795.142	174.62
795.581	145.82
796.019	128.52
796.458	122.02
796.896	118.32
797.334	126.32
797.773	147.72
798.211	206.82
798.649	397.42
799.087	957.42
799.526	1507.83
799.964	1898.12
800.402	1946.53
800.84	726.22
801.278	290.32
801.716	177.12
802.154	136.22
802.592	136.12
803.03	125.72
803.468	123.12
803.906	139.02
804.344	138.42
804.782	134.62
805.22	129.02
805.658	118.22
806.096	137.92
806.533	151.92
806.971	162.22
807.409	208.22
807.847	291.92
808.284	622.42
808.722	1725.62
809.16	3121.12
809.597	2930.82
810.035	5121.52
810.472	5582.42
810.91	1995.43
811.347	751.42
811.785	382.42
812.222	241.72
812.66	182.42
813.097	160.32
813.535	131.82
813.972	123.12
814.409	114.62
814.846	105.22
815.284	103.92
815.721	100.82
816.158	98.52
816.595	118.12
817.032	172.22
817.47	190.52
817.907	159.82
818.344	142.12
818.781	108.42
819.218	96.02
819.655	111.32
820.092	179.52
820.529	205.62
820.966	170.22
821.403	127.12
821.839	102.12
822.276	98.42
822.713	114.62
823.15	128.02
823.587	111.42
824.023	138.52
824.46	279.02
824.897	829.92
825.333	1290.93
825.77	558.72
826.206	215.82
826.643	131.12
827.08	95.72
827.516	76.22
827.953	73.12
828.389	79.72
828.825	63.92
829.262	57.02
829.698	57.52
830.135	62.02
830.571	60.12
831.007	61.92
831.443	57.82
831.88	54.42
832.316	52.32
832.752	63.72
833.188	61.72
833.624	64.12
834.06	62.22
834.497	66.12
834.933	68.62
835.369	71.22
835.805	69.12
836.241	73.72
836.677	80.82
837.112	85.12
837.548	92.52
837.984	128.02
838.42	187.42
838.856	452.62
839.292	1427.12
839.727	2196.52
840.163	1024.62
840.599	868.62
841.034	1908.32
841.47	2056.93
841.906	740.62
842.341	310.62
842.777	217.52
843.212	301.12
843.648	295.32
844.083	145.02
844.519	90.72
844.954	75.82
845.39	56.32
845.825	51.72
846.261	56.12
846.696	48.72
847.131	50.42
847.566	55.82
848.002	46.92
848.437	52.92
848.872	59.92
849.307	57.52
849.742	83.92
850.177	170.72
850.613	520.92
851.048	835.42
851.483	367.72
851.918	144.02
852.353	85.72
852.788	59.42
853.223	57.22
853.657	45.82
854.092	44.92
854.527	34.42
854.962	41.42
855.397	42.72
855.832	40.52
856.266	35.22
856.701	31.22
857.136	35.52
857.57	40.02
858.005	43.32
858.44	54.72
858.874	41.12
859.309	49.92
859.743	39.52
860.178	43.92
860.612	35.22
861.047	51.92
861.481	61.72
861.915	69.22
862.35	49.52
862.784	35.82
863.218	37.52
863.653	33.22
864.087	43.52
864.521	56.22
864.955	63.82
865.39	141.32
865.824	169.92
866.258	105.52
866.692	151.52
867.126	166.32
867.56	90.42
867.994	52.42
868.428	31.62
868.862	40.82
869.296	50.02
869.73	54.62
870.164	52.62
870.598	47.32
871.031	32.92
871.465	28.42
871.899	33.92
872.333	20.12
872.766	23.02
873.2	22.32
873.634	24.72
874.067	25.12
874.501	23.42
874.935	26.92
875.368	30.82
875.802	25.32
876.235	26.52
876.669	24.12
877.102	22.82
877.535	28.82
877.969	23.22
878.402	20.32
878.836	15.52
879.269	22.42
879.702	26.52
880.135	20.12
880.569	22.02
881.002	23.82
881.435	22.72
881.868	13.82
882.301	18.32
882.734	14.52
883.167	23.22
883.601	19.02
884.034	20.52
884.467	17.42
884.899	18.42
885.332	20.22
885.765	13.12
886.198	13.62
886.631	18.72
887.064	15.82
887.497	21.32
887.929	26.22
888.362	10.62
888.795	11.22
889.228	22.42
889.66	22.92
890.093	15.92
890.526	11.92
890.958	10.32
891.391	17.92
891.823	20.62
892.256	10.42
892.688	11.82
893.121	15.82
893.553	13.72
893.985	20.32
894.418	18.72
894.85	10.82
895.282	14.02
895.715	11.52
896.147	24.22
896.579	11.52
897.011	10.72
897.444	15.32
897.876	11.72
898.308	20.72
898.74	15.62
899.172	7.92
899.604	24.72
900.036	22.32
900.468	8.42
900.9	6.82
901.332	20.52
901.764	10.32
902.196	20.42
902.628	16.82
903.06	15.32
903.491	25.52
903.923	19.42
904.355	20.42
904.787	24.92
905.218	21.72
905.65	21.92
906.082	7.32
906.513	7.42
906.945	11.72
907.376	10.92
907.808	20.62
908.239	20.22
908.671	15.52
909.102	20.92
909.534	23.92
909.965	45.92
910.397	85.82
910.828	296.52
911.259	451.92
911.691	207.52
912.122	101.92
912.553	49.22
912.984	33.22
913.415	20.92
913.847	20.32
914.278	19.42
914.709	16.32
915.14	12.32
915.571	17.82
916.002	11.72
916.433	19.12
916.864	8.52
917.295	11.92
917.726	16.22
918.157	16.12
918.587	26.92
919.018	21.42
919.449	20.42
919.88	23.22
920.311	26.92
920.741	42.72
921.172	161.02
921.603	140.22
922.033	71.52
922.464	41.02
922.895	19.72
923.325	20.22
923.756	14.52
924.186	19.82
924.617	26.62
925.047	36.42
925.478	53.82
925.908	43.12
926.338	26.62
926.769	19.12
927.199	22.02
927.629	8.42
928.06	16.82
928.49	8.72
928.92	19.42
929.35	8.42
929.78	13.22
930.21	5.62
930.641	13.72
931.071	12.62
931.501	-0.28
931.931	9.02
932.361	9.22
932.791	5.72
933.221	2.82
933.651	7.52
934.08	17.02
934.51	28.32
934.94	13.22
935.37	7.22
935.8	11.22
936.229	3.62
936.659	5.82
937.089	-2.08
937.519	10.42
937.948	21.72
938.378	14.62
938.807	10.42
939.237	8.42
939.666	13.92
940.096	-5.68
940.525	6.62
940.955	1.72
941.384	3.52
941.814	-5.78
942.243	0.42
942.672	1.72
943.102	-2.48
943.531	1.32
943.96	3.42
944.39	5.42
944.819	0.22
945.248	4.12
945.677	-0.88
946.106	5.52
946.535	7.02
946.964	-2.28
947.393	1.82
947.822	5.92
948.251	0.02
948.68	2.42
949.109	2.92
949.538	4.82
949.967	-0.88
950.396	-3.78
950.825	-1.18
951.254	-4.18
951.682	-11.38
952.111	6.72
952.54	4.72
952.969	-8.58
953.397	-10.08
953.826	0.42
954.254	-3.88
954.683	-1.88
955.112	-7.78
955.54	0.22
955.969	3.42
956.397	-0.18
956.826	-1.78
957.254	3.72
957.682	0.42
958.111	2.52
958.539	2.82
958.967	1.62
959.396	-4.18
959.824	-2.28
960.252	3.22
960.68	-6.18
961.109	-4.78
961.537	-8.28
961.965	-4.58
962.393	4.82
962.821	-2.18
963.249	3.92
963.677	1.22
964.105	1.62
964.533	37.92
964.961	37.62
965.389	26.12
965.817	7.72
966.245	6.42
966.672	0.42
967.1	-5.18
967.528	4.22
967.956	-0.78
968.383	4.22
968.811	2.72
969.239	-1.78
969.666	-9.58
970.094	0.42
970.522	-2.58
970.949	-6.58
971.377	-1.48
971.804	-1.18
972.232	1.42
972.659	-0.48
973.087	-4.08
973.514	-6.08
973.941	-1.68
974.369	9.22
974.796	5.62
975.223	7.52
975.651	-3.78
976.078	0.22
976.505	1.32
976.932	4.82
977.359	13.02
977.786	12.22
978.214	-1.88
978.641	-4.48
979.068	-4.58
979.495	-9.58
979.922	2.32
980.349	-6.18
980.776	0.32
981.202	-1.28
981.629	1.82
982.056	1.52
982.483	-6.98
982.91	0.82
983.337	-6.28
983.763	4.22
984.19	-11.68
984.617	-9.78
985.043	-7.28
985.47	-5.68
985.897	-3.88
986.323	-8.68
986.75	2.32
987.176	-3.38
987.603	6.72
988.029	-1.78
988.456	-1.38
988.882	2.52
989.308	-9.78
989.735	-5.08
990.161	2.62
990.587	-7.58
991.014	-1.68
991.44	5.22
991.866	-2.98
992.292	-4.28
992.719	-5.98
993.145	5.82
993.571	-9.98
993.997	-7.48
994.423	-3.68
994.849	-6.38
995.275	1.62
995.701	4.62
996.127	-3.08
996.553	2.62
996.979	-0.98
997.405	-3.98
997.83	-7.18
998.256	-7.28
998.682	-11.08
999.108	-11.88
999.534	-5.08
999.959	-1.28
1000.385	-11.18
1000.811	-2.58
1001.236	-7.88
1001.662	-3.38
1002.087	-6.58
1002.513	-6.28
1002.938	1.82
1003.364	0.72
1003.789	-0.58
1004.215	-0.78
1004.64	1.12
1005.066	3.02
1005.491	2.82
1005.916	0.02
1006.342	-3.18
1006.767	-9.68
1007.192	1.92
1007.617	-4.78
1008.042	-5.28
1008.468	-4.58
1008.893	-3.58
1009.318	0.52
1009.743	-3.58
1010.168	-0.88
1010.593	1.72
1011.018	-11.98
1011.443	-7.28
1011.868	-1.08
1012.293	-6.88
1012.718	-7.68
1013.143	4.52
1013.567	7.52
1013.992	-2.58
1014.417	-9.98
1014.842	2.72
1015.267	-5.88
1015.691	-8.28
1016.116	-0.88
1016.541	-4.88
1016.965	4.52
1017.39	3.02
1017.814	0.62
1018.239	0.72
1018.663	-4.58
1019.088	-14.38
1019.512	-5.08
1019.937	1.62
1020.361	-4.98
1020.785	-8.28
1021.21	-6.48
1021.634	-1.98
1022.058	-3.98
1022.483	2.72
1022.907	-5.48
1023.331	-1.08
1023.755	-3.68
1024.179	-5.08
1024.604	-9.28
1025.028	-8.58
1025.452	-1.08
1025.876	0.22
1026.3	1.32
1026.724	-14.18
1027.148	-1.98
1027.572	-8.28
1027.996	-4.68
1028.42	-0.68
1028.843	-2.28
1029.267	-7.08
1029.691	-4.38
1030.115	-8.78
1030.539	-7.28
1030.962	-11.18
1031.386	-12.18
1031.81	-0.68
1032.233	3.12
1032.657	-3.88
1033.08	3.32
1033.504	-4.18
1033.927	-6.28
1034.351	-1.58
1034.774	-7.48
1035.198	-0.28
1035.621	-9.28
1036.045	-1.98
1036.468	-0.68
1036.891	-7.58
1037.315	-7.58
1037.738	-7.18
1038.161	-4.08
1038.584	1.42
1039.008	-5.28
1039.431	-10.38
1039.854	-8.48
1040.277	-9.88
1040.7	-12.88
1041.123	-2.28
1041.546	-11.68
1041.969	-9.48
1042.392	-8.88
1042.815	-3.08
1043.238	0.92
1043.661	0.82
1044.084	-10.18
1044.507	-8.88
1044.93	-15.18
1045.352	-6.88
1045.775	-7.08
1046.198	1.92
1046.621	-0.88
1047.043	0.62
1047.466	8.12
1047.889	-2.38
1048.311	-2.98
1048.734	-6.08
1049.156	-1.88
1049.579	-3.68
1050.001	-4.98
1050.424	0.02
1050.846	-3.88
1051.269	-2.48
1051.691	-4.48
1052.113	-3.38
1052.536	-2.28
1052.958	-4.28
1053.38	-5.18
1053.802	-11.18
1054.225	-1.88
1054.647	-13.58
1055.069	-9.18
1055.491	2.22
1055.913	-8.98
1056.335	-2.28
1056.757	-0.88
1057.179	-7.48
1057.601	-3.88
1058.023	0.12
1058.445	-2.18
1058.867	-4.38
1059.289	-2.18
1059.711	-6.08
1060.133	-5.68
1060.555	-13.78
1060.976	-3.58
1061.398	-2.38
1061.82	-5.48
1062.241	-10.28
1062.663	-10.38
1063.085	-9.48
1063.506	-0.28
1063.928	-0.68
1064.35	-1.78
1064.771	-15.58
1065.193	-2.18
1065.614	-4.08
1066.035	-7.18
1066.457	-5.48
1066.878	0.82
1067.3	-10.28
1067.721	-2.08
1068.142	-2.78
1068.564	-3.88
1068.985	-2.78
1069.406	-6.08
1069.827	-6.48
1070.248	-1.18
1070.67	-8.98
1071.091	-1.18
1071.512	-6.38
1071.933	-3.08
1072.354	-4.58
1072.775	-6.98
1073.196	-10.88
1073.617	-2.18
1074.038	-3.18
1074.459	-6.58
1074.88	-5.48
1075.3	-7.38
1075.721	-7.28
1076.142	2.12
1076.563	-3.38
1076.983	-11.68
1077.404	-7.28
1077.825	-15.58
1078.246	-5.58
1078.666	-11.08
1079.087	-4.98
1079.507	-11.28
1079.928	-1.38
1080.348	-0.98
1080.769	-4.78
1081.189	-4.28
1081.61	-3.38
1082.03	-7.78
1082.451	-6.68
1082.871	-4.88
1083.291	-4.38
1083.711	-9.38
1084.132	-3.98
1084.552	-6.78
1084.972	-3.68
1085.392	-12.08
1085.813	-7.58
1086.233	-6.78
1086.653	1.72
1087.073	-0.18
1087.493	-5.78
1087.913	-6.08
1088.333	-7.98
1088.753	-5.58
1089.173	1.12
1089.593	-5.98
1090.013	3.92
1090.433	1.62
1090.852	-1.58
1091.272	-9.58
1091.692	0.92
1092.112	-5.68
1092.531	-15.78
1092.951	-13.08
1093.371	-1.88
1093.79	3.02
1094.21	-10.88
1094.63	-6.28
1095.049	-6.88
1095.469	-2.18
1095.888	-4.18
1096.308	3.72
1096.727	2.52
1097.146	-6.78
1097.566	-4.98
1097.985	-7.28
1098.405	-5.28
1098.824	-7.38
1099.243	-7.18
1099.662	-11.38
1100.082	1.22
1100.501	-4.28
1100.92	-9.58
1101.339	-0.98
1101.758	-2.68
