Data from 20171114-ORNL-Ar_H_NY_Subt18_08-08-30-671.txt Node
Date: Tue Nov 14 08:08:30 EST 2017
User: Ender
Spectrometer: HR+D1039
Trigger mode: 0
Integration Time (sec): 2.730000E-2
Scans to average: 10
Electric dark correction enabled: true
Nonlinearity correction enabled: false
Boxcar width: 0
XAxis mode: Wavelengths
Number of Pixels in Spectrum: 2048
>>>>>Begin Spectral Data<<<<<
187.836	-1.91
188.309	-1.91
188.782	-1.91
189.255	3.49
189.728	-1.31
190.201	2.69
190.674	4.79
191.147	-2.01
191.619	-10.61
192.092	3.59
192.565	3.09
193.038	-6.21
193.511	0.59
193.984	2.29
194.456	-3.01
194.929	2.59
195.402	0.99
195.874	0.89
196.347	-1.91
196.82	-8.41
197.292	2.29
197.765	-3.11
198.237	-6.81
198.71	0.19
199.182	-0.21
199.655	-1.31
200.127	0.89
200.6	-6.61
201.072	-6.11
201.544	-9.91
202.017	-6.11
202.489	-3.11
202.961	-7.61
203.433	-8.71
203.906	-7.01
204.378	-6.61
204.85	-3.81
205.322	-16.41
205.794	-0.41
206.266	-5.01
206.739	-13.21
207.211	2.09
207.683	-3.71
208.155	-9.81
208.627	-8.61
209.099	-4.01
209.57	-9.01
210.042	-7.91
210.514	-1.51
210.986	-3.81
211.458	-5.91
211.93	-6.61
212.402	2.59
212.873	-8.61
213.345	-8.31
213.817	-15.91
214.288	-5.91
214.76	-11.61
215.232	-7.51
215.703	-4.51
216.175	-5.61
216.646	-9.71
217.118	-9.81
217.589	-2.31
218.061	-2.31
218.532	-3.11
219.004	-5.91
219.475	-3.51
219.946	-7.31
220.418	-11.91
220.889	-0.91
221.36	-1.01
221.832	-4.21
222.303	-12.11
222.774	3.19
223.245	-5.71
223.717	-5.01
224.188	-0.71
224.659	-8.11
225.13	-9.51
225.601	-3.11
226.072	-4.61
226.543	-1.41
227.014	1.69
227.485	2.49
227.956	-7.91
228.427	-2.91
228.898	0.09
229.369	3.79
229.839	-3.71
230.31	-6.41
230.781	-1.11
231.252	-5.91
231.722	-4.51
232.193	-1.21
232.664	-4.41
233.135	-7.61
233.605	-7.31
234.076	-4.11
234.546	-2.11
235.017	-1.91
235.487	-2.41
235.958	-1.31
236.428	-6.41
236.899	-1.61
237.369	0.89
237.84	-12.31
238.31	-5.41
238.78	-3.51
239.251	-11.01
239.721	0.09
240.191	-3.21
240.662	-4.71
241.132	-3.41
241.602	-3.81
242.072	-2.91
242.542	-2.21
243.013	-8.31
243.483	7.99
243.953	-1.01
244.423	-4.61
244.893	-2.51
245.363	-5.01
245.833	-1.11
246.303	-3.01
246.773	1.69
247.243	1.09
247.712	-2.91
248.182	1.59
248.652	1.69
249.122	-11.41
249.592	2.99
250.061	4.99
250.531	9.99
251.001	-1.71
251.471	7.89
251.94	5.69
252.41	-0.01
252.879	-8.71
253.349	5.79
253.818	3.89
254.288	-5.21
254.757	-1.71
255.227	-1.51
255.696	1.69
256.166	-0.41
256.635	5.09
257.105	2.69
257.574	0.09
258.043	5.29
258.513	2.09
258.982	5.19
259.451	-1.51
259.92	-0.51
260.389	2.79
260.859	4.99
261.328	0.89
261.797	7.59
262.266	-1.31
262.735	6.89
263.204	0.99
263.673	-3.91
264.142	6.39
264.611	-2.51
265.08	-1.41
265.549	-3.31
266.018	2.39
266.487	-5.71
266.955	-3.31
267.424	-3.71
267.893	2.19
268.362	3.89
268.83	0.39
269.299	7.69
269.768	2.69
270.236	0.59
270.705	0.19
271.174	0.69
271.642	10.99
272.111	6.09
272.579	3.29
273.048	1.59
273.516	-0.51
273.985	7.89
274.453	12.69
274.922	10.59
275.39	6.49
275.858	-1.61
276.327	1.79
276.795	13.49
277.263	4.09
277.731	9.99
278.2	12.99
278.668	10.59
279.136	13.19
279.604	8.59
280.072	8.49
280.54	6.89
281.008	9.19
281.477	15.39
281.945	6.49
282.413	12.89
282.881	10.59
283.348	1.39
283.816	10.49
284.284	14.69
284.752	14.69
285.22	13.49
285.688	8.89
286.156	17.49
286.623	19.29
287.091	13.19
287.559	15.69
288.026	11.09
288.494	15.19
288.962	5.09
289.429	7.69
289.897	17.69
290.364	13.39
290.832	15.89
291.3	13.89
291.767	17.49
292.234	18.89
292.702	11.29
293.169	11.29
293.637	13.79
294.104	16.69
294.571	11.79
295.039	6.49
295.506	6.79
295.973	10.49
296.44	7.39
296.908	13.49
297.375	22.49
297.842	19.59
298.309	10.29
298.776	12.59
299.243	13.69
299.71	11.69
300.177	16.09
300.644	18.09
301.111	14.69
301.578	12.49
302.045	17.29
302.512	24.49
302.979	22.09
303.446	23.79
303.913	15.99
304.379	15.39
304.846	22.29
305.313	25.99
305.78	18.09
306.246	22.19
306.713	22.49
307.18	18.59
307.646	22.69
308.113	22.99
308.579	21.29
309.046	21.69
309.512	24.49
309.979	18.49
310.445	27.49
310.912	19.99
311.378	29.29
311.845	25.49
312.311	27.59
312.777	32.89
313.244	29.29
313.71	40.69
314.176	29.89
314.642	28.39
315.109	31.09
315.575	31.49
316.041	30.79
316.507	29.19
316.973	34.29
317.439	32.99
317.905	34.79
318.371	29.19
318.837	30.99
319.303	28.39
319.769	28.49
320.235	37.29
320.701	32.89
321.167	35.19
321.633	29.29
322.099	33.49
322.564	43.19
323.03	39.89
323.496	39.49
323.962	41.09
324.427	30.99
324.893	40.19
325.359	34.79
325.824	33.59
326.29	37.79
326.755	38.29
327.221	36.49
327.686	45.19
328.152	39.59
328.617	29.09
329.083	40.29
329.548	44.29
330.014	42.59
330.479	40.69
330.944	35.29
331.41	41.79
331.875	43.09
332.34	44.89
332.805	43.39
333.271	47.09
333.736	39.99
334.201	50.69
334.666	51.09
335.131	50.69
335.596	50.29
336.061	48.69
336.526	39.79
336.991	41.89
337.456	49.79
337.921	47.69
338.386	40.89
338.851	44.59
339.316	49.49
339.781	41.49
340.246	49.89
340.711	41.09
341.175	44.79
341.64	47.69
342.105	56.19
342.569	54.49
343.034	54.89
343.499	53.59
343.963	54.09
344.428	63.29
344.893	60.49
345.357	57.89
345.822	62.29
346.286	66.29
346.751	73.39
347.215	63.79
347.679	75.59
348.144	92.09
348.608	75.19
349.073	69.29
349.537	69.99
350.001	83.79
350.465	87.19
350.93	77.19
351.394	81.79
351.858	74.19
352.322	88.69
352.786	91.79
353.25	99.69
353.715	111.79
354.179	100.49
354.643	123.39
355.107	121.89
355.571	99.19
356.035	100.59
356.498	117.79
356.962	117.79
357.426	127.19
357.89	113.19
358.354	85.79
358.818	75.69
359.281	76.39
359.745	73.39
360.209	78.69
360.673	74.99
361.136	78.59
361.6	82.99
362.064	83.19
362.527	88.89
362.991	86.79
363.454	76.19
363.918	75.39
364.381	84.09
364.845	85.59
365.308	89.89
365.772	83.29
366.235	88.09
366.698	84.29
367.162	88.29
367.625	82.49
368.088	88.29
368.552	92.39
369.015	89.09
369.478	96.69
369.941	97.39
370.404	93.39
370.867	99.99
371.331	98.59
371.794	103.29
372.257	100.79
372.72	107.59
373.183	101.69
373.646	94.49
374.109	104.49
374.572	109.49
375.035	103.49
375.497	108.99
375.96	105.79
376.423	107.89
376.886	115.69
377.349	109.09
377.811	100.09
378.274	104.39
378.737	108.49
379.199	112.29
379.662	108.69
380.125	112.49
380.587	107.09
381.05	114.69
381.512	114.99
381.975	123.59
382.437	117.49
382.9	124.29
383.362	129.39
383.825	131.29
384.287	128.99
384.75	123.99
385.212	128.19
385.674	132.39
386.136	137.39
386.599	121.29
387.061	128.09
387.523	126.49
387.985	132.39
388.447	138.39
388.91	125.19
389.372	130.39
389.834	134.59
390.296	129.29
390.758	132.89
391.22	139.79
391.682	158.59
392.144	178.19
392.606	154.89
393.068	146.89
393.529	160.59
393.991	145.79
394.453	140.39
394.915	141.59
395.377	140.09
395.838	146.79
396.3	138.19
396.762	149.89
397.224	146.39
397.685	142.69
398.147	141.79
398.608	141.89
399.07	136.59
399.531	134.19
399.993	152.19
400.454	166.29
400.916	158.19
401.377	148.29
401.839	162.29
402.3	156.69
402.762	172.69
403.223	187.79
403.684	172.79
404.145	169.59
404.607	167.69
405.068	169.49
405.529	179.29
405.99	194.69
406.451	180.29
406.913	182.59
407.374	175.29
407.835	170.39
408.296	171.79
408.757	181.49
409.218	189.49
409.679	187.99
410.14	188.09
410.601	181.29
411.062	192.69
411.522	184.79
411.983	188.39
412.444	180.49
412.905	185.79
413.366	193.49
413.826	206.99
414.287	231.09
414.748	277.49
415.208	262.89
415.669	233.59
416.13	220.79
416.59	226.09
417.051	231.79
417.511	232.99
417.972	263.99
418.432	267.49
418.893	307.99
419.353	266.09
419.814	209.89
420.274	197.69
420.734	201.99
421.195	210.39
421.655	205.09
422.115	211.69
422.576	209.99
423.036	215.79
423.496	217.29
423.956	227.69
424.416	242.49
424.876	290.39
425.336	280.39
425.797	281.69
426.257	268.99
426.717	255.59
427.177	242.39
427.637	237.99
428.097	255.89
428.556	257.19
429.016	282.99
429.476	280.19
429.936	278.69
430.396	296.29
430.856	295.59
431.315	324.79
431.775	362.09
432.235	394.49
432.694	371.99
433.154	375.19
433.614	404.59
434.073	353.39
434.533	292.39
434.993	279.89
435.452	292.29
435.912	307.99
436.371	301.49
436.83	290.09
437.29	277.09
437.749	267.69
438.209	269.59
438.668	291.89
439.127	298.99
439.587	279.69
440.046	261.89
440.505	278.69
440.964	297.99
441.424	347.09
441.883	337.69
442.342	277.59
442.801	243.09
443.26	232.79
443.719	236.59
444.178	243.49
444.637	224.59
445.096	247.89
445.555	244.39
446.014	241.89
446.473	241.39
446.932	246.89
447.391	245.29
447.849	248.19
448.308	237.59
448.767	247.99
449.226	249.39
449.685	257.49
450.143	273.49
450.602	259.89
451.061	243.89
451.519	256.29
451.978	250.19
452.436	252.89
452.895	255.99
453.353	271.19
453.812	259.59
454.27	249.59
454.729	260.89
455.187	262.69
455.646	260.59
456.104	264.59
456.562	279.49
457.021	291.09
457.479	277.89
457.937	294.09
458.395	285.69
458.854	264.79
459.312	272.89
459.77	296.49
460.228	277.89
460.686	265.19
461.144	270.29
461.602	270.29
462.06	264.39
462.518	275.59
462.976	279.39
463.434	271.79
463.892	285.79
464.35	295.69
464.808	309.59
465.266	292.69
465.724	294.99
466.181	300.59
466.639	300.39
467.097	312.69
467.555	322.39
468.012	323.79
468.47	330.89
468.928	348.39
469.385	360.59
469.843	371.49
470.3	373.39
470.758	396.79
471.215	405.99
471.673	426.29
472.13	438.69
472.588	447.79
473.045	402.49
473.503	407.79
473.96	425.89
474.417	439.49
474.875	465.39
475.332	509.79
475.789	494.89
476.246	498.59
476.704	515.69
477.161	545.99
477.618	550.69
478.075	592.29
478.532	652.29
478.989	722.69
479.446	839.19
479.903	790.49
480.36	818.99
480.817	877.39
481.274	969.99
481.731	1058.99
482.188	1136.79
482.645	1267.79
483.102	1366.29
483.558	1496.69
484.015	1523.99
484.472	1494.69
484.929	1461.99
485.385	1413.29
485.842	1382.89
486.299	1331.99
486.755	1304.39
487.212	1115.99
487.668	937.99
488.125	872.89
488.582	797.99
489.038	776.19
489.494	753.19
489.951	710.59
490.407	705.29
490.864	679.59
491.32	679.69
491.776	680.89
492.233	681.89
492.689	649.19
493.145	638.49
493.602	642.99
494.058	654.29
494.514	653.09
494.97	680.99
495.426	691.09
495.882	656.39
496.338	637.89
496.794	652.19
497.251	644.59
497.707	671.69
498.163	668.99
498.618	672.59
499.074	682.19
499.53	714.09
499.986	710.19
500.442	688.29
500.898	661.59
501.354	651.69
501.809	656.09
502.265	659.69
502.721	673.69
503.177	688.09
503.632	682.29
504.088	687.39
504.543	711.59
504.999	733.49
505.455	689.69
505.91	678.99
506.366	675.29
506.821	668.69
507.277	667.59
507.732	673.09
508.187	678.89
508.643	690.69
509.098	683.89
509.553	703.99
510.009	723.49
510.464	731.09
510.919	740.89
511.375	742.29
511.83	746.09
512.285	768.59
512.74	806.59
513.195	831.69
513.65	812.29
514.105	817.49
514.56	805.49
515.015	834.49
515.47	839.89
515.925	821.99
516.38	827.99
516.835	841.79
517.29	822.19
517.745	827.19
518.2	799.19
518.655	799.99
519.109	792.09
519.564	785.59
520.019	767.69
520.474	758.29
520.928	767.99
521.383	769.09
521.838	757.49
522.292	755.89
522.747	755.09
523.201	743.39
523.656	746.49
524.11	741.29
524.565	738.09
525.019	735.69
525.474	753.69
525.928	737.69
526.382	738.19
526.837	745.59
527.291	741.89
527.745	741.79
528.2	732.99
528.654	739.09
529.108	740.29
529.562	744.49
530.016	728.09
530.47	731.29
530.925	727.59
531.379	740.69
531.833	747.79
532.287	738.99
532.741	734.99
533.195	751.39
533.649	745.49
534.103	750.79
534.556	744.09
535.01	747.49
535.464	744.49
535.918	756.79
536.372	756.99
536.826	752.79
537.279	741.59
537.733	748.49
538.187	752.39
538.64	755.39
539.094	766.19
539.548	771.09
540.001	764.99
540.455	767.69
540.908	781.79
541.362	783.09
541.815	786.49
542.269	800.09
542.722	797.89
543.175	812.09
543.629	814.49
544.082	847.39
544.536	840.59
544.989	832.99
545.442	838.29
545.895	848.99
546.349	844.19
546.802	839.69
547.255	853.69
547.708	869.79
548.161	869.59
548.614	877.69
549.067	880.69
549.52	869.29
549.973	858.49
550.426	860.59
550.879	845.69
551.332	842.89
551.785	855.89
552.238	865.29
552.691	878.19
553.144	886.79
553.596	904.09
554.049	918.49
554.502	945.29
554.955	954.39
555.407	953.59
555.86	961.99
556.313	934.29
556.765	935.49
557.218	935.89
557.67	931.79
558.123	926.99
558.576	920.39
559.028	937.49
559.48	935.49
559.933	929.59
560.385	890.09
560.838	866.79
561.29	836.39
561.742	841.09
562.195	822.89
562.647	820.39
563.099	824.99
563.551	816.79
564.004	834.29
564.456	820.49
564.908	801.19
565.36	797.59
565.812	786.39
566.264	763.19
566.716	757.69
567.168	741.29
567.62	758.89
568.072	744.69
568.524	741.59
568.976	732.79
569.428	720.09
569.88	720.19
570.332	725.89
570.784	726.99
571.235	725.59
571.687	735.09
572.139	747.29
572.59	763.39
573.042	756.99
573.494	759.29
573.945	753.99
574.397	736.19
574.849	737.59
575.3	732.19
575.752	732.89
576.203	732.09
576.655	728.49
577.106	709.19
577.557	702.29
578.009	711.79
578.46	713.39
578.912	706.99
579.363	711.89
579.814	705.89
580.265	708.89
580.717	714.59
581.168	707.59
581.619	724.79
582.07	723.29
582.521	709.79
582.972	711.69
583.423	721.69
583.875	721.19
584.326	723.39
584.777	742.39
585.227	775.99
585.678	793.09
586.129	816.09
586.58	834.19
587.031	870.59
587.482	915.49
587.933	955.09
588.384	915.49
588.834	844.59
589.285	824.69
589.736	824.79
590.186	813.79
590.637	813.09
591.088	791.59
591.538	769.49
591.989	776.39
592.439	767.79
592.89	759.59
593.34	745.89
593.791	752.69
594.241	736.19
594.692	738.79
595.142	736.19
595.593	739.29
596.043	735.09
596.493	750.49
596.943	753.99
597.394	758.79
597.844	762.89
598.294	775.79
598.744	809.19
599.195	829.99
599.645	868.29
600.095	920.09
600.545	966.39
600.995	1022.79
601.445	1085.99
601.895	1150.19
602.345	1217.69
602.795	1182.29
603.245	1138.29
603.695	1079.29
604.145	1026.89
604.594	966.59
605.044	907.59
605.494	858.09
605.944	798.49
606.393	792.99
606.843	779.59
607.293	782.19
607.743	771.29
608.192	781.79
608.642	801.39
609.091	793.19
609.541	808.49
609.99	802.99
610.44	807.39
610.889	760.09
611.339	740.39
611.788	721.49
612.238	737.89
612.687	741.79
613.136	739.99
613.586	757.09
614.035	736.99
614.484	745.39
614.933	752.89
615.383	753.29
615.832	751.09
616.281	744.39
616.73	719.09
617.179	696.59
617.628	683.39
618.077	669.69
618.526	660.89
618.975	659.39
619.424	646.79
619.873	648.59
620.322	655.79
620.771	646.49
621.22	640.79
621.669	622.99
622.118	626.59
622.567	620.69
623.015	600.09
623.464	610.79
623.913	592.99
624.361	584.89
624.81	584.89
625.259	589.29
625.707	588.99
626.156	587.29
626.604	605.19
627.053	597.09
627.501	605.29
627.95	597.09
628.398	619.09
628.847	601.09
629.295	610.29
629.744	605.89
630.192	594.99
630.64	592.59
631.089	592.09
631.537	575.09
631.985	563.39
632.433	570.39
632.881	563.89
633.33	573.19
633.778	571.29
634.226	552.59
634.674	563.79
635.122	580.89
635.57	585.09
636.018	595.69
636.466	589.29
636.914	591.39
637.362	605.89
637.81	607.79
638.258	612.09
638.705	606.89
639.153	649.49
639.601	650.89
640.049	667.39
640.497	704.99
640.944	725.69
641.392	678.49
641.84	652.59
642.287	613.89
642.735	593.59
643.182	595.79
643.63	595.19
644.078	596.89
644.525	612.89
644.973	608.49
645.42	627.69
645.867	644.49
646.315	656.89
646.762	696.49
647.21	717.59
647.657	742.19
648.104	774.89
648.551	798.39
648.999	861.39
649.446	943.19
649.893	1022.89
650.34	1166.39
650.787	1395.29
651.234	1709.79
651.682	2219.79
652.129	3028.09
652.576	4287.29
653.023	6243.59
653.47	8403.39
653.917	10369.19
654.363	11849.19
654.81	13022.49
655.257	12351.19
655.704	8198.99
656.151	4957.09
656.598	3254.49
657.044	2340.89
657.491	1815.59
657.938	1462.29
658.385	1243.39
658.831	1079.99
659.278	974.49
659.724	869.89
660.171	805.49
660.618	747.39
661.064	714.39
661.511	687.89
661.957	670.69
662.404	679.59
662.85	687.99
663.296	647.09
663.743	583.99
664.189	565.59
664.635	557.09
665.082	562.29
665.528	552.19
665.974	550.49
666.42	544.79
666.867	533.29
667.313	511.49
667.759	498.59
668.205	470.29
668.651	474.69
669.097	479.69
669.543	480.19
669.989	472.99
670.435	472.59
670.881	473.19
671.327	476.89
671.773	497.69
672.219	521.49
672.665	580.39
673.11	624.99
673.556	668.99
674.002	715.99
674.448	694.19
674.893	585.89
675.339	510.09
675.785	467.69
676.23	445.39
676.676	412.59
677.122	407.29
677.567	393.69
678.013	387.69
678.458	387.69
678.904	389.59
679.349	368.09
679.794	379.49
680.24	380.99
680.685	373.39
681.131	372.29
681.576	374.49
682.021	382.79
682.466	371.09
682.912	380.39
683.357	379.49
683.802	404.39
684.247	447.49
684.692	482.29
685.137	526.49
685.583	575.19
686.028	595.99
686.473	555.69
686.918	478.69
687.363	447.99
687.807	418.09
688.252	388.09
688.697	389.59
689.142	362.39
689.587	355.89
690.032	350.49
690.477	370.39
690.921	370.19
691.366	409.19
691.811	426.99
692.255	462.79
692.7	497.09
693.145	553.09
693.589	767.29
694.034	1233.79
694.478	1665.59
694.923	1851.89
695.367	2406.99
695.812	1289.29
696.256	533.99
696.701	400.79
697.145	365.49
697.59	347.49
698.034	339.09
698.478	348.19
698.922	350.69
699.367	342.69
699.811	360.49
700.255	380.49
700.699	415.49
701.143	449.19
701.588	507.49
702.032	543.39
702.476	553.09
702.92	524.69
703.364	544.09
703.808	704.29
704.252	1137.89
704.696	1591.69
705.14	1785.59
705.584	2263.69
706.027	1146.29
706.471	567.69
706.915	432.79
707.359	379.79
707.803	356.49
708.246	336.09
708.69	334.29
709.134	334.19
709.577	342.89
710.021	334.49
710.465	334.69
710.908	320.39
711.352	315.49
711.795	330.09
712.239	368.89
712.682	416.39
713.126	426.79
713.569	482.19
714.012	373.79
714.456	317.49
714.899	304.69
715.342	293.49
715.786	285.99
716.229	275.89
716.672	272.39
717.115	267.99
717.558	264.09
718.002	270.29
718.445	285.19
718.888	301.99
719.331	314.59
719.774	329.59
720.217	327.19
720.66	300.89
721.103	284.99
721.546	274.79
721.989	267.89
722.432	243.39
722.874	254.09
723.317	248.09
723.76	250.19
724.203	284.99
724.645	343.89
725.088	484.79
725.531	609.49
725.974	679.29
726.416	576.69
726.859	328.59
727.301	260.29
727.744	249.89
728.187	253.49
728.629	258.79
729.071	261.69
729.514	274.09
729.956	289.79
730.399	298.39
730.841	303.79
731.283	298.69
731.726	282.19
732.168	279.99
732.61	290.69
733.053	304.89
733.495	342.29
733.937	377.99
734.379	429.79
734.821	475.19
735.263	594.79
735.705	926.09
736.148	1752.79
736.59	2801.49
737.032	3227.99
737.474	2643.29
737.916	884.89
738.357	468.39
738.799	352.99
739.241	318.99
739.683	303.19
740.125	309.39
740.567	320.29
741.008	338.79
741.45	341.49
741.892	344.09
742.334	376.19
742.775	385.29
743.217	366.49
743.658	287.89
744.1	274.89
744.542	285.19
744.983	347.09
745.425	371.09
745.866	372.29
746.307	302.69
746.749	296.09
747.19	344.69
747.632	505.19
748.073	988.29
748.514	2074.29
748.956	3069.59
749.397	3872.89
749.838	3223.49
750.279	3137.99
750.72	1610.79
751.162	588.69
751.603	348.79
752.044	269.49
752.485	235.89
752.926	220.99
753.367	221.59
753.808	210.59
754.249	204.09
754.69	198.29
755.131	197.89
755.572	191.09
756.013	188.69
756.453	192.69
756.894	205.89
757.335	205.89
757.776	214.39
758.216	210.09
758.657	213.19
759.098	215.59
759.538	243.29
759.979	284.39
760.42	415.49
760.86	790.69
761.301	2060.29
761.741	4860.39
762.182	6783.49
762.622	4817.49
763.063	1423.29
763.503	576.09
763.943	349.09
764.384	300.19
764.824	290.79
765.264	281.19
765.705	235.09
766.145	199.89
766.585	194.39
767.025	177.29
767.465	174.09
767.906	201.99
768.346	227.49
768.786	236.59
769.226	239.89
769.666	342.29
770.106	689.49
770.546	1732.69
770.986	2827.89
771.426	2488.49
771.866	845.49
772.306	353.99
772.745	223.79
773.185	179.29
773.625	169.79
774.065	165.69
774.505	176.79
774.944	222.59
775.384	405.59
775.824	654.49
776.263	623.59
776.703	308.59
777.142	172.99
777.582	140.69
778.021	133.79
778.461	132.29
778.9	139.09
779.34	134.49
779.779	122.49
780.219	115.39
780.658	115.39
781.097	118.99
781.537	120.29
781.976	114.19
782.415	107.19
782.855	104.79
783.294	107.09
783.733	100.89
784.172	112.19
784.611	108.09
785.05	113.49
785.489	116.09
785.928	122.69
786.367	130.49
786.806	129.59
787.245	143.19
787.684	146.09
788.123	153.99
788.562	136.59
789.001	137.79
789.44	127.29
789.879	124.09
790.317	124.29
790.756	134.49
791.195	136.09
791.634	161.29
792.072	223.09
792.511	403.89
792.95	1119.29
793.388	2268.19
793.827	2016.69
794.265	725.29
794.704	299.59
795.142	190.69
795.581	160.89
796.019	147.69
796.458	139.09
796.896	135.39
797.334	144.49
797.773	163.89
798.211	243.79
798.649	494.79
799.087	1125.19
799.526	1733.49
799.964	2185.99
800.402	2125.39
800.84	811.39
801.278	322.29
801.716	201.29
802.154	170.29
802.592	160.69
803.03	156.09
803.468	138.49
803.906	156.39
804.344	156.39
804.782	151.89
805.22	150.79
805.658	142.99
806.096	157.79
806.533	170.09
806.971	183.39
807.409	233.29
807.847	351.69
808.284	745.39
808.722	2065.49
809.16	3523.79
809.597	3470.49
810.035	5865.99
810.472	6062.19
810.91	2237.39
811.347	872.09
811.785	436.89
812.222	273.49
812.66	210.99
813.097	184.39
813.535	152.09
813.972	140.29
814.409	128.09
814.846	109.39
815.284	119.69
815.721	107.99
816.158	106.89
816.595	110.49
817.032	155.99
817.47	185.99
817.907	131.79
818.344	111.29
818.781	104.39
819.218	98.99
819.655	133.99
820.092	208.49
820.529	226.19
820.966	177.39
821.403	132.29
821.839	104.29
822.276	104.69
822.713	128.89
823.15	140.29
823.587	123.29
824.023	162.49
824.46	334.29
824.897	986.19
825.333	1444.79
825.77	630.69
826.206	249.59
826.643	141.99
827.08	101.19
827.516	86.49
827.953	79.69
828.389	83.19
828.825	73.29
829.262	60.99
829.698	63.79
830.135	70.19
830.571	63.19
831.007	68.39
831.443	65.59
831.88	65.59
832.316	64.09
832.752	68.69
833.188	68.69
833.624	71.09
834.06	77.59
834.497	68.59
834.933	72.29
835.369	78.99
835.805	73.19
836.241	84.49
836.677	92.09
837.112	96.49
837.548	110.79
837.984	146.89
838.42	215.59
838.856	558.79
839.292	1648.69
839.727	2433.39
840.163	1148.99
840.599	1029.79
841.034	2201.69
841.47	2247.79
841.906	833.19
842.341	358.59
842.777	219.29
843.212	220.59
843.648	203.29
844.083	120.99
844.519	83.29
844.954	75.29
845.39	61.89
845.825	57.29
846.261	61.89
846.696	54.69
847.131	55.59
847.566	59.89
848.002	55.49
848.437	55.29
848.872	61.19
849.307	66.39
849.742	93.89
850.177	194.39
850.613	610.19
851.048	920.39
851.483	407.39
851.918	173.19
852.353	93.99
852.788	59.09
853.223	52.59
853.657	53.99
854.092	45.69
854.527	47.09
854.962	44.29
855.397	42.59
855.832	52.19
856.266	45.49
856.701	44.19
857.136	39.19
857.57	44.99
858.005	46.19
858.44	59.39
858.874	47.69
859.309	58.19
859.743	48.79
860.178	51.59
860.612	46.39
861.047	53.09
861.481	80.99
861.915	75.39
862.35	54.89
862.784	36.29
863.218	36.39
863.653	39.69
864.087	45.39
864.521	58.99
864.955	74.99
865.39	161.89
865.824	188.79
866.258	126.29
866.692	187.59
867.126	195.59
867.56	120.39
867.994	58.49
868.428	35.89
868.862	44.89
869.296	62.69
869.73	60.39
870.164	51.89
870.598	48.99
871.031	38.39
871.465	35.19
871.899	25.89
872.333	19.09
872.766	30.89
873.2	19.29
873.634	29.69
874.067	24.39
874.501	24.09
874.935	34.79
875.368	33.59
875.802	32.09
876.235	23.89
876.669	26.49
877.102	20.69
877.535	28.69
877.969	21.69
878.402	18.99
878.836	13.19
879.269	23.69
879.702	28.09
880.135	17.29
880.569	22.59
881.002	27.69
881.435	24.59
881.868	16.49
882.301	25.69
882.734	16.59
883.167	28.19
883.601	20.19
884.034	19.59
884.467	20.49
884.899	22.69
885.332	19.79
885.765	14.79
886.198	12.99
886.631	17.09
887.064	18.59
887.497	15.39
887.929	23.59
888.362	18.59
888.795	10.79
889.228	16.79
889.66	15.19
890.093	17.79
890.526	18.59
890.958	19.89
891.391	16.59
891.823	22.49
892.256	14.39
892.688	13.89
893.121	14.59
893.553	18.49
893.985	21.99
894.418	11.99
894.85	15.69
895.282	17.19
895.715	16.89
896.147	20.09
896.579	21.89
897.011	14.99
897.444	15.39
897.876	10.79
898.308	18.39
898.74	17.39
899.172	11.39
899.604	16.59
900.036	26.29
900.468	14.99
900.9	15.19
901.332	18.09
901.764	18.39
902.196	24.19
902.628	19.29
903.06	16.39
903.491	30.99
903.923	22.09
904.355	16.69
904.787	22.49
905.218	22.99
905.65	22.29
906.082	18.49
906.513	13.29
906.945	13.09
907.376	13.39
907.808	16.49
908.239	23.79
908.671	17.49
909.102	23.39
909.534	25.89
909.965	55.69
910.397	92.99
910.828	338.79
911.259	498.99
911.691	232.59
912.122	113.79
912.553	55.19
912.984	33.89
913.415	17.89
913.847	23.79
914.278	15.19
914.709	14.99
915.14	15.39
915.571	21.99
916.002	9.39
916.433	17.19
916.864	3.99
917.295	9.29
917.726	26.99
918.157	15.09
918.587	31.19
919.018	22.49
919.449	26.89
919.88	25.49
920.311	32.39
920.741	55.69
921.172	171.39
921.603	159.49
922.033	77.29
922.464	43.39
922.895	24.39
923.325	20.29
923.756	11.89
924.186	15.69
924.617	21.59
925.047	19.59
925.478	27.39
925.908	24.99
926.338	15.19
926.769	14.19
927.199	18.39
927.629	8.09
928.06	12.39
928.49	11.79
928.92	11.39
929.35	12.89
929.78	13.39
930.21	9.79
930.641	6.69
931.071	11.89
931.501	3.99
931.931	10.19
932.361	3.19
932.791	0.49
933.221	7.09
933.651	3.59
934.08	14.29
934.51	29.09
934.94	9.19
935.37	6.79
935.8	11.19
936.229	7.29
936.659	8.79
937.089	0.99
937.519	12.29
937.948	18.09
938.378	18.09
938.807	8.29
939.237	-0.51
939.666	9.69
940.096	-5.41
940.525	-6.21
940.955	-2.51
941.384	2.19
941.814	-5.81
942.243	-1.71
942.672	10.79
943.102	-4.11
943.531	-1.41
943.96	-1.91
944.39	2.69
944.819	1.49
945.248	0.09
945.677	-0.11
946.106	-2.91
946.535	5.99
946.964	3.19
947.393	1.39
947.822	0.99
948.251	-1.51
948.68	2.19
949.109	3.79
949.538	5.89
949.967	0.39
950.396	-1.81
950.825	2.19
951.254	-3.01
951.682	-2.51
952.111	2.69
952.54	4.99
952.969	-0.41
953.397	-1.41
953.826	2.79
954.254	-5.41
954.683	2.29
955.112	-3.11
955.54	3.29
955.969	-3.41
956.397	5.99
956.826	-5.61
957.254	-1.31
957.682	-1.91
958.111	5.09
958.539	-3.91
958.967	0.49
959.396	-0.71
959.824	-2.91
960.252	-2.41
960.68	-1.51
961.109	-6.51
961.537	-7.11
961.965	-0.51
962.393	2.89
962.821	-7.41
963.249	-1.51
963.677	3.09
964.105	0.59
964.533	48.39
964.961	43.89
965.389	21.49
965.817	6.69
966.245	1.09
966.672	3.79
967.1	-2.71
967.528	1.99
967.956	-1.81
968.383	-2.31
968.811	2.19
969.239	-1.41
969.666	-4.01
970.094	-5.61
970.522	0.19
970.949	-5.91
971.377	-5.81
971.804	1.19
972.232	-9.11
972.659	5.49
973.087	3.99
973.514	-4.41
973.941	-5.31
974.369	5.79
974.796	-1.61
975.223	-2.41
975.651	-1.21
976.078	-0.21
976.505	-6.11
976.932	2.29
977.359	15.79
977.786	16.69
978.214	0.89
978.641	-5.11
979.068	-4.21
979.495	-3.21
979.922	-0.91
980.349	-1.31
980.776	3.19
981.202	-0.11
981.629	7.49
982.056	2.89
982.483	-7.51
982.91	-2.31
983.337	-12.51
983.763	2.79
984.19	-4.71
984.617	-5.51
985.043	-7.71
985.47	-5.31
985.897	-3.31
986.323	-6.61
986.75	3.69
987.176	-6.81
987.603	-2.71
988.029	-6.71
988.456	0.59
988.882	0.59
989.308	-5.31
989.735	-6.51
990.161	2.19
990.587	-9.51
991.014	0.19
991.44	0.09
991.866	0.09
992.292	-7.11
992.719	-3.11
993.145	-2.01
993.571	-10.31
993.997	-4.61
994.423	-2.91
994.849	-7.91
995.275	-5.01
995.701	-3.91
996.127	-2.51
996.553	5.29
996.979	-4.11
997.405	-2.11
997.83	-4.71
998.256	-8.11
998.682	-7.31
999.108	-8.11
999.534	-4.21
999.959	-3.31
1000.385	-1.81
1000.811	0.99
1001.236	-7.71
1001.662	-7.71
1002.087	-5.91
1002.513	-5.81
1002.938	-5.01
1003.364	-5.01
1003.789	-4.81
1004.215	3.39
1004.64	1.69
1005.066	5.49
1005.491	0.69
1005.916	-1.51
1006.342	-2.81
1006.767	-7.01
1007.192	2.69
1007.617	-9.51
1008.042	-6.91
1008.468	-5.31
1008.893	-4.91
1009.318	-1.51
1009.743	-6.61
1010.168	3.69
1010.593	3.19
1011.018	-10.61
1011.443	-11.11
1011.868	2.29
1012.293	-4.41
1012.718	-5.91
1013.143	0.79
1013.567	-1.11
1013.992	-2.11
1014.417	-14.41
1014.842	1.99
1015.267	-7.11
1015.691	1.09
1016.116	-0.71
1016.541	-5.91
1016.965	3.59
1017.39	-1.81
1017.814	-1.81
1018.239	-1.81
1018.663	-9.91
1019.088	-16.71
1019.512	-1.21
1019.937	-0.61
1020.361	-9.21
1020.785	-8.21
1021.21	2.59
1021.634	-3.81
1022.058	0.69
1022.483	3.79
1022.907	-1.61
1023.331	-4.61
1023.755	-3.21
1024.179	-3.61
1024.604	-6.31
1025.028	-6.41
1025.452	-1.11
1025.876	0.89
1026.3	0.89
1026.724	-11.41
1027.148	-6.61
1027.572	-11.21
1027.996	-7.71
1028.42	-3.81
1028.843	-4.51
1029.267	-6.61
1029.691	-0.51
1030.115	-8.11
1030.539	-1.81
1030.962	-6.41
1031.386	-11.01
1031.81	-1.51
1032.233	-0.41
1032.657	2.29
1033.08	0.49
1033.504	-6.31
1033.927	-7.91
1034.351	-0.81
1034.774	-4.81
1035.198	-7.71
1035.621	-5.91
1036.045	-10.11
1036.468	-0.21
1036.891	-12.41
1037.315	-2.51
1037.738	-9.41
1038.161	-2.01
1038.584	-6.61
1039.008	-3.81
1039.431	-5.01
1039.854	-3.61
1040.277	-6.41
1040.7	-11.11
1041.123	-0.31
1041.546	-11.71
1041.969	-10.01
1042.392	-9.21
1042.815	0.29
1043.238	-4.51
1043.661	-5.31
1044.084	-10.21
1044.507	-4.61
1044.93	-6.21
1045.352	-3.51
1045.775	-1.71
1046.198	-3.61
1046.621	1.39
1047.043	-5.31
1047.466	0.19
1047.889	-1.51
1048.311	-3.01
1048.734	1.29
1049.156	-3.11
1049.579	-0.61
1050.001	-6.21
1050.424	-2.61
1050.846	0.99
1051.269	-5.01
1051.691	-6.01
1052.113	-9.21
1052.536	-4.31
1052.958	-7.81
1053.38	-8.71
1053.802	-16.81
1054.225	-3.61
1054.647	-9.21
1055.069	-5.21
1055.491	2.19
1055.913	-10.71
1056.335	0.89
1056.757	-8.81
1057.179	-5.81
1057.601	-1.71
1058.023	-2.51
1058.445	-1.01
1058.867	-5.31
1059.289	-4.71
1059.711	-8.71
1060.133	-11.51
1060.555	-8.81
1060.976	-7.81
1061.398	-7.91
1061.82	-11.81
1062.241	-7.01
1062.663	-12.21
1063.085	-7.91
1063.506	-4.11
1063.928	-8.21
1064.35	-5.41
1064.771	-9.61
1065.193	-2.51
1065.614	-8.91
1066.035	-4.11
1066.457	-5.21
1066.878	-1.91
1067.3	-7.91
1067.721	-7.01
1068.142	-3.51
1068.564	-3.91
1068.985	-6.01
1069.406	-1.71
1069.827	-5.71
1070.248	-1.71
1070.67	-7.21
1071.091	-3.01
1071.512	-4.71
1071.933	-8.61
1072.354	-3.41
1072.775	-6.61
1073.196	-11.61
1073.617	1.29
1074.038	-4.71
1074.459	-6.91
1074.88	-12.01
1075.3	-3.61
1075.721	-4.51
1076.142	1.39
1076.563	-0.41
1076.983	-10.01
1077.404	-7.01
1077.825	-8.11
1078.246	-7.91
1078.666	-11.41
1079.087	-5.01
1079.507	-5.61
1079.928	-4.21
1080.348	-6.31
1080.769	-6.11
1081.189	0.29
1081.61	-5.21
1082.03	-7.41
1082.451	-11.21
1082.871	-10.41
1083.291	-4.11
1083.711	-6.71
1084.132	-14.11
1084.552	-9.41
1084.972	-1.01
1085.392	-7.71
1085.813	-15.41
1086.233	-8.31
1086.653	-8.11
1087.073	-6.41
1087.493	-4.51
1087.913	-8.11
1088.333	-5.71
1088.753	-6.01
1089.173	-2.51
1089.593	-6.41
1090.013	3.69
1090.433	1.09
1090.852	-7.41
1091.272	-0.61
1091.692	-0.11
1092.112	-5.01
1092.531	-9.31
1092.951	-16.21
1093.371	5.09
1093.79	2.69
1094.21	-9.71
1094.63	-11.61
1095.049	-6.81
1095.469	-3.11
1095.888	-8.71
1096.308	-5.01
1096.727	-1.41
1097.146	-8.81
1097.566	-1.01
1097.985	-3.11
1098.405	-9.21
1098.824	-8.51
1099.243	-2.31
1099.662	-6.91
1100.082	-4.41
1100.501	-5.31
1100.92	-7.31
1101.339	-3.81
1101.758	-2.31
