Data from 20171114-ORNL-Ar_H_NY_Subt18_08-07-44-538.txt Node
Date: Tue Nov 14 08:07:44 EST 2017
User: Ender
Spectrometer: HR+D1039
Trigger mode: 0
Integration Time (sec): 2.730000E-2
Scans to average: 10
Electric dark correction enabled: true
Nonlinearity correction enabled: false
Boxcar width: 0
XAxis mode: Wavelengths
Number of Pixels in Spectrum: 2048
>>>>>Begin Spectral Data<<<<<
187.836	-3.94
188.309	-3.94
188.782	-3.94
189.255	7.76
189.728	-4.34
190.201	1.46
190.674	-1.74
191.147	1.36
191.619	-8.54
192.092	0.56
192.565	6.96
193.038	2.16
193.511	-1.44
193.984	-1.04
194.456	-1.84
194.929	3.96
195.402	-4.24
195.874	2.96
196.347	0.16
196.82	-4.94
197.292	7.76
197.765	-2.64
198.237	-7.74
198.71	1.16
199.182	-0.14
199.655	3.26
200.127	0.96
200.6	-0.94
201.072	-1.34
201.544	-1.14
202.017	-2.94
202.489	-1.54
202.961	-1.84
203.433	-4.54
203.906	-9.84
204.378	-5.84
204.85	-4.14
205.322	-3.84
205.794	-2.34
206.266	-2.34
206.739	-5.94
207.211	6.66
207.683	-9.84
208.155	-8.84
208.627	-8.94
209.099	1.56
209.57	-13.04
210.042	-1.24
210.514	-2.14
210.986	-1.94
211.458	-8.34
211.93	-2.14
212.402	0.56
212.873	-3.94
213.345	-5.04
213.817	-14.34
214.288	-4.24
214.76	-13.94
215.232	-6.24
215.703	-3.44
216.175	-1.94
216.646	-7.14
217.118	-12.14
217.589	-4.14
218.061	-0.24
218.532	-5.14
219.004	2.06
219.475	-5.64
219.946	-3.84
220.418	-5.44
220.889	5.36
221.36	-5.24
221.832	-6.24
222.303	-2.04
222.774	-1.04
223.245	-7.94
223.717	-1.64
224.188	-4.74
224.659	-10.04
225.13	-10.04
225.601	1.86
226.072	-3.94
226.543	-3.84
227.014	3.56
227.485	-4.94
227.956	-4.54
228.427	1.06
228.898	2.06
229.369	5.96
229.839	-0.24
230.31	-6.74
230.781	5.26
231.252	-2.94
231.722	-6.64
232.193	-0.64
232.664	-0.94
233.135	-1.54
233.605	-0.24
234.076	-0.14
234.546	3.56
235.017	6.26
235.487	1.06
235.958	2.96
236.428	-2.84
236.899	1.76
237.369	8.46
237.84	0.16
238.31	8.96
238.78	7.66
239.251	-4.44
239.721	0.46
240.191	2.66
240.662	-3.44
241.132	2.76
241.602	-5.14
242.072	1.56
242.542	7.26
243.013	-0.44
243.483	7.36
243.953	0.36
244.423	-2.64
244.893	-6.74
245.363	2.86
245.833	1.56
246.303	2.36
246.773	6.16
247.243	-1.54
247.712	3.76
248.182	4.06
248.652	3.26
249.122	-0.74
249.592	12.76
250.061	15.86
250.531	30.76
251.001	13.36
251.471	20.76
251.94	16.76
252.41	8.16
252.879	0.86
253.349	8.56
253.818	5.16
254.288	3.56
254.757	2.06
255.227	3.96
255.696	1.36
256.166	8.46
256.635	13.46
257.105	4.46
257.574	7.86
258.043	7.16
258.513	14.46
258.982	14.56
259.451	8.26
259.92	13.16
260.389	13.76
260.859	12.26
261.328	15.36
261.797	18.76
262.266	6.26
262.735	10.46
263.204	6.36
263.673	0.96
264.142	6.86
264.611	-1.24
265.08	0.06
265.549	0.66
266.018	11.36
266.487	-2.44
266.955	-3.34
267.424	0.06
267.893	4.36
268.362	-4.54
268.83	2.96
269.299	12.96
269.768	3.56
270.236	3.36
270.705	-0.64
271.174	8.86
271.642	6.26
272.111	7.06
272.579	15.26
273.048	21.16
273.516	20.86
273.985	19.96
274.453	22.46
274.922	16.66
275.39	12.16
275.858	5.76
276.327	3.06
276.795	17.66
277.263	12.66
277.731	25.26
278.2	40.86
278.668	53.06
279.136	42.56
279.604	15.46
280.072	12.86
280.54	6.86
281.008	7.86
281.477	11.66
281.945	12.56
282.413	13.86
282.881	16.16
283.348	-0.14
283.816	14.26
284.284	8.26
284.752	23.16
285.22	18.56
285.688	13.26
286.156	18.06
286.623	40.26
287.091	48.46
287.559	22.66
288.026	15.36
288.494	13.06
288.962	0.36
289.429	13.56
289.897	18.76
290.364	13.46
290.832	11.26
291.3	13.16
291.767	11.76
292.234	17.86
292.702	10.06
293.169	17.56
293.637	20.86
294.104	24.06
294.571	5.96
295.039	9.66
295.506	14.86
295.973	22.16
296.44	11.06
296.908	19.16
297.375	22.16
297.842	18.26
298.309	14.46
298.776	6.06
299.243	18.56
299.71	11.76
300.177	14.86
300.644	17.26
301.111	17.96
301.578	14.86
302.045	15.06
302.512	19.26
302.979	22.16
303.446	16.56
303.913	16.26
304.379	14.66
304.846	26.66
305.313	22.46
305.78	19.86
306.246	17.86
306.713	20.66
307.18	25.36
307.646	27.16
308.113	25.66
308.579	14.26
309.046	25.06
309.512	23.76
309.979	17.96
310.445	25.36
310.912	23.96
311.378	23.66
311.845	26.76
312.311	27.06
312.777	28.76
313.244	25.86
313.71	31.06
314.176	27.16
314.642	28.26
315.109	21.06
315.575	25.16
316.041	33.46
316.507	30.36
316.973	36.16
317.439	28.96
317.905	34.96
318.371	29.96
318.837	31.76
319.303	31.36
319.769	30.56
320.235	27.36
320.701	37.86
321.167	34.46
321.633	27.96
322.099	31.36
322.564	35.86
323.03	33.86
323.496	38.46
323.962	41.56
324.427	26.26
324.893	37.06
325.359	36.76
325.824	32.96
326.29	37.76
326.755	39.86
327.221	39.16
327.686	31.36
328.152	40.86
328.617	38.06
329.083	39.96
329.548	43.06
330.014	41.16
330.479	35.86
330.944	36.66
331.41	34.86
331.875	44.66
332.34	42.66
332.805	34.86
333.271	37.36
333.736	35.76
334.201	52.96
334.666	51.56
335.131	48.56
335.596	45.26
336.061	44.06
336.526	38.86
336.991	40.26
337.456	56.76
337.921	46.06
338.386	40.56
338.851	40.36
339.316	43.46
339.781	40.86
340.246	48.26
340.711	35.16
341.175	40.46
341.64	40.86
342.105	46.16
342.569	48.86
343.034	53.86
343.499	49.06
343.963	46.06
344.428	51.46
344.893	48.06
345.357	50.76
345.822	58.26
346.286	56.66
346.751	67.36
347.215	59.56
347.679	69.06
348.144	87.26
348.608	77.86
349.073	60.86
349.537	64.96
350.001	69.96
350.465	69.76
350.93	68.06
351.394	77.76
351.858	61.76
352.322	78.86
352.786	77.06
353.25	90.26
353.715	101.36
354.179	96.46
354.643	113.96
355.107	114.16
355.571	96.56
356.035	97.86
356.498	108.46
356.962	118.06
357.426	120.96
357.89	103.66
358.354	81.56
358.818	77.36
359.281	74.16
359.745	72.76
360.209	70.56
360.673	68.06
361.136	77.96
361.6	75.26
362.064	74.26
362.527	82.66
362.991	81.36
363.454	75.36
363.918	69.66
364.381	67.86
364.845	72.06
365.308	76.66
365.772	80.46
366.235	78.26
366.698	81.36
367.162	80.56
367.625	80.06
368.088	80.96
368.552	78.26
369.015	81.26
369.478	90.16
369.941	90.56
370.404	92.56
370.867	95.36
371.331	98.66
371.794	107.16
372.257	103.16
372.72	101.36
373.183	105.16
373.646	94.06
374.109	100.66
374.572	101.56
375.035	97.46
375.497	97.76
375.96	100.36
376.423	100.46
376.886	109.46
377.349	99.26
377.811	92.26
378.274	99.46
378.737	96.66
379.199	107.06
379.662	108.46
380.125	111.46
380.587	110.86
381.05	118.46
381.512	125.16
381.975	129.06
382.437	113.16
382.9	112.76
383.362	125.96
383.825	128.96
384.287	139.96
384.75	132.76
385.212	130.46
385.674	125.36
386.136	126.06
386.599	122.96
387.061	128.16
387.523	119.96
387.985	127.66
388.447	133.06
388.91	135.46
389.372	156.56
389.834	142.26
390.296	142.26
390.758	144.26
391.22	153.46
391.682	202.46
392.144	282.66
392.606	212.76
393.068	161.76
393.529	156.16
393.991	141.36
394.453	141.26
394.915	151.76
395.377	188.66
395.838	206.46
396.3	144.66
396.762	130.66
397.224	125.16
397.685	116.86
398.147	117.26
398.608	122.66
399.07	113.76
399.531	129.56
399.993	134.16
400.454	146.06
400.916	136.86
401.377	138.06
401.839	144.96
402.3	147.06
402.762	163.36
403.223	169.86
403.684	162.06
404.145	153.76
404.607	145.16
405.068	152.96
405.529	159.06
405.99	182.46
406.451	169.86
406.913	165.36
407.374	162.26
407.835	148.96
408.296	152.26
408.757	163.26
409.218	179.46
409.679	174.86
410.14	169.36
410.601	168.56
411.062	173.66
411.522	184.96
411.983	176.66
412.444	169.16
412.905	168.96
413.366	169.56
413.826	181.86
414.287	207.46
414.748	240.46
415.208	230.46
415.669	202.06
416.13	197.26
416.59	194.36
417.051	200.86
417.511	199.36
417.972	223.36
418.432	229.76
418.893	272.86
419.353	238.76
419.814	187.06
420.274	174.46
420.734	171.06
421.195	187.56
421.655	185.26
422.115	181.16
422.576	186.56
423.036	181.06
423.496	195.86
423.956	202.76
424.416	216.86
424.876	250.66
425.336	250.16
425.797	249.56
426.257	249.06
426.717	230.76
427.177	220.26
427.637	217.16
428.097	227.46
428.556	236.66
429.016	259.76
429.476	260.16
429.936	268.36
430.396	271.16
430.856	281.06
431.315	297.66
431.775	337.96
432.235	364.76
432.694	336.76
433.154	355.76
433.614	376.66
434.073	324.66
434.533	273.56
434.993	253.36
435.452	275.26
435.912	284.36
436.371	274.26
436.83	266.26
437.29	255.36
437.749	235.86
438.209	237.46
438.668	259.26
439.127	276.76
439.587	252.66
440.046	236.16
440.505	244.16
440.964	260.36
441.424	305.06
441.883	296.96
442.342	246.76
442.801	214.46
443.26	210.16
443.719	216.26
444.178	210.96
444.637	198.56
445.096	209.76
445.555	223.66
446.014	221.56
446.473	218.66
446.932	224.86
447.391	218.96
447.849	218.46
448.308	210.16
448.767	211.56
449.226	225.96
449.685	223.56
450.143	238.76
450.602	238.06
451.061	218.76
451.519	219.96
451.978	223.66
452.436	227.06
452.895	233.56
453.353	243.16
453.812	232.06
454.27	227.96
454.729	231.86
455.187	227.96
455.646	232.76
456.104	234.66
456.562	243.56
457.021	260.46
457.479	242.56
457.937	265.56
458.395	253.76
458.854	236.16
459.312	245.86
459.77	265.76
460.228	250.96
460.686	234.76
461.144	234.96
461.602	234.26
462.06	232.96
462.518	253.06
462.976	240.46
463.434	249.26
463.892	257.06
464.35	265.76
464.808	283.46
465.266	258.36
465.724	253.86
466.181	256.56
466.639	265.86
467.097	276.96
467.555	281.06
468.012	289.46
468.47	302.96
468.928	315.56
469.385	338.36
469.843	334.96
470.3	337.36
470.758	347.06
471.215	363.16
471.673	391.86
472.13	382.36
472.588	394.46
473.045	365.36
473.503	368.16
473.96	384.36
474.417	391.06
474.875	411.46
475.332	450.76
475.789	443.26
476.246	455.66
476.704	470.16
477.161	487.36
477.618	494.46
478.075	546.06
478.532	596.56
478.989	675.66
479.446	782.26
479.903	749.06
480.36	780.06
480.817	831.96
481.274	938.16
481.731	1031.96
482.188	1128.46
482.645	1255.56
483.102	1360.26
483.558	1497.16
484.015	1550.16
484.472	1517.46
484.929	1478.06
485.385	1426.36
485.842	1387.86
486.299	1316.06
486.755	1251.56
487.212	1048.06
487.668	890.76
488.125	819.06
488.582	746.56
489.038	717.36
489.494	682.36
489.951	665.46
490.407	640.16
490.864	613.76
491.32	611.66
491.776	612.46
492.233	620.36
492.689	579.46
493.145	576.46
493.602	573.46
494.058	591.86
494.514	593.96
494.97	608.86
495.426	617.56
495.882	593.66
496.338	589.06
496.794	592.96
497.251	588.26
497.707	603.16
498.163	605.76
498.618	613.06
499.074	619.76
499.53	639.96
499.986	652.86
500.442	631.76
500.898	600.16
501.354	602.06
501.809	612.26
502.265	605.16
502.721	633.16
503.177	650.06
503.632	648.66
504.088	643.96
504.543	692.46
504.999	679.76
505.455	628.66
505.91	610.46
506.366	608.96
506.821	599.36
507.277	597.66
507.732	602.36
508.187	587.16
508.643	607.66
509.098	607.96
509.553	622.76
510.009	634.16
510.464	651.26
510.919	654.76
511.375	672.26
511.83	680.36
512.285	693.66
512.74	732.16
513.195	757.86
513.65	743.36
514.105	738.86
514.56	748.16
515.015	756.36
515.47	777.16
515.925	761.46
516.38	754.86
516.835	759.26
517.29	754.16
517.745	744.06
518.2	743.66
518.655	723.06
519.109	714.26
519.564	708.66
520.019	701.86
520.474	698.16
520.928	701.26
521.383	694.16
521.838	673.66
522.292	683.76
522.747	678.86
523.201	681.66
523.656	668.56
524.11	680.66
524.565	674.06
525.019	676.96
525.474	676.46
525.928	678.16
526.382	668.86
526.837	679.46
527.291	672.06
527.745	662.06
528.2	671.76
528.654	674.76
529.108	659.06
529.562	662.26
530.016	666.36
530.47	673.16
530.925	667.96
531.379	672.76
531.833	680.46
532.287	677.36
532.741	681.86
533.195	687.66
533.649	682.46
534.103	703.16
534.556	676.46
535.01	690.26
535.464	680.66
535.918	689.86
536.372	695.06
536.826	701.36
537.279	678.06
537.733	689.16
538.187	682.76
538.64	681.46
539.094	702.46
539.548	703.06
540.001	700.96
540.455	691.46
540.908	712.96
541.362	708.36
541.815	716.96
542.269	728.76
542.722	736.86
543.175	740.36
543.629	733.56
544.082	754.06
544.536	761.96
544.989	759.16
545.442	768.16
545.895	767.46
546.349	768.86
546.802	769.16
547.255	771.46
547.708	781.66
548.161	785.26
548.614	785.46
549.067	799.16
549.52	778.76
549.973	791.16
550.426	781.06
550.879	772.66
551.332	778.66
551.785	785.16
552.238	778.86
552.691	791.26
553.144	808.26
553.596	819.36
554.049	835.26
554.502	873.96
554.955	879.86
555.407	881.86
555.86	862.46
556.313	867.66
556.765	851.36
557.218	852.76
557.67	860.06
558.123	853.56
558.576	842.66
559.028	852.16
559.48	865.26
559.933	834.06
560.385	811.86
560.838	776.56
561.29	763.36
561.742	757.86
562.195	745.76
562.647	738.66
563.099	755.66
563.551	736.36
564.004	757.96
564.456	747.86
564.908	741.06
565.36	721.36
565.812	709.86
566.264	710.86
566.716	700.06
567.168	694.26
567.62	706.26
568.072	680.16
568.524	678.16
568.976	669.66
569.428	663.96
569.88	656.16
570.332	665.76
570.784	660.06
571.235	656.46
571.687	670.86
572.139	680.86
572.59	688.16
573.042	691.36
573.494	693.26
573.945	679.66
574.397	663.46
574.849	676.36
575.3	676.56
575.752	668.56
576.203	656.36
576.655	660.96
577.106	647.96
577.557	644.96
578.009	653.66
578.46	644.36
578.912	650.36
579.363	643.16
579.814	650.46
580.265	641.46
580.717	648.86
581.168	651.46
581.619	660.46
582.07	653.16
582.521	650.16
582.972	654.56
583.423	656.56
583.875	664.56
584.326	680.56
584.777	738.46
585.227	803.96
585.678	899.46
586.129	979.26
586.58	1047.06
587.031	1142.36
587.482	1285.66
587.933	1470.56
588.384	1271.16
588.834	955.86
589.285	785.96
589.736	766.86
590.186	755.86
590.637	745.36
591.088	730.16
591.538	729.86
591.989	709.76
592.439	714.66
592.89	699.16
593.34	688.66
593.791	683.96
594.241	688.66
594.692	692.76
595.142	675.36
595.593	679.26
596.043	697.46
596.493	700.06
596.943	697.76
597.394	696.26
597.844	697.16
598.294	706.66
598.744	731.46
599.195	750.26
599.645	784.26
600.095	841.16
600.545	895.56
600.995	940.96
601.445	988.06
601.895	1045.56
602.345	1106.36
602.795	1070.36
603.245	1027.76
603.695	985.66
604.145	930.26
604.594	885.16
605.044	837.06
605.494	783.16
605.944	743.66
606.393	720.56
606.843	713.36
607.293	720.16
607.743	708.56
608.192	717.16
608.642	737.96
609.091	758.26
609.541	748.56
609.99	751.86
610.44	750.86
610.889	706.06
611.339	682.86
611.788	672.86
612.238	688.66
612.687	709.86
613.136	705.26
613.586	723.16
614.035	714.26
614.484	738.46
614.933	736.86
615.383	734.46
615.832	727.36
616.281	715.56
616.73	669.96
617.179	647.86
617.628	632.56
618.077	616.86
618.526	606.16
618.975	597.46
619.424	601.16
619.873	600.56
620.322	596.56
620.771	594.16
621.22	588.06
621.669	570.96
622.118	568.36
622.567	560.26
623.015	561.56
623.464	554.46
623.913	545.76
624.361	545.26
624.81	538.96
625.259	539.76
625.707	549.56
626.156	535.76
626.604	542.36
627.053	542.06
627.501	550.06
627.95	557.56
628.398	569.56
628.847	563.76
629.295	557.46
629.744	561.96
630.192	554.96
630.64	552.66
631.089	551.66
631.537	573.36
631.985	565.66
632.433	588.56
632.881	602.96
633.33	650.46
633.778	631.16
634.226	555.86
634.674	559.16
635.122	566.36
635.57	580.56
636.018	616.86
636.466	562.86
636.914	547.86
637.362	567.26
637.81	563.06
638.258	568.86
638.705	563.26
639.153	590.96
639.601	598.26
640.049	622.26
640.497	647.06
640.944	670.16
641.392	623.76
641.84	600.16
642.287	566.16
642.735	556.56
643.182	554.66
643.63	554.66
644.078	556.46
644.525	581.26
644.973	580.66
645.42	592.16
645.867	611.96
646.315	627.86
646.762	647.06
647.21	671.86
647.657	700.16
648.104	735.86
648.551	764.76
648.999	829.96
649.446	904.96
649.893	987.26
650.34	1153.26
650.787	1378.96
651.234	1712.56
651.682	2238.66
652.129	3087.56
652.576	4460.56
653.023	6561.56
653.47	8975.56
653.917	11154.76
654.363	12840.36
654.81	14153.36
655.257	13452.66
655.704	8788.76
656.151	5172.96
656.598	3349.86
657.044	2372.26
657.491	1803.56
657.938	1459.96
658.385	1221.66
658.831	1058.76
659.278	943.76
659.724	847.56
660.171	778.86
660.618	702.46
661.064	672.46
661.511	651.96
661.957	651.96
662.404	631.76
662.85	636.66
663.296	608.66
663.743	544.56
664.189	526.76
664.635	521.56
665.082	513.46
665.528	524.46
665.974	512.76
666.42	503.86
666.867	501.56
667.313	484.66
667.759	475.06
668.205	467.36
668.651	478.66
669.097	476.26
669.543	491.16
669.989	459.96
670.435	439.26
670.881	436.16
671.327	439.66
671.773	454.36
672.219	477.36
672.665	535.36
673.11	579.66
673.556	617.26
674.002	647.16
674.448	643.86
674.893	529.66
675.339	465.96
675.785	428.36
676.23	409.46
676.676	379.96
677.122	370.96
677.567	356.86
678.013	359.66
678.458	352.46
678.904	353.26
679.349	335.86
679.794	343.46
680.24	339.46
680.685	341.46
681.131	340.56
681.576	333.66
682.021	344.56
682.466	347.56
682.912	344.66
683.357	344.16
683.802	372.56
684.247	408.06
684.692	442.76
685.137	489.86
685.583	533.76
686.028	550.16
686.473	501.86
686.918	429.56
687.363	402.36
687.807	391.16
688.252	350.66
688.697	347.36
689.142	334.46
689.587	326.66
690.032	318.86
690.477	333.86
690.921	347.26
691.366	378.56
691.811	399.26
692.255	419.66
692.7	444.36
693.145	492.36
693.589	691.96
694.034	1113.86
694.478	1508.86
694.923	1683.46
695.367	2184.36
695.812	1168.56
696.256	484.66
696.701	353.46
697.145	340.46
697.59	321.96
698.034	317.86
698.478	320.96
698.922	321.66
699.367	325.16
699.811	331.96
700.255	349.06
700.699	369.96
701.143	415.56
701.588	471.96
702.032	505.46
702.476	501.56
702.92	472.16
703.364	482.46
703.808	628.46
704.252	1022.86
704.696	1439.16
705.14	1625.86
705.584	2071.16
706.027	1030.26
706.471	504.06
706.915	392.16
707.359	347.76
707.803	312.86
708.246	309.36
708.69	307.16
709.134	307.66
709.577	304.96
710.021	311.96
710.465	307.16
710.908	299.36
711.352	299.56
711.795	310.86
712.239	343.26
712.682	373.76
713.126	410.96
713.569	449.76
714.012	371.86
714.456	315.76
714.899	288.66
715.342	267.66
715.786	260.26
716.229	253.26
716.672	253.36
717.115	242.46
717.558	247.76
718.002	250.96
718.445	260.06
718.888	280.06
719.331	286.36
719.774	304.86
720.217	290.36
720.66	279.36
721.103	267.66
721.546	249.56
721.989	247.96
722.432	221.06
722.874	227.66
723.317	223.26
723.76	235.76
724.203	257.76
724.645	314.56
725.088	441.16
725.531	563.16
725.974	628.86
726.416	540.96
726.859	298.46
727.301	244.86
727.744	233.76
728.187	226.66
728.629	232.86
729.071	245.16
729.514	258.56
729.956	273.56
730.399	282.76
730.841	283.56
731.283	269.06
731.726	259.56
732.168	257.86
732.61	262.26
733.053	278.46
733.495	318.26
733.937	351.36
734.379	387.46
734.821	429.16
735.263	535.66
735.705	830.06
736.148	1579.36
736.59	2524.36
737.032	2950.36
737.474	2391.86
737.916	788.36
738.357	416.26
738.799	327.96
739.241	293.66
739.683	281.76
740.125	282.76
740.567	288.56
741.008	311.86
741.45	307.06
741.892	308.46
742.334	334.16
742.775	353.16
743.217	330.76
743.658	263.26
744.1	256.86
744.542	257.46
744.983	309.76
745.425	335.06
745.866	329.16
746.307	280.36
746.749	273.76
747.19	320.26
747.632	449.26
748.073	894.66
748.514	1849.86
748.956	2781.06
749.397	3502.36
749.838	2888.76
750.279	2846.86
750.72	1445.76
751.162	527.16
751.603	319.56
752.044	252.66
752.485	210.26
752.926	205.46
753.367	202.46
753.808	198.06
754.249	199.16
754.69	183.76
755.131	180.96
755.572	179.06
756.013	171.26
756.453	184.06
756.894	189.46
757.335	185.56
757.776	200.96
758.216	201.96
758.657	195.26
759.098	196.86
759.538	226.56
759.979	259.96
760.42	368.06
760.86	709.36
761.301	1836.06
761.741	4371.36
762.182	6188.26
762.622	4335.86
763.063	1273.76
763.503	523.66
763.943	348.76
764.384	336.86
764.824	397.36
765.264	421.86
765.705	303.66
766.145	204.06
766.585	186.16
767.025	181.26
767.465	187.66
767.906	244.46
768.346	315.26
768.786	333.76
769.226	255.86
769.666	312.86
770.106	617.36
770.546	1547.26
770.986	2571.56
771.426	2271.16
771.866	769.46
772.306	319.56
772.745	208.66
773.185	170.56
773.625	165.86
774.065	170.06
774.505	194.66
774.944	315.66
775.384	707.86
775.824	1237.46
776.263	1181.16
776.703	508.66
777.142	220.76
777.582	161.16
778.021	134.96
778.461	133.86
778.9	136.86
779.34	132.26
779.779	117.06
780.219	110.46
780.658	113.76
781.097	115.86
781.537	109.56
781.976	108.86
782.415	111.76
782.855	103.96
783.294	106.86
783.733	112.16
784.172	104.26
784.611	102.06
785.05	112.76
785.489	113.36
785.928	118.16
786.367	117.86
786.806	115.76
787.245	131.76
787.684	132.16
788.123	146.26
788.562	134.56
789.001	130.46
789.44	122.86
789.879	116.46
790.317	121.86
790.756	120.96
791.195	125.56
791.634	151.86
792.072	203.66
792.511	361.56
792.95	1016.76
793.388	2072.46
793.827	1858.26
794.265	657.36
794.704	276.06
795.142	176.36
795.581	143.46
796.019	132.76
796.458	123.76
796.896	124.06
797.334	130.56
797.773	151.06
798.211	213.06
798.649	439.66
799.087	1002.36
799.526	1559.06
799.964	1965.66
800.402	1940.26
800.84	728.26
801.278	292.16
801.716	181.96
802.154	151.46
802.592	145.16
803.03	140.86
803.468	139.26
803.906	139.26
804.344	150.76
804.782	136.36
805.22	135.06
805.658	125.56
806.096	142.16
806.533	152.96
806.971	168.56
807.409	212.16
807.847	306.66
808.284	660.26
808.722	1845.26
809.16	3214.76
809.597	3069.46
810.035	5326.26
810.472	5503.06
810.91	2013.96
811.347	777.46
811.785	389.36
812.222	247.76
812.66	182.96
813.097	156.26
813.535	140.16
813.972	123.16
814.409	112.96
814.846	105.36
815.284	104.76
815.721	104.96
816.158	108.76
816.595	123.56
817.032	177.96
817.47	194.26
817.907	151.66
818.344	152.36
818.781	120.46
819.218	96.46
819.655	121.86
820.092	179.86
820.529	206.06
820.966	172.06
821.403	138.06
821.839	109.06
822.276	97.96
822.713	122.46
823.15	133.66
823.587	118.06
824.023	143.26
824.46	302.96
824.897	880.16
825.333	1301.36
825.77	560.16
826.206	220.66
826.643	134.26
827.08	99.76
827.516	80.66
827.953	68.56
828.389	79.86
828.825	63.86
829.262	65.56
829.698	59.46
830.135	65.66
830.571	61.76
831.007	67.16
831.443	64.96
831.88	62.56
832.316	61.16
832.752	64.26
833.188	69.76
833.624	63.16
834.06	67.86
834.497	69.76
834.933	70.96
835.369	73.06
835.805	67.16
836.241	72.56
836.677	79.66
837.112	85.96
837.548	101.96
837.984	134.86
838.42	201.36
838.856	503.46
839.292	1498.26
839.727	2236.66
840.163	1036.86
840.599	923.96
841.034	1992.76
841.47	2031.16
841.906	749.86
842.341	327.76
842.777	227.26
843.212	312.36
843.648	303.36
844.083	146.86
844.519	95.56
844.954	77.86
845.39	60.86
845.825	56.86
846.261	57.86
846.696	52.86
847.131	60.06
847.566	62.06
848.002	59.16
848.437	57.56
848.872	61.16
849.307	59.66
849.742	83.66
850.177	178.46
850.613	554.06
851.048	844.96
851.483	366.46
851.918	150.16
852.353	82.66
852.788	63.86
853.223	56.76
853.657	59.56
854.092	50.06
854.527	40.96
854.962	47.66
855.397	46.86
855.832	46.96
856.266	41.36
856.701	34.26
857.136	42.26
857.57	47.86
858.005	52.96
858.44	60.06
858.874	47.26
859.309	56.46
859.743	40.46
860.178	46.16
860.612	48.36
861.047	44.66
861.481	64.66
861.915	69.86
862.35	48.16
862.784	33.66
863.218	36.86
863.653	32.56
864.087	41.16
864.521	52.16
864.955	71.36
865.39	156.26
865.824	169.36
866.258	114.56
866.692	159.26
867.126	166.86
867.56	99.96
867.994	52.26
868.428	42.26
868.862	43.16
869.296	50.56
869.73	59.96
870.164	55.76
870.598	48.76
871.031	41.56
871.465	31.66
871.899	36.56
872.333	21.16
872.766	33.36
873.2	27.16
873.634	35.56
874.067	17.86
874.501	22.76
874.935	36.36
875.368	35.26
875.802	31.56
876.235	28.06
876.669	25.66
877.102	25.36
877.535	25.66
877.969	23.36
878.402	25.66
878.836	18.26
879.269	24.76
879.702	22.96
880.135	21.96
880.569	28.66
881.002	28.16
881.435	20.06
881.868	19.36
882.301	24.36
882.734	16.26
883.167	24.56
883.601	22.36
884.034	23.56
884.467	21.06
884.899	14.06
885.332	18.06
885.765	13.86
886.198	15.76
886.631	22.06
887.064	16.06
887.497	19.36
887.929	25.26
888.362	18.56
888.795	15.36
889.228	21.26
889.66	20.86
890.093	21.26
890.526	9.86
890.958	18.86
891.391	19.16
891.823	19.06
892.256	19.96
892.688	15.36
893.121	17.56
893.553	11.76
893.985	22.06
894.418	15.76
894.85	14.06
895.282	16.46
895.715	13.16
896.147	20.36
896.579	17.56
897.011	13.86
897.444	17.16
897.876	16.76
898.308	18.16
898.74	12.16
899.172	13.26
899.604	20.76
900.036	22.16
900.468	18.76
900.9	15.76
901.332	21.96
901.764	11.26
902.196	16.96
902.628	23.66
903.06	18.26
903.491	25.66
903.923	20.66
904.355	22.26
904.787	27.26
905.218	23.76
905.65	20.86
906.082	20.46
906.513	17.26
906.945	15.26
907.376	15.46
907.808	18.06
908.239	20.26
908.671	21.36
909.102	22.76
909.534	31.16
909.965	38.96
910.397	98.36
910.828	310.26
911.259	457.96
911.691	208.86
912.122	105.76
912.553	52.16
912.984	33.06
913.415	26.56
913.847	26.96
914.278	14.86
914.709	13.26
915.14	14.96
915.571	14.66
916.002	10.96
916.433	21.86
916.864	20.26
917.295	14.06
917.726	25.86
918.157	16.66
918.587	27.16
919.018	26.76
919.449	18.86
919.88	30.06
920.311	28.86
920.741	44.06
921.172	162.76
921.603	143.86
922.033	72.76
922.464	49.36
922.895	23.76
923.325	20.26
923.756	14.36
924.186	20.56
924.617	30.96
925.047	37.76
925.478	51.06
925.908	45.66
926.338	24.96
926.769	13.46
927.199	12.66
927.629	10.86
928.06	17.66
928.49	19.26
928.92	13.46
929.35	13.16
929.78	7.86
930.21	10.46
930.641	13.76
931.071	11.56
931.501	4.26
931.931	12.16
932.361	16.36
932.791	0.36
933.221	9.36
933.651	4.36
934.08	18.46
934.51	36.96
934.94	14.36
935.37	11.76
935.8	7.66
936.229	7.26
936.659	8.86
937.089	5.86
937.519	9.66
937.948	24.66
938.378	15.16
938.807	10.66
939.237	4.66
939.666	9.56
940.096	-0.74
940.525	0.86
940.955	5.86
941.384	2.56
941.814	-0.94
942.243	1.26
942.672	7.16
943.102	-1.64
943.531	-0.74
943.96	4.56
944.39	3.46
944.819	0.16
945.248	3.06
945.677	-1.44
946.106	6.16
946.535	2.36
946.964	-3.14
947.393	6.96
947.822	-0.94
948.251	-2.14
948.68	0.06
949.109	8.36
949.538	4.06
949.967	-0.04
950.396	1.16
950.825	3.86
951.254	4.26
951.682	-5.24
952.111	3.76
952.54	10.86
952.969	-4.04
953.397	-0.24
953.826	-2.34
954.254	-6.64
954.683	5.66
955.112	-2.84
955.54	-1.44
955.969	3.26
956.397	2.26
956.826	-4.94
957.254	6.96
957.682	1.86
958.111	3.26
958.539	2.66
958.967	4.46
959.396	-4.04
959.824	3.46
960.252	2.66
960.68	-7.54
961.109	-3.84
961.537	-2.94
961.965	2.26
962.393	5.36
962.821	-2.84
963.249	2.86
963.677	0.76
964.105	3.36
964.533	43.86
964.961	42.96
965.389	18.36
965.817	5.66
966.245	-2.44
966.672	-0.64
967.1	-8.74
967.528	-0.74
967.956	-0.04
968.383	0.46
968.811	-6.44
969.239	-3.64
969.666	-5.44
970.094	0.96
970.522	1.56
970.949	-2.54
971.377	-5.84
971.804	-2.64
972.232	0.06
972.659	-1.74
973.087	-5.04
973.514	-2.34
973.941	-4.74
974.369	2.76
974.796	2.06
975.223	6.36
975.651	0.36
976.078	6.36
976.505	-0.64
976.932	5.06
977.359	18.26
977.786	14.06
978.214	2.66
978.641	-4.94
979.068	-1.04
979.495	-6.04
979.922	4.46
980.349	-0.54
980.776	2.06
981.202	-1.34
981.629	6.86
982.056	2.86
982.483	-0.54
982.91	0.46
983.337	-3.04
983.763	2.26
984.19	-6.04
984.617	-6.24
985.043	-7.54
985.47	1.66
985.897	2.46
986.323	-3.14
986.75	-0.34
987.176	-0.84
987.603	1.36
988.029	4.36
988.456	-0.84
988.882	0.76
989.308	-4.84
989.735	-6.44
990.161	0.66
990.587	-4.84
991.014	-1.24
991.44	6.16
991.866	0.36
992.292	-4.44
992.719	-1.94
993.145	4.76
993.571	-9.54
993.997	-6.54
994.423	0.16
994.849	-3.74
995.275	0.86
995.701	-3.94
996.127	-3.54
996.553	2.46
996.979	-5.24
997.405	0.86
997.83	2.46
998.256	-2.44
998.682	0.66
999.108	-7.74
999.534	-0.24
999.959	1.66
1000.385	-3.34
1000.811	-0.34
1001.236	-9.64
1001.662	-5.14
1002.087	-8.54
1002.513	-1.84
1002.938	1.66
1003.364	3.36
1003.789	-2.24
1004.215	1.36
1004.64	-0.44
1005.066	5.16
1005.491	4.26
1005.916	2.06
1006.342	-7.34
1006.767	-5.34
1007.192	4.96
1007.617	-4.94
1008.042	-4.94
1008.468	-3.54
1008.893	0.96
1009.318	-2.44
1009.743	-4.24
1010.168	8.56
1010.593	1.26
1011.018	-7.04
1011.443	-4.14
1011.868	3.16
1012.293	-5.94
1012.718	-3.24
1013.143	1.66
1013.567	0.16
1013.992	3.46
1014.417	-11.94
1014.842	-2.44
1015.267	-5.34
1015.691	-3.84
1016.116	2.06
1016.541	1.96
1016.965	-3.34
1017.39	8.76
1017.814	-4.54
1018.239	3.36
1018.663	-10.84
1019.088	-12.24
1019.512	-2.74
1019.937	-0.94
1020.361	0.96
1020.785	-9.74
1021.21	-0.74
1021.634	-7.44
1022.058	-0.94
1022.483	5.06
1022.907	-4.34
1023.331	-3.54
1023.755	-0.14
1024.179	-1.54
1024.604	-3.34
1025.028	-7.24
1025.452	-7.94
1025.876	3.06
1026.3	-2.34
1026.724	-7.74
1027.148	-3.74
1027.572	-7.04
1027.996	0.56
1028.42	0.76
1028.843	-4.64
1029.267	-6.14
1029.691	-4.34
1030.115	-7.44
1030.539	-5.14
1030.962	-7.04
1031.386	-10.24
1031.81	-0.34
1032.233	-1.44
1032.657	-3.44
1033.08	-3.64
1033.504	-2.74
1033.927	-4.54
1034.351	-0.84
1034.774	-8.84
1035.198	-6.04
1035.621	-11.74
1036.045	-2.04
1036.468	6.06
1036.891	-2.24
1037.315	-3.44
1037.738	-10.84
1038.161	-3.34
1038.584	-4.44
1039.008	-11.54
1039.431	0.76
1039.854	0.46
1040.277	-5.44
1040.7	-4.34
1041.123	1.76
1041.546	-7.64
1041.969	-9.54
1042.392	-9.14
1042.815	-2.04
1043.238	-0.14
1043.661	2.06
1044.084	-7.14
1044.507	-6.74
1044.93	-5.04
1045.352	-5.44
1045.775	-2.04
1046.198	-2.84
1046.621	-2.34
1047.043	-4.04
1047.466	3.06
1047.889	-3.04
1048.311	-6.44
1048.734	-0.24
1049.156	-2.24
1049.579	-1.94
1050.001	-7.04
1050.424	-1.14
1050.846	1.76
1051.269	2.26
1051.691	-3.34
1052.113	-13.14
1052.536	0.16
1052.958	0.26
1053.38	-4.94
1053.802	-16.44
1054.225	5.06
1054.647	-13.14
1055.069	-7.74
1055.491	0.56
1055.913	-10.44
1056.335	-1.84
1056.757	-8.64
1057.179	-7.34
1057.601	-10.04
1058.023	-10.54
1058.445	-1.74
1058.867	-1.24
1059.289	-5.34
1059.711	-3.44
1060.133	-3.74
1060.555	-4.44
1060.976	-10.54
1061.398	-4.64
1061.82	-9.54
1062.241	-3.44
1062.663	-4.64
1063.085	-7.24
1063.506	-2.64
1063.928	0.56
1064.35	1.26
1064.771	-12.94
1065.193	-2.84
1065.614	-4.14
1066.035	-2.94
1066.457	-7.94
1066.878	-0.24
1067.3	-7.14
1067.721	-5.14
1068.142	-1.84
1068.564	-0.44
1068.985	-0.64
1069.406	-6.54
1069.827	-9.34
1070.248	-2.44
1070.67	-6.04
1071.091	-5.74
1071.512	-2.94
1071.933	-6.64
1072.354	-9.24
1072.775	-3.24
1073.196	-5.04
1073.617	-3.54
1074.038	-9.34
1074.459	-2.54
1074.88	-9.84
1075.3	-2.74
1075.721	-4.34
1076.142	2.66
1076.563	-6.44
1076.983	-10.94
1077.404	-3.34
1077.825	-12.34
1078.246	-1.34
1078.666	-7.54
1079.087	-4.44
1079.507	-7.14
1079.928	1.36
1080.348	0.26
1080.769	-7.74
1081.189	-3.44
1081.61	0.46
1082.03	-6.94
1082.451	-7.64
1082.871	-11.64
1083.291	-4.84
1083.711	-8.44
1084.132	-6.54
1084.552	-7.94
1084.972	0.56
1085.392	-10.84
1085.813	-6.14
1086.233	-10.34
1086.653	-6.14
1087.073	-7.34
1087.493	-5.84
1087.913	-5.14
1088.333	-6.44
1088.753	-4.94
1089.173	0.86
1089.593	-4.74
1090.013	-0.84
1090.433	-1.54
1090.852	-3.04
1091.272	4.16
1091.692	0.76
1092.112	-4.54
1092.531	-3.24
1092.951	-11.44
1093.371	-4.04
1093.79	-1.84
1094.21	-2.04
1094.63	-5.04
1095.049	-5.24
1095.469	-7.24
1095.888	-6.14
1096.308	1.36
1096.727	3.46
1097.146	-3.84
1097.566	3.36
1097.985	-3.74
1098.405	3.96
1098.824	-8.24
1099.243	-4.64
1099.662	-1.74
1100.082	-2.34
1100.501	2.46
1100.92	-1.14
1101.339	-2.44
1101.758	0.56
