Data from 20171114-ORNL-Ar_H_NY_Subt18_08-07-16-148.txt Node
Date: Tue Nov 14 08:07:16 EST 2017
User: Ender
Spectrometer: HR+D1039
Trigger mode: 0
Integration Time (sec): 2.730000E-2
Scans to average: 10
Electric dark correction enabled: true
Nonlinearity correction enabled: false
Boxcar width: 0
XAxis mode: Wavelengths
Number of Pixels in Spectrum: 2048
>>>>>Begin Spectral Data<<<<<
187.836	-7.89
188.309	-7.89
188.782	-7.89
189.255	1.01
189.728	-2.59
190.201	0.81
190.674	1.01
191.147	1.01
191.619	-4.79
192.092	-0.09
192.565	8.91
193.038	1.41
193.511	2.41
193.984	-2.29
194.456	-0.49
194.929	1.21
195.402	-4.19
195.874	4.61
196.347	-2.39
196.82	-4.89
197.292	3.21
197.765	2.91
198.237	-5.29
198.71	2.51
199.182	-2.29
199.655	-0.49
200.127	-0.29
200.6	-4.19
201.072	-1.19
201.544	-3.19
202.017	0.71
202.489	4.51
202.961	1.91
203.433	-2.39
203.906	-10.09
204.378	-2.29
204.85	-5.59
205.322	-7.59
205.794	-2.69
206.266	-1.49
206.739	-11.59
207.211	-2.49
207.683	-10.19
208.155	-5.59
208.627	-5.89
209.099	-4.29
209.57	-10.49
210.042	-5.29
210.514	-4.29
210.986	0.71
211.458	-9.09
211.93	-0.09
212.402	-2.69
212.873	-6.29
213.345	-5.59
213.817	-10.49
214.288	-6.49
214.76	-17.39
215.232	-8.99
215.703	-3.79
216.175	-8.29
216.646	-6.69
217.118	-0.89
217.589	-4.29
218.061	-1.19
218.532	-4.29
219.004	-6.59
219.475	-11.59
219.946	-4.49
220.418	-6.19
220.889	-2.49
221.36	-4.79
221.832	-3.39
222.303	-7.79
222.774	-6.79
223.245	-9.39
223.717	-8.49
224.188	-3.19
224.659	-5.99
225.13	-10.39
225.601	-8.89
226.072	0.31
226.543	-5.59
227.014	-1.39
227.485	-3.09
227.956	-9.19
228.427	-1.19
228.898	-2.79
229.369	-0.99
229.839	-2.59
230.31	-8.69
230.781	-3.49
231.252	-3.49
231.722	-3.59
232.193	-6.79
232.664	-4.79
233.135	-3.59
233.605	-2.19
234.076	-13.49
234.546	-7.99
235.017	2.61
235.487	0.61
235.958	-3.89
236.428	-7.29
236.899	-1.69
237.369	-0.89
237.84	-7.39
238.31	0.61
238.78	-8.09
239.251	-1.79
239.721	-8.49
240.191	-10.09
240.662	-7.89
241.132	-2.69
241.602	-12.49
242.072	-5.49
242.542	-2.19
243.013	-4.49
243.483	-3.19
243.953	0.01
244.423	-1.89
244.893	-7.69
245.363	-4.49
245.833	-1.09
246.303	-1.69
246.773	8.11
247.243	-2.39
247.712	-3.49
248.182	-3.49
248.652	-1.09
249.122	-11.09
249.592	-0.49
250.061	1.91
250.531	9.11
251.001	-1.99
251.471	0.01
251.94	10.11
252.41	-3.09
252.879	-8.39
253.349	2.91
253.818	7.71
254.288	-2.29
254.757	-1.49
255.227	-1.29
255.696	0.91
256.166	4.91
256.635	-2.89
257.105	2.91
257.574	-4.99
258.043	0.71
258.513	-5.59
258.982	-5.29
259.451	-8.79
259.92	-0.09
260.389	2.61
260.859	8.21
261.328	3.11
261.797	2.61
262.266	-2.99
262.735	4.41
263.204	4.71
263.673	2.61
264.142	1.21
264.611	-2.89
265.08	-5.39
265.549	-6.69
266.018	0.51
266.487	-5.69
266.955	-2.59
267.424	0.21
267.893	6.41
268.362	-1.89
268.83	-2.99
269.299	9.41
269.768	2.61
270.236	-0.29
270.705	1.21
271.174	-1.49
271.642	-0.69
272.111	0.81
272.579	-1.09
273.048	-0.19
273.516	-1.09
273.985	4.51
274.453	1.41
274.922	6.21
275.39	4.81
275.858	-4.29
276.327	3.01
276.795	12.21
277.263	4.21
277.731	15.91
278.2	6.71
278.668	2.41
279.136	7.61
279.604	3.01
280.072	7.41
280.54	5.91
281.008	4.81
281.477	8.71
281.945	4.11
282.413	5.11
282.881	8.31
283.348	3.11
283.816	4.41
284.284	11.11
284.752	9.31
285.22	8.11
285.688	11.61
286.156	10.61
286.623	15.51
287.091	6.51
287.559	11.41
288.026	5.31
288.494	13.51
288.962	-1.49
289.429	3.21
289.897	13.61
290.364	7.51
290.832	11.11
291.3	10.91
291.767	11.91
292.234	6.11
292.702	5.51
293.169	10.01
293.637	16.81
294.104	10.71
294.571	-0.59
295.039	7.81
295.506	0.61
295.973	12.11
296.44	4.71
296.908	13.21
297.375	12.11
297.842	4.51
298.309	10.71
298.776	10.71
299.243	19.11
299.71	6.51
300.177	18.01
300.644	13.41
301.111	11.41
301.578	16.51
302.045	5.71
302.512	16.21
302.979	19.91
303.446	14.21
303.913	18.21
304.379	7.01
304.846	16.91
305.313	18.51
305.78	15.41
306.246	16.31
306.713	17.61
307.18	13.91
307.646	17.21
308.113	21.61
308.579	23.01
309.046	16.31
309.512	21.71
309.979	11.31
310.445	24.31
310.912	20.51
311.378	26.91
311.845	23.41
312.311	25.11
312.777	23.01
313.244	20.11
313.71	31.41
314.176	23.31
314.642	18.01
315.109	26.21
315.575	26.91
316.041	29.81
316.507	14.81
316.973	27.41
317.439	20.51
317.905	25.21
318.371	31.21
318.837	26.31
319.303	27.11
319.769	28.51
320.235	19.31
320.701	31.11
321.167	28.71
321.633	23.61
322.099	28.01
322.564	26.71
323.03	29.31
323.496	29.11
323.962	34.41
324.427	31.31
324.893	34.41
325.359	32.31
325.824	30.41
326.29	30.51
326.755	26.21
327.221	33.11
327.686	30.21
328.152	40.21
328.617	38.41
329.083	38.61
329.548	45.31
330.014	38.51
330.479	32.71
330.944	32.81
331.41	35.51
331.875	35.61
332.34	37.61
332.805	30.31
333.271	38.41
333.736	32.31
334.201	39.61
334.666	44.31
335.131	44.81
335.596	42.21
336.061	40.41
336.526	34.01
336.991	37.11
337.456	44.31
337.921	36.21
338.386	38.11
338.851	36.51
339.316	40.21
339.781	42.21
340.246	44.21
340.711	38.61
341.175	40.01
341.64	41.51
342.105	41.61
342.569	47.11
343.034	47.11
343.499	47.81
343.963	47.51
344.428	51.31
344.893	51.81
345.357	49.71
345.822	49.81
346.286	56.01
346.751	58.41
347.215	55.41
347.679	62.51
348.144	75.11
348.608	72.11
349.073	58.51
349.537	61.61
350.001	74.21
350.465	70.11
350.93	67.11
351.394	69.31
351.858	58.41
352.322	66.71
352.786	69.31
353.25	82.21
353.715	86.91
354.179	82.21
354.643	97.81
355.107	96.21
355.571	90.91
356.035	83.51
356.498	99.21
356.962	93.41
357.426	107.81
357.89	99.81
358.354	76.91
358.818	75.91
359.281	69.61
359.745	67.11
360.209	69.51
360.673	66.41
361.136	70.31
361.6	75.11
362.064	73.21
362.527	76.31
362.991	83.51
363.454	74.11
363.918	70.61
364.381	71.31
364.845	72.31
365.308	78.51
365.772	78.51
366.235	79.01
366.698	75.91
367.162	74.41
367.625	74.11
368.088	81.01
368.552	80.81
369.015	75.61
369.478	85.01
369.941	92.21
370.404	86.31
370.867	91.61
371.331	89.81
371.794	96.21
372.257	89.81
372.72	89.41
373.183	94.21
373.646	90.41
374.109	88.11
374.572	91.41
375.035	90.61
375.497	87.01
375.96	93.91
376.423	97.51
376.886	99.41
377.349	103.41
377.811	91.71
378.274	92.61
378.737	97.21
379.199	102.51
379.662	99.01
380.125	107.61
380.587	105.61
381.05	105.71
381.512	105.91
381.975	114.71
382.437	114.21
382.9	109.61
383.362	112.51
383.825	122.91
384.287	116.91
384.75	109.81
385.212	114.01
385.674	124.11
386.136	122.61
386.599	111.41
387.061	115.71
387.523	112.11
387.985	119.51
388.447	130.11
388.91	119.31
389.372	120.61
389.834	123.01
390.296	119.21
390.758	129.61
391.22	124.41
391.682	136.51
392.144	136.51
392.606	137.11
393.068	130.41
393.529	140.51
393.991	127.31
394.453	124.11
394.915	124.81
395.377	128.51
395.838	133.61
396.3	135.91
396.762	141.21
397.224	127.91
397.685	130.61
398.147	133.41
398.608	128.31
399.07	132.71
399.531	133.81
399.993	135.91
400.454	147.91
400.916	145.31
401.377	143.91
401.839	146.71
402.3	150.51
402.762	165.51
403.223	172.11
403.684	162.71
404.145	162.51
404.607	156.01
405.068	157.11
405.529	164.01
405.99	175.71
406.451	168.31
406.913	169.41
407.374	156.01
407.835	165.71
408.296	166.81
408.757	169.61
409.218	183.71
409.679	176.41
410.14	174.21
410.601	173.51
411.062	176.41
411.522	177.71
411.983	174.71
412.444	170.91
412.905	183.31
413.366	186.21
413.826	196.31
414.287	227.71
414.748	266.21
415.208	256.11
415.669	219.21
416.13	213.71
416.59	204.41
417.051	223.01
417.511	231.61
417.972	245.71
418.432	250.01
418.893	300.21
419.353	253.21
419.814	206.81
420.274	191.21
420.734	185.51
421.195	201.01
421.655	190.41
422.115	202.21
422.576	197.61
423.036	204.41
423.496	214.01
423.956	219.81
424.416	239.21
424.876	271.11
425.336	267.71
425.797	269.91
426.257	252.91
426.717	254.41
427.177	237.91
427.637	229.21
428.097	240.41
428.556	247.11
429.016	266.01
429.476	254.51
429.936	274.21
430.396	276.41
430.856	289.41
431.315	305.71
431.775	340.81
432.235	376.81
432.694	350.91
433.154	348.91
433.614	377.21
434.073	338.01
434.533	286.11
434.993	271.41
435.452	278.51
435.912	286.21
436.371	286.91
436.83	281.71
437.29	265.31
437.749	245.61
438.209	251.91
438.668	275.31
439.127	283.81
439.587	265.51
440.046	251.71
440.505	264.71
440.964	278.51
441.424	320.11
441.883	307.41
442.342	269.01
442.801	241.81
443.26	233.91
443.719	237.51
444.178	232.81
444.637	225.21
445.096	238.41
445.555	234.31
446.014	236.81
446.473	235.91
446.932	240.31
447.391	244.11
447.849	235.71
448.308	232.31
448.767	236.31
449.226	249.71
449.685	246.61
450.143	270.11
450.602	253.51
451.061	241.91
451.519	240.81
451.978	248.51
452.436	244.01
452.895	250.51
453.353	262.51
453.812	259.41
454.27	255.91
454.729	249.71
455.187	254.61
455.646	258.11
456.104	256.21
456.562	276.11
457.021	279.71
457.479	276.91
457.937	285.21
458.395	270.21
458.854	256.81
459.312	269.81
459.77	281.41
460.228	267.21
460.686	259.11
461.144	260.91
461.602	254.21
462.06	259.71
462.518	265.11
462.976	270.11
463.434	281.51
463.892	277.61
464.35	293.81
464.808	304.31
465.266	282.11
465.724	288.51
466.181	293.41
466.639	285.81
467.097	310.81
467.555	322.61
468.012	320.61
468.47	327.51
468.928	348.61
469.385	369.51
469.843	367.71
470.3	371.11
470.758	379.21
471.215	407.81
471.673	419.31
472.13	433.91
472.588	438.31
473.045	394.81
473.503	395.61
473.96	413.21
474.417	429.01
474.875	449.31
475.332	497.41
475.789	478.91
476.246	496.51
476.704	506.31
477.161	536.11
477.618	537.81
478.075	574.51
478.532	636.41
478.989	698.01
479.446	804.51
479.903	780.71
480.36	807.01
480.817	856.11
481.274	953.51
481.731	1056.91
482.188	1121.31
482.645	1256.61
483.102	1340.11
483.558	1468.31
484.015	1498.11
484.472	1481.01
484.929	1429.21
485.385	1404.31
485.842	1345.01
486.299	1310.81
486.755	1261.01
487.212	1089.71
487.668	938.51
488.125	851.41
488.582	783.01
489.038	753.11
489.494	742.41
489.951	711.31
490.407	689.81
490.864	669.01
491.32	671.31
491.776	676.21
492.233	678.41
492.689	652.81
493.145	633.41
493.602	640.71
494.058	637.61
494.514	646.41
494.97	659.51
495.426	665.71
495.882	653.51
496.338	644.61
496.794	659.81
497.251	641.71
497.707	656.81
498.163	670.31
498.618	674.91
499.074	673.31
499.53	694.31
499.986	689.91
500.442	675.81
500.898	647.61
501.354	646.61
501.809	653.51
502.265	662.41
502.721	670.01
503.177	669.41
503.632	679.01
504.088	685.71
504.543	700.71
504.999	720.81
505.455	694.51
505.91	676.51
506.366	662.31
506.821	669.81
507.277	666.21
507.732	670.21
508.187	672.21
508.643	672.51
509.098	680.51
509.553	704.51
510.009	708.81
510.464	719.81
510.919	731.21
511.375	733.41
511.83	746.21
512.285	763.41
512.74	796.81
513.195	817.11
513.65	805.31
514.105	812.21
514.56	812.41
515.015	833.11
515.47	842.21
515.925	823.91
516.38	824.81
516.835	845.21
517.29	822.11
517.745	819.61
518.2	811.21
518.655	785.51
519.109	787.61
519.564	782.71
520.019	767.21
520.474	777.31
520.928	767.21
521.383	752.31
521.838	756.71
522.292	757.51
522.747	759.51
523.201	743.61
523.656	735.01
524.11	740.21
524.565	738.51
525.019	728.01
525.474	738.31
525.928	735.41
526.382	733.81
526.837	725.61
527.291	746.81
527.745	740.71
528.2	738.11
528.654	733.81
529.108	721.11
529.562	723.71
530.016	727.41
530.47	736.41
530.925	736.51
531.379	733.61
531.833	737.21
532.287	741.41
532.741	741.41
533.195	741.31
533.649	747.81
534.103	756.11
534.556	747.91
535.01	744.91
535.464	739.51
535.918	768.21
536.372	750.71
536.826	753.71
537.279	733.01
537.733	757.21
538.187	758.31
538.64	747.41
539.094	759.61
539.548	766.01
540.001	762.91
540.455	764.81
540.908	774.11
541.362	781.61
541.815	786.81
542.269	807.71
542.722	811.21
543.175	812.51
543.629	828.31
544.082	826.71
544.536	828.91
544.989	837.51
545.442	844.31
545.895	832.41
546.349	843.61
546.802	844.51
547.255	842.01
547.708	842.31
548.161	861.31
548.614	864.91
549.067	882.21
549.52	861.01
549.973	853.21
550.426	851.21
550.879	842.41
551.332	852.71
551.785	859.91
552.238	856.71
552.691	873.71
553.144	883.31
553.596	890.61
554.049	917.01
554.502	939.91
554.955	951.61
555.407	961.01
555.86	952.81
556.313	945.41
556.765	943.01
557.218	950.51
557.67	936.31
558.123	920.11
558.576	920.71
559.028	928.81
559.48	945.91
559.933	914.71
560.385	894.61
560.838	854.41
561.29	831.61
561.742	832.91
562.195	804.61
562.647	806.11
563.099	817.71
563.551	822.11
564.004	831.71
564.456	807.81
564.908	798.21
565.36	785.61
565.812	761.71
566.264	756.81
566.716	752.81
567.168	738.31
567.62	739.91
568.072	736.21
568.524	733.21
568.976	718.81
569.428	715.11
569.88	732.51
570.332	720.11
570.784	719.91
571.235	725.61
571.687	733.71
572.139	727.01
572.59	752.91
573.042	746.01
573.494	748.21
573.945	746.71
574.397	725.71
574.849	722.51
575.3	736.91
575.752	721.81
576.203	724.31
576.655	728.61
577.106	712.31
577.557	700.91
578.009	698.11
578.46	703.71
578.912	704.51
579.363	709.71
579.814	702.31
580.265	705.11
580.717	710.01
581.168	711.11
581.619	722.71
582.07	716.71
582.521	713.11
582.972	706.31
583.423	713.01
583.875	713.71
584.326	716.01
584.777	721.81
585.227	745.01
585.678	754.21
586.129	770.41
586.58	792.01
587.031	798.51
587.482	830.81
587.933	851.61
588.384	842.61
588.834	819.11
589.285	803.41
589.736	808.31
590.186	810.41
590.637	805.51
591.088	790.71
591.538	768.11
591.989	769.91
592.439	765.61
592.89	755.91
593.34	748.61
593.791	745.11
594.241	736.11
594.692	742.61
595.142	736.31
595.593	724.41
596.043	741.21
596.493	738.11
596.943	738.01
597.394	754.41
597.844	753.71
598.294	780.71
598.744	797.61
599.195	816.41
599.645	857.31
600.095	898.71
600.545	975.21
600.995	1023.61
601.445	1079.81
601.895	1135.81
602.345	1188.71
602.795	1174.81
603.245	1132.61
603.695	1071.31
604.145	1011.51
604.594	965.31
605.044	906.61
605.494	840.11
605.944	794.11
606.393	783.61
606.843	759.01
607.293	767.41
607.743	761.31
608.192	764.91
608.642	778.81
609.091	797.01
609.541	790.81
609.99	792.71
610.44	799.01
610.889	754.11
611.339	729.01
611.788	707.71
612.238	725.61
612.687	733.71
613.136	723.61
613.586	735.01
614.035	723.01
614.484	745.61
614.933	734.91
615.383	746.71
615.832	732.01
616.281	729.41
616.73	698.31
617.179	690.41
617.628	666.61
618.077	659.41
618.526	641.71
618.975	648.41
619.424	630.81
619.873	643.41
620.322	636.91
620.771	628.51
621.22	625.31
621.669	617.21
622.118	612.31
622.567	596.81
623.015	592.31
623.464	600.31
623.913	588.81
624.361	583.91
624.81	573.61
625.259	572.41
625.707	579.61
626.156	578.51
626.604	591.21
627.053	587.21
627.501	597.81
627.95	593.11
628.398	602.71
628.847	599.31
629.295	608.31
629.744	597.01
630.192	586.21
630.64	583.51
631.089	569.51
631.537	570.81
631.985	552.81
632.433	551.01
632.881	542.11
633.33	550.61
633.778	543.81
634.226	548.91
634.674	559.91
635.122	559.41
635.57	569.91
636.018	573.11
636.466	588.71
636.914	575.11
637.362	590.71
637.81	603.11
638.258	601.41
638.705	612.71
639.153	639.51
639.601	647.31
640.049	670.91
640.497	695.51
640.944	726.01
641.392	679.61
641.84	632.61
642.287	609.41
642.735	588.31
643.182	583.11
643.63	585.31
644.078	578.81
644.525	597.81
644.973	595.91
645.42	613.51
645.867	630.41
646.315	652.81
646.762	679.21
647.21	705.11
647.657	721.01
648.104	754.91
648.551	769.31
648.999	828.71
649.446	907.51
649.893	1001.31
650.34	1130.81
650.787	1352.91
651.234	1655.41
651.682	2144.81
652.129	2880.51
652.576	4108.71
653.023	5985.01
653.47	8088.71
653.917	10078.51
654.363	11585.31
654.81	12759.51
655.257	12087.21
655.704	8009.91
656.151	4795.41
656.598	3159.41
657.044	2270.91
657.491	1772.91
657.938	1432.21
658.385	1211.41
658.831	1060.11
659.278	949.81
659.724	850.41
660.171	779.61
660.618	732.51
661.064	700.01
661.511	684.91
661.957	666.51
662.404	651.51
662.85	656.71
663.296	627.91
663.743	573.11
664.189	548.11
664.635	551.21
665.082	547.11
665.528	548.21
665.974	530.41
666.42	529.31
666.867	519.61
667.313	499.71
667.759	477.11
668.205	471.61
668.651	464.81
669.097	468.51
669.543	469.81
669.989	463.21
670.435	454.11
670.881	457.81
671.327	472.41
671.773	488.31
672.219	510.21
672.665	575.11
673.11	608.61
673.556	661.21
674.002	688.01
674.448	681.51
674.893	582.01
675.339	500.81
675.785	456.21
676.23	438.51
676.676	411.51
677.122	401.31
677.567	393.71
678.013	389.01
678.458	383.21
678.904	386.71
679.349	365.91
679.794	370.31
680.24	359.41
680.685	371.71
681.131	355.31
681.576	365.81
682.021	372.11
682.466	365.01
682.912	363.81
683.357	369.31
683.802	403.11
684.247	424.71
684.692	475.01
685.137	516.51
685.583	568.91
686.028	594.01
686.473	540.01
686.918	469.91
687.363	434.41
687.807	412.41
688.252	383.81
688.697	376.51
689.142	349.91
689.587	353.41
690.032	340.11
690.477	362.31
690.921	378.01
691.366	403.71
691.811	419.31
692.255	447.21
692.7	485.01
693.145	534.81
693.589	736.91
694.034	1205.71
694.478	1631.11
694.923	1844.21
695.367	2374.81
695.812	1256.61
696.256	524.91
696.701	387.31
697.145	351.41
697.59	343.41
698.034	322.21
698.478	342.81
698.922	331.51
699.367	348.71
699.811	350.71
700.255	372.81
700.699	404.01
701.143	449.91
701.588	493.81
702.032	536.41
702.476	536.01
702.92	510.21
703.364	532.11
703.808	686.51
704.252	1099.81
704.696	1545.11
705.14	1768.11
705.584	2246.11
706.027	1123.51
706.471	552.11
706.915	424.71
707.359	374.01
707.803	331.51
708.246	325.71
708.69	322.51
709.134	322.81
709.577	325.31
710.021	332.71
710.465	332.01
710.908	319.01
711.352	312.51
711.795	328.61
712.239	374.81
712.682	403.11
713.126	426.21
713.569	469.01
714.012	376.81
714.456	314.01
714.899	299.11
715.342	282.21
715.786	272.51
716.229	271.81
716.672	268.71
717.115	258.91
717.558	258.41
718.002	266.11
718.445	275.21
718.888	297.11
719.331	303.11
719.774	312.51
720.217	313.51
720.66	300.61
721.103	283.81
721.546	267.41
721.989	259.01
722.432	240.91
722.874	253.41
723.317	236.11
723.76	241.91
724.203	268.11
724.645	333.21
725.088	465.61
725.531	603.61
725.974	679.01
726.416	568.31
726.859	323.11
727.301	263.71
727.744	246.61
728.187	239.81
728.629	244.71
729.071	262.81
729.514	270.71
729.956	279.81
730.399	297.61
730.841	300.81
731.283	293.11
731.726	278.21
732.168	273.81
732.61	284.31
733.053	305.41
733.495	323.51
733.937	372.61
734.379	414.01
734.821	455.21
735.263	577.81
735.705	888.21
736.148	1697.91
736.59	2746.51
737.032	3232.51
737.474	2628.71
737.916	864.71
738.357	454.31
738.799	347.11
739.241	313.11
739.683	297.51
740.125	307.71
740.567	310.01
741.008	327.91
741.45	336.11
741.892	329.31
742.334	369.41
742.775	384.11
743.217	367.91
743.658	284.61
744.1	269.61
744.542	279.51
744.983	341.41
745.425	375.51
745.866	356.01
746.307	296.01
746.749	290.31
747.19	346.71
747.632	488.61
748.073	950.01
748.514	1996.61
748.956	3032.21
749.397	3801.31
749.838	3158.91
750.279	3125.41
750.72	1589.01
751.162	586.71
751.603	338.01
752.044	266.61
752.485	234.81
752.926	223.61
753.367	212.61
753.808	206.91
754.249	195.81
754.69	194.61
755.131	199.51
755.572	191.71
756.013	187.21
756.453	200.31
756.894	203.91
757.335	197.31
757.776	201.61
758.216	207.31
758.657	208.41
759.098	209.01
759.538	236.71
759.979	284.91
760.42	401.01
760.86	759.51
761.301	1974.01
761.741	4740.21
762.182	6782.61
762.622	4789.71
763.063	1393.61
763.503	562.61
763.943	344.41
764.384	280.61
764.824	238.01
765.264	234.71
765.705	212.51
766.145	188.41
766.585	184.01
767.025	185.01
767.465	164.41
767.906	181.41
768.346	184.01
768.786	203.01
769.226	229.91
769.666	324.01
770.106	650.01
770.546	1655.71
770.986	2791.91
771.426	2487.71
771.866	839.21
772.306	345.71
772.745	221.91
773.185	179.51
773.625	163.51
774.065	153.71
774.505	165.61
774.944	212.91
775.384	364.01
775.824	590.71
776.263	574.01
776.703	283.01
777.142	164.11
777.582	139.21
778.021	124.41
778.461	123.81
778.9	132.41
779.34	132.01
779.779	115.41
780.219	114.31
780.658	108.31
781.097	110.11
781.537	107.91
781.976	117.01
782.415	106.11
782.855	112.51
783.294	106.71
783.733	108.51
784.172	112.41
784.611	105.81
785.05	107.31
785.489	113.51
785.928	115.61
786.367	127.51
786.806	128.31
787.245	132.51
787.684	139.61
788.123	156.21
788.562	139.81
789.001	132.21
789.44	123.81
789.879	122.91
790.317	119.21
790.756	126.71
791.195	133.51
791.634	154.81
792.072	214.61
792.511	387.91
792.95	1073.21
793.388	2244.61
793.827	2010.01
794.265	705.91
794.704	296.01
795.142	183.51
795.581	162.91
796.019	147.91
796.458	138.11
796.896	124.71
797.334	137.81
797.773	162.71
798.211	232.11
798.649	471.41
799.087	1081.71
799.526	1712.11
799.964	2149.31
800.402	2117.21
800.84	805.01
801.278	323.31
801.716	197.41
802.154	161.41
802.592	151.81
803.03	149.51
803.468	143.31
803.906	144.61
804.344	156.51
804.782	144.31
805.22	139.71
805.658	131.81
806.096	153.41
806.533	170.11
806.971	188.41
807.409	230.01
807.847	344.11
808.284	719.91
808.722	1997.81
809.16	3483.71
809.597	3348.71
810.035	5774.01
810.472	6110.81
810.91	2206.91
811.347	849.21
811.785	425.81
812.222	271.01
812.66	201.61
813.097	176.01
813.535	145.61
813.972	138.01
814.409	128.61
814.846	119.71
815.284	117.01
815.721	109.31
816.158	110.41
816.595	118.31
817.032	162.51
817.47	186.61
817.907	148.21
818.344	99.81
818.781	100.61
819.218	98.01
819.655	119.71
820.092	196.41
820.529	216.61
820.966	174.11
821.403	128.91
821.839	101.81
822.276	100.81
822.713	126.71
823.15	143.81
823.587	129.71
824.023	160.31
824.46	328.91
824.897	963.31
825.333	1428.11
825.77	617.61
826.206	247.11
826.643	143.61
827.08	106.41
827.516	89.81
827.953	86.11
828.389	77.71
828.825	68.91
829.262	68.81
829.698	69.11
830.135	64.21
830.571	65.71
831.007	68.91
831.443	66.81
831.88	59.51
832.316	64.51
832.752	68.61
833.188	61.81
833.624	62.91
834.06	72.31
834.497	67.81
834.933	83.21
835.369	81.21
835.805	77.21
836.241	85.31
836.677	86.21
837.112	94.11
837.548	112.81
837.984	139.21
838.42	212.31
838.856	529.31
839.292	1601.11
839.727	2436.71
840.163	1142.61
840.599	988.61
841.034	2168.01
841.47	2227.61
841.906	812.51
842.341	348.21
842.777	216.71
843.212	215.21
843.648	189.41
844.083	115.61
844.519	85.91
844.954	73.31
845.39	54.31
845.825	57.51
846.261	63.41
846.696	56.11
847.131	59.41
847.566	54.81
848.002	55.61
848.437	59.51
848.872	67.01
849.307	64.41
849.742	93.01
850.177	193.71
850.613	600.41
851.048	926.41
851.483	396.11
851.918	157.71
852.353	90.41
852.788	58.81
853.223	56.31
853.657	54.91
854.092	53.61
854.527	46.01
854.962	35.51
855.397	45.31
855.832	49.01
856.266	42.71
856.701	44.01
857.136	42.11
857.57	49.01
858.005	51.01
858.44	63.91
858.874	51.11
859.309	51.31
859.743	46.61
860.178	49.61
860.612	41.61
861.047	60.71
861.481	69.31
861.915	77.21
862.35	54.31
862.784	34.71
863.218	32.71
863.653	36.81
864.087	46.11
864.521	53.81
864.955	73.41
865.39	157.91
865.824	186.21
866.258	121.91
866.692	178.01
867.126	190.31
867.56	113.91
867.994	59.31
868.428	46.81
868.862	45.51
869.296	55.61
869.73	61.81
870.164	59.21
870.598	48.41
871.031	47.21
871.465	33.11
871.899	35.61
872.333	28.11
872.766	23.91
873.2	24.81
873.634	29.51
874.067	28.11
874.501	27.71
874.935	32.41
875.368	32.91
875.802	32.71
876.235	24.41
876.669	31.01
877.102	25.41
877.535	28.01
877.969	24.91
878.402	27.31
878.836	26.61
879.269	32.21
879.702	25.61
880.135	20.61
880.569	20.81
881.002	26.21
881.435	22.81
881.868	18.21
882.301	23.01
882.734	22.61
883.167	31.11
883.601	18.51
884.034	22.41
884.467	19.61
884.899	20.71
885.332	18.21
885.765	17.41
886.198	18.91
886.631	18.01
887.064	16.21
887.497	21.91
887.929	23.51
888.362	14.91
888.795	12.11
889.228	20.21
889.66	18.51
890.093	18.71
890.526	15.81
890.958	22.31
891.391	17.51
891.823	20.01
892.256	16.21
892.688	11.91
893.121	22.61
893.553	15.21
893.985	24.31
894.418	23.91
894.85	10.81
895.282	15.21
895.715	18.81
896.147	17.61
896.579	15.81
897.011	9.61
897.444	21.01
897.876	14.61
898.308	17.71
898.74	12.31
899.172	13.91
899.604	21.21
900.036	21.61
900.468	20.31
900.9	19.11
901.332	17.01
901.764	16.91
902.196	17.21
902.628	21.91
903.06	20.91
903.491	32.71
903.923	23.81
904.355	21.21
904.787	25.11
905.218	22.81
905.65	22.51
906.082	12.81
906.513	11.41
906.945	17.31
907.376	11.31
907.808	23.01
908.239	21.81
908.671	18.51
909.102	20.01
909.534	28.51
909.965	48.81
910.397	96.71
910.828	341.51
911.259	508.21
911.691	233.61
912.122	113.21
912.553	55.11
912.984	30.91
913.415	27.51
913.847	23.11
914.278	14.91
914.709	10.41
915.14	18.11
915.571	13.21
916.002	17.41
916.433	19.01
916.864	15.81
917.295	12.91
917.726	18.71
918.157	14.71
918.587	27.21
919.018	17.41
919.449	18.11
919.88	26.11
920.311	36.21
920.741	52.11
921.172	173.81
921.603	158.71
922.033	76.01
922.464	47.41
922.895	21.91
923.325	21.21
923.756	12.41
924.186	12.01
924.617	18.31
925.047	22.11
925.478	23.71
925.908	23.81
926.338	15.21
926.769	13.51
927.199	17.51
927.629	4.41
928.06	19.01
928.49	16.71
928.92	15.41
929.35	12.11
929.78	8.61
930.21	8.61
930.641	7.91
931.071	6.11
931.501	3.41
931.931	13.21
932.361	6.01
932.791	4.01
933.221	7.61
933.651	6.01
934.08	19.51
934.51	31.01
934.94	15.41
935.37	8.51
935.8	14.31
936.229	4.51
936.659	9.61
937.089	3.91
937.519	13.21
937.948	26.41
938.378	19.21
938.807	7.81
939.237	2.01
939.666	5.41
940.096	-11.69
940.525	7.31
940.955	-2.29
941.384	7.11
941.814	-6.99
942.243	-0.29
942.672	4.21
943.102	-3.79
943.531	0.61
943.96	4.11
944.39	1.81
944.819	1.11
945.248	9.01
945.677	-2.19
946.106	8.51
946.535	6.21
946.964	-3.69
947.393	9.91
947.822	3.21
948.251	-2.99
948.68	4.11
949.109	5.91
949.538	3.01
949.967	1.41
950.396	-0.99
950.825	-0.39
951.254	2.11
951.682	-6.49
952.111	4.71
952.54	14.01
952.969	-3.89
953.397	-6.99
953.826	1.81
954.254	-3.29
954.683	1.91
955.112	-1.59
955.54	-1.09
955.969	4.51
956.397	-1.19
956.826	-2.29
957.254	-0.19
957.682	-0.09
958.111	8.81
958.539	1.41
958.967	4.21
959.396	-0.79
959.824	2.61
960.252	6.71
960.68	-2.39
961.109	-2.79
961.537	-4.69
961.965	-2.29
962.393	0.71
962.821	-1.69
963.249	0.01
963.677	12.61
964.105	2.41
964.533	42.91
964.961	41.51
965.389	23.31
965.817	11.31
966.245	5.11
966.672	3.31
967.1	-6.59
967.528	-3.49
967.956	-3.29
968.383	0.81
968.811	-0.79
969.239	-4.19
969.666	-6.79
970.094	0.41
970.522	1.51
970.949	2.21
971.377	-5.39
971.804	-4.19
972.232	-1.89
972.659	-1.89
973.087	-2.09
973.514	-2.69
973.941	-3.09
974.369	5.41
974.796	1.41
975.223	1.21
975.651	-1.29
976.078	7.41
976.505	0.91
976.932	8.11
977.359	19.81
977.786	19.01
978.214	6.21
978.641	-6.69
979.068	-0.89
979.495	0.21
979.922	-0.29
980.349	-5.39
980.776	7.51
981.202	0.31
981.629	5.41
982.056	2.61
982.483	-2.69
982.91	4.81
983.337	-8.49
983.763	4.71
984.19	-5.49
984.617	-4.19
985.043	-7.89
985.47	-2.49
985.897	-5.69
986.323	-7.39
986.75	3.91
987.176	-3.39
987.603	4.41
988.029	-2.59
988.456	-8.79
988.882	-5.09
989.308	-8.39
989.735	-4.09
990.161	0.31
990.587	-3.69
991.014	1.61
991.44	9.51
991.866	0.31
992.292	-5.39
992.719	-5.39
993.145	2.21
993.571	-14.49
993.997	-6.69
994.423	-1.69
994.849	-2.89
995.275	3.01
995.701	-6.09
996.127	-4.09
996.553	0.11
996.979	-3.09
997.405	-4.89
997.83	-4.89
998.256	-3.59
998.682	-6.39
999.108	-9.89
999.534	-2.29
999.959	-2.39
1000.385	-5.49
1000.811	3.41
1001.236	-8.39
1001.662	-4.69
1002.087	-9.09
1002.513	0.91
1002.938	4.21
1003.364	-0.39
1003.789	-2.69
1004.215	5.71
1004.64	-2.99
1005.066	4.71
1005.491	1.31
1005.916	-1.19
1006.342	-2.69
1006.767	-5.79
1007.192	3.01
1007.617	-2.39
1008.042	-7.19
1008.468	-7.79
1008.893	-8.29
1009.318	-3.49
1009.743	-2.09
1010.168	2.01
1010.593	5.31
1011.018	-5.89
1011.443	-3.59
1011.868	3.91
1012.293	-2.69
1012.718	-9.39
1013.143	0.01
1013.567	-0.79
1013.992	-0.09
1014.417	-9.09
1014.842	0.71
1015.267	-5.59
1015.691	-4.89
1016.116	4.31
1016.541	-2.29
1016.965	3.01
1017.39	3.71
1017.814	-1.19
1018.239	-6.09
1018.663	-5.69
1019.088	-9.19
1019.512	-5.39
1019.937	-3.09
1020.361	-3.69
1020.785	-7.79
1021.21	-2.59
1021.634	-2.99
1022.058	-1.59
1022.483	2.51
1022.907	-2.89
1023.331	-7.39
1023.755	-4.39
1024.179	-1.39
1024.604	-9.79
1025.028	-3.19
1025.452	-6.79
1025.876	-2.79
1026.3	-3.49
1026.724	-9.19
1027.148	-12.69
1027.572	-3.69
1027.996	-9.59
1028.42	-2.29
1028.843	-5.89
1029.267	-4.99
1029.691	-0.19
1030.115	-11.89
1030.539	-2.29
1030.962	-5.89
1031.386	-12.39
1031.81	-2.19
1032.233	-5.29
1032.657	-6.99
1033.08	3.91
1033.504	-5.89
1033.927	-5.29
1034.351	0.31
1034.774	-3.99
1035.198	-7.09
1035.621	-12.39
1036.045	-11.99
1036.468	-0.29
1036.891	-12.79
1037.315	-3.89
1037.738	-6.89
1038.161	7.11
1038.584	-6.79
1039.008	-5.59
1039.431	-7.29
1039.854	-6.29
1040.277	-10.79
1040.7	-9.09
1041.123	-5.09
1041.546	-6.69
1041.969	-9.29
1042.392	-6.99
1042.815	-2.69
1043.238	-1.99
1043.661	0.11
1044.084	-11.49
1044.507	-3.49
1044.93	-7.99
1045.352	-11.19
1045.775	-3.59
1046.198	-3.89
1046.621	-3.29
1047.043	-3.09
1047.466	3.71
1047.889	-1.49
1048.311	-1.79
1048.734	5.11
1049.156	-2.79
1049.579	-2.79
1050.001	-3.59
1050.424	7.41
1050.846	-1.89
1051.269	-2.79
1051.691	-8.09
1052.113	-0.49
1052.536	-6.39
1052.958	-11.49
1053.38	-1.59
1053.802	-5.29
1054.225	2.51
1054.647	-4.99
1055.069	-5.99
1055.491	-2.09
1055.913	-7.19
1056.335	1.31
1056.757	-1.99
1057.179	-4.49
1057.601	-8.09
1058.023	-0.69
1058.445	-6.29
1058.867	-0.19
1059.289	-4.69
1059.711	-8.39
1060.133	-1.89
1060.555	-10.19
1060.976	-8.29
1061.398	-3.59
1061.82	-4.99
1062.241	0.31
1062.663	-4.79
1063.085	-4.49
1063.506	1.01
1063.928	-4.99
1064.35	2.31
1064.771	-9.99
1065.193	-3.49
1065.614	-11.79
1066.035	-2.79
1066.457	-5.49
1066.878	-2.29
1067.3	-0.19
1067.721	-7.99
1068.142	-3.59
1068.564	-0.39
1068.985	-7.59
1069.406	-5.99
1069.827	-8.09
1070.248	-3.19
1070.67	-5.59
1071.091	-6.49
1071.512	-0.09
1071.933	-5.89
1072.354	-7.59
1072.775	-10.79
1073.196	-3.69
1073.617	-5.69
1074.038	-8.89
1074.459	-2.09
1074.88	-11.89
1075.3	-1.09
1075.721	-5.09
1076.142	3.31
1076.563	-2.09
1076.983	-10.59
1077.404	-8.89
1077.825	-8.29
1078.246	-2.89
1078.666	-12.19
1079.087	-5.69
1079.507	-10.79
1079.928	-3.79
1080.348	0.11
1080.769	-1.59
1081.189	1.61
1081.61	1.21
1082.03	-6.59
1082.451	-6.29
1082.871	-6.69
1083.291	-9.79
1083.711	-4.49
1084.132	-2.39
1084.552	-6.89
1084.972	-3.99
1085.392	-13.59
1085.813	-6.09
1086.233	-9.49
1086.653	-12.49
1087.073	-2.99
1087.493	-7.59
1087.913	-6.59
1088.333	-6.29
1088.753	0.01
1089.173	4.11
1089.593	-1.79
1090.013	-4.49
1090.433	-6.39
1090.852	-6.29
1091.272	-2.69
1091.692	-2.79
1092.112	-2.79
1092.531	-12.29
1092.951	-5.39
1093.371	-3.29
1093.79	0.11
1094.21	-9.49
1094.63	-9.29
1095.049	-5.39
1095.469	-4.09
1095.888	-0.79
1096.308	3.01
1096.727	4.01
1097.146	-9.69
1097.566	5.41
1097.985	-9.59
1098.405	-5.19
1098.824	-3.79
1099.243	-2.79
1099.662	-12.29
1100.082	-2.49
1100.501	-5.99
1100.92	-10.79
1101.339	-4.69
1101.758	-3.59
