Data from 20171114-ORNL-Ar_H_NY_Subt18_08-05-53-163.txt Node
Date: Tue Nov 14 08:05:53 EST 2017
User: Ender
Spectrometer: HR+D1039
Trigger mode: 0
Integration Time (sec): 2.730000E-2
Scans to average: 10
Electric dark correction enabled: true
Nonlinearity correction enabled: false
Boxcar width: 0
XAxis mode: Wavelengths
Number of Pixels in Spectrum: 2048
>>>>>Begin Spectral Data<<<<<
187.836	-3.42
188.309	-3.42
188.782	-3.42
189.255	-0.22
189.728	-2.02
190.201	3.18
190.674	4.48
191.147	2.68
191.619	-11.82
192.092	1.88
192.565	9.48
193.038	-4.62
193.511	0.78
193.984	-0.62
194.456	-0.62
194.929	2.38
195.402	-1.12
195.874	-0.42
196.347	-1.92
196.82	-5.62
197.292	1.98
197.765	-5.22
198.237	-4.52
198.71	1.38
199.182	-1.12
199.655	3.28
200.127	-0.42
200.6	-6.52
201.072	-5.82
201.544	-4.22
202.017	-5.22
202.489	1.68
202.961	-1.82
203.433	-2.12
203.906	-4.92
204.378	-0.12
204.85	-2.82
205.322	-11.22
205.794	0.08
206.266	3.58
206.739	-7.82
207.211	5.18
207.683	-8.92
208.155	-4.32
208.627	-1.02
209.099	-5.22
209.57	-10.22
210.042	2.18
210.514	-1.02
210.986	-1.72
211.458	-6.82
211.93	-6.72
212.402	5.98
212.873	-7.12
213.345	-6.92
213.817	-3.32
214.288	-2.52
214.76	-10.22
215.232	-3.32
215.703	-9.72
216.175	-7.82
216.646	-5.62
217.118	-9.62
217.589	-7.52
218.061	-2.42
218.532	-5.72
219.004	-1.42
219.475	-3.02
219.946	-5.92
220.418	-2.52
220.889	2.08
221.36	4.48
221.832	-4.22
222.303	-6.72
222.774	3.88
223.245	-6.02
223.717	-9.32
224.188	3.58
224.659	-3.82
225.13	0.28
225.601	-1.62
226.072	0.38
226.543	0.18
227.014	-0.92
227.485	3.78
227.956	-4.02
228.427	-1.62
228.898	2.08
229.369	3.98
229.839	-5.12
230.31	-6.52
230.781	4.48
231.252	-1.32
231.722	-2.32
232.193	1.08
232.664	-1.42
233.135	4.88
233.605	2.68
234.076	-0.12
234.546	-0.12
235.017	1.18
235.487	3.58
235.958	-4.22
236.428	-3.42
236.899	8.18
237.369	6.58
237.84	1.78
238.31	4.68
238.78	-2.12
239.251	-1.72
239.721	0.28
240.191	-2.92
240.662	-1.42
241.132	0.58
241.602	-4.92
242.072	7.58
242.542	12.18
243.013	0.88
243.483	1.88
243.953	2.48
244.423	-4.32
244.893	-1.22
245.363	4.28
245.833	1.18
246.303	0.68
246.773	10.48
247.243	3.78
247.712	1.68
248.182	5.88
248.652	3.58
249.122	-4.62
249.592	7.78
250.061	22.28
250.531	31.28
251.001	9.68
251.471	25.28
251.94	21.08
252.41	8.68
252.879	1.98
253.349	19.18
253.818	13.68
254.288	5.08
254.757	5.18
255.227	-0.22
255.696	0.78
256.166	-2.12
256.635	4.38
257.105	8.68
257.574	7.88
258.043	5.18
258.513	16.48
258.982	20.08
259.451	7.18
259.92	12.58
260.389	13.18
260.859	18.98
261.328	14.88
261.797	12.08
262.266	11.78
262.735	13.98
263.204	7.78
263.673	2.98
264.142	10.58
264.611	-1.82
265.08	-0.02
265.549	-3.62
266.018	9.78
266.487	-0.62
266.955	-0.52
267.424	-1.32
267.893	9.28
268.362	2.68
268.83	4.78
269.299	11.78
269.768	12.68
270.236	8.38
270.705	5.58
271.174	8.48
271.642	6.38
272.111	9.38
272.579	17.18
273.048	22.38
273.516	29.78
273.985	28.48
274.453	26.58
274.922	20.98
275.39	12.18
275.858	7.38
276.327	16.18
276.795	15.48
277.263	7.18
277.731	32.08
278.2	55.78
278.668	60.48
279.136	58.38
279.604	18.38
280.072	11.38
280.54	11.28
281.008	11.28
281.477	9.38
281.945	16.28
282.413	18.78
282.881	18.48
283.348	5.08
283.816	14.78
284.284	14.58
284.752	24.88
285.22	14.68
285.688	15.58
286.156	16.28
286.623	48.08
287.091	53.18
287.559	27.98
288.026	20.08
288.494	15.88
288.962	9.88
289.429	14.98
289.897	17.88
290.364	14.78
290.832	19.88
291.3	14.88
291.767	21.18
292.234	20.38
292.702	15.28
293.169	17.18
293.637	21.88
294.104	20.28
294.571	12.78
295.039	16.48
295.506	17.78
295.973	19.68
296.44	19.08
296.908	19.38
297.375	21.38
297.842	21.78
298.309	20.68
298.776	14.88
299.243	16.58
299.71	15.78
300.177	19.38
300.644	25.68
301.111	22.38
301.578	20.38
302.045	16.08
302.512	23.78
302.979	28.58
303.446	19.28
303.913	20.88
304.379	21.78
304.846	27.38
305.313	26.88
305.78	22.58
306.246	32.88
306.713	31.08
307.18	30.98
307.646	30.58
308.113	30.68
308.579	26.28
309.046	27.58
309.512	28.08
309.979	21.88
310.445	28.88
310.912	34.08
311.378	38.98
311.845	31.68
312.311	34.28
312.777	37.38
313.244	36.08
313.71	39.18
314.176	31.68
314.642	33.58
315.109	35.58
315.575	42.48
316.041	42.08
316.507	43.28
316.973	42.68
317.439	40.78
317.905	35.18
318.371	34.98
318.837	33.38
319.303	38.48
319.769	38.68
320.235	37.08
320.701	36.88
321.167	34.98
321.633	35.68
322.099	43.38
322.564	43.08
323.03	42.58
323.496	32.58
323.962	46.48
324.427	39.08
324.893	39.38
325.359	45.28
325.824	38.98
326.29	35.38
326.755	43.78
327.221	38.58
327.686	44.98
328.152	54.28
328.617	42.28
329.083	49.58
329.548	54.88
330.014	50.78
330.479	44.98
330.944	43.38
331.41	48.88
331.875	44.38
332.34	44.88
332.805	48.38
333.271	48.78
333.736	49.68
334.201	56.68
334.666	51.38
335.131	56.98
335.596	52.58
336.061	51.68
336.526	43.98
336.991	50.28
337.456	55.98
337.921	52.18
338.386	52.78
338.851	52.58
339.316	50.58
339.781	46.08
340.246	56.18
340.711	52.58
341.175	50.58
341.64	47.08
342.105	51.58
342.569	54.68
343.034	56.88
343.499	57.08
343.963	60.18
344.428	71.48
344.893	58.48
345.357	67.58
345.822	61.68
346.286	65.28
346.751	77.88
347.215	68.88
347.679	77.58
348.144	99.38
348.608	82.58
349.073	66.28
349.537	76.88
350.001	80.98
350.465	90.68
350.93	78.38
351.394	82.08
351.858	76.48
352.322	90.08
352.786	88.38
353.25	102.08
353.715	110.58
354.179	99.88
354.643	123.78
355.107	133.78
355.571	115.48
356.035	108.58
356.498	123.68
356.962	124.48
357.426	139.18
357.89	121.48
358.354	91.88
358.818	85.48
359.281	83.58
359.745	80.18
360.209	85.78
360.673	78.08
361.136	79.28
361.6	84.88
362.064	87.18
362.527	92.98
362.991	96.08
363.454	90.58
363.918	77.28
364.381	78.28
364.845	80.38
365.308	89.98
365.772	84.68
366.235	90.38
366.698	88.28
367.162	89.18
367.625	89.48
368.088	86.88
368.552	95.08
369.015	90.18
369.478	94.78
369.941	103.58
370.404	97.48
370.867	109.78
371.331	109.78
371.794	124.38
372.257	111.88
372.72	115.78
373.183	109.68
373.646	101.18
374.109	101.78
374.572	113.68
375.035	113.48
375.497	116.18
375.96	109.18
376.423	98.68
376.886	114.88
377.349	111.88
377.811	102.08
378.274	112.28
378.737	112.48
379.199	115.88
379.662	112.58
380.125	119.68
380.587	120.68
381.05	127.68
381.512	130.68
381.975	140.88
382.437	132.18
382.9	127.78
383.362	132.18
383.825	141.68
384.287	146.58
384.75	138.98
385.212	140.48
385.674	136.58
386.136	143.98
386.599	126.28
387.061	128.98
387.523	130.58
387.985	136.88
388.447	147.68
388.91	148.38
389.372	161.68
389.834	156.38
390.296	152.58
390.758	156.08
391.22	175.68
391.682	214.18
392.144	297.78
392.606	231.58
393.068	168.88
393.529	165.88
393.991	156.18
394.453	153.48
394.915	159.48
395.377	197.38
395.838	212.78
396.3	159.88
396.762	147.18
397.224	133.28
397.685	135.98
398.147	140.88
398.608	135.88
399.07	133.98
399.531	141.08
399.993	147.08
400.454	151.48
400.916	147.78
401.377	148.58
401.839	160.58
402.3	157.48
402.762	165.08
403.223	186.68
403.684	180.48
404.145	162.68
404.607	160.78
405.068	168.38
405.529	166.18
405.99	189.78
406.451	183.08
406.913	181.98
407.374	165.98
407.835	162.58
408.296	169.38
408.757	176.98
409.218	196.48
409.679	183.28
410.14	176.58
410.601	180.28
411.062	189.28
411.522	190.68
411.983	184.28
412.444	179.68
412.905	175.68
413.366	180.78
413.826	195.88
414.287	214.98
414.748	267.58
415.208	249.28
415.669	215.18
416.13	207.98
416.59	202.88
417.051	219.08
417.511	232.08
417.972	238.18
418.432	257.08
418.893	296.88
419.353	255.38
419.814	208.18
420.274	185.08
420.734	186.58
421.195	199.18
421.655	196.58
422.115	200.68
422.576	193.88
423.036	201.68
423.496	216.58
423.956	223.18
424.416	238.28
424.876	270.98
425.336	263.48
425.797	270.88
426.257	255.98
426.717	250.08
427.177	239.78
427.637	228.78
428.097	244.18
428.556	252.78
429.016	273.78
429.476	272.98
429.936	279.88
430.396	287.18
430.856	295.38
431.315	321.38
431.775	358.18
432.235	389.08
432.694	362.98
433.154	376.48
433.614	398.38
434.073	339.98
434.533	290.68
434.993	278.28
435.452	291.88
435.912	306.68
436.371	295.28
436.83	286.68
437.29	276.78
437.749	253.68
438.209	250.78
438.668	278.78
439.127	295.98
439.587	267.38
440.046	258.98
440.505	268.28
440.964	288.98
441.424	332.88
441.883	316.48
442.342	266.48
442.801	229.68
443.26	219.98
443.719	220.68
444.178	222.58
444.637	208.48
445.096	235.58
445.555	235.08
446.014	235.38
446.473	229.18
446.932	234.08
447.391	225.38
447.849	225.48
448.308	220.88
448.767	230.18
449.226	233.98
449.685	242.08
450.143	251.78
450.602	247.58
451.061	229.58
451.519	240.68
451.978	237.08
452.436	239.48
452.895	242.28
453.353	248.28
453.812	253.38
454.27	246.08
454.729	246.38
455.187	246.18
455.646	246.38
456.104	253.08
456.562	268.98
457.021	271.28
457.479	273.88
457.937	276.78
458.395	268.38
458.854	251.58
459.312	266.58
459.77	284.58
460.228	254.48
460.686	244.68
461.144	250.58
461.602	247.28
462.06	244.18
462.518	251.28
462.976	259.28
463.434	264.48
463.892	270.18
464.35	280.28
464.808	296.58
465.266	272.28
465.724	275.08
466.181	280.38
466.639	277.78
467.097	291.68
467.555	298.78
468.012	313.48
468.47	318.08
468.928	332.18
469.385	347.08
469.843	345.78
470.3	362.48
470.758	367.08
471.215	391.48
471.673	418.58
472.13	414.88
472.588	428.38
473.045	374.78
473.503	381.28
473.96	402.88
474.417	408.88
474.875	435.28
475.332	482.38
475.789	469.48
476.246	479.78
476.704	492.98
477.161	525.18
477.618	528.98
478.075	570.78
478.532	627.98
478.989	707.78
479.446	816.68
479.903	779.58
480.36	825.88
480.817	878.48
481.274	984.68
481.731	1091.98
482.188	1180.88
482.645	1316.68
483.102	1420.08
483.558	1564.48
484.015	1623.58
484.472	1598.68
484.929	1533.98
485.385	1497.28
485.842	1447.78
486.299	1402.48
486.755	1321.38
487.212	1109.28
487.668	941.28
488.125	875.98
488.582	791.38
489.038	759.58
489.494	722.48
489.951	699.88
490.407	687.38
490.864	659.48
491.32	657.88
491.776	644.98
492.233	657.18
492.689	623.48
493.145	619.98
493.602	614.58
494.058	616.68
494.514	634.58
494.97	650.48
495.426	662.38
495.882	640.78
496.338	611.08
496.794	632.48
497.251	633.28
497.707	653.68
498.163	644.48
498.618	657.28
499.074	661.48
499.53	690.28
499.986	690.18
500.442	662.68
500.898	649.68
501.354	630.48
501.809	647.48
502.265	657.08
502.721	668.28
503.177	676.28
503.632	673.28
504.088	677.78
504.543	718.08
504.999	726.18
505.455	674.08
505.91	639.68
506.366	644.38
506.821	631.98
507.277	628.58
507.732	639.08
508.187	630.18
508.643	646.98
509.098	645.68
509.553	665.98
510.009	669.38
510.464	680.08
510.919	696.58
511.375	708.28
511.83	715.38
512.285	727.08
512.74	776.18
513.195	799.88
513.65	781.68
514.105	784.18
514.56	788.08
515.015	794.28
515.47	822.28
515.925	808.18
516.38	800.48
516.835	807.48
517.29	785.58
517.745	787.18
518.2	782.38
518.655	764.68
519.109	762.48
519.564	749.68
520.019	736.88
520.474	736.18
520.928	736.18
521.383	738.38
521.838	712.78
522.292	716.98
522.747	711.58
523.201	714.18
523.656	706.58
524.11	703.58
524.565	698.68
525.019	687.98
525.474	709.88
525.928	709.68
526.382	705.88
526.837	703.88
527.291	705.68
527.745	705.08
528.2	697.08
528.654	698.08
529.108	698.78
529.562	693.28
530.016	697.78
530.47	700.58
530.925	706.18
531.379	704.78
531.833	715.38
532.287	710.28
532.741	712.68
533.195	714.88
533.649	722.18
534.103	728.98
534.556	714.68
535.01	728.58
535.464	719.68
535.918	725.68
536.372	724.28
536.826	727.78
537.279	722.18
537.733	722.38
538.187	722.08
538.64	726.88
539.094	739.48
539.548	729.38
540.001	737.38
540.455	733.38
540.908	731.48
541.362	749.58
541.815	753.48
542.269	771.18
542.722	765.38
543.175	767.58
543.629	781.18
544.082	794.38
544.536	792.68
544.989	794.98
545.442	789.48
545.895	801.58
546.349	786.38
546.802	796.18
547.255	795.48
547.708	805.08
548.161	827.58
548.614	821.98
549.067	836.48
549.52	823.78
549.973	807.98
550.426	811.28
550.879	802.28
551.332	796.18
551.785	808.68
552.238	805.68
552.691	828.78
553.144	839.08
553.596	843.38
554.049	873.78
554.502	897.18
554.955	912.18
555.407	917.18
555.86	908.28
556.313	904.58
556.765	886.08
557.218	885.18
557.67	888.88
558.123	882.68
558.576	879.88
559.028	883.48
559.48	885.48
559.933	887.58
560.385	848.48
560.838	821.18
561.29	801.28
561.742	791.88
562.195	771.28
562.647	774.98
563.099	774.28
563.551	784.58
564.004	787.48
564.456	768.38
564.908	761.18
565.36	749.88
565.812	733.48
566.264	724.28
566.716	720.38
567.168	708.08
567.62	713.68
568.072	702.78
568.524	704.28
568.976	701.78
569.428	677.58
569.88	681.38
570.332	689.08
570.784	681.08
571.235	689.28
571.687	699.58
572.139	708.78
572.59	711.18
573.042	709.38
573.494	706.08
573.945	705.78
574.397	681.98
574.849	697.68
575.3	685.58
575.752	691.38
576.203	679.28
576.655	689.78
577.106	670.98
577.557	654.48
578.009	672.68
578.46	659.68
578.912	664.78
579.363	666.58
579.814	671.58
580.265	669.88
580.717	674.98
581.168	677.18
581.619	677.68
582.07	681.68
582.521	672.28
582.972	680.18
583.423	677.98
583.875	673.08
584.326	699.08
584.777	745.28
585.227	825.38
585.678	907.98
586.129	993.48
586.58	1061.58
587.031	1144.08
587.482	1291.88
587.933	1467.48
588.384	1276.88
588.834	958.28
589.285	813.08
589.736	789.58
590.186	771.48
590.637	765.18
591.088	741.28
591.538	737.78
591.989	737.28
592.439	724.68
592.89	723.08
593.34	699.58
593.791	712.68
594.241	700.78
594.692	708.58
595.142	703.18
595.593	697.28
596.043	703.28
596.493	712.78
596.943	716.98
597.394	716.38
597.844	715.48
598.294	723.18
598.744	751.18
599.195	774.98
599.645	810.18
600.095	863.38
600.545	914.78
600.995	969.48
601.445	1020.38
601.895	1080.98
602.345	1134.18
602.795	1108.48
603.245	1058.88
603.695	1012.18
604.145	953.88
604.594	904.78
605.044	858.78
605.494	788.98
605.944	753.28
606.393	741.48
606.843	721.68
607.293	724.98
607.743	722.38
608.192	737.58
608.642	758.88
609.091	752.38
609.541	760.08
609.99	763.88
610.44	759.38
610.889	710.98
611.339	703.58
611.788	679.28
612.238	686.88
612.687	713.98
613.136	715.18
613.586	723.98
614.035	731.68
614.484	753.08
614.933	749.18
615.383	737.08
615.832	732.68
616.281	718.68
616.73	678.68
617.179	663.58
617.628	638.38
618.077	622.68
618.526	611.78
618.975	615.98
619.424	605.08
619.873	606.98
620.322	615.28
620.771	597.28
621.22	600.28
621.669	586.98
622.118	589.88
622.567	573.88
623.015	564.08
623.464	567.98
623.913	553.68
624.361	548.18
624.81	547.18
625.259	540.38
625.707	550.38
626.156	551.18
626.604	569.28
627.053	554.58
627.501	550.48
627.95	560.68
628.398	571.58
628.847	552.98
629.295	563.38
629.744	568.08
630.192	560.98
630.64	564.68
631.089	569.08
631.537	567.28
631.985	580.88
632.433	594.28
632.881	597.28
633.33	649.68
633.778	632.78
634.226	553.78
634.674	569.78
635.122	574.28
635.57	595.48
636.018	612.68
636.466	565.98
636.914	551.08
637.362	566.48
637.81	562.28
638.258	562.58
638.705	565.48
639.153	598.58
639.601	601.08
640.049	628.78
640.497	657.98
640.944	680.88
641.392	636.98
641.84	597.78
642.287	573.48
642.735	554.38
643.182	556.38
643.63	551.58
644.078	563.48
644.525	573.38
644.973	593.78
645.42	595.18
645.867	615.58
646.315	626.28
646.762	652.68
647.21	680.98
647.657	688.78
648.104	732.08
648.551	753.58
648.999	828.18
649.446	907.68
649.893	982.98
650.34	1136.68
650.787	1354.58
651.234	1688.08
651.682	2213.08
652.129	3018.98
652.576	4339.28
653.023	6402.08
653.47	8778.88
653.917	10987.68
654.363	12734.98
654.81	14107.58
655.257	13468.78
655.704	8776.08
656.151	5193.48
656.598	3360.68
657.044	2396.08
657.491	1833.28
657.938	1469.88
658.385	1233.98
658.831	1053.18
659.278	949.38
659.724	835.98
660.171	776.88
660.618	710.98
661.064	676.18
661.511	662.28
661.957	649.58
662.404	624.78
662.85	644.38
663.296	614.58
663.743	555.98
664.189	525.58
664.635	518.58
665.082	524.38
665.528	518.18
665.974	508.68
666.42	493.48
666.867	497.18
667.313	487.48
667.759	469.48
668.205	471.68
668.651	472.88
669.097	471.68
669.543	492.88
669.989	461.38
670.435	433.88
670.881	432.98
671.327	442.78
671.773	453.38
672.219	476.58
672.665	528.18
673.11	570.28
673.556	618.78
674.002	654.18
674.448	640.28
674.893	536.18
675.339	460.98
675.785	428.68
676.23	401.48
676.676	374.58
677.122	374.28
677.567	361.68
678.013	354.18
678.458	352.88
678.904	351.18
679.349	334.58
679.794	340.88
680.24	337.88
680.685	338.38
681.131	344.48
681.576	339.08
682.021	342.18
682.466	342.38
682.912	332.28
683.357	342.18
683.802	366.58
684.247	399.68
684.692	444.08
685.137	472.68
685.583	522.78
686.028	545.68
686.473	499.68
686.918	437.88
687.363	416.58
687.807	388.38
688.252	359.58
688.697	355.68
689.142	330.18
689.587	329.18
690.032	314.98
690.477	329.28
690.921	340.68
691.366	369.08
691.811	386.18
692.255	415.58
692.7	443.58
693.145	482.98
693.589	668.18
694.034	1079.58
694.478	1480.18
694.923	1683.78
695.367	2212.68
695.812	1153.18
696.256	482.98
696.701	366.58
697.145	332.28
697.59	315.68
698.034	317.98
698.478	325.18
698.922	313.68
699.367	324.58
699.811	328.18
700.255	338.88
700.699	374.08
701.143	411.68
701.588	463.18
702.032	513.88
702.476	502.28
702.92	474.28
703.364	474.28
703.808	610.88
704.252	986.18
704.696	1404.58
705.14	1616.28
705.584	2074.88
706.027	1032.68
706.471	508.08
706.915	387.68
707.359	342.78
707.803	305.18
708.246	309.58
708.69	308.58
709.134	304.98
709.577	307.28
710.021	309.28
710.465	293.58
710.908	292.28
711.352	289.08
711.795	300.48
712.239	336.48
712.682	370.38
713.126	408.98
713.569	444.78
714.012	353.58
714.456	314.18
714.899	295.78
715.342	267.18
715.786	257.38
716.229	252.78
716.672	252.58
717.115	247.68
717.558	243.38
718.002	244.98
718.445	260.68
718.888	280.78
719.331	291.38
719.774	301.68
720.217	298.68
720.66	276.38
721.103	260.08
721.546	242.78
721.989	241.38
722.432	220.88
722.874	232.68
723.317	222.28
723.76	224.68
724.203	250.38
724.645	307.48
725.088	432.78
725.531	547.98
725.974	620.58
726.416	534.48
726.859	298.98
727.301	235.48
727.744	232.88
728.187	224.58
728.629	234.98
729.071	238.48
729.514	257.08
729.956	261.28
730.399	268.68
730.841	275.48
731.283	268.78
731.726	255.78
732.168	249.78
732.61	256.98
733.053	278.18
733.495	301.98
733.937	334.28
734.379	379.38
734.821	417.28
735.263	514.58
735.705	799.68
736.148	1497.58
736.59	2458.48
737.032	2974.28
737.474	2410.18
737.916	780.88
738.357	407.08
738.799	317.78
739.241	283.08
739.683	273.48
740.125	282.68
740.567	280.48
741.008	305.98
741.45	303.38
741.892	311.98
742.334	337.88
742.775	348.38
743.217	333.98
743.658	266.68
744.1	250.88
744.542	256.68
744.983	300.38
745.425	336.98
745.866	339.38
746.307	280.28
746.749	270.48
747.19	308.38
747.632	429.98
748.073	834.88
748.514	1783.08
748.956	2755.48
749.397	3448.88
749.838	2861.58
750.279	2877.98
750.72	1440.78
751.162	529.38
751.603	312.38
752.044	236.98
752.485	208.58
752.926	206.38
753.367	194.08
753.808	192.18
754.249	186.28
754.69	177.78
755.131	182.78
755.572	180.78
756.013	171.78
756.453	179.08
756.894	183.08
757.335	183.28
757.776	182.18
758.216	190.18
758.657	190.68
759.098	192.58
759.538	221.48
759.979	258.18
760.42	356.68
760.86	665.48
761.301	1709.28
761.741	4209.58
762.182	6240.38
762.622	4419.08
763.063	1260.08
763.503	515.28
763.943	338.18
764.384	328.58
764.824	385.08
765.264	414.48
765.705	292.28
766.145	203.88
766.585	179.68
767.025	167.28
767.465	179.98
767.906	228.68
768.346	303.28
768.786	336.28
769.226	256.28
769.666	306.08
770.106	579.58
770.546	1481.38
770.986	2559.48
771.426	2292.18
771.866	762.18
772.306	309.88
772.745	205.88
773.185	171.78
773.625	166.98
774.065	159.58
774.505	188.28
774.944	289.38
775.384	630.98
775.824	1166.28
776.263	1138.28
776.703	478.38
777.142	211.38
777.582	151.38
778.021	133.48
778.461	137.78
778.9	138.38
779.34	127.58
779.779	110.58
780.219	112.78
780.658	103.78
781.097	104.88
781.537	109.48
781.976	108.58
782.415	104.28
782.855	102.98
783.294	100.58
783.733	102.18
784.172	105.78
784.611	100.98
785.05	110.98
785.489	106.08
785.928	110.08
786.367	115.28
786.806	115.18
787.245	131.28
787.684	136.78
788.123	145.48
788.562	133.38
789.001	120.78
789.44	117.78
789.879	113.08
790.317	110.08
790.756	125.38
791.195	124.58
791.634	143.28
792.072	196.88
792.511	339.58
792.95	944.48
793.388	2059.28
793.827	1891.38
794.265	651.68
794.704	268.68
795.142	177.68
795.581	148.98
796.019	138.18
796.458	124.98
796.896	110.78
797.334	127.38
797.773	147.18
798.211	202.18
798.649	409.98
799.087	977.68
799.526	1538.28
799.964	1924.38
800.402	1958.48
800.84	723.98
801.278	283.18
801.716	177.48
802.154	153.38
802.592	140.28
803.03	135.08
803.468	129.08
803.906	144.18
804.344	144.78
804.782	140.08
805.22	129.58
805.658	123.38
806.096	139.28
806.533	152.48
806.971	167.98
807.409	212.18
807.847	305.78
808.284	622.98
808.722	1754.08
809.16	3173.48
809.597	2969.28
810.035	5206.38
810.472	5607.68
810.91	2018.98
811.347	763.78
811.785	389.98
812.222	249.08
812.66	187.88
813.097	156.08
813.535	133.58
813.972	120.78
814.409	120.78
814.846	107.98
815.284	102.08
815.721	98.18
816.158	101.28
816.595	114.18
817.032	172.08
817.47	187.58
817.907	168.98
818.344	139.88
818.781	114.68
819.218	103.88
819.655	119.68
820.092	183.78
820.529	202.68
820.966	163.58
821.403	126.18
821.839	98.68
822.276	101.58
822.713	117.28
823.15	135.58
823.587	113.78
824.023	142.68
824.46	277.28
824.897	855.48
825.333	1320.78
825.77	562.88
826.206	213.88
826.643	132.98
827.08	99.08
827.516	80.98
827.953	68.48
828.389	81.38
828.825	75.28
829.262	65.98
829.698	62.58
830.135	62.68
830.571	62.48
831.007	66.88
831.443	55.48
831.88	61.58
832.316	58.18
832.752	61.48
833.188	63.88
833.624	57.58
834.06	66.58
834.497	65.98
834.933	69.48
835.369	72.18
835.805	65.98
836.241	75.58
836.677	70.78
837.112	82.58
837.548	98.88
837.984	121.38
838.42	185.28
838.856	468.18
839.292	1442.18
839.727	2241.58
840.163	1030.98
840.599	870.28
841.034	1937.08
841.47	2075.98
841.906	746.88
842.341	316.78
842.777	219.68
843.212	306.78
843.648	300.58
844.083	151.28
844.519	97.68
844.954	75.78
845.39	56.58
845.825	53.68
846.261	56.98
846.696	54.48
847.131	53.68
847.566	57.98
848.002	50.38
848.437	54.68
848.872	58.08
849.307	57.68
849.742	78.88
850.177	167.78
850.613	532.18
851.048	854.38
851.483	364.38
851.918	148.68
852.353	78.78
852.788	58.28
853.223	57.58
853.657	53.78
854.092	50.78
854.527	39.98
854.962	40.58
855.397	46.78
855.832	46.38
856.266	42.18
856.701	43.58
857.136	33.48
857.57	41.48
858.005	53.08
858.44	55.58
858.874	37.88
859.309	48.78
859.743	40.48
860.178	48.18
860.612	36.18
861.047	55.98
861.481	64.08
861.915	72.68
862.35	52.78
862.784	32.98
863.218	42.18
863.653	39.28
864.087	40.48
864.521	52.38
864.955	65.38
865.39	152.28
865.824	171.58
866.258	109.68
866.692	160.18
867.126	176.18
867.56	109.68
867.994	49.98
868.428	41.58
868.862	48.58
869.296	46.18
869.73	60.08
870.164	52.38
870.598	47.18
871.031	34.38
871.465	33.98
871.899	31.68
872.333	26.18
872.766	23.48
873.2	22.68
873.634	26.08
874.067	27.18
874.501	21.08
874.935	32.98
875.368	32.88
875.802	24.18
876.235	19.98
876.669	26.28
877.102	16.08
877.535	23.78
877.969	23.38
878.402	27.78
878.836	14.28
879.269	21.88
879.702	25.68
880.135	21.78
880.569	21.78
881.002	24.78
881.435	17.28
881.868	16.78
882.301	18.98
882.734	13.78
883.167	23.58
883.601	14.28
884.034	19.58
884.467	17.28
884.899	18.78
885.332	9.78
885.765	11.28
886.198	22.88
886.631	19.48
887.064	20.18
887.497	15.28
887.929	24.98
888.362	15.28
888.795	12.28
889.228	17.78
889.66	20.18
890.093	20.08
890.526	18.98
890.958	22.38
891.391	16.28
891.823	23.58
892.256	15.88
892.688	16.88
893.121	17.28
893.553	13.58
893.985	23.48
894.418	19.58
894.85	12.28
895.282	17.48
895.715	21.98
896.147	20.88
896.579	16.88
897.011	12.58
897.444	14.58
897.876	14.98
898.308	10.98
898.74	17.08
899.172	20.88
899.604	23.38
900.036	21.28
900.468	14.38
900.9	15.78
901.332	16.68
901.764	16.38
902.196	16.78
902.628	17.18
903.06	15.58
903.491	25.18
903.923	21.98
904.355	20.78
904.787	27.18
905.218	19.88
905.65	17.18
906.082	7.08
906.513	9.88
906.945	15.48
907.376	20.48
907.808	23.28
908.239	21.58
908.671	19.88
909.102	19.38
909.534	19.98
909.965	48.78
910.397	92.38
910.828	299.78
911.259	462.18
911.691	201.78
912.122	100.68
912.553	43.28
912.984	42.68
913.415	29.88
913.847	27.38
914.278	20.48
914.709	17.18
915.14	18.98
915.571	16.88
916.002	9.38
916.433	15.88
916.864	17.68
917.295	13.88
917.726	16.38
918.157	17.48
918.587	25.08
919.018	23.28
919.449	17.48
919.88	23.68
920.311	30.68
920.741	51.18
921.172	161.98
921.603	145.78
922.033	67.28
922.464	51.08
922.895	26.88
923.325	18.28
923.756	18.58
924.186	11.58
924.617	29.68
925.047	37.58
925.478	52.18
925.908	43.88
926.338	26.38
926.769	22.18
927.199	21.38
927.629	8.08
928.06	17.18
928.49	11.78
928.92	15.08
929.35	8.48
929.78	11.98
930.21	13.48
930.641	6.88
931.071	6.98
931.501	5.08
931.931	8.58
932.361	8.28
932.791	4.28
933.221	6.68
933.651	9.38
934.08	23.58
934.51	34.08
934.94	12.08
935.37	10.78
935.8	9.08
936.229	6.08
936.659	13.38
937.089	2.48
937.519	15.28
937.948	21.98
938.378	23.38
938.807	7.08
939.237	2.98
939.666	2.78
940.096	-5.32
940.525	3.48
940.955	-0.12
941.384	6.68
941.814	0.88
942.243	-3.42
942.672	2.98
943.102	2.88
943.531	-2.82
943.96	2.48
944.39	5.58
944.819	3.08
945.248	5.48
945.677	2.68
946.106	4.58
946.535	4.28
946.964	-2.22
947.393	1.48
947.822	2.98
948.251	0.08
948.68	10.08
949.109	6.68
949.538	10.48
949.967	-0.62
950.396	2.08
950.825	3.88
951.254	-0.02
951.682	0.48
952.111	5.58
952.54	6.28
952.969	-0.92
953.397	-2.92
953.826	-0.52
954.254	0.48
954.683	5.98
955.112	-2.72
955.54	-0.12
955.969	0.98
956.397	-1.32
956.826	-2.52
957.254	6.38
957.682	0.68
958.111	6.28
958.539	0.38
958.967	-0.32
959.396	0.68
959.824	4.48
960.252	1.28
960.68	-1.62
961.109	-1.62
961.537	-4.02
961.965	-2.52
962.393	-4.42
962.821	-2.22
963.249	4.08
963.677	6.18
964.105	0.38
964.533	40.98
964.961	40.58
965.389	21.38
965.817	6.18
966.245	3.98
966.672	-2.22
967.1	-2.62
967.528	-0.32
967.956	-1.92
968.383	4.18
968.811	0.58
969.239	-0.82
969.666	-3.92
970.094	4.58
970.522	2.98
970.949	-1.82
971.377	-1.12
971.804	-2.02
972.232	-0.12
972.659	-0.72
973.087	-5.82
973.514	-9.52
973.941	-2.92
974.369	4.88
974.796	0.28
975.223	1.28
975.651	1.78
976.078	9.68
976.505	1.88
976.932	2.88
977.359	17.28
977.786	13.88
978.214	0.18
978.641	-0.92
979.068	-5.82
979.495	-3.12
979.922	-2.82
980.349	-6.62
980.776	-2.32
981.202	-4.72
981.629	4.08
982.056	6.38
982.483	-3.72
982.91	4.38
983.337	-5.42
983.763	2.08
984.19	-5.52
984.617	-7.02
985.043	-8.82
985.47	-0.02
985.897	-5.72
986.323	-5.42
986.75	2.88
987.176	0.18
987.603	-1.82
988.029	-0.92
988.456	-2.92
988.882	0.48
989.308	-6.72
989.735	-2.12
990.161	3.38
990.587	-4.32
991.014	0.68
991.44	9.28
991.866	0.78
992.292	-6.82
992.719	-7.12
993.145	5.78
993.571	-8.02
993.997	1.58
994.423	1.28
994.849	-2.82
995.275	3.18
995.701	4.48
996.127	2.08
996.553	8.78
996.979	-1.62
997.405	6.08
997.83	-0.72
998.256	-0.82
998.682	-1.72
999.108	-5.22
999.534	-3.02
999.959	-2.52
1000.385	0.18
1000.811	0.78
1001.236	-4.22
1001.662	-9.12
1002.087	-8.52
1002.513	4.08
1002.938	-0.82
1003.364	-6.12
1003.789	6.88
1004.215	7.18
1004.64	-4.72
1005.066	1.38
1005.491	-1.72
1005.916	1.68
1006.342	0.88
1006.767	-0.52
1007.192	4.68
1007.617	-1.52
1008.042	-0.42
1008.468	-3.42
1008.893	-2.82
1009.318	-1.62
1009.743	-4.02
1010.168	1.48
1010.593	3.98
1011.018	-6.12
1011.443	-2.72
1011.868	0.48
1012.293	-0.42
1012.718	-10.72
1013.143	-3.42
1013.567	0.58
1013.992	0.78
1014.417	-8.72
1014.842	-0.02
1015.267	-4.32
1015.691	2.48
1016.116	-1.72
1016.541	-0.32
1016.965	3.08
1017.39	2.38
1017.814	0.58
1018.239	4.08
1018.663	-7.72
1019.088	-10.92
1019.512	-2.62
1019.937	-1.02
1020.361	-5.92
1020.785	-8.02
1021.21	-1.52
1021.634	-0.02
1022.058	5.08
1022.483	3.58
1022.907	-4.22
1023.331	-6.32
1023.755	0.18
1024.179	-0.52
1024.604	1.88
1025.028	-5.12
1025.452	-4.52
1025.876	-2.22
1026.3	3.08
1026.724	-9.52
1027.148	-1.62
1027.572	-10.32
1027.996	-3.52
1028.42	-0.92
1028.843	-6.02
1029.267	-6.12
1029.691	0.88
1030.115	-7.72
1030.539	-4.52
1030.962	-0.22
1031.386	-9.72
1031.81	-2.02
1032.233	7.18
1032.657	-1.12
1033.08	-2.42
1033.504	-0.12
1033.927	-7.52
1034.351	2.18
1034.774	-0.52
1035.198	1.58
1035.621	-2.02
1036.045	-5.32
1036.468	2.68
1036.891	-13.72
1037.315	-0.32
1037.738	-3.52
1038.161	-1.62
1038.584	-2.82
1039.008	-6.12
1039.431	-2.52
1039.854	0.58
1040.277	-9.82
1040.7	-12.42
1041.123	1.08
1041.546	-10.92
1041.969	-6.62
1042.392	-5.32
1042.815	-1.42
1043.238	4.48
1043.661	1.88
1044.084	-9.02
1044.507	-5.62
1044.93	-7.52
1045.352	-8.72
1045.775	-1.22
1046.198	-4.92
1046.621	-1.62
1047.043	2.18
1047.466	5.58
1047.889	-1.22
1048.311	-4.42
1048.734	-1.02
1049.156	-3.32
1049.579	3.48
1050.001	-1.52
1050.424	-1.02
1050.846	-2.62
1051.269	-4.42
1051.691	-4.42
1052.113	-7.22
1052.536	-7.92
1052.958	3.48
1053.38	-3.12
1053.802	-7.32
1054.225	-1.02
1054.647	-8.02
1055.069	-7.32
1055.491	3.68
1055.913	-6.92
1056.335	0.38
1056.757	-3.62
1057.179	-6.62
1057.601	-3.12
1058.023	-2.22
1058.445	-8.52
1058.867	-2.52
1059.289	-0.92
1059.711	-7.32
1060.133	-3.92
1060.555	-8.32
1060.976	-6.12
1061.398	-3.62
1061.82	-3.02
1062.241	-0.62
1062.663	-8.02
1063.085	-11.12
1063.506	-8.12
1063.928	-0.32
1064.35	-0.12
1064.771	-8.72
1065.193	-3.42
1065.614	-8.92
1066.035	2.48
1066.457	-4.22
1066.878	-1.62
1067.3	-5.62
1067.721	-4.72
1068.142	-2.92
1068.564	1.58
1068.985	-0.22
1069.406	-4.32
1069.827	-12.02
1070.248	-1.62
1070.67	-7.62
1071.091	-7.62
1071.512	-2.92
1071.933	-3.62
1072.354	-0.82
1072.775	-2.22
1073.196	-4.62
1073.617	-0.52
1074.038	-7.82
1074.459	0.48
1074.88	-5.32
1075.3	1.18
1075.721	-3.42
1076.142	2.38
1076.563	-4.92
1076.983	-14.42
1077.404	-6.32
1077.825	-11.12
1078.246	-7.42
1078.666	-6.82
1079.087	-1.62
1079.507	-7.32
1079.928	-2.72
1080.348	-1.22
1080.769	-4.12
1081.189	-4.42
1081.61	-3.02
1082.03	-6.82
1082.451	-9.82
1082.871	-4.62
1083.291	-0.52
1083.711	-10.52
1084.132	-5.62
1084.552	-5.92
1084.972	-3.12
1085.392	-13.12
1085.813	-4.52
1086.233	-4.92
1086.653	-8.52
1087.073	-5.22
1087.493	-5.92
1087.913	-4.12
1088.333	-8.62
1088.753	-4.52
1089.173	1.48
1089.593	-4.62
1090.013	2.58
1090.433	1.18
1090.852	-4.22
1091.272	-2.02
1091.692	3.38
1092.112	-4.82
1092.531	-10.22
1092.951	-10.92
1093.371	0.18
1093.79	3.78
1094.21	1.08
1094.63	-4.42
1095.049	-2.52
1095.469	-4.32
1095.888	-3.32
1096.308	-0.62
1096.727	-4.32
1097.146	-5.02
1097.566	-0.52
1097.985	-5.32
1098.405	-4.32
1098.824	-8.82
1099.243	-2.92
1099.662	-10.92
1100.082	-3.32
1100.501	-5.92
1100.92	-8.52
1101.339	-4.62
1101.758	-8.32
