Data from 20171114-ORNL-Ar_H_NY_Subt18_08-06-50-488.txt Node
Date: Tue Nov 14 08:06:50 EST 2017
User: Ender
Spectrometer: HR+D1039
Trigger mode: 0
Integration Time (sec): 2.730000E-2
Scans to average: 10
Electric dark correction enabled: true
Nonlinearity correction enabled: false
Boxcar width: 0
XAxis mode: Wavelengths
Number of Pixels in Spectrum: 2048
>>>>>Begin Spectral Data<<<<<
187.836	-1.03
188.309	-1.03
188.782	-1.03
189.255	0.47
189.728	-0.33
190.201	4.57
190.674	1.77
191.147	2.47
191.619	-6.33
192.092	1.77
192.565	6.37
193.038	-2.73
193.511	1.87
193.984	-2.83
194.456	-2.03
194.929	0.77
195.402	-3.63
195.874	-1.13
196.347	-1.03
196.82	-5.03
197.292	4.17
197.765	0.47
198.237	-7.13
198.71	1.77
199.182	-5.93
199.655	0.87
200.127	4.77
200.6	-4.13
201.072	0.97
201.544	-6.03
202.017	-5.63
202.489	1.17
202.961	-0.93
203.433	-4.53
203.906	-2.83
204.378	-1.53
204.85	-6.93
205.322	-4.03
205.794	-1.63
206.266	-7.63
206.739	-8.13
207.211	-1.53
207.683	-6.63
208.155	-3.33
208.627	-4.23
209.099	1.67
209.57	-2.43
210.042	-4.93
210.514	-0.43
210.986	-4.93
211.458	-5.83
211.93	-0.63
212.402	0.57
212.873	-7.13
213.345	-11.13
213.817	-13.33
214.288	-5.93
214.76	-10.83
215.232	-4.93
215.703	-0.93
216.175	-0.93
216.646	-7.13
217.118	-8.23
217.589	-5.73
218.061	-6.23
218.532	-6.13
219.004	0.07
219.475	-1.63
219.946	0.97
220.418	-5.43
220.889	7.37
221.36	-0.83
221.832	-2.83
222.303	-9.03
222.774	-3.03
223.245	-6.33
223.717	-4.43
224.188	-9.13
224.659	-8.83
225.13	-9.13
225.601	-3.83
226.072	-4.13
226.543	-0.63
227.014	2.87
227.485	1.37
227.956	-8.03
228.427	-3.13
228.898	-0.83
229.369	5.47
229.839	-7.33
230.31	-6.93
230.781	4.77
231.252	-5.13
231.722	-4.23
232.193	-4.13
232.664	-1.53
233.135	-7.13
233.605	-5.63
234.076	-9.23
234.546	-4.73
235.017	4.57
235.487	-0.73
235.958	-3.93
236.428	-3.83
236.899	-2.73
237.369	1.57
237.84	-3.73
238.31	0.57
238.78	-6.33
239.251	-3.73
239.721	-3.73
240.191	-1.63
240.662	-7.33
241.132	-0.53
241.602	-0.83
242.072	-1.43
242.542	5.67
243.013	-3.33
243.483	1.47
243.953	1.47
244.423	1.97
244.893	-6.23
245.363	-2.33
245.833	3.67
246.303	-2.83
246.773	3.67
247.243	-0.73
247.712	1.87
248.182	6.47
248.652	6.27
249.122	-4.23
249.592	1.77
250.061	-3.63
250.531	1.97
251.001	-1.93
251.471	9.47
251.94	10.87
252.41	-6.53
252.879	-4.93
253.349	7.37
253.818	6.37
254.288	2.57
254.757	2.77
255.227	-4.93
255.696	-1.03
256.166	-0.63
256.635	2.27
257.105	8.27
257.574	1.97
258.043	4.07
258.513	-4.43
258.982	-3.23
259.451	-2.83
259.92	2.97
260.389	5.67
260.859	12.17
261.328	2.57
261.797	-0.83
262.266	1.77
262.735	10.57
263.204	5.07
263.673	-0.73
264.142	2.67
264.611	-3.03
265.08	-5.63
265.549	-0.13
266.018	3.47
266.487	-2.03
266.955	-12.23
267.424	-4.43
267.893	5.37
268.362	2.17
268.83	5.57
269.299	10.07
269.768	-1.13
270.236	8.97
270.705	2.87
271.174	5.87
271.642	3.57
272.111	0.77
272.579	3.17
273.048	7.67
273.516	5.27
273.985	5.87
274.453	7.67
274.922	14.17
275.39	7.17
275.858	1.57
276.327	5.97
276.795	17.47
277.263	2.67
277.731	16.57
278.2	15.57
278.668	17.17
279.136	12.97
279.604	10.47
280.072	14.77
280.54	11.07
281.008	7.37
281.477	11.17
281.945	10.87
282.413	7.17
282.881	5.07
283.348	6.97
283.816	16.97
284.284	11.07
284.752	19.07
285.22	12.57
285.688	7.67
286.156	7.47
286.623	15.97
287.091	6.67
287.559	11.17
288.026	4.67
288.494	8.47
288.962	1.67
289.429	6.37
289.897	13.77
290.364	13.17
290.832	17.47
291.3	10.37
291.767	16.27
292.234	14.07
292.702	10.77
293.169	8.27
293.637	21.67
294.104	10.87
294.571	15.27
295.039	8.47
295.506	15.17
295.973	14.97
296.44	8.37
296.908	9.27
297.375	11.77
297.842	16.77
298.309	10.77
298.776	13.27
299.243	21.07
299.71	11.07
300.177	19.17
300.644	14.57
301.111	16.17
301.578	19.57
302.045	18.47
302.512	21.97
302.979	17.97
303.446	22.77
303.913	21.77
304.379	17.57
304.846	26.67
305.313	21.07
305.78	14.67
306.246	25.97
306.713	17.87
307.18	22.57
307.646	18.57
308.113	24.27
308.579	19.57
309.046	25.37
309.512	19.77
309.979	16.57
310.445	25.07
310.912	23.27
311.378	32.47
311.845	27.27
312.311	24.77
312.777	28.17
313.244	31.67
313.71	36.67
314.176	26.07
314.642	30.07
315.109	28.57
315.575	28.77
316.041	32.17
316.507	29.37
316.973	27.97
317.439	28.57
317.905	39.07
318.371	35.27
318.837	30.17
319.303	31.77
319.769	33.47
320.235	30.67
320.701	29.27
321.167	35.07
321.633	26.97
322.099	34.27
322.564	33.47
323.03	35.87
323.496	36.37
323.962	35.27
324.427	32.57
324.893	33.67
325.359	38.97
325.824	36.87
326.29	38.17
326.755	39.77
327.221	38.27
327.686	35.77
328.152	47.47
328.617	37.07
329.083	45.17
329.548	45.17
330.014	47.27
330.479	38.97
330.944	38.77
331.41	40.17
331.875	37.37
332.34	41.17
332.805	38.27
333.271	42.87
333.736	36.87
334.201	44.07
334.666	47.27
335.131	47.47
335.596	48.87
336.061	47.57
336.526	34.17
336.991	40.07
337.456	55.47
337.921	41.07
338.386	34.27
338.851	37.07
339.316	42.77
339.781	51.07
340.246	56.37
340.711	41.57
341.175	49.07
341.64	39.97
342.105	44.37
342.569	54.17
343.034	53.87
343.499	43.27
343.963	52.97
344.428	61.17
344.893	58.27
345.357	57.17
345.822	55.27
346.286	62.57
346.751	74.27
347.215	59.27
347.679	70.57
348.144	91.47
348.608	79.77
349.073	69.57
349.537	70.27
350.001	74.37
350.465	82.17
350.93	75.47
351.394	76.77
351.858	70.37
352.322	78.57
352.786	71.07
353.25	91.37
353.715	97.27
354.179	87.77
354.643	108.97
355.107	112.67
355.571	99.97
356.035	92.47
356.498	107.27
356.962	110.67
357.426	113.47
357.89	103.67
358.354	88.87
358.818	84.47
359.281	79.17
359.745	72.47
360.209	69.67
360.673	67.27
361.136	85.57
361.6	82.57
362.064	76.87
362.527	82.87
362.991	84.97
363.454	85.97
363.918	76.47
364.381	80.17
364.845	83.47
365.308	79.37
365.772	92.17
366.235	84.67
366.698	81.37
367.162	81.67
367.625	83.87
368.088	81.77
368.552	89.87
369.015	84.07
369.478	83.77
369.941	97.67
370.404	91.77
370.867	100.97
371.331	93.17
371.794	104.67
372.257	98.17
372.72	102.87
373.183	105.17
373.646	88.97
374.109	89.27
374.572	97.77
375.035	101.47
375.497	98.17
375.96	102.67
376.423	106.97
376.886	114.37
377.349	105.97
377.811	95.17
378.274	101.37
378.737	103.57
379.199	110.67
379.662	107.57
380.125	110.67
380.587	105.07
381.05	105.17
381.512	116.77
381.975	118.37
382.437	113.37
382.9	107.27
383.362	120.87
383.825	125.87
384.287	127.27
384.75	115.57
385.212	122.77
385.674	134.07
386.136	125.97
386.599	113.17
387.061	115.37
387.523	116.27
387.985	118.27
388.447	132.47
388.91	120.87
389.372	130.77
389.834	134.27
390.296	130.87
390.758	128.07
391.22	137.77
391.682	151.27
392.144	160.77
392.606	147.17
393.068	142.57
393.529	156.17
393.991	142.97
394.453	131.87
394.915	130.97
395.377	131.87
395.838	137.67
396.3	136.27
396.762	142.17
397.224	138.57
397.685	133.07
398.147	134.87
398.608	133.57
399.07	138.97
399.531	138.37
399.993	147.97
400.454	150.57
400.916	149.17
401.377	144.87
401.839	161.97
402.3	151.17
402.762	166.27
403.223	178.07
403.684	168.67
404.145	165.47
404.607	167.67
405.068	170.97
405.529	170.67
405.99	187.87
406.451	173.37
406.913	174.27
407.374	168.17
407.835	160.67
408.296	171.57
408.757	173.87
409.218	183.57
409.679	180.07
410.14	181.47
410.601	180.87
411.062	180.47
411.522	184.77
411.983	180.27
412.444	172.57
412.905	187.17
413.366	191.87
413.826	197.67
414.287	222.17
414.748	269.87
415.208	258.87
415.669	220.87
416.13	217.67
416.59	212.57
417.051	228.87
417.511	225.97
417.972	243.27
418.432	255.37
418.893	294.97
419.353	261.07
419.814	214.67
420.274	193.17
420.734	186.37
421.195	200.57
421.655	196.47
422.115	202.27
422.576	201.47
423.036	206.27
423.496	216.77
423.956	221.67
424.416	241.37
424.876	273.27
425.336	266.77
425.797	268.37
426.257	262.27
426.717	249.07
427.177	236.27
427.637	224.97
428.097	236.17
428.556	248.97
429.016	277.97
429.476	265.57
429.936	278.17
430.396	277.77
430.856	288.67
431.315	314.17
431.775	350.97
432.235	375.67
432.694	356.47
433.154	355.97
433.614	394.47
434.073	343.97
434.533	285.37
434.993	276.77
435.452	286.47
435.912	301.37
436.371	290.47
436.83	284.37
437.29	270.67
437.749	252.97
438.209	254.57
438.668	276.67
439.127	289.77
439.587	274.77
440.046	252.27
440.505	271.87
440.964	283.77
441.424	331.07
441.883	319.77
442.342	271.77
442.801	238.97
443.26	231.07
443.719	241.27
444.178	231.77
444.637	223.27
445.096	229.87
445.555	227.77
446.014	239.87
446.473	243.87
446.932	238.97
447.391	243.07
447.849	241.37
448.308	236.37
448.767	234.47
449.226	254.27
449.685	258.17
450.143	264.47
450.602	248.77
451.061	242.87
451.519	242.07
451.978	248.37
452.436	244.17
452.895	248.97
453.353	272.07
453.812	255.17
454.27	253.47
454.729	255.87
455.187	256.17
455.646	265.77
456.104	264.07
456.562	272.47
457.021	288.97
457.479	274.07
457.937	288.27
458.395	283.27
458.854	265.27
459.312	271.47
459.77	293.77
460.228	276.97
460.686	261.67
461.144	271.07
461.602	267.77
462.06	259.07
462.518	267.17
462.976	278.17
463.434	280.47
463.892	278.47
464.35	292.67
464.808	313.97
465.266	290.27
465.724	287.87
466.181	292.07
466.639	293.37
467.097	311.57
467.555	312.17
468.012	318.97
468.47	333.57
468.928	353.77
469.385	363.17
469.843	375.77
470.3	365.67
470.758	384.67
471.215	410.07
471.673	428.87
472.13	433.87
472.588	443.17
473.045	400.77
473.503	399.27
473.96	425.27
474.417	425.37
474.875	456.97
475.332	498.47
475.789	487.17
476.246	494.37
476.704	521.87
477.161	528.87
477.618	546.57
478.075	588.87
478.532	650.27
478.989	718.47
479.446	824.57
479.903	798.47
480.36	824.57
480.817	875.57
481.274	967.67
481.731	1070.37
482.188	1140.77
482.645	1260.97
483.102	1354.67
483.558	1479.07
484.015	1521.77
484.472	1486.07
484.929	1439.37
485.385	1403.67
485.842	1376.07
486.299	1334.97
486.755	1284.47
487.212	1098.27
487.668	940.07
488.125	865.77
488.582	795.97
489.038	766.77
489.494	741.07
489.951	712.57
490.407	701.37
490.864	678.87
491.32	672.47
491.776	669.77
492.233	680.47
492.689	654.77
493.145	640.77
493.602	634.97
494.058	648.07
494.514	655.17
494.97	665.47
495.426	690.57
495.882	665.27
496.338	644.87
496.794	658.37
497.251	659.47
497.707	674.97
498.163	668.97
498.618	681.47
499.074	673.57
499.53	713.57
499.986	704.87
500.442	684.57
500.898	652.17
501.354	649.67
501.809	667.27
502.265	654.67
502.721	666.67
503.177	673.37
503.632	683.47
504.088	678.57
504.543	706.07
504.999	729.97
505.455	692.17
505.91	670.87
506.366	675.47
506.821	667.27
507.277	657.67
507.732	665.87
508.187	667.37
508.643	687.77
509.098	680.87
509.553	701.37
510.009	717.97
510.464	722.47
510.919	745.47
511.375	742.97
511.83	759.07
512.285	772.17
512.74	813.87
513.195	839.87
513.65	827.27
514.105	821.87
514.56	818.47
515.015	843.47
515.47	843.27
515.925	820.97
516.38	830.47
516.835	844.47
517.29	832.57
517.745	819.37
518.2	815.67
518.655	788.77
519.109	789.77
519.564	796.47
520.019	780.37
520.474	781.37
520.928	775.97
521.383	773.57
521.838	760.47
522.292	756.37
522.747	760.97
523.201	757.57
523.656	747.07
524.11	749.07
524.565	735.27
525.019	740.87
525.474	736.27
525.928	748.77
526.382	741.17
526.837	747.07
527.291	741.37
527.745	743.67
528.2	747.37
528.654	733.97
529.108	740.17
529.562	733.47
530.016	729.77
530.47	746.27
530.925	742.77
531.379	739.07
531.833	744.87
532.287	753.77
532.741	742.97
533.195	747.17
533.649	754.67
534.103	767.17
534.556	762.47
535.01	759.07
535.464	749.57
535.918	764.77
536.372	759.17
536.826	761.87
537.279	741.67
537.733	752.27
538.187	755.77
538.64	758.57
539.094	769.77
539.548	772.97
540.001	772.37
540.455	776.37
540.908	790.77
541.362	790.97
541.815	801.07
542.269	806.37
542.722	815.87
543.175	823.07
543.629	817.67
544.082	837.37
544.536	847.27
544.989	843.67
545.442	858.87
545.895	846.47
546.349	854.97
546.802	845.17
547.255	853.07
547.708	854.87
548.161	870.97
548.614	890.77
549.067	892.27
549.52	880.37
549.973	863.87
550.426	864.57
550.879	850.77
551.332	860.47
551.785	871.77
552.238	876.57
552.691	882.07
553.144	892.07
553.596	915.97
554.049	927.67
554.502	968.47
554.955	978.77
555.407	972.97
555.86	961.97
556.313	958.07
556.765	946.17
557.218	952.37
557.67	942.87
558.123	934.47
558.576	933.27
559.028	940.37
559.48	948.57
559.933	936.77
560.385	898.87
560.838	872.97
561.29	839.77
561.742	856.27
562.195	837.17
562.647	819.97
563.099	818.87
563.551	823.57
564.004	826.27
564.456	830.77
564.908	816.17
565.36	790.27
565.812	777.77
566.264	767.47
566.716	765.97
567.168	752.87
567.62	760.87
568.072	746.37
568.524	739.27
568.976	737.17
569.428	713.17
569.88	716.17
570.332	730.97
570.784	723.87
571.235	729.67
571.687	756.17
572.139	757.37
572.59	754.77
573.042	772.17
573.494	760.17
573.945	758.07
574.397	731.87
574.849	746.07
575.3	740.87
575.752	728.27
576.203	726.47
576.655	737.27
577.106	716.17
577.557	717.17
578.009	717.47
578.46	719.27
578.912	706.17
579.363	709.67
579.814	724.97
580.265	704.27
580.717	714.97
581.168	714.77
581.619	726.07
582.07	728.07
582.521	715.87
582.972	717.47
583.423	723.37
583.875	722.07
584.326	724.77
584.777	740.87
585.227	764.97
585.678	775.67
586.129	794.57
586.58	823.37
587.031	854.67
587.482	890.87
587.933	925.37
588.384	901.67
588.834	845.07
589.285	823.47
589.736	818.57
590.186	817.07
590.637	810.37
591.088	796.07
591.538	776.67
591.989	779.67
592.439	770.17
592.89	763.47
593.34	757.27
593.791	744.57
594.241	731.47
594.692	745.27
595.142	736.07
595.593	739.27
596.043	744.17
596.493	749.87
596.943	743.37
597.394	758.37
597.844	755.27
598.294	779.77
598.744	790.07
599.195	823.07
599.645	869.97
600.095	917.07
600.545	972.67
600.995	1028.77
601.445	1096.47
601.895	1146.67
602.345	1200.57
602.795	1177.67
603.245	1143.87
603.695	1088.37
604.145	1020.47
604.594	976.07
605.044	914.17
605.494	861.87
605.944	811.77
606.393	796.67
606.843	772.97
607.293	775.37
607.743	776.07
608.192	785.87
608.642	801.27
609.091	803.77
609.541	806.57
609.99	800.47
610.44	801.37
610.889	755.17
611.339	742.57
611.788	733.07
612.238	735.77
612.687	735.87
613.136	735.67
613.586	747.67
614.035	744.07
614.484	748.87
614.933	749.97
615.383	743.87
615.832	738.07
616.281	741.37
616.73	709.77
617.179	698.07
617.628	686.27
618.077	670.17
618.526	659.67
618.975	643.27
619.424	645.27
619.873	645.97
620.322	649.77
620.771	636.07
621.22	639.47
621.669	618.87
622.118	608.97
622.567	607.17
623.015	602.87
623.464	599.37
623.913	584.97
624.361	581.17
624.81	579.07
625.259	582.47
625.707	582.97
626.156	583.17
626.604	597.37
627.053	590.07
627.501	607.67
627.95	605.37
628.398	614.07
628.847	604.47
629.295	602.67
629.744	596.77
630.192	598.57
630.64	589.67
631.089	574.57
631.537	569.97
631.985	564.17
632.433	562.47
632.881	549.67
633.33	563.87
633.778	549.17
634.226	547.87
634.674	565.87
635.122	572.27
635.57	587.37
636.018	592.17
636.466	598.97
636.914	577.47
637.362	600.97
637.81	604.27
638.258	609.97
638.705	609.97
639.153	650.27
639.601	650.47
640.049	682.77
640.497	709.37
640.944	739.07
641.392	681.27
641.84	646.67
642.287	615.67
642.735	590.17
643.182	590.97
643.63	581.57
644.078	589.17
644.525	610.57
644.973	616.77
645.42	619.17
645.867	638.17
646.315	663.47
646.762	680.67
647.21	711.97
647.657	736.47
648.104	771.27
648.551	782.67
648.999	837.77
649.446	917.47
649.893	1013.47
650.34	1156.77
650.787	1362.67
651.234	1690.77
651.682	2173.17
652.129	2942.17
652.576	4166.87
653.023	6062.87
653.47	8237.57
653.917	10223.57
654.363	11741.97
654.81	12983.57
655.257	12344.47
655.704	8162.17
656.151	4944.27
656.598	3225.17
657.044	2315.07
657.491	1812.57
657.938	1454.47
658.385	1221.87
658.831	1072.77
659.278	967.37
659.724	856.07
660.171	801.67
660.618	738.07
661.064	696.97
661.511	690.47
661.957	668.97
662.404	667.17
662.85	672.27
663.296	647.57
663.743	581.57
664.189	554.77
664.635	547.97
665.082	547.37
665.528	553.77
665.974	537.07
666.42	537.47
666.867	520.57
667.313	513.57
667.759	488.87
668.205	475.67
668.651	477.97
669.097	474.17
669.543	467.27
669.989	470.47
670.435	465.17
670.881	470.87
671.327	473.47
671.773	491.47
672.219	512.47
672.665	581.77
673.11	608.77
673.556	653.07
674.002	697.17
674.448	686.47
674.893	574.77
675.339	512.57
675.785	456.47
676.23	439.67
676.676	411.87
677.122	407.67
677.567	395.27
678.013	386.47
678.458	383.37
678.904	383.77
679.349	371.57
679.794	377.87
680.24	375.87
680.685	366.47
681.131	363.77
681.576	363.27
682.021	374.67
682.466	374.47
682.912	373.97
683.357	378.17
683.802	408.47
684.247	430.17
684.692	481.97
685.137	523.17
685.583	565.47
686.028	589.27
686.473	545.87
686.918	463.17
687.363	444.77
687.807	415.77
688.252	382.67
688.697	380.27
689.142	355.17
689.587	355.27
690.032	351.27
690.477	367.77
690.921	370.07
691.366	399.97
691.811	423.47
692.255	457.07
692.7	476.37
693.145	530.67
693.589	743.47
694.034	1207.37
694.478	1636.57
694.923	1842.07
695.367	2416.87
695.812	1264.37
696.256	526.67
696.701	392.47
697.145	368.27
697.59	355.97
698.034	334.27
698.478	336.77
698.922	334.87
699.367	339.07
699.811	350.07
700.255	370.57
700.699	405.97
701.143	438.37
701.588	494.57
702.032	536.87
702.476	537.67
702.92	521.87
703.364	522.37
703.808	674.97
704.252	1092.37
704.696	1535.77
705.14	1766.57
705.584	2260.17
706.027	1132.57
706.471	555.07
706.915	421.67
707.359	371.67
707.803	347.77
708.246	329.27
708.69	323.67
709.134	331.67
709.577	322.07
710.021	340.57
710.465	322.07
710.908	311.77
711.352	321.67
711.795	330.27
712.239	372.07
712.682	407.77
713.126	435.37
713.569	473.37
714.012	372.67
714.456	317.97
714.899	302.27
715.342	290.57
715.786	275.37
716.229	277.47
716.672	268.17
717.115	263.37
717.558	263.07
718.002	264.27
718.445	272.57
718.888	293.27
719.331	300.87
719.774	322.67
720.217	319.67
720.66	297.27
721.103	285.77
721.546	266.87
721.989	257.87
722.432	248.17
722.874	251.27
723.317	240.87
723.76	246.27
724.203	271.17
724.645	331.77
725.088	472.97
725.531	610.57
725.974	686.47
726.416	586.27
726.859	328.37
727.301	258.17
727.744	250.87
728.187	243.17
728.629	250.17
729.071	259.67
729.514	280.97
729.956	287.67
730.399	302.17
730.841	300.47
731.283	296.67
731.726	284.17
732.168	275.17
732.61	280.67
733.053	306.67
733.495	337.57
733.937	373.37
734.379	419.67
734.821	455.77
735.263	586.87
735.705	890.27
736.148	1686.97
736.59	2749.37
737.032	3248.87
737.474	2643.97
737.916	868.17
738.357	462.37
738.799	349.07
739.241	311.77
739.683	301.67
740.125	304.27
740.567	305.47
741.008	335.97
741.45	336.57
741.892	338.57
742.334	376.17
742.775	386.17
743.217	364.57
743.658	289.07
744.1	275.07
744.542	279.97
744.983	339.77
745.425	373.27
745.866	361.27
746.307	292.17
746.749	296.37
747.19	348.77
747.632	490.37
748.073	947.27
748.514	1980.37
748.956	3020.47
749.397	3814.57
749.838	3172.77
750.279	3154.47
750.72	1587.67
751.162	581.27
751.603	339.57
752.044	264.17
752.485	229.27
752.926	220.07
753.367	211.67
753.808	205.07
754.249	192.37
754.69	206.87
755.131	196.47
755.572	184.37
756.013	191.87
756.453	189.57
756.894	190.97
757.335	202.57
757.776	205.47
758.216	203.37
758.657	206.07
759.098	210.17
759.538	233.77
759.979	284.47
760.42	391.77
760.86	756.27
761.301	1950.37
761.741	4757.37
762.182	6808.97
762.622	4813.97
763.063	1394.37
763.503	576.27
763.943	347.17
764.384	289.57
764.824	267.87
765.264	261.17
765.705	226.87
766.145	194.17
766.585	188.27
767.025	181.07
767.465	172.37
767.906	192.27
768.346	203.67
768.786	222.37
769.226	228.47
769.666	321.57
770.106	654.27
770.546	1645.67
770.986	2815.47
771.426	2503.87
771.866	841.67
772.306	342.37
772.745	220.97
773.185	179.17
773.625	162.77
774.065	152.07
774.505	169.67
774.944	215.47
775.384	383.37
775.824	632.17
776.263	612.77
776.703	296.57
777.142	163.07
777.582	136.97
778.021	128.37
778.461	136.07
778.9	130.37
779.34	129.77
779.779	118.27
780.219	113.57
780.658	111.97
781.097	116.97
781.537	118.67
781.976	112.17
782.415	109.17
782.855	108.77
783.294	106.57
783.733	108.47
784.172	111.87
784.611	106.77
785.05	118.37
785.489	115.57
785.928	118.07
786.367	124.87
786.806	119.57
787.245	141.17
787.684	141.17
788.123	157.17
788.562	139.77
789.001	131.17
789.44	127.67
789.879	120.77
790.317	124.67
790.756	137.27
791.195	133.17
791.634	156.17
792.072	211.17
792.511	393.57
792.95	1058.17
793.388	2253.17
793.827	2040.97
794.265	703.67
794.704	296.67
795.142	190.77
795.581	159.77
796.019	144.47
796.458	133.77
796.896	127.07
797.334	138.47
797.773	161.97
798.211	235.37
798.649	468.27
799.087	1085.17
799.526	1689.37
799.964	2129.37
800.402	2128.07
800.84	810.37
801.278	313.77
801.716	192.27
802.154	162.87
802.592	159.17
803.03	143.77
803.468	144.17
803.906	149.37
804.344	158.27
804.782	142.77
805.22	142.37
805.658	139.77
806.096	159.77
806.533	165.17
806.971	186.07
807.409	233.57
807.847	343.27
808.284	715.87
808.722	1991.47
809.16	3517.07
809.597	3347.17
810.035	5766.87
810.472	6128.97
810.91	2224.27
811.347	847.17
811.785	430.97
812.222	274.77
812.66	204.07
813.097	182.27
813.535	147.17
813.972	137.17
814.409	124.47
814.846	112.77
815.284	115.77
815.721	108.77
816.158	108.67
816.595	116.67
817.032	159.87
817.47	184.57
817.907	144.57
818.344	108.27
818.781	105.07
819.218	104.37
819.655	132.97
820.092	204.87
820.529	230.57
820.966	178.57
821.403	135.77
821.839	108.37
822.276	104.37
822.713	128.77
823.15	138.27
823.587	121.17
824.023	161.37
824.46	317.47
824.897	950.47
825.333	1432.77
825.77	628.77
826.206	243.97
826.643	142.97
827.08	108.07
827.516	93.27
827.953	79.67
828.389	80.57
828.825	79.57
829.262	71.77
829.698	71.07
830.135	68.37
830.571	62.77
831.007	66.67
831.443	76.07
831.88	65.07
832.316	69.07
832.752	66.27
833.188	68.27
833.624	68.27
834.06	68.57
834.497	73.07
834.933	73.37
835.369	78.37
835.805	69.27
836.241	76.87
836.677	83.67
837.112	96.77
837.548	113.67
837.984	136.87
838.42	213.57
838.856	523.57
839.292	1615.47
839.727	2438.97
840.163	1131.37
840.599	984.57
841.034	2161.77
841.47	2259.87
841.906	835.97
842.341	347.27
842.777	205.07
843.212	218.77
843.648	195.67
844.083	121.57
844.519	87.57
844.954	72.77
845.39	58.87
845.825	55.27
846.261	60.87
846.696	56.87
847.131	58.77
847.566	58.37
848.002	49.77
848.437	55.07
848.872	61.57
849.307	65.27
849.742	85.67
850.177	190.27
850.613	595.17
851.048	930.37
851.483	397.07
851.918	163.27
852.353	90.97
852.788	55.57
853.223	57.07
853.657	47.87
854.092	49.47
854.527	41.47
854.962	42.37
855.397	46.47
855.832	52.27
856.266	43.97
856.701	39.67
857.136	32.97
857.57	42.67
858.005	52.17
858.44	66.07
858.874	52.87
859.309	49.17
859.743	42.67
860.178	51.87
860.612	36.87
861.047	51.47
861.481	75.57
861.915	78.47
862.35	54.07
862.784	37.67
863.218	38.37
863.653	39.57
864.087	43.87
864.521	51.37
864.955	70.87
865.39	165.67
865.824	183.97
866.258	123.97
866.692	184.47
867.126	192.37
867.56	114.57
867.994	60.27
868.428	44.27
868.862	50.47
869.296	55.27
869.73	66.77
870.164	55.87
870.598	52.37
871.031	48.07
871.465	30.97
871.899	38.87
872.333	25.87
872.766	28.87
873.2	21.67
873.634	27.07
874.067	31.17
874.501	27.57
874.935	31.07
875.368	31.97
875.802	29.87
876.235	23.87
876.669	25.57
877.102	18.47
877.535	22.47
877.969	22.37
878.402	26.57
878.836	17.77
879.269	23.87
879.702	23.47
880.135	20.37
880.569	19.87
881.002	27.47
881.435	18.97
881.868	15.37
882.301	20.37
882.734	18.37
883.167	28.27
883.601	21.47
884.034	22.77
884.467	15.97
884.899	21.27
885.332	18.67
885.765	12.87
886.198	20.67
886.631	21.87
887.064	24.17
887.497	17.37
887.929	27.17
888.362	12.97
888.795	13.47
889.228	14.27
889.66	16.07
890.093	20.17
890.526	14.67
890.958	19.47
891.391	19.07
891.823	20.77
892.256	18.27
892.688	16.87
893.121	15.57
893.553	22.07
893.985	25.27
894.418	20.67
894.85	16.17
895.282	16.47
895.715	22.47
896.147	20.17
896.579	18.67
897.011	14.57
897.444	23.17
897.876	11.97
898.308	18.17
898.74	11.47
899.172	10.47
899.604	23.17
900.036	18.37
900.468	12.67
900.9	19.47
901.332	18.07
901.764	16.07
902.196	22.27
902.628	23.07
903.06	15.37
903.491	32.67
903.923	25.07
904.355	23.77
904.787	29.47
905.218	20.77
905.65	23.97
906.082	17.47
906.513	12.97
906.945	12.37
907.376	18.57
907.808	24.57
908.239	21.27
908.671	17.47
909.102	21.77
909.534	31.97
909.965	43.87
910.397	104.97
910.828	336.77
911.259	496.27
911.691	228.97
912.122	108.87
912.553	50.77
912.984	33.67
913.415	23.57
913.847	21.17
914.278	17.97
914.709	11.37
915.14	21.37
915.571	18.27
916.002	13.67
916.433	18.57
916.864	17.47
917.295	8.27
917.726	23.67
918.157	18.67
918.587	25.37
919.018	20.27
919.449	14.87
919.88	23.87
920.311	28.37
920.741	52.17
921.172	178.27
921.603	165.37
922.033	76.97
922.464	45.97
922.895	25.47
923.325	21.37
923.756	18.77
924.186	17.07
924.617	23.87
925.047	21.27
925.478	23.07
925.908	20.77
926.338	10.87
926.769	14.47
927.199	16.77
927.629	7.77
928.06	13.27
928.49	17.97
928.92	14.07
929.35	10.17
929.78	10.97
930.21	3.97
930.641	7.87
931.071	10.47
931.501	2.97
931.931	7.17
932.361	9.17
932.791	-0.23
933.221	6.27
933.651	8.67
934.08	12.97
934.51	33.17
934.94	2.17
935.37	9.77
935.8	12.97
936.229	6.77
936.659	12.27
937.089	10.47
937.519	14.37
937.948	23.87
938.378	13.27
938.807	8.77
939.237	1.87
939.666	9.57
940.096	-6.83
940.525	2.87
940.955	3.67
941.384	5.17
941.814	1.07
942.243	0.57
942.672	-0.43
943.102	3.67
943.531	-0.43
943.96	5.57
944.39	4.07
944.819	-1.43
945.248	4.37
945.677	3.77
946.106	5.47
946.535	2.47
946.964	4.17
947.393	5.67
947.822	-0.43
948.251	-4.23
948.68	2.77
949.109	10.07
949.538	4.57
949.967	2.07
950.396	0.17
950.825	0.87
951.254	-1.03
951.682	-0.93
952.111	3.77
952.54	5.57
952.969	-3.43
953.397	-6.33
953.826	3.67
954.254	-4.53
954.683	2.77
955.112	-1.13
955.54	-0.13
955.969	7.27
956.397	-2.73
956.826	1.27
957.254	8.57
957.682	0.47
958.111	0.37
958.539	-6.23
958.967	3.27
959.396	2.97
959.824	-3.33
960.252	0.47
960.68	-6.03
961.109	-0.93
961.537	-2.83
961.965	1.07
962.393	0.07
962.821	-4.83
963.249	1.47
963.677	4.27
964.105	3.57
964.533	50.07
964.961	50.97
965.389	19.77
965.817	10.07
966.245	5.47
966.672	-7.33
967.1	-7.13
967.528	6.97
967.956	1.77
968.383	0.67
968.811	3.17
969.239	-4.33
969.666	-1.63
970.094	1.87
970.522	1.77
970.949	0.77
971.377	-2.33
971.804	-1.33
972.232	-1.93
972.659	-1.33
973.087	-6.03
973.514	-2.83
973.941	-2.23
974.369	5.27
974.796	4.37
975.223	-0.93
975.651	-3.13
976.078	3.77
976.505	-0.43
976.932	10.57
977.359	12.07
977.786	13.67
978.214	1.07
978.641	-2.83
979.068	-0.73
979.495	-3.73
979.922	1.07
980.349	-0.03
980.776	9.17
981.202	-3.83
981.629	11.27
982.056	3.37
982.483	-0.33
982.91	4.97
983.337	-6.43
983.763	1.57
984.19	-3.33
984.617	-9.03
985.043	-6.23
985.47	1.27
985.897	-6.33
986.323	-9.93
986.75	0.57
987.176	-0.43
987.603	-2.33
988.029	-4.93
988.456	-4.53
988.882	2.37
989.308	-9.03
989.735	-1.53
990.161	5.27
990.587	-2.23
991.014	4.67
991.44	8.97
991.866	-4.33
992.292	-2.53
992.719	-4.13
993.145	8.87
993.571	-7.33
993.997	-6.73
994.423	-1.83
994.849	-3.73
995.275	5.27
995.701	0.87
996.127	-0.73
996.553	-0.43
996.979	0.57
997.405	-5.63
997.83	-2.43
998.256	-5.63
998.682	-5.73
999.108	-6.83
999.534	2.27
999.959	-6.33
1000.385	-4.53
1000.811	-3.63
1001.236	-12.63
1001.662	-4.43
1002.087	-11.03
1002.513	3.77
1002.938	3.17
1003.364	-2.83
1003.789	-0.43
1004.215	1.97
1004.64	-6.13
1005.066	3.17
1005.491	4.57
1005.916	-3.33
1006.342	-3.13
1006.767	-7.53
1007.192	5.47
1007.617	1.77
1008.042	-5.43
1008.468	-8.03
1008.893	-2.93
1009.318	-5.93
1009.743	0.37
1010.168	4.07
1010.593	1.67
1011.018	-5.63
1011.443	-4.13
1011.868	4.17
1012.293	0.27
1012.718	-7.73
1013.143	2.37
1013.567	0.27
1013.992	-2.93
1014.417	-9.83
1014.842	-1.23
1015.267	-5.13
1015.691	-1.13
1016.116	4.17
1016.541	-0.13
1016.965	0.97
1017.39	-3.33
1017.814	-0.63
1018.239	-1.53
1018.663	-1.93
1019.088	-13.43
1019.512	-1.63
1019.937	-6.23
1020.361	-4.03
1020.785	-8.03
1021.21	-3.13
1021.634	-7.83
1022.058	1.27
1022.483	6.17
1022.907	-2.13
1023.331	-1.63
1023.755	1.07
1024.179	-2.73
1024.604	1.37
1025.028	-6.43
1025.452	-5.83
1025.876	-6.33
1026.3	5.67
1026.724	-13.33
1027.148	-3.33
1027.572	-9.93
1027.996	-10.43
1028.42	-10.83
1028.843	-6.13
1029.267	-5.03
1029.691	-5.43
1030.115	-6.03
1030.539	-4.13
1030.962	-6.13
1031.386	-8.73
1031.81	-2.93
1032.233	-1.53
1032.657	-6.33
1033.08	1.57
1033.504	-1.53
1033.927	-2.33
1034.351	-1.23
1034.774	-4.73
1035.198	1.37
1035.621	-6.83
1036.045	-4.23
1036.468	-4.73
1036.891	-11.93
1037.315	-12.93
1037.738	-6.73
1038.161	-4.63
1038.584	-7.23
1039.008	-11.73
1039.431	-5.13
1039.854	-5.93
1040.277	-7.33
1040.7	-7.23
1041.123	-4.13
1041.546	-12.63
1041.969	-7.33
1042.392	-4.33
1042.815	-6.83
1043.238	2.07
1043.661	-2.43
1044.084	-9.13
1044.507	-3.33
1044.93	-7.93
1045.352	-7.93
1045.775	-1.33
1046.198	-2.83
1046.621	-0.43
1047.043	2.97
1047.466	7.77
1047.889	-2.63
1048.311	-3.53
1048.734	-1.13
1049.156	-1.13
1049.579	0.67
1050.001	-1.93
1050.424	-0.83
1050.846	-4.13
1051.269	-3.83
1051.691	-6.83
1052.113	-10.23
1052.536	-3.03
1052.958	-0.73
1053.38	-5.63
1053.802	-8.93
1054.225	-6.53
1054.647	-11.73
1055.069	-7.43
1055.491	4.27
1055.913	-7.83
1056.335	-4.03
1056.757	-6.43
1057.179	-6.33
1057.601	-2.33
1058.023	-3.93
1058.445	-4.13
1058.867	0.97
1059.289	-8.53
1059.711	-12.33
1060.133	-5.83
1060.555	-6.33
1060.976	-11.43
1061.398	-0.63
1061.82	-3.23
1062.241	-5.03
1062.663	-7.93
1063.085	-3.43
1063.506	1.97
1063.928	-4.53
1064.35	-1.03
1064.771	-20.03
1065.193	-3.43
1065.614	-9.93
1066.035	-1.73
1066.457	-1.03
1066.878	1.07
1067.3	-2.43
1067.721	-6.43
1068.142	-2.23
1068.564	-3.53
1068.985	-0.53
1069.406	-3.63
1069.827	-5.63
1070.248	-4.03
1070.67	-4.23
1071.091	-3.33
1071.512	-3.43
1071.933	-2.73
1072.354	-7.43
1072.775	-5.23
1073.196	-15.23
1073.617	-0.53
1074.038	-11.03
1074.459	-3.43
1074.88	-8.83
1075.3	-1.13
1075.721	-5.33
1076.142	-2.03
1076.563	-3.13
1076.983	-7.83
1077.404	-8.53
1077.825	-6.33
1078.246	-5.63
1078.666	-8.73
1079.087	-3.63
1079.507	-9.13
1079.928	-2.83
1080.348	-3.63
1080.769	-9.43
1081.189	-2.33
1081.61	-7.23
1082.03	-2.53
1082.451	-7.23
1082.871	-3.53
1083.291	-8.63
1083.711	-5.83
1084.132	-3.03
1084.552	-4.93
1084.972	1.27
1085.392	-14.13
1085.813	-10.73
1086.233	-11.03
1086.653	-3.53
1087.073	-6.83
1087.493	-7.83
1087.913	-1.13
1088.333	-11.03
1088.753	-3.53
1089.173	0.17
1089.593	-2.03
1090.013	-0.43
1090.433	3.37
1090.852	-1.33
1091.272	-4.33
1091.692	-3.13
1092.112	-4.13
1092.531	-4.43
1092.951	-14.43
1093.371	-8.83
1093.79	-2.23
1094.21	-5.63
1094.63	-13.53
1095.049	-1.33
1095.469	4.17
1095.888	-7.13
1096.308	2.87
1096.727	3.37
1097.146	-4.23
1097.566	0.77
1097.985	-8.73
1098.405	-3.13
1098.824	-13.53
1099.243	-4.73
1099.662	-13.83
1100.082	-4.03
1100.501	-5.03
1100.92	-3.83
1101.339	-3.43
1101.758	-7.73
