Data from 20171114-ORNL-Ar_H_NY_Subt18_08-05-02-663.txt Node
Date: Tue Nov 14 08:05:02 EST 2017
User: Ender
Spectrometer: HR+D1039
Trigger mode: 0
Integration Time (sec): 2.730000E-2
Scans to average: 10
Electric dark correction enabled: true
Nonlinearity correction enabled: false
Boxcar width: 0
XAxis mode: Wavelengths
Number of Pixels in Spectrum: 2048
>>>>>Begin Spectral Data<<<<<
187.836	-7.12
188.309	-7.12
188.782	-7.12
189.255	-0.42
189.728	-3.42
190.201	2.28
190.674	6.78
191.147	0.38
191.619	-10.82
192.092	-2.12
192.565	0.98
193.038	1.98
193.511	0.68
193.984	5.78
194.456	0.58
194.929	5.78
195.402	-3.82
195.874	2.48
196.347	-3.92
196.82	-1.82
197.292	8.18
197.765	-1.72
198.237	-8.02
198.71	1.48
199.182	1.78
199.655	2.68
200.127	2.88
200.6	-5.92
201.072	2.68
201.544	-9.32
202.017	-4.02
202.489	-0.72
202.961	-1.62
203.433	4.18
203.906	-6.12
204.378	-4.02
204.85	-5.42
205.322	-8.02
205.794	-3.42
206.266	-4.92
206.739	-7.22
207.211	-0.72
207.683	-4.82
208.155	-8.42
208.627	-5.72
209.099	-2.32
209.57	-9.02
210.042	-2.62
210.514	-8.02
210.986	-1.72
211.458	-10.92
211.93	-0.02
212.402	0.18
212.873	-4.42
213.345	-10.72
213.817	-8.02
214.288	-5.32
214.76	-9.42
215.232	-0.02
215.703	-0.32
216.175	-1.72
216.646	-1.12
217.118	-2.52
217.589	-6.42
218.061	-1.72
218.532	-3.32
219.004	-1.12
219.475	-0.72
219.946	-7.12
220.418	-5.52
220.889	2.28
221.36	1.08
221.832	-1.02
222.303	-6.72
222.774	1.38
223.245	-3.82
223.717	-2.92
224.188	-6.42
224.659	-3.22
225.13	-5.82
225.601	-2.02
226.072	2.78
226.543	-1.32
227.014	-0.32
227.485	3.08
227.956	-5.92
228.427	0.48
228.898	8.68
229.369	5.68
229.839	2.88
230.31	-9.22
230.781	6.28
231.252	-1.92
231.722	-7.02
232.193	-5.32
232.664	0.08
233.135	3.38
233.605	2.98
234.076	-2.92
234.546	-2.12
235.017	6.38
235.487	-0.52
235.958	4.98
236.428	1.28
236.899	4.48
237.369	4.78
237.84	3.28
238.31	6.98
238.78	6.78
239.251	4.88
239.721	2.48
240.191	-1.82
240.662	0.08
241.132	4.68
241.602	3.68
242.072	6.38
242.542	10.38
243.013	-0.12
243.483	5.88
243.953	1.68
244.423	1.38
244.893	-5.02
245.363	-1.02
245.833	0.98
246.303	2.78
246.773	9.68
247.243	6.98
247.712	8.78
248.182	4.88
248.652	9.48
249.122	5.38
249.592	14.58
250.061	25.48
250.531	34.18
251.001	19.78
251.471	20.38
251.94	20.38
252.41	10.88
252.879	6.28
253.349	13.98
253.818	9.88
254.288	5.08
254.757	11.38
255.227	4.28
255.696	4.88
256.166	6.68
256.635	2.88
257.105	10.58
257.574	8.48
258.043	10.78
258.513	9.68
258.982	17.58
259.451	8.48
259.92	17.28
260.389	16.08
260.859	12.58
261.328	16.38
261.797	23.38
262.266	10.48
262.735	10.68
263.204	12.08
263.673	-1.92
264.142	9.68
264.611	-0.22
265.08	1.58
265.549	-0.72
266.018	6.38
266.487	0.88
266.955	0.88
267.424	0.48
267.893	11.28
268.362	2.68
268.83	2.98
269.299	12.38
269.768	9.68
270.236	8.58
270.705	11.38
271.174	5.98
271.642	9.28
272.111	12.98
272.579	18.68
273.048	23.28
273.516	27.78
273.985	28.58
274.453	30.58
274.922	26.58
275.39	14.68
275.858	6.18
276.327	16.88
276.795	26.28
277.263	15.58
277.731	39.58
278.2	59.08
278.668	64.98
279.136	57.18
279.604	20.58
280.072	20.18
280.54	11.28
281.008	13.38
281.477	19.88
281.945	15.88
282.413	18.68
282.881	23.48
283.348	10.78
283.816	16.58
284.284	22.48
284.752	24.78
285.22	14.08
285.688	21.18
286.156	18.48
286.623	49.38
287.091	55.88
287.559	28.38
288.026	20.58
288.494	21.88
288.962	10.58
289.429	13.58
289.897	21.88
290.364	19.38
290.832	25.88
291.3	16.08
291.767	22.58
292.234	26.68
292.702	17.58
293.169	22.38
293.637	23.78
294.104	23.88
294.571	7.98
295.039	12.68
295.506	11.28
295.973	26.48
296.44	18.68
296.908	23.78
297.375	19.38
297.842	22.08
298.309	12.38
298.776	12.88
299.243	14.08
299.71	16.18
300.177	22.78
300.644	17.88
301.111	20.88
301.578	22.68
302.045	24.38
302.512	24.28
302.979	28.68
303.446	23.98
303.913	18.68
304.379	20.98
304.846	30.28
305.313	28.28
305.78	26.98
306.246	31.78
306.713	31.38
307.18	31.18
307.646	36.58
308.113	30.08
308.579	27.18
309.046	27.18
309.512	32.38
309.979	25.28
310.445	33.28
310.912	28.28
311.378	39.38
311.845	30.28
312.311	33.78
312.777	38.68
313.244	30.18
313.71	39.48
314.176	29.68
314.642	34.88
315.109	36.68
315.575	41.38
316.041	37.88
316.507	35.18
316.973	40.38
317.439	34.18
317.905	45.78
318.371	37.88
318.837	41.78
319.303	33.28
319.769	39.18
320.235	37.18
320.701	35.98
321.167	45.38
321.633	38.48
322.099	48.98
322.564	46.78
323.03	44.08
323.496	37.98
323.962	48.08
324.427	38.78
324.893	47.68
325.359	46.28
325.824	40.48
326.29	40.68
326.755	40.18
327.221	42.98
327.686	42.28
328.152	49.28
328.617	41.28
329.083	54.38
329.548	55.48
330.014	50.38
330.479	43.08
330.944	48.78
331.41	45.38
331.875	47.28
332.34	44.08
332.805	39.08
333.271	54.48
333.736	47.28
334.201	58.98
334.666	60.28
335.131	60.98
335.596	53.18
336.061	47.98
336.526	49.78
336.991	52.08
337.456	59.38
337.921	52.58
338.386	46.48
338.851	47.08
339.316	47.28
339.781	52.98
340.246	57.98
340.711	55.98
341.175	49.18
341.64	46.48
342.105	59.98
342.569	57.58
343.034	66.68
343.499	57.18
343.963	55.18
344.428	61.88
344.893	59.38
345.357	58.08
345.822	60.78
346.286	70.88
346.751	75.68
347.215	76.68
347.679	78.18
348.144	99.98
348.608	86.88
349.073	71.48
349.537	77.68
350.001	86.88
350.465	88.48
350.93	84.18
351.394	85.48
351.858	75.78
352.322	88.08
352.786	84.48
353.25	102.78
353.715	111.78
354.179	98.98
354.643	128.78
355.107	127.08
355.571	112.48
356.035	108.88
356.498	118.08
356.962	118.98
357.426	132.38
357.89	124.18
358.354	97.68
358.818	86.18
359.281	85.68
359.745	78.38
360.209	75.38
360.673	83.98
361.136	83.68
361.6	85.08
362.064	84.58
362.527	88.98
362.991	93.28
363.454	79.48
363.918	80.48
364.381	77.48
364.845	79.88
365.308	83.28
365.772	92.58
366.235	89.08
366.698	80.48
367.162	83.88
367.625	90.18
368.088	88.98
368.552	91.28
369.015	90.58
369.478	91.38
369.941	100.08
370.404	96.18
370.867	106.28
371.331	104.68
371.794	108.48
372.257	112.38
372.72	111.98
373.183	113.48
373.646	105.88
374.109	99.28
374.572	107.08
375.035	110.68
375.497	111.98
375.96	101.88
376.423	96.28
376.886	113.08
377.349	108.58
377.811	95.78
378.274	108.28
378.737	106.08
379.199	108.98
379.662	112.68
380.125	122.18
380.587	115.58
381.05	122.58
381.512	128.28
381.975	131.98
382.437	128.08
382.9	124.28
383.362	131.38
383.825	138.98
384.287	148.48
384.75	138.08
385.212	138.88
385.674	135.78
386.136	136.68
386.599	121.98
387.061	126.88
387.523	130.98
387.985	134.68
388.447	145.68
388.91	141.18
389.372	163.78
389.834	150.08
390.296	140.78
390.758	153.08
391.22	167.68
391.682	208.18
392.144	295.68
392.606	225.08
393.068	163.98
393.529	167.18
393.991	152.38
394.453	143.98
394.915	160.68
395.377	184.98
395.838	208.18
396.3	156.28
396.762	138.58
397.224	130.48
397.685	129.78
398.147	130.08
398.608	127.18
399.07	126.68
399.531	127.48
399.993	140.48
400.454	143.98
400.916	145.68
401.377	140.28
401.839	148.98
402.3	144.68
402.762	164.38
403.223	176.28
403.684	175.48
404.145	163.38
404.607	154.88
405.068	161.78
405.529	165.98
405.99	185.98
406.451	174.78
406.913	163.38
407.374	156.58
407.835	158.08
408.296	160.38
408.757	170.48
409.218	185.58
409.679	171.38
410.14	168.18
410.601	174.68
411.062	187.08
411.522	180.88
411.983	189.58
412.444	174.68
412.905	179.48
413.366	173.88
413.826	190.08
414.287	214.88
414.748	254.98
415.208	242.08
415.669	203.08
416.13	209.38
416.59	203.98
417.051	205.78
417.511	220.38
417.972	233.98
418.432	242.68
418.893	275.98
419.353	241.58
419.814	192.28
420.274	177.38
420.734	174.58
421.195	195.38
421.655	197.18
422.115	192.88
422.576	190.58
423.036	196.58
423.496	198.78
423.956	204.38
424.416	221.38
424.876	264.58
425.336	263.18
425.797	250.68
426.257	247.28
426.717	234.48
427.177	224.28
427.637	220.48
428.097	226.08
428.556	236.98
429.016	261.88
429.476	253.88
429.936	267.98
430.396	265.38
430.856	279.68
431.315	304.38
431.775	345.48
432.235	367.88
432.694	340.08
433.154	345.48
433.614	373.18
434.073	320.48
434.533	272.78
434.993	263.68
435.452	271.68
435.912	289.58
436.371	277.48
436.83	281.38
437.29	260.08
437.749	238.48
438.209	237.88
438.668	265.68
439.127	279.18
439.587	255.48
440.046	240.18
440.505	250.58
440.964	273.58
441.424	315.48
441.883	299.38
442.342	259.78
442.801	217.28
443.26	219.18
443.719	219.98
444.178	217.88
444.637	207.58
445.096	216.28
445.555	218.68
446.014	219.18
446.473	214.08
446.932	221.58
447.391	216.58
447.849	219.38
448.308	217.58
448.767	215.38
449.226	226.08
449.685	231.58
450.143	237.38
450.602	238.28
451.061	220.48
451.519	231.18
451.978	222.98
452.436	226.58
452.895	235.58
453.353	245.38
453.812	232.48
454.27	229.88
454.729	241.78
455.187	233.38
455.646	243.58
456.104	233.78
456.562	256.38
457.021	255.38
457.479	250.68
457.937	259.58
458.395	260.18
458.854	242.48
459.312	240.48
459.77	266.68
460.228	248.08
460.686	238.58
461.144	242.38
461.602	230.48
462.06	233.88
462.518	245.18
462.976	260.68
463.434	253.38
463.892	261.08
464.35	265.18
464.808	280.78
465.266	256.98
465.724	271.58
466.181	275.98
466.639	275.48
467.097	286.28
467.555	289.18
468.012	297.98
468.47	295.48
468.928	321.88
469.385	336.08
469.843	341.28
470.3	335.18
470.758	349.08
471.215	381.18
471.673	398.78
472.13	403.38
472.588	401.28
473.045	362.88
473.503	370.28
473.96	385.58
474.417	400.68
474.875	426.38
475.332	469.28
475.789	444.98
476.246	453.18
476.704	473.28
477.161	490.78
477.618	511.88
478.075	549.68
478.532	598.18
478.989	687.58
479.446	791.28
479.903	749.68
480.36	787.88
480.817	844.98
481.274	958.78
481.731	1051.78
482.188	1151.78
482.645	1288.18
483.102	1399.98
483.558	1532.68
484.015	1580.98
484.472	1569.48
484.929	1515.28
485.385	1464.48
485.842	1403.28
486.299	1350.58
486.755	1288.18
487.212	1087.38
487.668	914.18
488.125	847.18
488.582	755.78
489.038	742.88
489.494	711.28
489.951	678.58
490.407	658.98
490.864	635.58
491.32	631.38
491.776	631.38
492.233	630.88
492.689	591.38
493.145	587.68
493.602	585.88
494.058	599.68
494.514	593.88
494.97	614.48
495.426	633.68
495.882	605.48
496.338	604.98
496.794	610.58
497.251	608.88
497.707	629.68
498.163	637.78
498.618	637.38
499.074	640.68
499.53	665.08
499.986	662.28
500.442	642.38
500.898	617.48
501.354	619.48
501.809	624.28
502.265	637.28
502.721	647.58
503.177	654.28
503.632	653.48
504.088	658.48
504.543	693.08
504.999	690.18
505.455	650.18
505.91	615.38
506.366	614.58
506.821	612.08
507.277	605.08
507.732	603.08
508.187	599.88
508.643	617.48
509.098	619.88
509.553	643.48
510.009	645.98
510.464	661.88
510.919	676.38
511.375	686.98
511.83	688.98
512.285	709.48
512.74	744.28
513.195	772.88
513.65	753.58
514.105	757.88
514.56	751.18
515.015	777.78
515.47	800.88
515.925	789.58
516.38	778.08
516.835	777.48
517.29	762.28
517.745	751.68
518.2	745.18
518.655	732.88
519.109	722.58
519.564	729.18
520.019	719.68
520.474	703.58
520.928	713.28
521.383	701.08
521.838	695.38
522.292	695.08
522.747	692.68
523.201	693.98
523.656	683.38
524.11	673.88
524.565	668.58
525.019	675.98
525.474	675.18
525.928	684.88
526.382	674.68
526.837	683.98
527.291	675.88
527.745	672.48
528.2	683.88
528.654	675.18
529.108	664.08
529.562	669.98
530.016	670.38
530.47	684.18
530.925	664.88
531.379	676.18
531.833	682.78
532.287	685.38
532.741	689.28
533.195	694.78
533.649	701.28
534.103	711.68
534.556	691.58
535.01	692.38
535.464	690.48
535.918	701.48
536.372	698.18
536.826	701.68
537.279	693.58
537.733	694.78
538.187	706.28
538.64	693.58
539.094	708.98
539.548	705.78
540.001	700.48
540.455	698.98
540.908	709.18
541.362	715.98
541.815	724.38
542.269	729.28
542.722	733.88
543.175	741.38
543.629	744.98
544.082	765.58
544.536	760.08
544.989	761.58
545.442	770.78
545.895	768.28
546.349	764.28
546.802	760.68
547.255	778.38
547.708	773.58
548.161	787.68
548.614	791.08
549.067	812.78
549.52	794.58
549.973	770.88
550.426	785.78
550.879	765.48
551.332	773.58
551.785	785.78
552.238	773.48
552.691	798.88
553.144	794.48
553.596	816.38
554.049	841.58
554.502	866.78
554.955	886.88
555.407	875.18
555.86	873.38
556.313	860.28
556.765	853.78
557.218	856.38
557.67	849.18
558.123	848.48
558.576	845.88
559.028	849.18
559.48	867.08
559.933	837.58
560.385	808.68
560.838	773.38
561.29	754.98
561.742	752.18
562.195	738.98
562.647	736.88
563.099	747.78
563.551	746.18
564.004	752.88
564.456	746.18
564.908	739.68
565.36	717.68
565.812	709.58
566.264	709.88
566.716	696.28
567.168	684.98
567.62	698.48
568.072	675.78
568.524	664.28
568.976	661.58
569.428	637.58
569.88	644.18
570.332	652.78
570.784	658.08
571.235	654.58
571.687	663.88
572.139	675.28
572.59	678.48
573.042	676.08
573.494	686.38
573.945	676.28
574.397	659.18
574.849	663.38
575.3	660.68
575.752	654.08
576.203	642.08
576.655	658.28
577.106	656.68
577.557	647.08
578.009	634.48
578.46	638.38
578.912	632.78
579.363	635.68
579.814	637.58
580.265	628.18
580.717	639.58
581.168	636.18
581.619	655.88
582.07	647.28
582.521	647.38
582.972	642.78
583.423	645.78
583.875	650.98
584.326	664.48
584.777	706.48
585.227	796.08
585.678	894.48
586.129	976.58
586.58	1051.18
587.031	1138.08
587.482	1295.68
587.933	1490.68
588.384	1278.38
588.834	956.98
589.285	775.18
589.736	745.08
590.186	728.18
590.637	722.88
591.088	714.38
591.538	708.48
591.989	698.88
592.439	690.28
592.89	674.58
593.34	670.88
593.791	673.08
594.241	666.08
594.692	674.28
595.142	658.08
595.593	663.78
596.043	667.58
596.493	677.88
596.943	681.38
597.394	685.58
597.844	671.58
598.294	687.58
598.744	709.68
599.195	739.28
599.645	768.98
600.095	803.68
600.545	847.58
600.995	914.18
601.445	972.18
601.895	1025.38
602.345	1068.48
602.795	1048.38
603.245	1006.38
603.695	950.88
604.145	907.88
604.594	867.78
605.044	805.68
605.494	744.18
605.944	717.58
606.393	694.98
606.843	684.08
607.293	685.98
607.743	682.28
608.192	697.38
608.642	704.68
609.091	721.58
609.541	723.68
609.99	722.98
610.44	723.78
610.889	677.08
611.339	650.48
611.788	638.08
612.238	662.48
612.687	678.88
613.136	684.58
613.586	695.18
614.035	701.28
614.484	712.48
614.933	717.78
615.383	710.08
615.832	696.48
616.281	682.68
616.73	638.78
617.179	626.38
617.628	611.68
618.077	591.58
618.526	579.38
618.975	575.48
619.424	568.58
619.873	576.08
620.322	581.28
620.771	574.28
621.22	567.48
621.669	557.28
622.118	549.58
622.567	534.08
623.015	533.18
623.464	529.98
623.913	520.08
624.361	518.08
624.81	513.08
625.259	517.78
625.707	512.58
626.156	523.18
626.604	518.78
627.053	530.88
627.501	527.08
627.95	529.78
628.398	534.68
628.847	525.38
629.295	527.78
629.744	528.58
630.192	525.18
630.64	517.48
631.089	524.98
631.537	523.08
631.985	539.18
632.433	559.88
632.881	559.58
633.33	620.68
633.778	587.68
634.226	522.68
634.674	513.58
635.122	538.08
635.57	557.48
636.018	581.58
636.466	540.18
636.914	517.38
637.362	532.88
637.81	527.98
638.258	545.48
638.705	527.98
639.153	567.58
639.601	567.28
640.049	589.68
640.497	633.38
640.944	644.48
641.392	601.08
641.84	559.28
642.287	544.18
642.735	525.98
643.182	528.58
643.63	522.58
644.078	539.68
644.525	551.88
644.973	555.18
645.42	566.88
645.867	574.48
646.315	592.78
646.762	614.98
647.21	648.68
647.657	662.98
648.104	696.48
648.551	708.28
648.999	774.98
649.446	854.58
649.893	938.18
650.34	1076.78
650.787	1278.88
651.234	1590.18
651.682	2071.98
652.129	2857.88
652.576	4088.08
653.023	6084.28
653.47	8358.58
653.917	10525.98
654.363	12279.08
654.81	13725.98
655.257	13080.28
655.704	8491.98
656.151	4988.28
656.598	3217.48
657.044	2271.88
657.491	1732.58
657.938	1400.58
658.385	1163.98
658.831	1013.88
659.278	904.18
659.724	793.38
660.171	739.58
660.618	668.78
661.064	638.98
661.511	619.38
661.957	592.28
662.404	596.98
662.85	601.68
663.296	578.98
663.743	514.18
664.189	500.48
664.635	487.88
665.082	487.58
665.528	490.28
665.974	478.28
666.42	466.18
666.867	469.38
667.313	452.98
667.759	437.78
668.205	443.68
668.651	452.18
669.097	447.98
669.543	460.58
669.989	433.98
670.435	413.58
670.881	400.68
671.327	413.78
671.773	429.58
672.219	446.58
672.665	494.88
673.11	525.38
673.556	573.78
674.002	623.58
674.448	607.48
674.893	506.68
675.339	445.68
675.785	402.38
676.23	385.48
676.676	359.08
677.122	358.18
677.567	339.68
678.013	329.58
678.458	328.88
678.904	322.98
679.349	317.58
679.794	319.78
680.24	320.58
680.685	314.18
681.131	318.88
681.576	322.98
682.021	321.08
682.466	308.98
682.912	307.88
683.357	315.18
683.802	346.28
684.247	373.08
684.692	410.38
685.137	452.78
685.583	485.68
686.028	514.28
686.473	482.88
686.918	407.48
687.363	371.08
687.807	354.48
688.252	336.38
688.697	323.28
689.142	307.48
689.587	299.08
690.032	299.98
690.477	310.08
690.921	327.58
691.366	350.08
691.811	364.18
692.255	390.88
692.7	421.38
693.145	449.38
693.589	615.98
694.034	1001.48
694.478	1386.38
694.923	1591.28
695.367	2087.08
695.812	1095.98
696.256	457.68
696.701	334.08
697.145	311.88
697.59	293.08
698.034	300.88
698.478	297.78
698.922	294.88
699.367	297.58
699.811	309.58
700.255	322.98
700.699	344.78
701.143	385.28
701.588	426.28
702.032	473.38
702.476	468.38
702.92	444.08
703.364	440.98
703.808	566.18
704.252	913.68
704.696	1303.38
705.14	1532.38
705.584	1967.18
706.027	963.78
706.471	465.08
706.915	360.88
707.359	312.58
707.803	282.98
708.246	283.28
708.69	282.58
709.134	287.78
709.577	279.38
710.021	288.58
710.465	276.48
710.908	264.88
711.352	270.08
711.795	276.68
712.239	310.28
712.682	348.68
713.126	382.38
713.569	422.58
714.012	336.28
714.456	294.18
714.899	282.28
715.342	252.58
715.786	240.98
716.229	234.48
716.672	229.18
717.115	226.88
717.558	228.48
718.002	228.68
718.445	244.68
718.888	259.48
719.331	268.68
719.774	274.28
720.217	275.48
720.66	260.98
721.103	246.18
721.546	225.68
721.989	223.68
722.432	204.08
722.874	213.58
723.317	202.78
723.76	209.98
724.203	241.08
724.645	282.68
725.088	402.88
725.531	511.58
725.974	581.98
726.416	493.18
726.859	271.08
727.301	217.08
727.744	215.18
728.187	206.38
728.629	216.78
729.071	224.28
729.514	230.38
729.956	243.08
730.399	247.08
730.841	260.38
731.283	248.98
731.726	243.08
732.168	230.78
732.61	242.98
733.053	254.78
733.495	274.98
733.937	316.68
734.379	353.88
734.821	392.68
735.263	474.68
735.705	743.28
736.148	1384.38
736.59	2298.88
737.032	2808.58
737.474	2279.28
737.916	732.18
738.357	383.88
738.799	292.48
739.241	263.68
739.683	254.48
740.125	263.18
740.567	267.78
741.008	285.68
741.45	284.68
741.892	280.08
742.334	311.08
742.775	320.88
743.217	310.38
743.658	242.98
744.1	235.68
744.542	236.48
744.983	278.98
745.425	299.98
745.866	315.58
746.307	256.28
746.749	258.48
747.19	283.48
747.632	403.08
748.073	760.78
748.514	1623.78
748.956	2572.48
749.397	3211.28
749.838	2662.48
750.279	2714.78
750.72	1363.98
751.162	486.48
751.603	294.68
752.044	223.58
752.485	192.78
752.926	190.58
753.367	178.88
753.808	177.48
754.249	170.18
754.69	166.68
755.131	161.88
755.572	166.98
756.013	159.18
756.453	166.98
756.894	163.18
757.335	173.18
757.776	178.98
758.216	173.88
758.657	183.38
759.098	179.18
759.538	205.68
759.979	236.28
760.42	329.38
760.86	609.08
761.301	1582.98
761.741	3919.48
762.182	5916.08
762.622	4172.08
763.063	1183.28
763.503	483.18
763.943	311.58
764.384	315.38
764.824	378.08
765.264	422.28
765.705	286.78
766.145	193.68
766.585	177.78
767.025	160.38
767.465	172.88
767.906	221.88
768.346	305.28
768.786	321.18
769.226	233.88
769.666	287.18
770.106	529.48
770.546	1366.88
770.986	2388.38
771.426	2176.28
771.866	711.68
772.306	294.28
772.745	196.88
773.185	157.78
773.625	156.88
774.065	149.58
774.505	176.78
774.944	275.68
775.384	621.88
775.824	1171.38
776.263	1159.38
776.703	473.98
777.142	206.18
777.582	142.28
778.021	130.28
778.461	127.48
778.9	126.68
779.34	119.38
779.779	109.28
780.219	105.78
780.658	97.88
781.097	101.88
781.537	107.18
781.976	94.78
782.415	98.28
782.855	94.18
783.294	96.98
783.733	96.98
784.172	96.98
784.611	94.28
785.05	103.98
785.489	97.78
785.928	110.78
786.367	116.08
786.806	102.88
787.245	116.68
787.684	115.78
788.123	131.38
788.562	121.08
789.001	115.68
789.44	108.78
789.879	104.18
790.317	107.08
790.756	116.98
791.195	118.18
791.634	129.68
792.072	183.78
792.511	320.18
792.95	870.78
793.388	1942.38
793.827	1790.38
794.265	616.08
794.704	252.08
795.142	164.38
795.581	137.08
796.019	123.68
796.458	112.18
796.896	108.88
797.334	118.68
797.773	139.78
798.211	191.38
798.649	377.48
799.087	897.18
799.526	1419.88
799.964	1801.48
800.402	1843.88
800.84	692.38
801.278	272.68
801.716	165.58
802.154	140.88
802.592	129.98
803.03	123.48
803.468	118.78
803.906	129.88
804.344	132.78
804.782	123.58
805.22	118.98
805.658	114.88
806.096	130.98
806.533	141.58
806.971	154.08
807.409	192.08
807.847	280.18
808.284	574.58
808.722	1630.68
809.16	2966.38
809.597	2737.98
810.035	4852.38
810.472	5380.08
810.91	1910.58
811.347	717.78
811.785	368.38
812.222	225.98
812.66	172.18
813.097	148.38
813.535	132.28
813.972	117.68
814.409	109.78
814.846	94.58
815.284	98.48
815.721	91.28
816.158	92.08
816.595	114.98
817.032	163.58
817.47	178.98
817.907	148.78
818.344	142.78
818.781	108.48
819.218	89.88
819.655	110.78
820.092	168.68
820.529	199.58
820.966	161.18
821.403	118.48
821.839	99.38
822.276	93.08
822.713	111.78
823.15	119.28
823.587	109.38
824.023	128.48
824.46	253.38
824.897	793.18
825.333	1239.98
825.77	525.78
826.206	204.38
826.643	119.18
827.08	87.58
827.516	73.38
827.953	70.28
828.389	70.18
828.825	56.88
829.262	63.78
829.698	53.08
830.135	57.18
830.571	51.08
831.007	54.58
831.443	55.58
831.88	55.38
832.316	61.18
832.752	53.88
833.188	57.68
833.624	56.28
834.06	64.78
834.497	65.28
834.933	62.98
835.369	67.88
835.805	62.78
836.241	73.28
836.677	70.88
837.112	85.38
837.548	91.68
837.984	117.18
838.42	174.98
838.856	426.68
839.292	1335.88
839.727	2115.78
840.163	968.08
840.599	797.08
841.034	1810.18
841.47	1962.38
841.906	711.08
842.341	297.38
842.777	207.88
843.212	297.28
843.648	293.28
844.083	143.68
844.519	88.48
844.954	72.38
845.39	54.68
845.825	54.28
846.261	49.08
846.696	45.88
847.131	51.98
847.566	49.48
848.002	52.08
848.437	47.38
848.872	62.58
849.307	53.38
849.742	78.28
850.177	152.98
850.613	486.68
851.048	800.18
851.483	341.48
851.918	138.38
852.353	78.58
852.788	58.48
853.223	50.28
853.657	53.28
854.092	42.28
854.527	36.18
854.962	36.08
855.397	38.98
855.832	47.88
856.266	35.98
856.701	34.18
857.136	32.78
857.57	42.08
858.005	43.38
858.44	56.78
858.874	40.98
859.309	46.68
859.743	33.08
860.178	43.28
860.612	37.28
861.047	44.68
861.481	62.18
861.915	59.98
862.35	42.98
862.784	30.88
863.218	36.18
863.653	32.28
864.087	40.88
864.521	52.28
864.955	60.98
865.39	138.38
865.824	157.88
866.258	100.68
866.692	145.98
867.126	151.98
867.56	96.98
867.994	48.08
868.428	24.78
868.862	42.78
869.296	48.98
869.73	53.68
870.164	49.48
870.598	41.88
871.031	30.58
871.465	29.48
871.899	27.98
872.333	25.18
872.766	25.18
873.2	21.98
873.634	23.28
874.067	26.88
874.501	22.68
874.935	32.28
875.368	27.78
875.802	26.08
876.235	26.88
876.669	26.88
877.102	19.88
877.535	22.28
877.969	19.78
878.402	21.18
878.836	18.58
879.269	23.98
879.702	19.88
880.135	22.68
880.569	18.38
881.002	29.08
881.435	16.68
881.868	17.78
882.301	21.88
882.734	13.68
883.167	22.68
883.601	15.88
884.034	21.38
884.467	7.08
884.899	22.38
885.332	13.78
885.765	12.08
886.198	15.98
886.631	19.18
887.064	17.48
887.497	17.38
887.929	25.78
888.362	13.18
888.795	8.18
889.228	10.38
889.66	21.28
890.093	19.58
890.526	11.98
890.958	13.48
891.391	17.88
891.823	21.98
892.256	13.68
892.688	14.58
893.121	12.18
893.553	11.18
893.985	18.08
894.418	17.68
894.85	13.68
895.282	19.48
895.715	19.48
896.147	24.48
896.579	15.98
897.011	13.98
897.444	11.98
897.876	6.28
898.308	19.18
898.74	16.68
899.172	7.88
899.604	20.58
900.036	18.08
900.468	11.28
900.9	11.88
901.332	15.88
901.764	18.38
902.196	20.08
902.628	15.28
903.06	16.88
903.491	30.68
903.923	22.38
904.355	17.68
904.787	23.08
905.218	22.98
905.65	19.58
906.082	16.38
906.513	14.28
906.945	16.88
907.376	11.48
907.808	19.78
908.239	23.38
908.671	22.38
909.102	25.38
909.534	21.98
909.965	43.58
910.397	83.48
910.828	280.28
911.259	430.58
911.691	203.18
912.122	95.58
912.553	43.58
912.984	29.18
913.415	24.98
913.847	29.68
914.278	17.48
914.709	10.18
915.14	20.28
915.571	15.08
916.002	16.28
916.433	22.78
916.864	14.68
917.295	8.68
917.726	15.68
918.157	10.68
918.587	27.28
919.018	20.08
919.449	25.08
919.88	20.68
920.311	30.68
920.741	38.38
921.172	148.38
921.603	137.98
922.033	66.58
922.464	42.08
922.895	17.08
923.325	22.88
923.756	19.38
924.186	13.28
924.617	22.68
925.047	38.38
925.478	49.48
925.908	34.98
926.338	22.28
926.769	18.18
927.199	23.98
927.629	11.28
928.06	14.68
928.49	15.78
928.92	11.48
929.35	9.78
929.78	5.58
930.21	7.48
930.641	0.18
931.071	9.18
931.501	9.98
931.931	8.28
932.361	6.78
932.791	1.08
933.221	10.18
933.651	6.88
934.08	16.68
934.51	25.98
934.94	6.58
935.37	9.88
935.8	14.58
936.229	7.88
936.659	9.48
937.089	2.98
937.519	13.88
937.948	26.28
938.378	18.18
938.807	4.88
939.237	2.68
939.666	11.08
940.096	0.88
940.525	-0.12
940.955	2.08
941.384	5.68
941.814	2.48
942.243	-0.32
942.672	2.58
943.102	-6.92
943.531	4.68
943.96	6.18
944.39	2.18
944.819	4.58
945.248	0.38
945.677	4.98
946.106	1.98
946.535	5.68
946.964	0.48
947.393	3.68
947.822	2.08
948.251	-5.12
948.68	1.78
949.109	1.68
949.538	5.28
949.967	-6.62
950.396	-2.72
950.825	-3.12
951.254	-1.52
951.682	-6.12
952.111	1.18
952.54	7.68
952.969	-1.42
953.397	-6.52
953.826	2.68
954.254	-3.82
954.683	-1.12
955.112	-2.02
955.54	-1.42
955.969	3.48
956.397	1.78
956.826	-5.92
957.254	7.58
957.682	0.68
958.111	5.68
958.539	-1.82
958.967	6.48
959.396	0.98
959.824	-2.62
960.252	2.18
960.68	-7.82
961.109	-0.32
961.537	-4.52
961.965	0.38
962.393	-3.52
962.821	0.08
963.249	3.58
963.677	3.78
964.105	7.88
964.533	37.58
964.961	36.98
965.389	14.48
965.817	8.68
966.245	0.88
966.672	-0.62
967.1	-7.22
967.528	6.98
967.956	-4.42
968.383	1.38
968.811	2.38
969.239	-5.52
969.666	-2.22
970.094	1.18
970.522	-1.32
970.949	-4.12
971.377	-4.72
971.804	-2.72
972.232	2.38
972.659	-1.22
973.087	-3.62
973.514	0.08
973.941	-3.72
974.369	4.88
974.796	-0.52
975.223	-1.42
975.651	1.38
976.078	0.08
976.505	-3.42
976.932	-0.62
977.359	14.58
977.786	11.98
978.214	3.58
978.641	-4.02
979.068	3.38
979.495	-12.52
979.922	3.68
980.349	-4.72
980.776	8.18
981.202	-0.82
981.629	5.28
982.056	1.68
982.483	-1.92
982.91	4.08
983.337	-4.52
983.763	4.18
984.19	-1.82
984.617	0.78
985.043	-1.22
985.47	-2.62
985.897	1.98
986.323	-8.52
986.75	4.18
987.176	3.48
987.603	-2.62
988.029	2.18
988.456	-3.72
988.882	-2.92
989.308	-9.32
989.735	-2.82
990.161	0.08
990.587	-0.62
991.014	3.18
991.44	12.28
991.866	-1.22
992.292	-4.12
992.719	0.78
993.145	3.88
993.571	-4.72
993.997	-0.82
994.423	0.98
994.849	0.08
995.275	0.48
995.701	3.28
996.127	-0.22
996.553	3.48
996.979	-1.12
997.405	-0.42
997.83	-2.02
998.256	-5.52
998.682	-7.92
999.108	-10.72
999.534	-5.32
999.959	0.28
1000.385	-2.92
1000.811	1.78
1001.236	-7.92
1001.662	-6.72
1002.087	-4.62
1002.513	-2.32
1002.938	-0.12
1003.364	-2.32
1003.789	1.48
1004.215	4.38
1004.64	-6.32
1005.066	4.78
1005.491	8.88
1005.916	2.08
1006.342	-4.32
1006.767	-5.82
1007.192	5.78
1007.617	-3.42
1008.042	-4.52
1008.468	-6.62
1008.893	-5.82
1009.318	-5.62
1009.743	3.08
1010.168	1.98
1010.593	1.28
1011.018	-8.32
1011.443	-2.52
1011.868	2.38
1012.293	-3.92
1012.718	-4.02
1013.143	4.48
1013.567	-0.12
1013.992	0.18
1014.417	-12.42
1014.842	-5.72
1015.267	-5.92
1015.691	-0.62
1016.116	3.18
1016.541	-4.92
1016.965	-2.32
1017.39	2.08
1017.814	-3.12
1018.239	-5.12
1018.663	-7.42
1019.088	-6.32
1019.512	-0.92
1019.937	4.08
1020.361	2.28
1020.785	-14.32
1021.21	-6.32
1021.634	-1.52
1022.058	6.18
1022.483	1.48
1022.907	-1.62
1023.331	0.28
1023.755	-3.32
1024.179	-4.32
1024.604	-4.02
1025.028	-3.42
1025.452	-4.42
1025.876	3.08
1026.3	-1.62
1026.724	-10.52
1027.148	-6.52
1027.572	-8.82
1027.996	-1.32
1028.42	-3.82
1028.843	-1.72
1029.267	-4.52
1029.691	-1.02
1030.115	-12.32
1030.539	-7.22
1030.962	-4.42
1031.386	-9.52
1031.81	4.78
1032.233	1.78
1032.657	-1.02
1033.08	-1.12
1033.504	-3.02
1033.927	-1.12
1034.351	-3.52
1034.774	-6.72
1035.198	-3.02
1035.621	-8.72
1036.045	-10.12
1036.468	-2.02
1036.891	-10.02
1037.315	-4.72
1037.738	-7.02
1038.161	-3.12
1038.584	-1.22
1039.008	-6.42
1039.431	-3.62
1039.854	-2.82
1040.277	-7.12
1040.7	-11.72
1041.123	1.18
1041.546	-10.62
1041.969	-3.22
1042.392	-6.72
1042.815	0.28
1043.238	-0.92
1043.661	8.88
1044.084	-5.72
1044.507	-7.62
1044.93	-6.52
1045.352	-6.92
1045.775	2.78
1046.198	-5.62
1046.621	-2.32
1047.043	4.18
1047.466	11.08
1047.889	-6.32
1048.311	-7.32
1048.734	-0.92
1049.156	-2.92
1049.579	0.58
1050.001	-0.12
1050.424	2.08
1050.846	-3.82
1051.269	-7.82
1051.691	-4.72
1052.113	0.78
1052.536	1.88
1052.958	-0.22
1053.38	-8.12
1053.802	-13.72
1054.225	-1.22
1054.647	-2.82
1055.069	-0.22
1055.491	5.48
1055.913	-5.82
1056.335	1.38
1056.757	-0.02
1057.179	-4.12
1057.601	-7.12
1058.023	-9.82
1058.445	-8.52
1058.867	0.28
1059.289	-7.82
1059.711	-5.02
1060.133	-3.22
1060.555	-10.62
1060.976	-6.02
1061.398	-9.52
1061.82	-2.62
1062.241	-1.72
1062.663	-7.22
1063.085	-1.02
1063.506	-0.12
1063.928	-3.42
1064.35	-8.12
1064.771	-11.72
1065.193	-4.42
1065.614	-8.72
1066.035	-1.72
1066.457	1.28
1066.878	1.48
1067.3	-1.82
1067.721	0.48
1068.142	-3.62
1068.564	0.08
1068.985	-4.52
1069.406	-2.22
1069.827	-2.22
1070.248	2.48
1070.67	-5.62
1071.091	-10.62
1071.512	-2.52
1071.933	-3.12
1072.354	-4.22
1072.775	-8.02
1073.196	-7.72
1073.617	-5.52
1074.038	-5.42
1074.459	-4.42
1074.88	-7.02
1075.3	-1.62
1075.721	-3.52
1076.142	2.28
1076.563	-1.42
1076.983	-7.72
1077.404	-12.62
1077.825	-6.92
1078.246	-3.72
1078.666	-10.42
1079.087	3.18
1079.507	-4.92
1079.928	-1.52
1080.348	-0.72
1080.769	-5.52
1081.189	-8.92
1081.61	-5.32
1082.03	-10.22
1082.451	-9.02
1082.871	-4.12
1083.291	-2.02
1083.711	-3.82
1084.132	-6.52
1084.552	-3.22
1084.972	-0.42
1085.392	-7.32
1085.813	-14.82
1086.233	-4.92
1086.653	-10.82
1087.073	-1.62
1087.493	-7.52
1087.913	-9.92
1088.333	-4.32
1088.753	-5.22
1089.173	-0.62
1089.593	-2.22
1090.013	2.38
1090.433	0.98
1090.852	-3.32
1091.272	1.18
1091.692	1.08
1092.112	0.28
1092.531	-9.02
1092.951	-14.02
1093.371	-2.02
1093.79	1.48
1094.21	-1.62
1094.63	-5.92
1095.049	-7.22
1095.469	-3.32
1095.888	-2.72
1096.308	0.88
1096.727	5.08
1097.146	-5.72
1097.566	-1.22
1097.985	-1.62
1098.405	-2.22
1098.824	-1.02
1099.243	-7.62
1099.662	-1.92
1100.082	-4.52
1100.501	-3.72
1100.92	-11.92
1101.339	1.68
1101.758	-4.02
