Data from 20171114-ORNL-Ar_H_NY_Subt18_08-06-23-737.txt Node
Date: Tue Nov 14 08:06:23 EST 2017
User: Ender
Spectrometer: HR+D1039
Trigger mode: 0
Integration Time (sec): 2.730000E-2
Scans to average: 10
Electric dark correction enabled: true
Nonlinearity correction enabled: false
Boxcar width: 0
XAxis mode: Wavelengths
Number of Pixels in Spectrum: 2048
>>>>>Begin Spectral Data<<<<<
187.836	-2.39
188.309	-2.39
188.782	-2.39
189.255	-0.69
189.728	-3.89
190.201	4.01
190.674	0.51
191.147	-0.99
191.619	-5.59
192.092	-1.79
192.565	5.61
193.038	1.61
193.511	1.51
193.984	3.31
194.456	-4.29
194.929	2.01
195.402	-0.09
195.874	1.11
196.347	-7.79
196.82	-4.49
197.292	0.31
197.765	-3.09
198.237	-5.69
198.71	1.31
199.182	-2.29
199.655	0.21
200.127	-5.19
200.6	-7.69
201.072	-7.19
201.544	-0.79
202.017	-3.09
202.489	2.61
202.961	-4.29
203.433	-3.19
203.906	-10.79
204.378	-5.89
204.85	-2.29
205.322	-6.79
205.794	-3.89
206.266	-1.19
206.739	-3.69
207.211	0.71
207.683	-6.79
208.155	-4.89
208.627	-1.99
209.099	-1.19
209.57	-5.89
210.042	-8.99
210.514	-3.99
210.986	0.11
211.458	-12.69
211.93	-6.29
212.402	-0.99
212.873	-8.59
213.345	-13.59
213.817	-9.99
214.288	-4.99
214.76	-14.79
215.232	-3.99
215.703	3.31
216.175	-5.29
216.646	-6.49
217.118	-6.69
217.589	-4.69
218.061	0.51
218.532	-4.19
219.004	-4.19
219.475	1.61
219.946	-1.19
220.418	-0.69
220.889	-0.49
221.36	2.61
221.832	-3.09
222.303	-8.09
222.774	4.61
223.245	-10.09
223.717	-11.89
224.188	-8.29
224.659	-6.09
225.13	-5.69
225.601	1.51
226.072	-2.29
226.543	-1.19
227.014	0.41
227.485	3.11
227.956	-8.19
228.427	-5.49
228.898	-5.59
229.369	-1.89
229.839	-1.99
230.31	-6.69
230.781	0.51
231.252	-3.79
231.722	-7.09
232.193	-4.79
232.664	0.41
233.135	-0.09
233.605	4.21
234.076	-3.29
234.546	-3.89
235.017	0.31
235.487	-1.19
235.958	-1.99
236.428	-7.09
236.899	3.61
237.369	0.71
237.84	2.71
238.31	7.71
238.78	0.81
239.251	2.11
239.721	5.31
240.191	8.51
240.662	0.91
241.132	4.91
241.602	-3.39
242.072	-2.79
242.542	3.11
243.013	1.51
243.483	1.71
243.953	-5.39
244.423	-1.89
244.893	-1.49
245.363	1.31
245.833	1.51
246.303	-0.69
246.773	7.31
247.243	-0.59
247.712	3.41
248.182	10.41
248.652	7.81
249.122	2.91
249.592	9.51
250.061	14.71
250.531	25.51
251.001	19.81
251.471	18.91
251.94	20.21
252.41	4.71
252.879	-0.79
253.349	6.71
253.818	5.81
254.288	-0.19
254.757	0.71
255.227	7.11
255.696	0.41
256.166	8.41
256.635	5.71
257.105	11.91
257.574	3.31
258.043	10.51
258.513	5.61
258.982	15.51
259.451	7.91
259.92	15.61
260.389	11.11
260.859	18.01
261.328	10.11
261.797	19.51
262.266	10.91
262.735	14.01
263.204	5.51
263.673	-3.19
264.142	3.41
264.611	-3.89
265.08	0.21
265.549	1.71
266.018	4.41
266.487	-2.19
266.955	0.91
267.424	4.81
267.893	10.31
268.362	-0.69
268.83	8.91
269.299	8.81
269.768	10.31
270.236	9.71
270.705	1.41
271.174	2.31
271.642	15.01
272.111	12.51
272.579	15.61
273.048	26.71
273.516	26.01
273.985	27.81
274.453	28.91
274.922	24.31
275.39	10.91
275.858	7.81
276.327	12.71
276.795	18.21
277.263	10.81
277.731	33.01
278.2	56.71
278.668	55.51
279.136	53.81
279.604	15.21
280.072	15.61
280.54	17.61
281.008	7.81
281.477	13.01
281.945	10.71
282.413	15.81
282.881	11.01
283.348	11.51
283.816	17.41
284.284	19.61
284.752	18.91
285.22	17.61
285.688	20.21
286.156	21.41
286.623	47.11
287.091	54.61
287.559	28.31
288.026	21.41
288.494	18.21
288.962	4.21
289.429	9.61
289.897	18.61
290.364	11.51
290.832	15.71
291.3	12.01
291.767	16.21
292.234	19.01
292.702	13.81
293.169	18.71
293.637	18.71
294.104	17.71
294.571	16.11
295.039	13.91
295.506	19.21
295.973	17.01
296.44	14.41
296.908	23.31
297.375	13.51
297.842	18.01
298.309	15.91
298.776	12.11
299.243	19.71
299.71	11.71
300.177	18.51
300.644	21.91
301.111	24.01
301.578	24.01
302.045	20.01
302.512	28.01
302.979	20.51
303.446	22.51
303.913	23.61
304.379	19.11
304.846	26.81
305.313	30.51
305.78	23.21
306.246	23.91
306.713	24.61
307.18	25.21
307.646	27.11
308.113	23.01
308.579	22.51
309.046	27.11
309.512	28.11
309.979	18.41
310.445	30.11
310.912	25.11
311.378	29.01
311.845	28.51
312.311	31.61
312.777	35.61
313.244	30.71
313.71	37.31
314.176	31.21
314.642	32.01
315.109	35.91
315.575	33.31
316.041	43.81
316.507	32.11
316.973	37.81
317.439	30.81
317.905	35.41
318.371	31.51
318.837	36.41
319.303	31.91
319.769	33.11
320.235	32.21
320.701	35.51
321.167	38.31
321.633	28.91
322.099	35.41
322.564	46.81
323.03	36.21
323.496	37.21
323.962	45.31
324.427	41.91
324.893	39.11
325.359	39.91
325.824	35.41
326.29	35.11
326.755	37.41
327.221	42.41
327.686	41.91
328.152	43.21
328.617	44.71
329.083	48.11
329.548	54.01
330.014	48.11
330.479	39.11
330.944	38.91
331.41	48.11
331.875	48.41
332.34	45.71
332.805	41.71
333.271	44.11
333.736	46.31
334.201	52.31
334.666	58.61
335.131	55.61
335.596	54.61
336.061	46.51
336.526	43.41
336.991	49.41
337.456	56.01
337.921	49.41
338.386	39.21
338.851	48.31
339.316	43.01
339.781	47.11
340.246	51.41
340.711	50.81
341.175	49.81
341.64	41.71
342.105	49.91
342.569	49.81
343.034	60.11
343.499	51.91
343.963	56.01
344.428	67.61
344.893	65.91
345.357	61.81
345.822	58.71
346.286	68.21
346.751	72.11
347.215	67.91
347.679	77.51
348.144	96.61
348.608	83.61
349.073	65.91
349.537	77.71
350.001	73.31
350.465	91.31
350.93	76.61
351.394	79.41
351.858	68.21
352.322	86.71
352.786	83.61
353.25	100.81
353.715	105.51
354.179	96.61
354.643	119.91
355.107	125.71
355.571	113.61
356.035	103.01
356.498	113.41
356.962	121.61
357.426	136.81
357.89	113.01
358.354	90.91
358.818	80.11
359.281	76.51
359.745	82.81
360.209	77.41
360.673	74.51
361.136	79.71
361.6	85.11
362.064	80.51
362.527	92.11
362.991	94.91
363.454	75.31
363.918	80.21
364.381	76.71
364.845	83.11
365.308	87.51
365.772	80.91
366.235	84.31
366.698	84.81
367.162	85.11
367.625	84.71
368.088	86.81
368.552	90.51
369.015	92.51
369.478	98.91
369.941	99.71
370.404	89.61
370.867	107.51
371.331	113.81
371.794	116.61
372.257	110.21
372.72	114.51
373.183	111.71
373.646	106.81
374.109	109.11
374.572	109.01
375.035	105.71
375.497	107.21
375.96	106.31
376.423	107.61
376.886	108.61
377.349	112.61
377.811	106.01
378.274	100.61
378.737	104.91
379.199	106.21
379.662	107.41
380.125	120.31
380.587	120.51
381.05	124.71
381.512	130.31
381.975	132.01
382.437	124.11
382.9	127.01
383.362	136.21
383.825	141.31
384.287	144.51
384.75	142.11
385.212	141.01
385.674	145.11
386.136	134.11
386.599	125.21
387.061	125.71
387.523	131.41
387.985	139.51
388.447	140.71
388.91	146.81
389.372	155.61
389.834	152.31
390.296	143.11
390.758	151.11
391.22	173.91
391.682	213.01
392.144	299.41
392.606	231.31
393.068	169.51
393.529	172.01
393.991	156.01
394.453	152.31
394.915	159.51
395.377	192.11
395.838	220.11
396.3	158.41
396.762	138.91
397.224	135.01
397.685	126.51
398.147	133.01
398.608	127.91
399.07	132.01
399.531	138.71
399.993	149.61
400.454	146.31
400.916	144.81
401.377	142.61
401.839	155.21
402.3	157.11
402.762	167.11
403.223	183.01
403.684	169.41
404.145	164.21
404.607	164.41
405.068	163.61
405.529	172.01
405.99	191.61
406.451	178.91
406.913	164.91
407.374	162.51
407.835	161.91
408.296	173.01
408.757	173.11
409.218	179.51
409.679	177.91
410.14	174.81
410.601	173.51
411.062	182.81
411.522	188.31
411.983	189.31
412.444	179.11
412.905	178.01
413.366	187.51
413.826	195.81
414.287	218.51
414.748	255.41
415.208	245.41
415.669	220.01
416.13	212.21
416.59	210.81
417.051	213.61
417.511	217.41
417.972	237.91
418.432	245.51
418.893	285.61
419.353	249.71
419.814	199.01
420.274	188.61
420.734	180.01
421.195	200.11
421.655	197.71
422.115	194.71
422.576	192.11
423.036	205.21
423.496	207.51
423.956	217.71
424.416	230.81
424.876	268.51
425.336	261.21
425.797	262.91
426.257	257.81
426.717	240.71
427.177	236.71
427.637	217.51
428.097	236.11
428.556	241.91
429.016	276.41
429.476	262.61
429.936	280.21
430.396	277.51
430.856	295.31
431.315	329.81
431.775	353.91
432.235	384.11
432.694	351.11
433.154	366.91
433.614	385.91
434.073	341.01
434.533	285.31
434.993	271.51
435.452	292.21
435.912	300.01
436.371	289.61
436.83	282.01
437.29	272.81
437.749	249.11
438.209	248.31
438.668	275.91
439.127	287.01
439.587	282.41
440.046	260.71
440.505	266.11
440.964	283.41
441.424	324.31
441.883	313.41
442.342	265.81
442.801	229.91
443.26	220.91
443.719	229.31
444.178	217.01
444.637	208.71
445.096	224.81
445.555	225.61
446.014	226.11
446.473	229.41
446.932	232.21
447.391	226.81
447.849	225.91
448.308	213.21
448.767	222.71
449.226	234.51
449.685	238.41
450.143	248.31
450.602	236.61
451.061	228.71
451.519	239.91
451.978	236.11
452.436	233.31
452.895	234.71
453.353	250.71
453.812	252.61
454.27	238.11
454.729	241.21
455.187	235.51
455.646	253.21
456.104	246.71
456.562	264.71
457.021	272.11
457.479	265.11
457.937	267.51
458.395	264.21
458.854	248.11
459.312	256.71
459.77	279.81
460.228	259.81
460.686	244.81
461.144	251.71
461.602	248.41
462.06	244.51
462.518	252.41
462.976	252.41
463.434	260.01
463.892	262.11
464.35	277.91
464.808	293.11
465.266	274.31
465.724	266.61
466.181	278.11
466.639	271.31
467.097	298.11
467.555	301.91
468.012	306.21
468.47	311.51
468.928	337.51
469.385	350.41
469.843	356.01
470.3	353.11
470.758	370.11
471.215	390.81
471.673	410.91
472.13	406.41
472.588	427.01
473.045	373.81
473.503	383.51
473.96	396.41
474.417	404.81
474.875	443.31
475.332	484.81
475.789	465.01
476.246	468.01
476.704	491.51
477.161	512.81
477.618	528.61
478.075	566.71
478.532	629.11
478.989	700.81
479.446	820.41
479.903	789.21
480.36	823.81
480.817	888.11
481.274	989.61
481.731	1086.21
482.188	1180.91
482.645	1326.31
483.102	1420.51
483.558	1577.21
484.015	1612.51
484.472	1601.41
484.929	1538.51
485.385	1490.91
485.842	1459.71
486.299	1384.21
486.755	1315.11
487.212	1113.21
487.668	939.01
488.125	862.61
488.582	784.51
489.038	759.51
489.494	724.61
489.951	701.21
490.407	675.61
490.864	661.61
491.32	648.81
491.776	659.61
492.233	660.91
492.689	625.01
493.145	608.31
493.602	612.71
494.058	611.01
494.514	628.71
494.97	648.21
495.426	654.11
495.882	626.61
496.338	620.81
496.794	635.41
497.251	626.01
497.707	645.41
498.163	651.81
498.618	649.81
499.074	654.81
499.53	689.61
499.986	693.71
500.442	663.81
500.898	652.11
501.354	622.91
501.809	642.11
502.265	658.21
502.721	671.81
503.177	675.71
503.632	670.71
504.088	675.21
504.543	734.51
504.999	721.01
505.455	680.21
505.91	651.31
506.366	642.71
506.821	630.01
507.277	625.01
507.732	631.11
508.187	633.21
508.643	648.51
509.098	653.11
509.553	661.91
510.009	671.91
510.464	676.91
510.919	698.31
511.375	701.51
511.83	712.31
512.285	738.61
512.74	766.41
513.195	793.51
513.65	784.81
514.105	782.81
514.56	775.41
515.015	810.71
515.47	814.01
515.925	806.81
516.38	802.21
516.835	801.41
517.29	795.61
517.745	781.71
518.2	777.01
518.655	761.21
519.109	758.51
519.564	750.41
520.019	743.11
520.474	735.41
520.928	739.41
521.383	729.91
521.838	725.61
522.292	726.51
522.747	716.81
523.201	719.21
523.656	701.21
524.11	700.61
524.565	702.21
525.019	695.41
525.474	710.41
525.928	719.61
526.382	712.21
526.837	707.61
527.291	715.81
527.745	708.71
528.2	700.21
528.654	703.21
529.108	694.11
529.562	700.71
530.016	699.61
530.47	697.81
530.925	700.31
531.379	713.01
531.833	716.41
532.287	711.41
532.741	706.31
533.195	713.11
533.649	725.51
534.103	731.61
534.556	721.81
535.01	723.11
535.464	723.71
535.918	730.81
536.372	727.71
536.826	723.01
537.279	711.41
537.733	727.21
538.187	726.61
538.64	726.31
539.094	742.91
539.548	741.11
540.001	733.81
540.455	747.61
540.908	745.41
541.362	758.41
541.815	755.91
542.269	767.31
542.722	773.41
543.175	780.41
543.629	775.21
544.082	799.61
544.536	797.81
544.989	800.61
545.442	800.41
545.895	801.71
546.349	803.21
546.802	795.01
547.255	803.41
547.708	821.51
548.161	828.11
548.614	831.51
549.067	841.01
549.52	836.61
549.973	821.11
550.426	815.01
550.879	810.31
551.332	811.51
551.785	816.41
552.238	821.31
552.691	823.71
553.144	847.41
553.596	867.01
554.049	883.01
554.502	911.11
554.955	919.41
555.407	917.11
555.86	912.31
556.313	904.01
556.765	890.41
557.218	889.41
557.67	912.91
558.123	890.41
558.576	885.21
559.028	879.21
559.48	896.81
559.933	883.21
560.385	855.91
560.838	811.71
561.29	801.01
561.742	792.81
562.195	780.41
562.647	787.61
563.099	785.41
563.551	782.91
564.004	801.91
564.456	777.61
564.908	775.01
565.36	757.51
565.812	752.01
566.264	731.01
566.716	735.71
567.168	725.01
567.62	732.51
568.072	717.11
568.524	701.31
568.976	696.51
569.428	686.61
569.88	689.31
570.332	690.31
570.784	684.11
571.235	695.81
571.687	704.11
572.139	713.31
572.59	728.31
573.042	733.91
573.494	729.41
573.945	717.31
574.397	698.01
574.849	703.41
575.3	712.91
575.752	696.81
576.203	686.61
576.655	699.91
577.106	680.41
577.557	678.51
578.009	682.51
578.46	665.81
578.912	671.11
579.363	677.51
579.814	677.61
580.265	672.31
580.717	679.11
581.168	687.61
581.619	689.61
582.07	695.41
582.521	688.11
582.972	688.81
583.423	685.51
583.875	686.31
584.326	709.01
584.777	762.01
585.227	843.91
585.678	926.91
586.129	1006.81
586.58	1085.11
587.031	1172.21
587.482	1333.61
587.933	1519.41
588.384	1323.91
588.834	980.31
589.285	813.11
589.736	799.71
590.186	789.71
590.637	787.31
591.088	754.31
591.538	741.61
591.989	742.11
592.439	739.11
592.89	724.21
593.34	719.11
593.791	720.61
594.241	723.31
594.692	721.51
595.142	714.01
595.593	706.41
596.043	713.21
596.493	738.11
596.943	727.71
597.394	725.11
597.844	720.41
598.294	741.41
598.744	761.41
599.195	790.61
599.645	823.21
600.095	861.21
600.545	927.11
600.995	976.91
601.445	1049.21
601.895	1094.21
602.345	1156.41
602.795	1125.41
603.245	1076.91
603.695	1023.61
604.145	964.41
604.594	913.61
605.044	879.01
605.494	797.61
605.944	765.01
606.393	758.61
606.843	737.11
607.293	749.41
607.743	748.41
608.192	746.61
608.642	769.91
609.091	774.11
609.541	783.61
609.99	782.21
610.44	779.31
610.889	727.51
611.339	716.21
611.788	697.81
612.238	705.91
612.687	730.81
613.136	739.21
613.586	751.81
614.035	740.81
614.484	765.91
614.933	768.51
615.383	759.41
615.832	740.71
616.281	734.21
616.73	697.11
617.179	678.91
617.628	654.61
618.077	643.01
618.526	638.81
618.975	620.91
619.424	621.51
619.873	614.71
620.322	615.81
620.771	606.11
621.22	613.51
621.669	597.51
622.118	592.51
622.567	589.31
623.015	577.01
623.464	579.31
623.913	562.11
624.361	557.71
624.81	559.81
625.259	558.01
625.707	562.11
626.156	564.21
626.604	570.61
627.053	571.61
627.501	575.41
627.95	579.51
628.398	585.01
628.847	560.71
629.295	586.01
629.744	576.51
630.192	579.11
630.64	578.61
631.089	573.41
631.537	582.21
631.985	590.41
632.433	607.31
632.881	613.41
633.33	667.31
633.778	642.91
634.226	579.11
634.674	580.91
635.122	584.21
635.57	601.91
636.018	632.11
636.466	596.11
636.914	553.91
637.362	578.71
637.81	573.21
638.258	581.41
638.705	591.21
639.153	619.81
639.601	619.61
640.049	641.81
640.497	680.41
640.944	701.61
641.392	649.41
641.84	615.21
642.287	589.71
642.735	580.31
643.182	569.51
643.63	569.91
644.078	578.11
644.525	594.41
644.973	600.01
645.42	615.51
645.867	630.51
646.315	642.11
646.762	664.11
647.21	699.81
647.657	717.41
648.104	750.41
648.551	769.01
648.999	840.11
649.446	912.61
649.893	1010.31
650.34	1170.31
650.787	1413.61
651.234	1748.31
651.682	2272.61
652.129	3117.61
652.576	4484.41
653.023	6637.31
653.47	9138.01
653.917	11422.11
654.363	13153.41
654.81	14518.21
655.257	13828.71
655.704	9068.11
656.151	5323.51
656.598	3455.11
657.044	2438.31
657.491	1880.71
657.938	1501.81
658.385	1249.41
658.831	1081.11
659.278	971.61
659.724	860.81
660.171	798.31
660.618	730.91
661.064	697.11
661.511	676.71
661.957	660.71
662.404	654.41
662.85	654.21
663.296	625.21
663.743	567.91
664.189	548.91
664.635	540.71
665.082	535.71
665.528	524.61
665.974	518.31
666.42	517.51
666.867	504.41
667.313	493.51
667.759	488.81
668.205	480.81
668.651	485.71
669.097	484.61
669.543	506.01
669.989	474.01
670.435	447.41
670.881	439.21
671.327	446.61
671.773	473.71
672.219	494.91
672.665	544.11
673.11	590.21
673.556	626.91
674.002	663.01
674.448	644.71
674.893	551.81
675.339	478.21
675.785	449.91
676.23	418.01
676.676	391.61
677.122	379.71
677.567	381.31
678.013	371.61
678.458	356.21
678.904	364.51
679.349	354.51
679.794	359.51
680.24	346.71
680.685	342.91
681.131	344.21
681.576	354.01
682.021	354.41
682.466	345.01
682.912	353.11
683.357	352.31
683.802	382.41
684.247	401.11
684.692	455.21
685.137	490.91
685.583	537.21
686.028	571.51
686.473	515.11
686.918	447.01
687.363	419.91
687.807	389.11
688.252	363.01
688.697	353.31
689.142	338.71
689.587	331.51
690.032	325.21
690.477	345.31
690.921	345.41
691.366	383.91
691.811	402.51
692.255	430.81
692.7	465.11
693.145	501.41
693.589	698.21
694.034	1124.41
694.478	1540.81
694.923	1729.31
695.367	2260.71
695.812	1187.51
696.256	497.01
696.701	364.71
697.145	345.11
697.59	330.01
698.034	325.71
698.478	327.71
698.922	318.91
699.367	328.91
699.811	331.21
700.255	360.21
700.699	379.81
701.143	424.11
701.588	480.01
702.032	511.91
702.476	521.11
702.92	491.21
703.364	487.31
703.808	627.11
704.252	1027.31
704.696	1453.61
705.14	1653.71
705.584	2122.01
706.027	1048.41
706.471	515.01
706.915	403.61
707.359	345.71
707.803	316.81
708.246	310.81
708.69	315.31
709.134	316.71
709.577	313.61
710.021	317.41
710.465	303.91
710.908	299.71
711.352	297.31
711.795	310.91
712.239	355.11
712.682	386.91
713.126	430.21
713.569	475.21
714.012	373.71
714.456	328.81
714.899	298.21
715.342	272.01
715.786	257.11
716.229	253.21
716.672	256.11
717.115	250.51
717.558	253.81
718.002	258.41
718.445	264.31
718.888	291.31
719.331	296.81
719.774	298.61
720.217	301.91
720.66	284.61
721.103	265.31
721.546	251.41
721.989	254.81
722.432	237.51
722.874	237.01
723.317	231.51
723.76	235.81
724.203	259.01
724.645	317.71
725.088	436.91
725.531	559.61
725.974	641.61
726.416	542.21
726.859	304.21
727.301	237.11
727.744	240.21
728.187	234.41
728.629	240.01
729.071	251.21
729.514	259.21
729.956	270.11
730.399	280.41
730.841	286.01
731.283	275.71
731.726	262.61
732.168	254.51
732.61	263.61
733.053	278.81
733.495	316.91
733.937	350.91
734.379	393.21
734.821	434.71
735.263	551.71
735.705	825.11
736.148	1565.91
736.59	2571.81
737.032	3034.21
737.474	2473.01
737.916	809.41
738.357	428.21
738.799	325.91
739.241	295.31
739.683	284.01
740.125	289.41
740.567	295.91
741.008	313.51
741.45	315.01
741.892	311.91
742.334	341.31
742.775	359.91
743.217	337.81
743.658	268.91
744.1	259.31
744.542	254.91
744.983	304.21
745.425	346.71
745.866	336.31
746.307	286.41
746.749	278.21
747.19	322.51
747.632	445.21
748.073	868.51
748.514	1843.51
748.956	2825.71
749.397	3551.01
749.838	2957.41
750.279	2946.71
750.72	1483.01
751.162	543.91
751.603	318.31
752.044	250.81
752.485	212.11
752.926	206.71
753.367	204.01
753.808	196.01
754.249	185.01
754.69	181.41
755.131	182.31
755.572	182.01
756.013	178.81
756.453	182.61
756.894	188.91
757.335	192.31
757.776	189.91
758.216	195.61
758.657	198.11
759.098	199.91
759.538	229.81
759.979	266.41
760.42	371.31
760.86	704.01
761.301	1808.61
761.741	4397.01
762.182	6411.31
762.622	4494.01
763.063	1297.71
763.503	542.31
763.943	346.71
764.384	342.31
764.824	409.81
765.264	443.51
765.705	302.51
766.145	214.41
766.585	183.31
767.025	172.41
767.465	182.61
767.906	246.91
768.346	315.81
768.786	342.01
769.226	259.11
769.666	312.91
770.106	619.61
770.546	1530.71
770.986	2635.01
771.426	2352.41
771.866	783.01
772.306	317.71
772.745	210.21
773.185	174.41
773.625	170.21
774.065	167.11
774.505	196.41
774.944	304.71
775.384	676.91
775.824	1209.31
776.263	1186.31
776.703	508.61
777.142	217.21
777.582	156.81
778.021	134.21
778.461	141.01
778.9	137.41
779.34	131.11
779.779	122.91
780.219	105.21
780.658	104.61
781.097	101.71
781.537	107.01
781.976	110.11
782.415	111.21
782.855	110.81
783.294	100.71
783.733	108.91
784.172	109.81
784.611	104.11
785.05	118.41
785.489	108.01
785.928	123.31
786.367	119.51
786.806	122.51
787.245	127.01
787.684	134.71
788.123	147.61
788.562	125.01
789.001	124.61
789.44	120.91
789.879	112.41
790.317	115.51
790.756	127.01
791.195	131.21
791.634	140.91
792.072	206.71
792.511	360.31
792.95	995.11
793.388	2112.01
793.827	1920.11
794.265	657.51
794.704	269.91
795.142	179.01
795.581	149.11
796.019	131.51
796.458	123.01
796.896	119.01
797.334	131.51
797.773	153.11
798.211	214.21
798.649	424.71
799.087	1007.81
799.526	1587.51
799.964	1987.31
800.402	1997.41
800.84	749.71
801.278	297.11
801.716	185.01
802.154	148.71
802.592	139.31
803.03	140.41
803.468	129.51
803.906	146.01
804.344	155.01
804.782	142.31
805.22	125.01
805.658	125.81
806.096	147.81
806.533	161.21
806.971	174.81
807.409	218.51
807.847	312.91
808.284	657.11
808.722	1841.81
809.16	3250.81
809.597	3086.41
810.035	5369.31
810.472	5740.11
810.91	2062.61
811.347	786.41
811.785	401.81
812.222	260.91
812.66	192.31
813.097	158.31
813.535	143.61
813.972	124.21
814.409	120.11
814.846	106.31
815.284	109.01
815.721	104.01
816.158	102.31
816.595	118.01
817.032	176.01
817.47	190.11
817.907	169.91
818.344	149.01
818.781	115.41
819.218	101.21
819.655	128.01
820.092	184.11
820.529	209.11
820.966	173.41
821.403	133.11
821.839	102.11
822.276	101.61
822.713	124.91
823.15	131.81
823.587	109.71
824.023	148.21
824.46	291.21
824.897	889.81
825.333	1344.01
825.77	573.71
826.206	228.11
826.643	136.81
827.08	101.31
827.516	80.01
827.953	81.61
828.389	79.21
828.825	68.11
829.262	67.91
829.698	62.31
830.135	57.51
830.571	58.41
831.007	61.11
831.443	64.21
831.88	63.01
832.316	62.51
832.752	67.81
833.188	61.91
833.624	56.51
834.06	66.41
834.497	63.91
834.933	69.31
835.369	79.31
835.805	70.31
836.241	73.91
836.677	79.01
837.112	90.11
837.548	98.71
837.984	127.31
838.42	198.11
838.856	484.31
839.292	1487.81
839.727	2280.61
840.163	1052.41
840.599	918.21
841.034	2002.01
841.47	2106.21
841.906	765.01
842.341	329.51
842.777	234.41
843.212	318.51
843.648	308.21
844.083	146.91
844.519	98.11
844.954	73.41
845.39	64.41
845.825	61.01
846.261	58.51
846.696	53.41
847.131	50.61
847.566	54.51
848.002	55.31
848.437	60.71
848.872	61.91
849.307	61.61
849.742	85.21
850.177	181.71
850.613	551.41
851.048	868.51
851.483	374.41
851.918	147.61
852.353	86.11
852.788	69.91
853.223	60.81
853.657	53.61
854.092	52.41
854.527	40.01
854.962	39.51
855.397	46.21
855.832	50.61
856.266	35.51
856.701	41.71
857.136	38.91
857.57	41.41
858.005	55.31
858.44	54.91
858.874	50.11
859.309	63.41
859.743	38.41
860.178	49.01
860.612	37.51
861.047	49.31
861.481	71.91
861.915	75.51
862.35	48.21
862.784	34.71
863.218	35.41
863.653	35.91
864.087	43.11
864.521	53.61
864.955	72.41
865.39	146.91
865.824	172.41
866.258	108.71
866.692	160.41
867.126	169.71
867.56	105.81
867.994	50.11
868.428	35.31
868.862	44.91
869.296	56.61
869.73	59.01
870.164	49.71
870.598	41.61
871.031	36.81
871.465	33.01
871.899	34.21
872.333	26.51
872.766	26.51
873.2	24.01
873.634	29.31
874.067	22.61
874.501	22.21
874.935	33.21
875.368	29.71
875.802	29.71
876.235	26.61
876.669	27.91
877.102	18.31
877.535	26.51
877.969	22.21
878.402	21.21
878.836	17.81
879.269	22.81
879.702	25.41
880.135	25.41
880.569	23.41
881.002	25.21
881.435	20.71
881.868	19.21
882.301	21.61
882.734	13.11
883.167	23.61
883.601	23.91
884.034	20.11
884.467	20.81
884.899	22.41
885.332	18.51
885.765	13.91
886.198	15.41
886.631	19.11
887.064	18.71
887.497	18.21
887.929	22.81
888.362	15.81
888.795	16.51
889.228	18.31
889.66	14.51
890.093	25.81
890.526	14.31
890.958	17.21
891.391	15.21
891.823	24.61
892.256	13.41
892.688	8.11
893.121	22.61
893.553	14.81
893.985	26.71
894.418	17.11
894.85	18.01
895.282	10.11
895.715	12.61
896.147	14.41
896.579	14.41
897.011	18.71
897.444	20.51
897.876	18.01
898.308	20.61
898.74	13.41
899.172	10.31
899.604	22.91
900.036	19.91
900.468	14.21
900.9	18.41
901.332	18.11
901.764	14.61
902.196	14.81
902.628	22.61
903.06	16.11
903.491	25.31
903.923	17.91
904.355	24.51
904.787	26.31
905.218	21.21
905.65	20.01
906.082	14.11
906.513	13.91
906.945	13.31
907.376	16.71
907.808	20.41
908.239	22.01
908.671	28.01
909.102	21.81
909.534	19.41
909.965	43.61
910.397	94.71
910.828	316.11
911.259	467.11
911.691	213.01
912.122	100.31
912.553	54.21
912.984	31.51
913.415	28.41
913.847	27.61
914.278	14.21
914.709	15.21
915.14	15.91
915.571	17.61
916.002	12.81
916.433	22.11
916.864	12.81
917.295	14.61
917.726	20.11
918.157	13.41
918.587	27.41
919.018	21.91
919.449	22.51
919.88	23.91
920.311	30.81
920.741	42.31
921.172	160.51
921.603	148.11
922.033	66.61
922.464	51.61
922.895	22.61
923.325	23.01
923.756	18.11
924.186	17.41
924.617	27.61
925.047	46.01
925.478	50.51
925.908	46.31
926.338	23.21
926.769	20.91
927.199	19.91
927.629	9.71
928.06	12.51
928.49	15.61
928.92	12.81
929.35	7.81
929.78	10.01
930.21	6.31
930.641	7.71
931.071	8.91
931.501	2.51
931.931	10.31
932.361	6.21
932.791	6.61
933.221	2.21
933.651	4.91
934.08	16.81
934.51	29.51
934.94	8.91
935.37	13.01
935.8	11.01
936.229	2.31
936.659	7.81
937.089	4.01
937.519	17.41
937.948	22.21
938.378	17.01
938.807	3.41
939.237	8.01
939.666	7.71
940.096	-2.29
940.525	9.21
940.955	-1.49
941.384	1.01
941.814	-4.19
942.243	2.01
942.672	7.51
943.102	-4.19
943.531	2.21
943.96	8.91
944.39	4.51
944.819	-0.69
945.248	1.71
945.677	-0.69
946.106	6.41
946.535	-2.69
946.964	-2.49
947.393	0.51
947.822	4.01
948.251	0.81
948.68	4.61
949.109	13.41
949.538	9.71
949.967	-1.89
950.396	-0.99
950.825	1.91
951.254	-3.69
951.682	-6.49
952.111	4.81
952.54	2.51
952.969	-2.89
953.397	-8.49
953.826	3.41
954.254	-7.59
954.683	2.41
955.112	3.71
955.54	3.81
955.969	0.01
956.397	1.01
956.826	-5.19
957.254	4.11
957.682	-3.29
958.111	1.91
958.539	3.41
958.967	-2.09
959.396	-1.49
959.824	-0.09
960.252	-0.59
960.68	-1.19
961.109	-6.29
961.537	-6.79
961.965	-6.39
962.393	-1.69
962.821	-6.79
963.249	1.61
963.677	-0.69
964.105	4.41
964.533	47.51
964.961	42.81
965.389	20.31
965.817	10.51
966.245	0.41
966.672	0.01
967.1	-2.99
967.528	-1.49
967.956	-3.99
968.383	-4.19
968.811	-5.09
969.239	-1.29
969.666	-2.79
970.094	-1.19
970.522	-2.29
970.949	-3.39
971.377	-2.69
971.804	-5.39
972.232	3.81
972.659	-3.79
973.087	-4.39
973.514	0.81
973.941	-2.19
974.369	6.01
974.796	1.31
975.223	-1.19
975.651	2.41
976.078	-1.39
976.505	-4.19
976.932	0.41
977.359	11.81
977.786	13.81
978.214	-6.29
978.641	-3.59
979.068	-10.09
979.495	-2.19
979.922	-1.19
980.349	-1.89
980.776	0.61
981.202	0.71
981.629	4.61
982.056	6.51
982.483	-0.19
982.91	0.91
983.337	-2.39
983.763	-3.49
984.19	-11.89
984.617	-6.39
985.043	-4.39
985.47	-4.39
985.897	-3.89
986.323	-11.99
986.75	-2.29
987.176	1.11
987.603	-1.99
988.029	2.31
988.456	1.31
988.882	0.61
989.308	-11.09
989.735	-5.89
990.161	0.11
990.587	-3.59
991.014	-5.19
991.44	2.81
991.866	-2.29
992.292	-2.19
992.719	-2.49
993.145	4.71
993.571	-8.19
993.997	-4.79
994.423	1.31
994.849	-2.29
995.275	4.61
995.701	0.61
996.127	-3.79
996.553	0.11
996.979	-4.49
997.405	-1.99
997.83	-3.79
998.256	-10.79
998.682	-3.39
999.108	-11.09
999.534	-0.09
999.959	-4.69
1000.385	-2.59
1000.811	4.41
1001.236	-10.69
1001.662	-7.69
1002.087	-14.89
1002.513	0.31
1002.938	-0.09
1003.364	-1.59
1003.789	0.81
1004.215	-2.49
1004.64	1.81
1005.066	-3.09
1005.491	2.91
1005.916	-5.89
1006.342	-1.79
1006.767	-4.69
1007.192	5.31
1007.617	-7.69
1008.042	-2.89
1008.468	-6.39
1008.893	-8.49
1009.318	-4.19
1009.743	-5.09
1010.168	-3.09
1010.593	-5.29
1011.018	-12.69
1011.443	-1.79
1011.868	-0.19
1012.293	-2.69
1012.718	-8.79
1013.143	1.31
1013.567	-3.99
1013.992	-6.99
1014.417	-9.69
1014.842	-3.99
1015.267	-8.49
1015.691	-1.99
1016.116	-1.49
1016.541	-5.49
1016.965	2.91
1017.39	5.21
1017.814	2.81
1018.239	-4.99
1018.663	-5.99
1019.088	-9.59
1019.512	-0.69
1019.937	-4.19
1020.361	-8.09
1020.785	-9.19
1021.21	-4.89
1021.634	-3.09
1022.058	-2.49
1022.483	4.01
1022.907	-8.89
1023.331	-4.39
1023.755	-0.39
1024.179	-2.49
1024.604	-8.69
1025.028	-2.49
1025.452	-9.59
1025.876	-1.09
1026.3	1.31
1026.724	-12.19
1027.148	-8.89
1027.572	-12.19
1027.996	-4.09
1028.42	3.11
1028.843	-3.59
1029.267	-1.49
1029.691	-3.29
1030.115	-2.19
1030.539	-4.49
1030.962	-5.69
1031.386	-14.89
1031.81	-0.79
1032.233	0.51
1032.657	-8.09
1033.08	-3.99
1033.504	-7.99
1033.927	0.11
1034.351	-1.49
1034.774	-4.39
1035.198	-4.09
1035.621	-5.49
1036.045	-9.39
1036.468	2.61
1036.891	-6.79
1037.315	-14.49
1037.738	-6.99
1038.161	-1.29
1038.584	-2.69
1039.008	-2.49
1039.431	1.11
1039.854	-0.79
1040.277	-8.89
1040.7	-10.59
1041.123	-3.29
1041.546	-9.59
1041.969	-2.99
1042.392	-8.69
1042.815	-6.89
1043.238	4.91
1043.661	-2.79
1044.084	-9.89
1044.507	-4.39
1044.93	-5.49
1045.352	-5.59
1045.775	0.51
1046.198	0.21
1046.621	-2.99
1047.043	-5.39
1047.466	2.81
1047.889	-8.19
1048.311	-6.09
1048.734	-6.59
1049.156	-4.89
1049.579	-4.59
1050.001	-2.19
1050.424	-0.39
1050.846	-5.39
1051.269	-2.69
1051.691	-6.79
1052.113	-5.89
1052.536	-2.49
1052.958	-2.29
1053.38	-3.99
1053.802	-5.49
1054.225	-2.99
1054.647	-12.09
1055.069	-4.89
1055.491	0.11
1055.913	-1.19
1056.335	-2.79
1056.757	-6.59
1057.179	-9.39
1057.601	-3.69
1058.023	-5.89
1058.445	-6.59
1058.867	-9.09
1059.289	0.11
1059.711	-5.19
1060.133	0.61
1060.555	-8.29
1060.976	-7.99
1061.398	-1.99
1061.82	-8.69
1062.241	-5.59
1062.663	-9.79
1063.085	-5.79
1063.506	-1.29
1063.928	-2.59
1064.35	0.81
1064.771	-14.29
1065.193	-1.79
1065.614	-9.29
1066.035	-4.59
1066.457	-4.99
1066.878	6.21
1067.3	-1.79
1067.721	-7.39
1068.142	-3.29
1068.564	-2.49
1068.985	-3.99
1069.406	-6.29
1069.827	-1.09
1070.248	-5.69
1070.67	-7.69
1071.091	-6.59
1071.512	-7.59
1071.933	-9.69
1072.354	-7.09
1072.775	-3.39
1073.196	-11.79
1073.617	-2.79
1074.038	-7.69
1074.459	-0.19
1074.88	-7.19
1075.3	2.31
1075.721	-6.29
1076.142	1.31
1076.563	-2.59
1076.983	-12.99
1077.404	-10.59
1077.825	-10.19
1078.246	-1.79
1078.666	-12.29
1079.087	-8.59
1079.507	-7.19
1079.928	3.61
1080.348	-1.99
1080.769	-6.49
1081.189	-2.19
1081.61	-4.99
1082.03	-11.49
1082.451	-4.69
1082.871	-6.79
1083.291	-4.49
1083.711	-6.69
1084.132	-1.29
1084.552	-8.49
1084.972	-1.79
1085.392	-13.39
1085.813	-9.29
1086.233	-12.29
1086.653	-9.89
1087.073	-2.89
1087.493	-7.89
1087.913	-4.49
1088.333	-9.79
1088.753	-4.59
1089.173	1.41
1089.593	-8.49
1090.013	-4.79
1090.433	-6.59
1090.852	-5.49
1091.272	-4.09
1091.692	-4.89
1092.112	-8.39
1092.531	-10.39
1092.951	-18.39
1093.371	-8.49
1093.79	-1.49
1094.21	-7.59
1094.63	-7.29
1095.049	-5.79
1095.469	-1.39
1095.888	-2.39
1096.308	3.71
1096.727	5.81
1097.146	-7.59
1097.566	-1.69
1097.985	-6.89
1098.405	-2.39
1098.824	-6.39
1099.243	-6.99
1099.662	-6.99
1100.082	-7.89
1100.501	-1.99
1100.92	-9.89
1101.339	-9.49
1101.758	-7.19
