Data from 20171114-ORNL-Ar_H_NY_Subt18_08-05-21-498.txt Node
Date: Tue Nov 14 08:05:21 EST 2017
User: Ender
Spectrometer: HR+D1039
Trigger mode: 0
Integration Time (sec): 2.730000E-2
Scans to average: 10
Electric dark correction enabled: true
Nonlinearity correction enabled: false
Boxcar width: 0
XAxis mode: Wavelengths
Number of Pixels in Spectrum: 2048
>>>>>Begin Spectral Data<<<<<
187.836	1.72
188.309	1.72
188.782	1.72
189.255	-1.78
189.728	-2.88
190.201	1.72
190.674	0.12
191.147	-1.98
191.619	-5.38
192.092	-0.18
192.565	4.52
193.038	2.62
193.511	-1.18
193.984	2.82
194.456	-2.98
194.929	3.82
195.402	-3.68
195.874	2.62
196.347	1.62
196.82	-6.88
197.292	5.92
197.765	-1.68
198.237	-7.88
198.71	-2.88
199.182	-4.58
199.655	-2.48
200.127	6.22
200.6	-6.58
201.072	-6.18
201.544	-9.18
202.017	0.82
202.489	5.22
202.961	-4.28
203.433	-5.58
203.906	-7.68
204.378	-8.48
204.85	-9.78
205.322	-6.08
205.794	-10.88
206.266	-2.28
206.739	-9.98
207.211	-5.88
207.683	-8.28
208.155	-3.78
208.627	-5.28
209.099	-4.48
209.57	-7.18
210.042	-7.88
210.514	-5.38
210.986	0.52
211.458	-1.38
211.93	-2.28
212.402	-4.68
212.873	-9.58
213.345	-9.38
213.817	-15.08
214.288	-4.08
214.76	-8.08
215.232	-0.68
215.703	-9.38
216.175	0.62
216.646	-7.78
217.118	-5.68
217.589	-4.88
218.061	0.72
218.532	-1.88
219.004	-4.28
219.475	-4.28
219.946	1.72
220.418	-6.18
220.889	-3.78
221.36	3.02
221.832	-5.08
222.303	-4.78
222.774	-5.08
223.245	-11.88
223.717	-2.78
224.188	-6.58
224.659	-9.58
225.13	-8.08
225.601	-6.58
226.072	-7.58
226.543	0.42
227.014	-3.88
227.485	-5.18
227.956	-3.08
228.427	-1.48
228.898	0.02
229.369	6.12
229.839	-2.68
230.31	-9.78
230.781	5.12
231.252	-9.88
231.722	-3.38
232.193	-7.48
232.664	-0.48
233.135	6.02
233.605	-6.28
234.076	-7.18
234.546	-2.38
235.017	7.42
235.487	-1.48
235.958	-3.38
236.428	-4.78
236.899	2.22
237.369	0.22
237.84	-1.28
238.31	2.72
238.78	5.72
239.251	-2.18
239.721	-0.58
240.191	-2.28
240.662	-5.58
241.132	2.72
241.602	1.92
242.072	-2.28
242.542	10.72
243.013	1.12
243.483	2.82
243.953	-1.18
244.423	3.82
244.893	-1.18
245.363	1.92
245.833	0.82
246.303	1.22
246.773	9.62
247.243	2.72
247.712	3.72
248.182	9.32
248.652	4.82
249.122	-1.18
249.592	13.32
250.061	18.72
250.531	36.12
251.001	15.52
251.471	22.82
251.94	23.92
252.41	7.82
252.879	3.02
253.349	12.02
253.818	12.32
254.288	7.92
254.757	9.52
255.227	2.92
255.696	2.12
256.166	14.02
256.635	2.32
257.105	8.52
257.574	1.22
258.043	12.42
258.513	11.52
258.982	20.12
259.451	7.52
259.92	16.82
260.389	13.32
260.859	19.62
261.328	18.02
261.797	17.42
262.266	9.82
262.735	11.72
263.204	9.02
263.673	2.62
264.142	2.02
264.611	-4.68
265.08	3.52
265.549	2.22
266.018	7.12
266.487	6.62
266.955	-1.38
267.424	2.02
267.893	6.72
268.362	-1.38
268.83	5.42
269.299	8.42
269.768	6.82
270.236	10.02
270.705	9.02
271.174	8.82
271.642	6.32
272.111	7.22
272.579	17.02
273.048	21.02
273.516	27.52
273.985	29.52
274.453	22.82
274.922	24.22
275.39	14.92
275.858	1.62
276.327	16.02
276.795	14.62
277.263	14.32
277.731	32.72
278.2	57.72
278.668	62.82
279.136	51.72
279.604	22.92
280.072	20.52
280.54	7.82
281.008	14.02
281.477	15.62
281.945	10.22
282.413	15.82
282.881	18.92
283.348	12.32
283.816	22.32
284.284	12.72
284.752	21.12
285.22	12.32
285.688	16.22
286.156	24.42
286.623	50.22
287.091	56.22
287.559	30.82
288.026	8.42
288.494	16.12
288.962	10.72
289.429	11.42
289.897	15.72
290.364	14.52
290.832	15.52
291.3	18.32
291.767	17.92
292.234	25.92
292.702	16.32
293.169	19.82
293.637	22.22
294.104	24.72
294.571	13.22
295.039	16.12
295.506	11.92
295.973	19.02
296.44	16.32
296.908	20.02
297.375	20.02
297.842	22.72
298.309	21.22
298.776	16.42
299.243	21.42
299.71	19.42
300.177	24.22
300.644	19.22
301.111	25.12
301.578	24.02
302.045	16.52
302.512	23.92
302.979	23.62
303.446	19.62
303.913	17.22
304.379	22.32
304.846	23.52
305.313	30.22
305.78	23.82
306.246	28.72
306.713	33.42
307.18	33.12
307.646	26.42
308.113	31.32
308.579	24.72
309.046	25.82
309.512	27.42
309.979	19.52
310.445	28.92
310.912	34.12
311.378	30.72
311.845	29.42
312.311	28.62
312.777	32.72
313.244	33.52
313.71	35.82
314.176	32.52
314.642	34.62
315.109	35.42
315.575	33.72
316.041	41.22
316.507	37.92
316.973	40.62
317.439	33.52
317.905	38.12
318.371	31.82
318.837	40.22
319.303	32.82
319.769	40.62
320.235	37.12
320.701	36.12
321.167	40.52
321.633	29.02
322.099	36.82
322.564	47.12
323.03	40.92
323.496	41.12
323.962	41.82
324.427	41.52
324.893	42.42
325.359	39.72
325.824	39.52
326.29	37.42
326.755	39.42
327.221	46.22
327.686	39.02
328.152	46.12
328.617	42.32
329.083	54.02
329.548	49.42
330.014	46.02
330.479	43.82
330.944	41.72
331.41	43.82
331.875	45.02
332.34	42.42
332.805	44.12
333.271	49.22
333.736	48.82
334.201	53.62
334.666	57.82
335.131	51.12
335.596	52.42
336.061	49.92
336.526	40.72
336.991	52.12
337.456	60.42
337.921	50.82
338.386	47.02
338.851	53.52
339.316	48.82
339.781	47.42
340.246	46.12
340.711	43.22
341.175	54.12
341.64	50.02
342.105	54.92
342.569	58.72
343.034	61.22
343.499	60.72
343.963	60.02
344.428	64.22
344.893	60.82
345.357	60.22
345.822	63.52
346.286	67.42
346.751	73.62
347.215	67.92
347.679	67.32
348.144	100.32
348.608	79.92
349.073	68.72
349.537	78.52
350.001	78.52
350.465	89.32
350.93	84.62
351.394	87.72
351.858	82.32
352.322	90.72
352.786	86.82
353.25	106.82
353.715	111.72
354.179	101.92
354.643	127.02
355.107	121.72
355.571	107.82
356.035	97.22
356.498	117.02
356.962	125.02
357.426	137.12
357.89	119.42
358.354	91.42
358.818	81.42
359.281	82.22
359.745	78.02
360.209	75.62
360.673	81.82
361.136	82.42
361.6	84.92
362.064	88.92
362.527	84.82
362.991	92.42
363.454	82.72
363.918	85.42
364.381	81.22
364.845	84.42
365.308	86.42
365.772	86.52
366.235	84.62
366.698	88.12
367.162	89.12
367.625	86.52
368.088	87.02
368.552	94.52
369.015	94.72
369.478	100.32
369.941	97.52
370.404	99.12
370.867	103.02
371.331	115.32
371.794	113.92
372.257	111.12
372.72	118.02
373.183	112.72
373.646	99.62
374.109	108.42
374.572	109.12
375.035	109.22
375.497	107.52
375.96	108.02
376.423	108.02
376.886	113.32
377.349	118.12
377.811	106.72
378.274	103.82
378.737	108.62
379.199	109.62
379.662	105.52
380.125	115.72
380.587	123.22
381.05	120.02
381.512	129.72
381.975	135.92
382.437	130.72
382.9	126.12
383.362	139.02
383.825	138.32
384.287	142.62
384.75	141.32
385.212	133.02
385.674	141.52
386.136	136.72
386.599	126.42
387.061	131.02
387.523	132.12
387.985	133.92
388.447	135.92
388.91	150.12
389.372	159.92
389.834	150.12
390.296	148.12
390.758	157.42
391.22	169.82
391.682	216.92
392.144	295.32
392.606	227.02
393.068	172.62
393.529	173.42
393.991	154.92
394.453	146.02
394.915	153.92
395.377	184.22
395.838	211.22
396.3	154.82
396.762	144.72
397.224	134.22
397.685	129.72
398.147	126.62
398.608	129.22
399.07	131.12
399.531	132.02
399.993	141.22
400.454	154.42
400.916	145.52
401.377	142.82
401.839	148.42
402.3	151.62
402.762	157.12
403.223	176.92
403.684	165.12
404.145	165.12
404.607	156.02
405.068	165.22
405.529	172.72
405.99	188.62
406.451	169.52
406.913	171.92
407.374	158.82
407.835	163.92
408.296	169.52
408.757	166.22
409.218	184.72
409.679	179.42
410.14	174.62
410.601	177.82
411.062	182.02
411.522	183.92
411.983	191.72
412.444	172.92
412.905	184.02
413.366	184.72
413.826	192.02
414.287	214.32
414.748	260.02
415.208	239.82
415.669	206.82
416.13	204.72
416.59	198.42
417.051	207.82
417.511	210.92
417.972	232.42
418.432	243.12
418.893	288.02
419.353	246.52
419.814	193.72
420.274	175.32
420.734	180.32
421.195	199.12
421.655	203.92
422.115	185.52
422.576	188.22
423.036	194.82
423.496	200.92
423.956	212.22
424.416	232.32
424.876	268.82
425.336	256.52
425.797	264.62
426.257	252.22
426.717	239.02
427.177	230.22
427.637	220.22
428.097	233.42
428.556	238.42
429.016	276.22
429.476	260.52
429.936	274.82
430.396	276.02
430.856	283.92
431.315	320.62
431.775	341.02
432.235	373.42
432.694	351.92
433.154	359.42
433.614	395.62
434.073	339.92
434.533	278.82
434.993	270.22
435.452	279.92
435.912	290.92
436.371	285.22
436.83	283.52
437.29	265.22
437.749	243.62
438.209	245.82
438.668	270.52
439.127	287.72
439.587	264.62
440.046	248.82
440.505	252.12
440.964	273.02
441.424	316.22
441.883	305.72
442.342	248.52
442.801	223.02
443.26	217.12
443.719	219.82
444.178	214.42
444.637	206.52
445.096	213.62
445.555	223.32
446.014	223.32
446.473	218.02
446.932	223.52
447.391	219.32
447.849	219.52
448.308	205.32
448.767	219.82
449.226	237.82
449.685	234.92
450.143	247.82
450.602	231.32
451.061	220.72
451.519	236.52
451.978	236.02
452.436	228.62
452.895	240.12
453.353	245.32
453.812	240.72
454.27	235.82
454.729	236.42
455.187	236.32
455.646	244.92
456.104	243.52
456.562	257.22
457.021	267.92
457.479	256.42
457.937	274.62
458.395	260.92
458.854	246.42
459.312	253.12
459.77	276.02
460.228	254.12
460.686	241.82
461.144	244.52
461.602	245.02
462.06	237.62
462.518	248.52
462.976	250.12
463.434	248.52
463.892	264.82
464.35	276.92
464.808	292.72
465.266	257.72
465.724	262.92
466.181	272.22
466.639	270.42
467.097	283.52
467.555	295.12
468.012	302.82
468.47	298.22
468.928	331.22
469.385	339.92
469.843	346.22
470.3	347.42
470.758	359.92
471.215	383.32
471.673	404.22
472.13	401.72
472.588	409.32
473.045	373.42
473.503	377.12
473.96	390.12
474.417	401.42
474.875	426.92
475.332	476.32
475.789	460.32
476.246	462.22
476.704	472.12
477.161	504.32
477.618	517.62
478.075	558.92
478.532	613.42
478.989	681.72
479.446	797.22
479.903	775.62
480.36	811.82
480.817	866.62
481.274	966.42
481.731	1083.22
482.188	1187.62
482.645	1322.62
483.102	1424.62
483.558	1561.82
484.015	1603.22
484.472	1592.12
484.929	1532.42
485.385	1487.62
485.842	1440.82
486.299	1385.52
486.755	1301.32
487.212	1087.42
487.668	934.92
488.125	842.42
488.582	777.22
489.038	749.12
489.494	707.42
489.951	692.32
490.407	663.52
490.864	646.72
491.32	640.42
491.776	632.62
492.233	637.72
492.689	610.62
493.145	598.22
493.602	592.22
494.058	604.62
494.514	608.22
494.97	634.52
495.426	648.52
495.882	627.92
496.338	611.02
496.794	619.22
497.251	616.02
497.707	627.72
498.163	636.72
498.618	641.12
499.074	638.82
499.53	669.42
499.986	674.92
500.442	644.42
500.898	627.02
501.354	612.32
501.809	617.02
502.265	628.72
502.721	661.72
503.177	666.52
503.632	652.22
504.088	664.02
504.543	705.12
504.999	707.82
505.455	654.12
505.91	626.32
506.366	625.12
506.821	626.32
507.277	613.82
507.732	618.42
508.187	622.02
508.643	625.22
509.098	633.32
509.553	644.22
510.009	660.42
510.464	662.52
510.919	679.92
511.375	689.62
511.83	714.72
512.285	720.72
512.74	749.22
513.195	778.02
513.65	776.82
514.105	768.62
514.56	769.42
515.015	782.32
515.47	806.12
515.925	784.02
516.38	778.92
516.835	786.72
517.29	773.82
517.745	767.82
518.2	756.82
518.655	747.22
519.109	734.22
519.564	739.92
520.019	729.92
520.474	717.32
520.928	720.22
521.383	718.42
521.838	701.12
522.292	706.62
522.747	693.62
523.201	697.02
523.656	694.82
524.11	680.62
524.565	680.32
525.019	685.42
525.474	702.22
525.928	703.52
526.382	685.42
526.837	687.32
527.291	691.02
527.745	681.72
528.2	682.42
528.654	687.72
529.108	680.72
529.562	687.12
530.016	680.82
530.47	684.02
530.925	687.42
531.379	683.32
531.833	695.72
532.287	700.02
532.741	699.12
533.195	696.92
533.649	699.02
534.103	715.42
534.556	717.42
535.01	705.42
535.464	708.82
535.918	711.32
536.372	713.22
536.826	710.22
537.279	689.92
537.733	703.02
538.187	701.32
538.64	711.42
539.094	718.82
539.548	725.02
540.001	720.62
540.455	722.72
540.908	717.72
541.362	728.62
541.815	738.02
542.269	746.62
542.722	744.82
543.175	758.72
543.629	762.42
544.082	778.02
544.536	779.22
544.989	772.42
545.442	784.42
545.895	779.62
546.349	781.32
546.802	769.82
547.255	785.42
547.708	793.52
548.161	804.62
548.614	803.02
549.067	802.22
549.52	814.22
549.973	799.72
550.426	790.02
550.879	769.72
551.332	787.82
551.785	787.12
552.238	795.72
552.691	800.32
553.144	833.42
553.596	835.12
554.049	849.52
554.502	880.22
554.955	910.42
555.407	897.72
555.86	883.32
556.313	873.72
556.765	868.82
557.218	865.42
557.67	869.52
558.123	863.32
558.576	861.52
559.028	859.12
559.48	868.22
559.933	852.82
560.385	830.42
560.838	789.02
561.29	775.02
561.742	758.32
562.195	746.72
562.647	753.82
563.099	761.82
563.551	756.22
564.004	771.22
564.456	763.62
564.908	742.12
565.36	724.82
565.812	727.92
566.264	709.52
566.716	703.82
567.168	698.52
567.62	701.02
568.072	688.22
568.524	676.02
568.976	662.92
569.428	660.42
569.88	655.12
570.332	664.12
570.784	665.42
571.235	667.12
571.687	677.72
572.139	682.42
572.59	700.52
573.042	701.62
573.494	700.42
573.945	687.72
574.397	669.52
574.849	672.22
575.3	668.42
575.752	661.42
576.203	661.52
576.655	670.82
577.106	651.02
577.557	649.42
578.009	657.02
578.46	647.42
578.912	650.02
579.363	652.82
579.814	644.62
580.265	648.72
580.717	648.12
581.168	656.82
581.619	663.62
582.07	673.42
582.521	656.72
582.972	653.42
583.423	653.72
583.875	665.82
584.326	674.92
584.777	724.92
585.227	808.52
585.678	900.42
586.129	988.02
586.58	1054.42
587.031	1151.52
587.482	1315.32
587.933	1499.42
588.384	1291.02
588.834	956.12
589.285	780.02
589.736	752.12
590.186	748.62
590.637	739.62
591.088	727.72
591.538	704.52
591.989	705.92
592.439	693.62
592.89	699.42
593.34	691.52
593.791	684.22
594.241	677.02
594.692	681.42
595.142	686.52
595.593	675.82
596.043	682.32
596.493	683.72
596.943	682.82
597.394	698.82
597.844	701.12
598.294	713.22
598.744	719.12
599.195	734.52
599.645	782.12
600.095	833.12
600.545	882.42
600.995	932.82
601.445	992.42
601.895	1042.62
602.345	1100.02
602.795	1073.92
603.245	1021.02
603.695	970.72
604.145	929.22
604.594	879.62
605.044	827.92
605.494	775.32
605.944	724.62
606.393	713.92
606.843	692.52
607.293	705.82
607.743	700.32
608.192	708.62
608.642	734.82
609.091	743.42
609.541	745.92
609.99	729.62
610.44	736.12
610.889	696.82
611.339	666.42
611.788	655.22
612.238	673.92
612.687	680.82
613.136	677.82
613.586	711.32
614.035	703.72
614.484	730.92
614.933	730.22
615.383	718.52
615.832	711.52
616.281	701.22
616.73	674.72
617.179	643.62
617.628	629.22
618.077	608.12
618.526	592.32
618.975	586.12
619.424	585.62
619.873	586.22
620.322	597.92
620.771	580.92
621.22	572.82
621.669	572.82
622.118	560.62
622.567	555.92
623.015	543.22
623.464	543.52
623.913	541.52
624.361	524.42
624.81	526.82
625.259	535.02
625.707	529.52
626.156	535.22
626.604	536.42
627.053	537.12
627.501	539.52
627.95	535.42
628.398	552.62
628.847	547.12
629.295	548.72
629.744	553.32
630.192	544.42
630.64	547.62
631.089	540.22
631.537	552.02
631.985	558.72
632.433	564.22
632.881	582.32
633.33	626.52
633.778	615.62
634.226	533.12
634.674	545.82
635.122	559.42
635.57	570.32
636.018	594.92
636.466	553.92
636.914	519.82
637.362	544.22
637.81	553.02
638.258	548.42
638.705	552.12
639.153	581.42
639.601	590.62
640.049	603.52
640.497	636.32
640.944	655.82
641.392	615.32
641.84	581.92
642.287	549.82
642.735	545.52
643.182	548.72
643.63	548.82
644.078	550.52
644.525	574.52
644.973	578.02
645.42	579.12
645.867	583.92
646.315	610.52
646.762	629.32
647.21	653.72
647.657	669.42
648.104	712.42
648.551	739.02
648.999	800.02
649.446	863.72
649.893	960.12
650.34	1097.92
650.787	1319.72
651.234	1643.32
651.682	2128.32
652.129	2919.82
652.576	4222.32
653.023	6252.02
653.47	8603.43
653.917	10821.02
654.363	12581.03
654.81	14004.23
655.257	13321.03
655.704	8667.73
656.151	5121.22
656.598	3301.12
657.044	2340.62
657.491	1783.72
657.938	1426.72
658.385	1186.62
658.831	1028.83
659.278	921.32
659.724	815.22
660.171	754.72
660.618	684.82
661.064	663.42
661.511	623.62
661.957	620.52
662.404	616.82
662.85	609.92
663.296	596.12
663.743	532.92
664.189	508.52
664.635	506.72
665.082	496.42
665.528	497.52
665.974	484.42
666.42	483.32
666.867	484.02
667.313	469.02
667.759	453.52
668.205	447.42
668.651	459.72
669.097	463.92
669.543	477.22
669.989	453.82
670.435	425.52
670.881	416.02
671.327	423.62
671.773	438.62
672.219	461.52
672.665	507.12
673.11	539.92
673.556	589.22
674.002	625.62
674.448	616.62
674.893	512.42
675.339	451.52
675.785	410.62
676.23	386.52
676.676	372.62
677.122	355.82
677.567	346.92
678.013	346.12
678.458	338.32
678.904	331.72
679.349	324.22
679.794	331.72
680.24	329.72
680.685	322.92
681.131	317.32
681.576	326.32
682.021	329.62
682.466	318.22
682.912	322.32
683.357	330.22
683.802	347.22
684.247	377.02
684.692	424.72
685.137	466.62
685.583	500.22
686.028	524.82
686.473	480.62
686.918	415.22
687.363	384.52
687.807	363.82
688.252	334.62
688.697	330.32
689.142	307.22
689.587	305.12
690.032	307.22
690.477	317.52
690.921	327.02
691.366	353.12
691.811	384.92
692.255	406.12
692.7	427.42
693.145	460.12
693.589	636.02
694.034	1027.72
694.478	1422.12
694.923	1626.42
695.367	2134.22
695.812	1114.02
696.256	458.12
696.701	349.32
697.145	324.72
697.59	312.82
698.034	297.82
698.478	302.72
698.922	301.82
699.367	311.12
699.811	319.82
700.255	325.32
700.699	359.02
701.143	400.92
701.588	445.92
702.032	484.82
702.476	477.62
702.92	457.62
703.364	457.72
703.808	583.02
704.252	941.22
704.696	1340.12
705.14	1573.52
705.584	2001.22
706.027	994.02
706.471	490.12
706.915	370.22
707.359	330.02
707.803	295.12
708.246	293.72
708.69	286.52
709.134	296.82
709.577	291.72
710.021	294.72
710.465	287.12
710.908	276.52
711.352	282.12
711.795	294.42
712.239	319.42
712.682	355.82
713.126	389.12
713.569	436.32
714.012	337.32
714.456	306.02
714.899	281.32
715.342	261.52
715.786	240.42
716.229	239.72
716.672	236.52
717.115	225.72
717.558	230.62
718.002	224.12
718.445	238.42
718.888	259.02
719.331	276.02
719.774	281.42
720.217	282.42
720.66	272.62
721.103	247.72
721.546	228.02
721.989	234.52
722.432	219.32
722.874	223.92
723.317	214.02
723.76	215.82
724.203	235.72
724.645	290.92
725.088	405.72
725.531	524.22
725.974	601.12
726.416	514.62
726.859	284.62
727.301	233.72
727.744	224.22
728.187	214.52
728.629	220.52
729.071	223.92
729.514	239.52
729.956	253.82
730.399	264.22
730.841	265.62
731.283	255.82
731.726	240.32
732.168	237.82
732.61	240.82
733.053	264.82
733.495	290.22
733.937	330.82
734.379	369.82
734.821	402.82
735.263	492.42
735.705	755.62
736.148	1421.12
736.59	2374.72
737.032	2852.32
737.474	2332.92
737.916	754.62
738.357	399.22
738.799	303.32
739.241	274.32
739.683	261.42
740.125	266.62
740.567	275.02
741.008	289.52
741.45	291.92
741.892	292.12
742.334	317.82
742.775	335.52
743.217	324.02
743.658	248.42
744.1	239.02
744.542	239.82
744.983	287.42
745.425	314.92
745.866	313.62
746.307	261.92
746.749	261.42
747.19	293.22
747.632	413.02
748.073	786.82
748.514	1698.82
748.956	2619.72
749.397	3275.42
749.838	2733.93
750.279	2792.02
750.72	1389.52
751.162	509.32
751.603	294.32
752.044	232.12
752.485	205.82
752.926	197.82
753.367	187.02
753.808	177.42
754.249	177.22
754.69	172.02
755.131	168.22
755.572	170.12
756.013	169.82
756.453	175.12
756.894	176.32
757.335	174.32
757.776	182.82
758.216	181.12
758.657	176.42
759.098	183.32
759.538	208.42
759.979	233.42
760.42	339.12
760.86	630.52
761.301	1634.42
761.741	4018.02
762.182	6070.23
762.622	4252.32
763.063	1209.82
763.503	484.32
763.943	319.82
764.384	311.72
764.824	381.62
765.264	424.52
765.705	298.52
766.145	194.82
766.585	181.82
767.025	161.72
767.465	172.72
767.906	222.92
768.346	305.32
768.786	324.12
769.226	242.82
769.666	296.42
770.106	552.82
770.546	1398.92
770.986	2466.12
771.426	2234.62
771.866	740.92
772.306	303.22
772.745	195.02
773.185	160.42
773.625	155.92
774.065	154.32
774.505	180.32
774.944	280.82
775.384	631.22
775.824	1177.72
776.263	1177.52
776.703	480.72
777.142	207.02
777.582	145.52
778.021	125.22
778.461	136.42
778.9	133.22
779.34	122.72
779.779	109.92
780.219	106.72
780.658	101.42
781.097	101.42
781.537	109.52
781.976	101.92
782.415	100.32
782.855	96.22
783.294	92.02
783.733	104.22
784.172	102.52
784.611	93.62
785.05	98.72
785.489	103.12
785.928	104.22
786.367	114.62
786.806	104.62
787.245	121.82
787.684	130.92
788.123	134.92
788.562	119.82
789.001	117.52
789.44	122.22
789.879	109.22
790.317	112.22
790.756	115.22
791.195	120.92
791.634	133.62
792.072	183.32
792.511	328.22
792.95	891.72
793.388	1990.62
793.827	1831.32
794.265	629.22
794.704	264.02
795.142	170.82
795.581	134.82
796.019	132.62
796.458	118.32
796.896	111.42
797.334	117.62
797.773	137.62
798.211	197.22
798.649	385.62
799.087	922.62
799.526	1471.02
799.964	1852.62
800.402	1887.92
800.84	702.82
801.278	271.82
801.716	177.72
802.154	138.92
802.592	137.12
803.03	122.92
803.468	122.72
803.906	131.22
804.344	139.52
804.782	125.92
805.22	125.42
805.658	117.92
806.096	140.52
806.533	141.92
806.971	164.32
807.409	201.32
807.847	288.12
808.284	583.52
808.722	1679.42
809.16	3057.92
809.597	2828.72
810.035	4988.43
810.472	5456.82
810.91	1940.02
811.347	731.12
811.785	370.62
812.222	234.92
812.66	180.12
813.097	150.32
813.535	127.12
813.972	118.22
814.409	109.12
814.846	96.02
815.284	99.32
815.721	94.62
816.158	101.12
816.595	108.02
817.032	167.02
817.47	191.12
817.907	167.32
818.344	149.62
818.781	115.22
819.218	98.52
819.655	111.32
820.092	167.32
820.529	204.42
820.966	167.22
821.403	130.12
821.839	104.42
822.276	89.82
822.713	117.02
823.15	131.92
823.587	106.12
824.023	133.12
824.46	265.52
824.897	817.32
825.333	1259.72
825.77	545.62
826.206	212.82
826.643	121.02
827.08	88.12
827.516	76.32
827.953	72.62
828.389	72.52
828.825	66.02
829.262	60.92
829.698	59.72
830.135	56.42
830.571	58.62
831.007	60.72
831.443	60.82
831.88	54.72
832.316	51.82
832.752	59.72
833.188	55.92
833.624	60.62
834.06	60.32
834.497	62.82
834.933	67.12
835.369	72.12
835.805	64.52
836.241	76.72
836.677	74.92
837.112	81.72
837.548	97.12
837.984	119.62
838.42	178.12
838.856	444.52
839.292	1371.12
839.727	2172.72
840.163	1000.92
840.599	828.22
841.034	1857.52
841.47	2002.72
841.906	719.72
842.341	309.12
842.777	215.82
843.212	300.92
843.648	301.82
844.083	146.12
844.519	83.22
844.954	63.22
845.39	49.92
845.825	51.12
846.261	54.42
846.696	45.02
847.131	50.42
847.566	51.12
848.002	51.22
848.437	51.82
848.872	54.72
849.307	55.42
849.742	82.02
850.177	165.32
850.613	504.62
851.048	819.52
851.483	351.52
851.918	144.62
852.353	73.72
852.788	54.22
853.223	51.12
853.657	49.42
854.092	42.82
854.527	43.72
854.962	37.52
855.397	36.22
855.832	52.02
856.266	45.42
856.701	37.02
857.136	31.22
857.57	39.02
858.005	45.22
858.44	53.02
858.874	42.82
859.309	50.82
859.743	38.72
860.178	36.32
860.612	37.42
861.047	49.62
861.481	61.32
861.915	56.32
862.35	42.02
862.784	28.62
863.218	30.02
863.653	33.32
864.087	42.92
864.521	45.82
864.955	63.72
865.39	139.02
865.824	160.72
866.258	107.22
866.692	149.52
867.126	163.92
867.56	94.72
867.994	45.82
868.428	34.72
868.862	38.62
869.296	53.32
869.73	52.02
870.164	44.32
870.598	42.22
871.031	27.42
871.465	29.32
871.899	29.22
872.333	23.72
872.766	25.32
873.2	21.92
873.634	33.02
874.067	28.12
874.501	27.22
874.935	32.62
875.368	23.22
875.802	23.02
876.235	26.72
876.669	23.72
877.102	23.52
877.535	24.22
877.969	22.92
878.402	20.72
878.836	15.32
879.269	17.72
879.702	24.22
880.135	21.02
880.569	19.82
881.002	24.92
881.435	17.82
881.868	14.02
882.301	18.02
882.734	11.22
883.167	26.32
883.601	17.52
884.034	21.62
884.467	10.12
884.899	28.42
885.332	14.92
885.765	12.42
886.198	14.02
886.631	18.02
887.064	10.42
887.497	21.32
887.929	24.52
888.362	11.52
888.795	16.12
889.228	20.62
889.66	15.52
890.093	15.42
890.526	13.32
890.958	12.62
891.391	20.42
891.823	26.02
892.256	13.92
892.688	9.32
893.121	15.62
893.553	14.32
893.985	17.32
894.418	14.92
894.85	7.82
895.282	15.22
895.715	16.72
896.147	12.52
896.579	9.82
897.011	3.92
897.444	15.02
897.876	14.92
898.308	13.12
898.74	11.02
899.172	5.42
899.604	26.22
900.036	18.02
900.468	12.82
900.9	11.72
901.332	15.32
901.764	16.52
902.196	12.02
902.628	19.22
903.06	15.42
903.491	31.12
903.923	19.32
904.355	25.22
904.787	24.52
905.218	17.82
905.65	14.52
906.082	7.92
906.513	12.72
906.945	13.22
907.376	9.22
907.808	13.82
908.239	18.72
908.671	18.22
909.102	18.82
909.534	25.92
909.965	40.52
910.397	85.72
910.828	288.92
911.259	441.92
911.691	202.42
912.122	97.42
912.553	48.52
912.984	30.62
913.415	24.42
913.847	29.22
914.278	16.12
914.709	13.42
915.14	20.42
915.571	11.82
916.002	13.82
916.433	20.72
916.864	12.82
917.295	13.62
917.726	19.12
918.157	13.52
918.587	26.72
919.018	25.12
919.449	18.22
919.88	23.52
920.311	25.12
920.741	46.72
921.172	151.62
921.603	135.62
922.033	65.52
922.464	43.02
922.895	20.32
923.325	18.72
923.756	17.82
924.186	12.32
924.617	16.92
925.047	36.92
925.478	48.52
925.908	45.12
926.338	25.42
926.769	13.22
927.199	17.32
927.629	17.22
928.06	14.02
928.49	16.42
928.92	13.32
929.35	8.12
929.78	7.42
930.21	1.92
930.641	2.62
931.071	10.72
931.501	0.02
931.931	6.12
932.361	8.42
932.791	0.52
933.221	4.92
933.651	9.72
934.08	19.22
934.51	27.72
934.94	5.62
935.37	1.42
935.8	6.22
936.229	2.12
936.659	2.12
937.089	7.72
937.519	9.62
937.948	18.32
938.378	19.52
938.807	6.22
939.237	8.12
939.666	5.92
940.096	-2.58
940.525	2.62
940.955	0.52
941.384	1.92
941.814	-1.58
942.243	-3.28
942.672	9.62
943.102	1.12
943.531	-4.28
943.96	6.12
944.39	4.02
944.819	1.92
945.248	6.12
945.677	3.62
946.106	8.92
946.535	5.02
946.964	0.42
947.393	5.32
947.822	2.02
948.251	-4.68
948.68	7.62
949.109	3.02
949.538	5.62
949.967	1.82
950.396	-0.58
950.825	5.12
951.254	2.22
951.682	-2.58
952.111	0.02
952.54	3.32
952.969	-5.28
953.397	-9.58
953.826	1.42
954.254	-8.88
954.683	1.12
955.112	-6.28
955.54	0.42
955.969	-3.98
956.397	-1.28
956.826	-4.18
957.254	3.82
957.682	-4.18
958.111	1.22
958.539	-3.68
958.967	-3.68
959.396	2.22
959.824	2.82
960.252	6.62
960.68	-5.78
961.109	-5.68
961.537	-5.28
961.965	-1.78
962.393	-6.28
962.821	-4.18
963.249	3.82
963.677	-2.08
964.105	0.72
964.533	42.02
964.961	40.22
965.389	15.92
965.817	2.92
966.245	1.12
966.672	-3.18
967.1	-8.78
967.528	-3.28
967.956	-2.58
968.383	-3.68
968.811	-5.78
969.239	-9.38
969.666	-5.28
970.094	1.82
970.522	-2.48
970.949	0.82
971.377	-6.98
971.804	-2.48
972.232	0.12
972.659	3.52
973.087	-4.98
973.514	-3.68
973.941	0.12
974.369	0.92
974.796	-2.78
975.223	1.22
975.651	-3.68
976.078	-2.48
976.505	-1.88
976.932	-2.98
977.359	15.42
977.786	14.82
978.214	2.22
978.641	-4.58
979.068	-4.98
979.495	-2.88
979.922	-6.88
980.349	1.12
980.776	4.92
981.202	-3.08
981.629	7.32
982.056	0.82
982.483	-8.78
982.91	2.52
983.337	-1.98
983.763	3.62
984.19	-6.18
984.617	-3.18
985.043	-8.08
985.47	-2.28
985.897	-3.98
986.323	-7.88
986.75	-0.28
987.176	-6.48
987.603	1.12
988.029	0.12
988.456	-6.98
988.882	-3.98
989.308	-8.88
989.735	-1.98
990.161	-0.68
990.587	-7.98
991.014	2.02
991.44	1.72
991.866	2.02
992.292	-1.28
992.719	-6.38
993.145	-1.98
993.571	-11.58
993.997	-2.38
994.423	-2.78
994.849	-4.68
995.275	-4.78
995.701	4.42
996.127	-8.38
996.553	-3.78
996.979	-8.48
997.405	-2.68
997.83	-3.18
998.256	-6.48
998.682	-1.88
999.108	-7.98
999.534	4.52
999.959	-7.38
1000.385	2.02
1000.811	-1.68
1001.236	-7.88
1001.662	-5.28
1002.087	-10.98
1002.513	-2.38
1002.938	0.32
1003.364	-3.48
1003.789	-1.98
1004.215	8.02
1004.64	-2.78
1005.066	-1.18
1005.491	1.42
1005.916	-0.38
1006.342	-6.18
1006.767	-3.08
1007.192	6.72
1007.617	-8.68
1008.042	-10.08
1008.468	-14.48
1008.893	-5.28
1009.318	-7.88
1009.743	-4.78
1010.168	5.12
1010.593	-0.78
1011.018	-13.78
1011.443	-6.88
1011.868	0.72
1012.293	-4.08
1012.718	-5.28
1013.143	-0.68
1013.567	-1.38
1013.992	-0.48
1014.417	-13.08
1014.842	4.22
1015.267	-4.58
1015.691	-5.58
1016.116	3.12
1016.541	-0.18
1016.965	-4.28
1017.39	2.92
1017.814	0.32
1018.239	-3.58
1018.663	-9.28
1019.088	-11.28
1019.512	-10.68
1019.937	-7.88
1020.361	-2.68
1020.785	-7.58
1021.21	-4.78
1021.634	-4.08
1022.058	-3.38
1022.483	5.12
1022.907	-2.18
1023.331	-8.38
1023.755	-5.18
1024.179	-0.98
1024.604	-7.88
1025.028	-6.98
1025.452	-9.08
1025.876	4.72
1026.3	3.72
1026.724	-4.28
1027.148	-7.38
1027.572	-12.38
1027.996	-5.88
1028.42	-3.88
1028.843	-5.28
1029.267	-11.08
1029.691	-4.18
1030.115	-9.28
1030.539	-10.48
1030.962	-7.58
1031.386	-10.78
1031.81	-3.18
1032.233	-2.28
1032.657	-2.78
1033.08	-6.88
1033.504	-4.08
1033.927	-3.48
1034.351	-0.68
1034.774	-2.68
1035.198	-8.48
1035.621	-3.58
1036.045	-6.48
1036.468	-2.28
1036.891	-12.88
1037.315	-10.38
1037.738	-15.18
1038.161	1.72
1038.584	-2.88
1039.008	-5.98
1039.431	1.12
1039.854	0.62
1040.277	-7.88
1040.7	-10.08
1041.123	-1.28
1041.546	-7.58
1041.969	-3.98
1042.392	-7.88
1042.815	-2.48
1043.238	-2.48
1043.661	-0.18
1044.084	-12.78
1044.507	-10.98
1044.93	-0.48
1045.352	-9.28
1045.775	1.62
1046.198	2.42
1046.621	-1.48
1047.043	-3.18
1047.466	8.22
1047.889	-2.68
1048.311	-3.08
1048.734	-6.88
1049.156	-2.98
1049.579	-2.78
1050.001	-1.98
1050.424	-1.88
1050.846	-9.48
1051.269	-6.58
1051.691	-5.58
1052.113	-7.48
1052.536	-2.48
1052.958	-3.58
1053.38	-8.38
1053.802	-7.38
1054.225	-4.88
1054.647	-4.98
1055.069	-8.98
1055.491	-1.28
1055.913	-4.68
1056.335	0.52
1056.757	-3.68
1057.179	-9.48
1057.601	-9.48
1058.023	-4.08
1058.445	-2.48
1058.867	-5.98
1059.289	-7.88
1059.711	-6.08
1060.133	-4.58
1060.555	-12.18
1060.976	-6.98
1061.398	-6.48
1061.82	-3.68
1062.241	-5.78
1062.663	-10.18
1063.085	-5.08
1063.506	-4.48
1063.928	-6.08
1064.35	-2.78
1064.771	-9.48
1065.193	-6.48
1065.614	-10.78
1066.035	-6.88
1066.457	-2.28
1066.878	2.32
1067.3	-8.78
1067.721	-0.68
1068.142	-1.58
1068.564	-5.88
1068.985	-8.38
1069.406	-5.68
1069.827	-0.18
1070.248	-2.28
1070.67	-5.18
1071.091	-1.98
1071.512	-1.68
1071.933	-4.38
1072.354	-9.68
1072.775	-4.48
1073.196	-10.78
1073.617	-0.68
1074.038	-3.28
1074.459	-0.48
1074.88	-11.48
1075.3	-2.48
1075.721	-2.98
1076.142	-3.88
1076.563	-9.68
1076.983	-11.68
1077.404	-5.98
1077.825	-11.68
1078.246	-5.68
1078.666	-9.38
1079.087	-6.58
1079.507	-8.08
1079.928	5.22
1080.348	-2.48
1080.769	-4.98
1081.189	-1.48
1081.61	-0.88
1082.03	-1.38
1082.451	-6.98
1082.871	-9.88
1083.291	-7.58
1083.711	-7.28
1084.132	-5.58
1084.552	-4.28
1084.972	-1.28
1085.392	-15.08
1085.813	-5.38
1086.233	-7.28
1086.653	-0.38
1087.073	-6.58
1087.493	-6.08
1087.913	-10.28
1088.333	-4.88
1088.753	-2.78
1089.173	4.02
1089.593	-2.18
1090.013	-6.48
1090.433	-2.28
1090.852	-2.28
1091.272	-6.28
1091.692	-7.08
1092.112	-4.68
1092.531	-5.98
1092.951	-15.38
1093.371	-4.98
1093.79	-0.48
1094.21	-6.58
1094.63	-9.78
1095.049	1.42
1095.469	-5.28
1095.888	1.22
1096.308	-0.78
1096.727	3.62
1097.146	-7.48
1097.566	0.02
1097.985	-8.58
1098.405	4.12
1098.824	-7.28
1099.243	-8.18
1099.662	-6.08
1100.082	-2.18
1100.501	-4.28
1100.92	-8.68
1101.339	-7.88
1101.758	-12.68
