Data from 20171114-ORNL-Ar_H_NY_Subt18_08-05-19-587.txt Node
Date: Tue Nov 14 08:05:19 EST 2017
User: Ender
Spectrometer: HR+D1039
Trigger mode: 0
Integration Time (sec): 2.730000E-2
Scans to average: 10
Electric dark correction enabled: true
Nonlinearity correction enabled: false
Boxcar width: 0
XAxis mode: Wavelengths
Number of Pixels in Spectrum: 2048
>>>>>Begin Spectral Data<<<<<
187.836	-3.19
188.309	-3.19
188.782	-3.19
189.255	1.01
189.728	-3.49
190.201	1.41
190.674	0.61
191.147	4.71
191.619	-0.39
192.092	-1.29
192.565	1.61
193.038	-0.09
193.511	1.21
193.984	3.11
194.456	-5.19
194.929	3.71
195.402	-2.69
195.874	-0.99
196.347	-5.29
196.82	-6.39
197.292	3.21
197.765	-5.29
198.237	-10.29
198.71	1.01
199.182	-3.89
199.655	4.11
200.127	2.31
200.6	-7.79
201.072	-8.29
201.544	-7.59
202.017	-5.89
202.489	-0.39
202.961	-10.79
203.433	-0.89
203.906	-8.49
204.378	-3.29
204.85	-9.59
205.322	-16.29
205.794	-6.19
206.266	-7.59
206.739	-11.39
207.211	-0.09
207.683	-9.49
208.155	-15.69
208.627	-8.99
209.099	-3.49
209.57	-6.99
210.042	-7.69
210.514	-7.59
210.986	-1.39
211.458	-8.89
211.93	-4.79
212.402	-1.39
212.873	-3.19
213.345	-11.89
213.817	-18.09
214.288	-8.19
214.76	-16.49
215.232	-7.09
215.703	-4.09
216.175	-9.19
216.646	-1.59
217.118	-6.99
217.589	-2.19
218.061	0.91
218.532	-2.69
219.004	-6.29
219.475	-5.69
219.946	-4.39
220.418	-9.09
220.889	3.81
221.36	1.11
221.832	-4.39
222.303	-8.29
222.774	-0.79
223.245	-9.99
223.717	-3.79
224.188	-9.89
224.659	-8.19
225.13	-5.49
225.601	-6.19
226.072	3.21
226.543	0.41
227.014	-3.39
227.485	-4.39
227.956	-7.79
228.427	-5.49
228.898	1.51
229.369	3.91
229.839	-6.29
230.31	-11.49
230.781	-0.99
231.252	-6.69
231.722	-5.49
232.193	-3.79
232.664	0.51
233.135	-4.59
233.605	-1.99
234.076	-6.09
234.546	5.21
235.017	4.61
235.487	4.01
235.958	9.71
236.428	-7.09
236.899	6.11
237.369	4.91
237.84	-0.19
238.31	7.41
238.78	4.91
239.251	3.01
239.721	-0.39
240.191	-4.99
240.662	-3.29
241.132	-1.19
241.602	-6.99
242.072	7.91
242.542	7.41
243.013	-0.99
243.483	0.11
243.953	0.41
244.423	1.81
244.893	-3.79
245.363	0.61
245.833	2.31
246.303	-5.59
246.773	10.81
247.243	-1.09
247.712	5.11
248.182	4.31
248.652	12.41
249.122	1.41
249.592	14.61
250.061	21.71
250.531	37.61
251.001	15.11
251.471	17.71
251.94	23.31
252.41	4.91
252.879	-0.69
253.349	12.71
253.818	6.51
254.288	-0.99
254.757	3.21
255.227	3.71
255.696	3.71
256.166	3.31
256.635	4.01
257.105	9.81
257.574	7.21
258.043	6.91
258.513	15.71
258.982	17.41
259.451	7.91
259.92	17.31
260.389	14.81
260.859	21.71
261.328	9.41
261.797	14.71
262.266	8.51
262.735	8.41
263.204	4.51
263.673	0.51
264.142	6.21
264.611	-3.59
265.08	-0.79
265.549	2.11
266.018	5.11
266.487	-3.89
266.955	0.41
267.424	4.21
267.893	7.01
268.362	3.01
268.83	4.51
269.299	8.71
269.768	7.41
270.236	6.81
270.705	6.81
271.174	6.51
271.642	12.01
272.111	10.61
272.579	17.51
273.048	20.51
273.516	25.91
273.985	31.61
274.453	24.91
274.922	23.71
275.39	11.71
275.858	6.31
276.327	12.31
276.795	20.21
277.263	12.21
277.731	29.11
278.2	56.51
278.668	59.31
279.136	51.61
279.604	18.31
280.072	16.61
280.54	13.61
281.008	10.81
281.477	17.31
281.945	15.11
282.413	10.41
282.881	17.81
283.348	11.21
283.816	11.51
284.284	17.31
284.752	22.41
285.22	11.11
285.688	15.91
286.156	23.21
286.623	49.41
287.091	57.31
287.559	28.91
288.026	19.11
288.494	14.91
288.962	9.31
289.429	9.91
289.897	21.71
290.364	20.51
290.832	17.71
291.3	14.71
291.767	25.11
292.234	16.91
292.702	18.51
293.169	21.51
293.637	24.81
294.104	20.61
294.571	15.11
295.039	14.51
295.506	16.51
295.973	22.71
296.44	13.41
296.908	20.11
297.375	23.41
297.842	18.11
298.309	19.51
298.776	16.31
299.243	24.61
299.71	16.31
300.177	23.21
300.644	15.41
301.111	17.71
301.578	25.01
302.045	18.91
302.512	19.91
302.979	30.81
303.446	21.21
303.913	21.91
304.379	20.51
304.846	24.01
305.313	32.31
305.78	29.01
306.246	28.81
306.713	23.41
307.18	24.01
307.646	28.41
308.113	31.31
308.579	32.31
309.046	27.81
309.512	23.11
309.979	24.31
310.445	33.61
310.912	26.51
311.378	28.71
311.845	28.91
312.311	33.61
312.777	31.71
313.244	27.81
313.71	45.11
314.176	35.21
314.642	34.91
315.109	29.11
315.575	41.61
316.041	40.61
316.507	35.81
316.973	40.81
317.439	31.51
317.905	37.91
318.371	34.01
318.837	36.41
319.303	31.71
319.769	38.71
320.235	30.91
320.701	31.11
321.167	35.61
321.633	35.61
322.099	39.61
322.564	41.71
323.03	45.01
323.496	43.01
323.962	41.11
324.427	38.11
324.893	42.41
325.359	38.61
325.824	43.41
326.29	40.21
326.755	41.71
327.221	42.41
327.686	36.71
328.152	48.81
328.617	48.01
329.083	46.81
329.548	52.71
330.014	47.01
330.479	37.51
330.944	46.81
331.41	46.21
331.875	49.41
332.34	43.01
332.805	47.71
333.271	48.51
333.736	49.01
334.201	53.91
334.666	52.01
335.131	52.01
335.596	55.51
336.061	47.61
336.526	39.11
336.991	53.71
337.456	55.11
337.921	50.41
338.386	49.81
338.851	45.71
339.316	48.31
339.781	46.31
340.246	53.61
340.711	46.61
341.175	47.51
341.64	46.01
342.105	59.61
342.569	54.51
343.034	57.71
343.499	54.61
343.963	55.41
344.428	62.01
344.893	61.31
345.357	60.91
345.822	61.51
346.286	65.21
346.751	76.51
347.215	67.61
347.679	68.61
348.144	102.61
348.608	82.21
349.073	73.11
349.537	74.51
350.001	77.61
350.465	87.21
350.93	85.91
351.394	89.51
351.858	77.91
352.322	84.21
352.786	80.51
353.25	101.51
353.715	110.31
354.179	107.31
354.643	121.71
355.107	129.31
355.571	108.81
356.035	103.11
356.498	115.01
356.962	126.51
357.426	136.21
357.89	117.11
358.354	92.31
358.818	88.01
359.281	84.81
359.745	82.71
360.209	82.21
360.673	71.11
361.136	79.81
361.6	91.31
362.064	86.21
362.527	85.61
362.991	92.11
363.454	77.91
363.918	79.41
364.381	80.61
364.845	84.71
365.308	87.01
365.772	83.81
366.235	84.31
366.698	88.91
367.162	88.91
367.625	85.51
368.088	95.11
368.552	88.61
369.015	87.21
369.478	93.61
369.941	107.51
370.404	98.41
370.867	110.21
371.331	108.61
371.794	115.51
372.257	116.01
372.72	115.81
373.183	110.31
373.646	103.31
374.109	106.61
374.572	102.31
375.035	109.51
375.497	106.91
375.96	108.71
376.423	102.31
376.886	111.11
377.349	112.01
377.811	103.11
378.274	100.41
378.737	106.11
379.199	116.11
379.662	117.31
380.125	124.51
380.587	118.91
381.05	121.01
381.512	132.11
381.975	134.21
382.437	129.71
382.9	133.71
383.362	134.61
383.825	142.21
384.287	150.91
384.75	142.61
385.212	141.81
385.674	137.31
386.136	137.01
386.599	124.61
387.061	125.91
387.523	131.81
387.985	130.41
388.447	142.71
388.91	137.71
389.372	157.61
389.834	156.61
390.296	149.11
390.758	156.81
391.22	163.81
391.682	208.11
392.144	300.11
392.606	236.21
393.068	166.31
393.529	166.01
393.991	153.91
394.453	145.51
394.915	159.81
395.377	189.51
395.838	213.31
396.3	148.41
396.762	133.51
397.224	133.41
397.685	137.31
398.147	133.51
398.608	133.41
399.07	129.51
399.531	138.81
399.993	149.61
400.454	152.71
400.916	154.41
401.377	142.21
401.839	158.61
402.3	155.31
402.762	170.01
403.223	184.41
403.684	171.71
404.145	161.61
404.607	156.41
405.068	159.91
405.529	174.61
405.99	184.61
406.451	172.51
406.913	174.01
407.374	160.71
407.835	160.31
408.296	166.51
408.757	172.81
409.218	188.01
409.679	182.61
410.14	170.41
410.601	178.61
411.062	186.21
411.522	190.71
411.983	184.71
412.444	177.01
412.905	184.51
413.366	182.21
413.826	189.41
414.287	215.81
414.748	263.71
415.208	246.01
415.669	215.11
416.13	208.11
416.59	198.71
417.051	209.11
417.511	219.01
417.972	228.61
418.432	250.11
418.893	287.51
419.353	258.21
419.814	196.71
420.274	187.91
420.734	185.61
421.195	196.41
421.655	197.51
422.115	194.21
422.576	191.81
423.036	198.01
423.496	206.41
423.956	215.41
424.416	234.11
424.876	261.41
425.336	258.31
425.797	262.81
426.257	248.51
426.717	239.91
427.177	229.81
427.637	225.21
428.097	243.01
428.556	245.91
429.016	270.91
429.476	261.91
429.936	281.21
430.396	275.41
430.856	289.71
431.315	321.51
431.775	356.81
432.235	376.71
432.694	350.11
433.154	362.91
433.614	391.51
434.073	344.81
434.533	280.91
434.993	267.21
435.452	290.61
435.912	299.91
436.371	294.91
436.83	283.61
437.29	272.21
437.749	247.91
438.209	248.91
438.668	274.41
439.127	288.61
439.587	267.31
440.046	250.31
440.505	257.51
440.964	279.01
441.424	326.91
441.883	313.51
442.342	260.41
442.801	222.81
443.26	223.01
443.719	223.21
444.178	223.71
444.637	213.01
445.096	216.81
445.555	228.31
446.014	220.71
446.473	222.11
446.932	229.81
447.391	222.51
447.849	224.21
448.308	219.11
448.767	217.51
449.226	237.11
449.685	234.51
450.143	248.21
450.602	241.41
451.061	228.41
451.519	239.61
451.978	228.41
452.436	241.81
452.895	237.61
453.353	257.91
453.812	234.01
454.27	232.31
454.729	240.31
455.187	236.11
455.646	239.21
456.104	242.11
456.562	260.31
457.021	263.11
457.479	257.61
457.937	268.51
458.395	261.01
458.854	248.41
459.312	252.41
459.77	270.41
460.228	254.31
460.686	244.71
461.144	246.71
461.602	244.61
462.06	243.71
462.518	251.21
462.976	252.91
463.434	260.11
463.892	267.61
464.35	272.71
464.808	286.21
465.266	258.91
465.724	269.11
466.181	273.01
466.639	272.51
467.097	285.31
467.555	304.21
468.012	295.81
468.47	311.01
468.928	331.81
469.385	349.01
469.843	345.81
470.3	347.81
470.758	360.61
471.215	384.71
471.673	402.11
472.13	408.41
472.588	418.61
473.045	375.91
473.503	373.31
473.96	394.61
474.417	408.01
474.875	435.11
475.332	481.71
475.789	465.51
476.246	467.91
476.704	479.31
477.161	511.81
477.618	522.21
478.075	552.71
478.532	619.21
478.989	694.51
479.446	813.11
479.903	770.21
480.36	804.41
480.817	867.91
481.274	974.61
481.731	1078.51
482.188	1183.91
482.645	1319.01
483.102	1419.81
483.558	1559.41
484.015	1617.11
484.472	1585.81
484.929	1531.71
485.385	1490.51
485.842	1456.91
486.299	1390.01
486.755	1318.01
487.212	1094.71
487.668	928.91
488.125	860.61
488.582	783.61
489.038	755.11
489.494	712.81
489.951	684.11
490.407	671.21
490.864	645.01
491.32	644.51
491.776	641.01
492.233	644.51
492.689	611.01
493.145	607.31
493.602	605.11
494.058	614.71
494.514	613.51
494.97	647.11
495.426	656.31
495.882	624.51
496.338	611.31
496.794	644.41
497.251	628.01
497.707	638.31
498.163	648.01
498.618	648.41
499.074	642.71
499.53	686.31
499.986	675.11
500.442	650.11
500.898	636.41
501.354	619.61
501.809	631.51
502.265	640.61
502.721	658.41
503.177	671.61
503.632	670.01
504.088	673.01
504.543	715.51
504.999	710.61
505.455	663.91
505.91	629.31
506.366	645.11
506.821	631.01
507.277	619.51
507.732	628.71
508.187	622.71
508.643	622.61
509.098	629.81
509.553	655.91
510.009	657.21
510.464	671.61
510.919	694.11
511.375	693.51
511.83	702.51
512.285	727.21
512.74	759.31
513.195	783.51
513.65	766.21
514.105	771.81
514.56	769.21
515.015	795.41
515.47	810.51
515.925	792.61
516.38	789.71
516.835	798.01
517.29	785.21
517.745	776.61
518.2	761.81
518.655	754.61
519.109	748.41
519.564	737.51
520.019	731.51
520.474	716.21
520.928	732.51
521.383	715.41
521.838	716.91
522.292	705.61
522.747	708.21
523.201	705.01
523.656	696.01
524.11	698.11
524.565	687.41
525.019	688.91
525.474	699.11
525.928	699.61
526.382	699.31
526.837	688.21
527.291	696.51
527.745	694.51
528.2	695.81
528.654	696.21
529.108	682.11
529.562	675.01
530.016	688.21
530.47	690.91
530.925	696.01
531.379	698.81
531.833	706.51
532.287	709.21
532.741	706.61
533.195	704.41
533.649	717.01
534.103	718.11
534.556	707.01
535.01	720.31
535.464	712.21
535.918	726.81
536.372	728.51
536.826	713.01
537.279	698.61
537.733	702.31
538.187	713.81
538.64	713.71
539.094	726.01
539.548	731.81
540.001	727.21
540.455	712.61
540.908	720.31
541.362	730.01
541.815	737.71
542.269	752.81
542.722	746.01
543.175	765.91
543.629	765.51
544.082	785.41
544.536	777.41
544.989	785.21
545.442	795.81
545.895	780.21
546.349	792.81
546.802	780.21
547.255	789.91
547.708	796.81
548.161	807.41
548.614	813.51
549.067	817.51
549.52	812.71
549.973	798.41
550.426	803.81
550.879	782.71
551.332	788.71
551.785	797.91
552.238	794.81
552.691	813.81
553.144	822.11
553.596	844.91
554.049	863.51
554.502	880.91
554.955	902.81
555.407	899.11
555.86	886.81
556.313	889.71
556.765	875.21
557.218	869.41
557.67	880.11
558.123	869.91
558.576	867.91
559.028	854.31
559.48	875.81
559.933	864.91
560.385	819.71
560.838	801.91
561.29	784.51
561.742	776.51
562.195	753.01
562.647	751.21
563.099	764.01
563.551	757.11
564.004	771.21
564.456	758.01
564.908	753.31
565.36	733.41
565.812	724.11
566.264	709.81
566.716	714.21
567.168	698.71
567.62	715.61
568.072	699.41
568.524	691.71
568.976	689.61
569.428	661.61
569.88	667.81
570.332	666.71
570.784	677.31
571.235	672.51
571.687	687.31
572.139	694.51
572.59	699.51
573.042	687.61
573.494	698.41
573.945	687.31
574.397	671.21
574.849	692.41
575.3	677.61
575.752	679.41
576.203	669.21
576.655	679.31
577.106	656.51
577.557	655.71
578.009	657.81
578.46	652.51
578.912	648.71
579.363	653.21
579.814	651.91
580.265	640.81
580.717	648.11
581.168	657.91
581.619	659.21
582.07	655.11
582.521	659.51
582.972	662.51
583.423	664.01
583.875	666.41
584.326	690.31
584.777	724.61
585.227	805.61
585.678	903.91
586.129	978.81
586.58	1054.41
587.031	1138.21
587.482	1295.11
587.933	1488.31
588.384	1278.91
588.834	957.81
589.285	788.91
589.736	762.31
590.186	757.81
590.637	748.91
591.088	722.31
591.538	716.71
591.989	718.11
592.439	705.61
592.89	699.11
593.34	698.11
593.791	698.21
594.241	685.81
594.692	694.31
595.142	686.91
595.593	684.01
596.043	687.81
596.493	694.91
596.943	698.31
597.394	710.51
597.844	689.71
598.294	708.81
598.744	723.71
599.195	754.11
599.645	794.21
600.095	837.71
600.545	885.81
600.995	934.71
601.445	991.31
601.895	1055.61
602.345	1107.71
602.795	1087.41
603.245	1031.91
603.695	977.81
604.145	932.31
604.594	889.71
605.044	827.61
605.494	774.01
605.944	723.21
606.393	720.51
606.843	700.21
607.293	701.91
607.743	707.71
608.192	723.31
608.642	732.81
609.091	741.41
609.541	741.01
609.99	740.31
610.44	744.51
610.889	706.01
611.339	676.91
611.788	676.31
612.238	684.81
612.687	691.11
613.136	697.21
613.586	717.31
614.035	716.51
614.484	723.91
614.933	734.11
615.383	720.81
615.832	719.91
616.281	699.11
616.73	668.21
617.179	642.91
617.628	620.51
618.077	620.41
618.526	600.81
618.975	605.51
619.424	584.61
619.873	594.71
620.322	595.61
620.771	580.01
621.22	588.41
621.669	570.71
622.118	558.31
622.567	549.21
623.015	545.71
623.464	541.51
623.913	538.91
624.361	534.41
624.81	528.01
625.259	540.71
625.707	534.11
626.156	531.91
626.604	554.11
627.053	538.01
627.501	534.51
627.95	550.21
628.398	559.31
628.847	543.61
629.295	548.41
629.744	554.31
630.192	545.81
630.64	545.31
631.089	546.01
631.537	553.31
631.985	563.41
632.433	575.51
632.881	577.21
633.33	633.71
633.778	608.91
634.226	540.61
634.674	542.41
635.122	550.81
635.57	571.41
636.018	599.31
636.466	555.31
636.914	539.41
637.362	547.01
637.81	550.81
638.258	559.81
638.705	553.41
639.153	580.31
639.601	591.21
640.049	616.31
640.497	645.31
640.944	661.21
641.392	621.91
641.84	582.01
642.287	559.31
642.735	544.41
643.182	542.71
643.63	541.71
644.078	552.01
644.525	566.21
644.973	569.41
645.42	577.01
645.867	592.81
646.315	617.91
646.762	630.91
647.21	657.81
647.657	683.01
648.104	714.81
648.551	744.31
648.999	797.51
649.446	874.81
649.893	970.11
650.34	1109.41
650.787	1334.41
651.234	1639.11
651.682	2143.31
652.129	2918.51
652.576	4183.71
653.023	6227.31
653.47	8603.71
653.917	10774.91
654.363	12560.11
654.81	13983.41
655.257	13287.91
655.704	8688.51
656.151	5119.21
656.598	3306.41
657.044	2326.21
657.491	1787.01
657.938	1429.81
658.385	1198.01
658.831	1040.21
659.278	924.91
659.724	820.81
660.171	750.11
660.618	686.81
661.064	660.51
661.511	650.71
661.957	618.51
662.404	616.01
662.85	620.21
663.296	595.21
663.743	535.31
664.189	511.61
664.635	502.21
665.082	497.91
665.528	500.41
665.974	490.21
666.42	481.51
666.867	480.81
667.313	467.61
667.759	461.31
668.205	457.41
668.651	467.61
669.097	458.81
669.543	468.81
669.989	443.31
670.435	421.01
670.881	423.61
671.327	417.71
671.773	450.31
672.219	466.61
672.665	511.41
673.11	549.31
673.556	594.11
674.002	633.61
674.448	621.61
674.893	514.61
675.339	449.21
675.785	405.11
676.23	398.71
676.676	377.21
677.122	355.81
677.567	353.21
678.013	346.21
678.458	332.71
678.904	329.31
679.349	326.71
679.794	329.81
680.24	337.21
680.685	329.41
681.131	328.41
681.576	327.11
682.021	327.81
682.466	331.31
682.912	331.81
683.357	326.21
683.802	356.51
684.247	377.71
684.692	417.51
685.137	461.81
685.583	507.61
686.028	532.31
686.473	479.91
686.918	419.71
687.363	393.01
687.807	368.61
688.252	345.31
688.697	331.21
689.142	316.31
689.587	311.81
690.032	302.31
690.477	319.21
690.921	327.21
691.366	351.31
691.811	373.11
692.255	405.21
692.7	432.61
693.145	469.41
693.589	628.61
694.034	1041.21
694.478	1436.01
694.923	1639.71
695.367	2155.81
695.812	1123.71
696.256	466.91
696.701	339.21
697.145	322.81
697.59	304.31
698.034	298.61
698.478	304.11
698.922	301.81
699.367	305.21
699.811	306.61
700.255	333.91
700.699	349.51
701.143	391.81
701.588	439.71
702.032	480.91
702.476	480.31
702.92	462.21
703.364	459.11
703.808	586.51
704.252	958.71
704.696	1341.31
705.14	1569.61
705.584	2008.31
706.027	1001.11
706.471	487.71
706.915	373.01
707.359	329.71
707.803	299.41
708.246	290.71
708.69	292.51
709.134	303.51
709.577	290.41
710.021	295.21
710.465	293.01
710.908	287.91
711.352	283.51
711.795	289.91
712.239	320.61
712.682	358.01
713.126	383.11
713.569	437.01
714.012	351.31
714.456	299.51
714.899	276.41
715.342	263.21
715.786	248.81
716.229	244.81
716.672	239.91
717.115	230.41
717.558	228.51
718.002	227.21
718.445	243.01
718.888	258.71
719.331	274.31
719.774	286.11
720.217	293.31
720.66	266.91
721.103	246.11
721.546	238.91
721.989	234.11
722.432	215.51
722.874	228.81
723.317	215.11
723.76	221.41
724.203	232.81
724.645	286.41
725.088	406.51
725.531	534.81
725.974	602.61
726.416	518.31
726.859	283.41
727.301	223.71
727.744	223.01
728.187	220.81
728.629	223.71
729.071	227.81
729.514	237.61
729.956	253.71
730.399	265.21
730.841	270.91
731.283	244.01
731.726	243.91
732.168	237.91
732.61	241.61
733.053	266.31
733.495	291.61
733.937	329.91
734.379	375.31
734.821	407.21
735.263	504.51
735.705	756.81
736.148	1432.71
736.59	2386.71
737.032	2889.61
737.474	2337.71
737.916	752.91
738.357	405.71
738.799	303.11
739.241	274.21
739.683	260.71
740.125	269.11
740.567	272.31
741.008	299.31
741.45	293.71
741.892	292.61
742.334	318.51
742.775	335.01
743.217	317.21
743.658	252.01
744.1	239.51
744.542	245.61
744.983	288.31
745.425	322.31
745.866	323.21
746.307	264.51
746.749	266.21
747.19	296.21
747.632	417.51
748.073	798.41
748.514	1704.01
748.956	2656.51
749.397	3310.01
749.838	2764.71
750.279	2803.81
750.72	1408.21
751.162	504.91
751.603	293.91
752.044	233.01
752.485	199.81
752.926	194.01
753.367	188.91
753.808	179.61
754.249	174.81
754.69	172.61
755.131	169.61
755.572	165.21
756.013	167.91
756.453	168.71
756.894	176.11
757.335	174.31
757.776	179.21
758.216	171.41
758.657	174.41
759.098	183.11
759.538	208.31
759.979	244.11
760.42	336.01
760.86	638.31
761.301	1638.51
761.741	4043.01
762.182	6086.41
762.622	4287.61
763.063	1229.61
763.503	501.91
763.943	322.31
764.384	317.21
764.824	377.21
765.264	414.01
765.705	287.61
766.145	196.01
766.585	175.31
767.025	165.81
767.465	181.91
767.906	223.11
768.346	295.01
768.786	320.81
769.226	242.31
769.666	291.31
770.106	560.61
770.546	1398.41
770.986	2477.71
771.426	2246.01
771.866	740.41
772.306	303.31
772.745	186.51
773.185	159.51
773.625	155.31
774.065	147.91
774.505	185.41
774.944	275.41
775.384	619.21
775.824	1167.41
776.263	1160.71
776.703	479.31
777.142	199.81
777.582	144.21
778.021	120.71
778.461	133.91
778.9	129.01
779.34	125.11
779.779	110.31
780.219	102.51
780.658	97.21
781.097	97.91
781.537	107.81
781.976	100.71
782.415	103.31
782.855	92.51
783.294	92.31
783.733	96.41
784.172	99.01
784.611	95.31
785.05	104.41
785.489	107.01
785.928	106.51
786.367	111.11
786.806	107.51
787.245	119.31
787.684	118.81
788.123	140.21
788.562	124.11
789.001	115.81
789.44	115.71
789.879	109.01
790.317	112.51
790.756	115.81
791.195	122.41
791.634	129.61
792.072	183.31
792.511	325.61
792.95	892.81
793.388	1990.21
793.827	1840.21
794.265	633.81
794.704	260.11
795.142	172.81
795.581	135.51
796.019	124.41
796.458	109.91
796.896	111.51
797.334	121.41
797.773	138.41
798.211	199.21
798.649	395.81
799.087	921.71
799.526	1468.31
799.964	1845.41
800.402	1896.51
800.84	705.91
801.278	279.01
801.716	165.91
802.154	143.61
802.592	130.31
803.03	137.01
803.468	118.01
803.906	135.01
804.344	130.51
804.782	122.31
805.22	120.01
805.658	118.81
806.096	131.31
806.533	148.81
806.971	166.41
807.409	200.51
807.847	287.31
808.284	587.51
808.722	1691.91
809.16	3078.81
809.597	2865.11
810.035	4991.61
810.472	5495.01
810.91	1962.01
811.347	737.01
811.785	374.51
812.222	233.61
812.66	176.21
813.097	148.31
813.535	129.11
813.972	120.61
814.409	109.31
814.846	99.01
815.284	99.21
815.721	98.11
816.158	99.31
816.595	106.21
817.032	164.31
817.47	181.81
817.907	166.41
818.344	144.51
818.781	104.61
819.218	87.81
819.655	117.71
820.092	173.91
820.529	199.61
820.966	169.91
821.403	127.41
821.839	104.01
822.276	92.31
822.713	108.61
823.15	116.61
823.587	104.81
824.023	131.81
824.46	264.41
824.897	816.01
825.333	1284.71
825.77	549.61
826.206	214.21
826.643	121.91
827.08	95.01
827.516	72.31
827.953	72.61
828.389	70.51
828.825	60.11
829.262	66.91
829.698	57.51
830.135	59.11
830.571	59.71
831.007	52.61
831.443	57.21
831.88	52.51
832.316	60.01
832.752	56.41
833.188	59.91
833.624	59.61
834.06	63.01
834.497	61.11
834.933	67.91
835.369	65.81
835.805	58.41
836.241	66.41
836.677	69.11
837.112	86.01
837.548	100.81
837.984	118.01
838.42	182.31
838.856	437.31
839.292	1375.51
839.727	2172.01
840.163	1019.41
840.599	836.01
841.034	1861.21
841.47	2025.51
841.906	737.81
842.341	309.21
842.777	214.61
843.212	300.11
843.648	298.91
844.083	142.01
844.519	81.51
844.954	70.71
845.39	49.91
845.825	52.41
846.261	51.31
846.696	48.11
847.131	49.81
847.566	49.01
848.002	49.01
848.437	50.91
848.872	57.31
849.307	53.91
849.742	78.51
850.177	155.91
850.613	509.31
851.048	819.01
851.483	357.61
851.918	140.01
852.353	77.51
852.788	52.71
853.223	45.91
853.657	48.61
854.092	44.21
854.527	36.01
854.962	30.21
855.397	36.21
855.832	42.71
856.266	32.31
856.701	37.41
857.136	34.01
857.57	34.91
858.005	44.01
858.44	53.51
858.874	41.51
859.309	45.71
859.743	37.71
860.178	44.91
860.612	40.61
861.047	48.01
861.481	63.11
861.915	63.31
862.35	44.61
862.784	24.31
863.218	30.21
863.653	31.61
864.087	41.91
864.521	48.61
864.955	60.81
865.39	142.31
865.824	166.91
866.258	109.01
866.692	155.71
867.126	163.91
867.56	98.81
867.994	47.41
868.428	35.51
868.862	44.01
869.296	50.71
869.73	49.11
870.164	47.21
870.598	44.91
871.031	32.01
871.465	32.21
871.899	27.91
872.333	23.61
872.766	26.51
873.2	22.01
873.634	28.41
874.067	25.61
874.501	24.81
874.935	29.91
875.368	22.71
875.802	21.71
876.235	21.91
876.669	19.11
877.102	21.21
877.535	17.91
877.969	21.21
878.402	20.51
878.836	16.31
879.269	23.01
879.702	21.01
880.135	18.71
880.569	20.91
881.002	21.01
881.435	17.71
881.868	10.81
882.301	21.61
882.734	12.21
883.167	18.31
883.601	19.21
884.034	18.21
884.467	4.11
884.899	16.51
885.332	10.71
885.765	14.71
886.198	8.81
886.631	12.91
887.064	13.41
887.497	16.31
887.929	23.21
888.362	12.01
888.795	9.21
889.228	18.41
889.66	20.01
890.093	17.51
890.526	19.21
890.958	16.91
891.391	16.21
891.823	21.81
892.256	13.31
892.688	12.61
893.121	13.21
893.553	11.21
893.985	22.31
894.418	21.71
894.85	13.01
895.282	12.01
895.715	9.41
896.147	10.81
896.579	16.71
897.011	10.81
897.444	19.01
897.876	8.31
898.308	13.81
898.74	14.01
899.172	8.21
899.604	18.31
900.036	18.71
900.468	14.91
900.9	5.41
901.332	11.91
901.764	12.71
902.196	13.31
902.628	12.51
903.06	16.51
903.491	26.61
903.923	20.01
904.355	17.91
904.787	18.71
905.218	17.21
905.65	18.81
906.082	10.61
906.513	14.51
906.945	18.31
907.376	14.11
907.808	14.41
908.239	18.71
908.671	17.11
909.102	24.31
909.534	23.51
909.965	41.91
910.397	79.81
910.828	280.21
911.259	441.11
911.691	202.41
912.122	99.61
912.553	44.51
912.984	35.01
913.415	30.51
913.847	17.81
914.278	13.91
914.709	16.01
915.14	17.01
915.571	16.21
916.002	10.81
916.433	11.51
916.864	11.61
917.295	9.01
917.726	18.41
918.157	12.21
918.587	29.31
919.018	15.41
919.449	13.41
919.88	21.21
920.311	26.11
920.741	46.81
921.172	148.91
921.603	141.31
922.033	59.11
922.464	40.11
922.895	16.41
923.325	24.31
923.756	10.31
924.186	15.81
924.617	24.51
925.047	39.41
925.478	50.51
925.908	42.81
926.338	26.11
926.769	19.31
927.199	19.41
927.629	11.01
928.06	13.61
928.49	15.41
928.92	10.41
929.35	8.91
929.78	10.81
930.21	9.01
930.641	9.01
931.071	11.51
931.501	0.11
931.931	2.21
932.361	6.21
932.791	-0.89
933.221	5.41
933.651	3.11
934.08	18.21
934.51	24.71
934.94	4.31
935.37	-1.19
935.8	9.61
936.229	-0.29
936.659	10.11
937.089	-1.69
937.519	4.51
937.948	21.41
938.378	12.51
938.807	4.01
939.237	9.01
939.666	7.91
940.096	-3.19
940.525	3.01
940.955	4.41
941.384	0.51
941.814	-0.69
942.243	-3.59
942.672	-0.39
943.102	-7.49
943.531	-3.39
943.96	5.81
944.39	4.91
944.819	-3.69
945.248	2.41
945.677	5.11
946.106	4.71
946.535	0.41
946.964	-3.49
947.393	0.11
947.822	1.21
948.251	-8.99
948.68	1.81
949.109	3.61
949.538	6.11
949.967	-2.39
950.396	-3.59
950.825	-5.69
951.254	-1.69
951.682	-6.59
952.111	0.01
952.54	6.31
952.969	-4.69
953.397	-8.59
953.826	-2.99
954.254	-8.09
954.683	2.91
955.112	-4.89
955.54	2.81
955.969	7.11
956.397	-1.89
956.826	-2.19
957.254	3.11
957.682	-3.89
958.111	-0.79
958.539	1.51
958.967	-6.39
959.396	-3.69
959.824	-2.19
960.252	-1.09
960.68	-9.19
961.109	1.81
961.537	-4.09
961.965	-0.79
962.393	-3.69
962.821	1.11
963.249	0.31
963.677	1.81
964.105	9.71
964.533	42.71
964.961	38.01
965.389	15.31
965.817	3.01
966.245	-1.59
966.672	-4.29
967.1	-4.49
967.528	-4.99
967.956	-3.39
968.383	-1.19
968.811	-7.39
969.239	-7.79
969.666	-13.69
970.094	-2.79
970.522	-1.99
970.949	-4.29
971.377	-7.49
971.804	-4.99
972.232	-6.69
972.659	-3.99
973.087	-0.19
973.514	-5.99
973.941	-7.79
974.369	1.61
974.796	0.21
975.223	1.11
975.651	-2.69
976.078	-1.49
976.505	-7.79
976.932	-0.79
977.359	14.71
977.786	9.11
978.214	-2.79
978.641	-6.99
979.068	-3.49
979.495	-7.49
979.922	-5.89
980.349	-4.89
980.776	1.41
981.202	-3.79
981.629	3.31
982.056	7.21
982.483	-4.99
982.91	2.01
983.337	-7.39
983.763	-1.99
984.19	-6.59
984.617	-3.39
985.043	-5.29
985.47	-6.49
985.897	1.91
986.323	-11.49
986.75	2.51
987.176	0.41
987.603	-0.59
988.029	-7.69
988.456	-4.49
988.882	2.01
989.308	-10.79
989.735	-6.09
990.161	-4.99
990.587	-8.69
991.014	-2.79
991.44	5.31
991.866	-0.89
992.292	-8.09
992.719	-6.59
993.145	-4.09
993.571	-15.49
993.997	-9.19
994.423	-2.39
994.849	-4.39
995.275	-0.89
995.701	1.41
996.127	-4.39
996.553	0.71
996.979	-7.89
997.405	0.21
997.83	-2.99
998.256	-10.29
998.682	-6.59
999.108	-9.79
999.534	-2.09
999.959	-2.59
1000.385	-5.49
1000.811	1.51
1001.236	-5.49
1001.662	-6.59
1002.087	-7.59
1002.513	-2.29
1002.938	-0.99
1003.364	-3.79
1003.789	-1.19
1004.215	1.81
1004.64	-4.29
1005.066	2.31
1005.491	2.41
1005.916	-0.99
1006.342	-8.09
1006.767	-15.99
1007.192	5.41
1007.617	-10.89
1008.042	-3.59
1008.468	-8.29
1008.893	-3.39
1009.318	-4.79
1009.743	-10.19
1010.168	3.61
1010.593	-3.29
1011.018	-8.49
1011.443	-3.19
1011.868	3.51
1012.293	-6.09
1012.718	-5.49
1013.143	-6.89
1013.567	1.61
1013.992	-5.99
1014.417	-12.69
1014.842	-1.89
1015.267	-8.79
1015.691	-3.09
1016.116	1.11
1016.541	1.81
1016.965	2.01
1017.39	2.21
1017.814	0.51
1018.239	0.81
1018.663	-5.09
1019.088	-12.09
1019.512	-4.29
1019.937	-2.99
1020.361	-4.79
1020.785	-19.39
1021.21	-3.09
1021.634	0.41
1022.058	-0.59
1022.483	5.41
1022.907	-6.19
1023.331	-2.49
1023.755	-0.79
1024.179	1.21
1024.604	-6.29
1025.028	-2.69
1025.452	-4.59
1025.876	-12.89
1026.3	-1.69
1026.724	-12.79
1027.148	-4.89
1027.572	-14.69
1027.996	-4.59
1028.42	-4.69
1028.843	-7.09
1029.267	-3.59
1029.691	2.41
1030.115	-5.79
1030.539	-10.29
1030.962	-7.99
1031.386	-7.79
1031.81	-6.39
1032.233	-9.79
1032.657	-2.09
1033.08	-6.49
1033.504	-6.79
1033.927	-8.39
1034.351	-8.29
1034.774	-6.69
1035.198	-2.19
1035.621	-5.39
1036.045	-9.19
1036.468	3.21
1036.891	-14.89
1037.315	-10.79
1037.738	-9.99
1038.161	-5.89
1038.584	-7.29
1039.008	-7.59
1039.431	-10.69
1039.854	0.61
1040.277	-6.89
1040.7	-11.29
1041.123	-2.29
1041.546	-10.39
1041.969	-5.19
1042.392	-9.19
1042.815	-3.19
1043.238	0.41
1043.661	-4.29
1044.084	-7.39
1044.507	-10.09
1044.93	-3.39
1045.352	-5.19
1045.775	-2.19
1046.198	-7.59
1046.621	0.11
1047.043	-8.89
1047.466	-0.49
1047.889	-6.39
1048.311	-5.39
1048.734	-4.09
1049.156	-6.09
1049.579	0.01
1050.001	-7.09
1050.424	-1.39
1050.846	-8.49
1051.269	-6.59
1051.691	-6.29
1052.113	-4.19
1052.536	-3.19
1052.958	-5.89
1053.38	-3.69
1053.802	-9.59
1054.225	6.51
1054.647	-6.99
1055.069	-6.69
1055.491	1.91
1055.913	-8.19
1056.335	-3.59
1056.757	-2.29
1057.179	-6.49
1057.601	-8.19
1058.023	-2.89
1058.445	-5.39
1058.867	-4.99
1059.289	-2.39
1059.711	-7.49
1060.133	-3.59
1060.555	-6.39
1060.976	-9.09
1061.398	-6.99
1061.82	-5.19
1062.241	-7.19
1062.663	-4.49
1063.085	-2.79
1063.506	-6.59
1063.928	-6.59
1064.35	0.51
1064.771	-10.19
1065.193	-5.09
1065.614	-9.09
1066.035	-2.29
1066.457	-3.69
1066.878	1.51
1067.3	-11.89
1067.721	-5.19
1068.142	-4.09
1068.564	-6.69
1068.985	-10.49
1069.406	-4.79
1069.827	-9.99
1070.248	0.71
1070.67	-4.19
1071.091	-1.89
1071.512	-4.99
1071.933	-13.29
1072.354	-9.09
1072.775	-6.69
1073.196	-6.69
1073.617	-2.99
1074.038	-9.89
1074.459	-4.99
1074.88	-10.79
1075.3	1.71
1075.721	-10.59
1076.142	-0.99
1076.563	-1.79
1076.983	-13.49
1077.404	-11.59
1077.825	-9.69
1078.246	-5.29
1078.666	-9.79
1079.087	-8.69
1079.507	-5.09
1079.928	2.51
1080.348	-1.99
1080.769	-6.59
1081.189	-1.59
1081.61	-4.29
1082.03	-5.99
1082.451	-10.59
1082.871	-5.29
1083.291	-8.49
1083.711	-6.99
1084.132	-11.29
1084.552	-4.79
1084.972	0.01
1085.392	-10.49
1085.813	-13.89
1086.233	-9.89
1086.653	-4.79
1087.073	-4.39
1087.493	-9.39
1087.913	-14.89
1088.333	-3.99
1088.753	-6.79
1089.173	-2.39
1089.593	-5.09
1090.013	3.41
1090.433	-0.69
1090.852	-7.59
1091.272	-6.29
1091.692	-2.89
1092.112	-8.09
1092.531	-7.19
1092.951	-16.59
1093.371	-4.29
1093.79	-1.39
1094.21	-3.29
1094.63	-8.69
1095.049	-6.29
1095.469	-5.99
1095.888	-5.99
1096.308	-1.89
1096.727	0.01
1097.146	-8.79
1097.566	-2.59
1097.985	-5.99
1098.405	-4.99
1098.824	-8.49
1099.243	-11.29
1099.662	-2.69
1100.082	-7.99
1100.501	-2.89
1100.92	-10.19
1101.339	-4.89
1101.758	-9.59
