Data from 20171114-ORNL-Ar_H_NY_Subt18_08-09-00-757.txt Node
Date: Tue Nov 14 08:09:00 EST 2017
User: Ender
Spectrometer: HR+D1039
Trigger mode: 0
Integration Time (sec): 2.730000E-2
Scans to average: 10
Electric dark correction enabled: true
Nonlinearity correction enabled: false
Boxcar width: 0
XAxis mode: Wavelengths
Number of Pixels in Spectrum: 2048
>>>>>Begin Spectral Data<<<<<
187.836	-4.98
188.309	-4.98
188.782	-4.98
189.255	-3.38
189.728	-4.58
190.201	4.62
190.674	-1.08
191.147	4.62
191.619	-4.18
192.092	1.42
192.565	3.82
193.038	1.92
193.511	-0.78
193.984	0.22
194.456	2.92
194.929	-0.08
195.402	-1.38
195.874	0.82
196.347	-2.48
196.82	-7.58
197.292	7.52
197.765	-4.38
198.237	-6.68
198.71	2.72
199.182	1.22
199.655	1.42
200.127	5.32
200.6	-1.28
201.072	-4.58
201.544	-5.58
202.017	-0.28
202.489	4.02
202.961	-3.48
203.433	-6.38
203.906	-6.08
204.378	-7.28
204.85	-3.58
205.322	-11.58
205.794	-2.38
206.266	-2.78
206.739	-6.58
207.211	3.42
207.683	-7.08
208.155	-4.78
208.627	-10.58
209.099	-0.98
209.57	-6.18
210.042	-5.68
210.514	-4.38
210.986	0.42
211.458	-7.58
211.93	0.72
212.402	-0.48
212.873	-7.58
213.345	-5.98
213.817	-8.08
214.288	-3.98
214.76	-9.18
215.232	-4.08
215.703	3.02
216.175	-5.98
216.646	-5.48
217.118	-7.88
217.589	-0.88
218.061	-2.48
218.532	-1.28
219.004	-3.48
219.475	2.72
219.946	-3.18
220.418	-7.08
220.889	2.82
221.36	-2.98
221.832	-1.88
222.303	-8.08
222.774	4.52
223.245	-9.98
223.717	-8.38
224.188	-3.28
224.659	-0.48
225.13	-4.68
225.601	0.22
226.072	-0.28
226.543	-4.78
227.014	-2.88
227.485	-7.48
227.956	-9.28
228.427	-7.18
228.898	-1.78
229.369	-0.68
229.839	-8.08
230.31	-5.88
230.781	5.62
231.252	-3.88
231.722	-4.78
232.193	-2.28
232.664	-2.38
233.135	-3.88
233.605	-4.48
234.076	-11.48
234.546	-3.68
235.017	-2.18
235.487	-2.68
235.958	1.02
236.428	-8.68
236.899	3.02
237.369	-2.88
237.84	-6.48
238.31	7.12
238.78	-0.78
239.251	-5.58
239.721	-1.78
240.191	-1.48
240.662	-3.28
241.132	-2.18
241.602	-7.78
242.072	0.52
242.542	-0.38
243.013	-7.28
243.483	-0.08
243.953	-0.18
244.423	-8.58
244.893	-4.48
245.363	-5.48
245.833	-4.78
246.303	-6.38
246.773	-2.38
247.243	-2.88
247.712	-4.08
248.182	0.42
248.652	-1.28
249.122	-9.78
249.592	-0.38
250.061	5.42
250.531	5.42
251.001	-2.98
251.471	4.42
251.94	7.32
252.41	0.72
252.879	-6.08
253.349	5.02
253.818	4.92
254.288	1.62
254.757	-0.38
255.227	-4.68
255.696	0.62
256.166	0.62
256.635	3.32
257.105	2.72
257.574	-9.58
258.043	5.02
258.513	-3.48
258.982	3.12
259.451	-3.88
259.92	-1.58
260.389	-1.38
260.859	13.02
261.328	-3.98
261.797	3.42
262.266	-5.28
262.735	8.72
263.204	-0.18
263.673	-0.88
264.142	5.02
264.611	-7.98
265.08	-1.98
265.549	-7.78
266.018	0.52
266.487	-3.98
266.955	-8.28
267.424	-7.58
267.893	4.92
268.362	-4.18
268.83	-6.18
269.299	2.52
269.768	0.22
270.236	0.62
270.705	-4.48
271.174	1.82
271.642	0.22
272.111	4.02
272.579	2.52
273.048	1.42
273.516	5.12
273.985	3.92
274.453	5.22
274.922	8.52
275.39	6.12
275.858	-3.38
276.327	7.22
276.795	12.62
277.263	-2.78
277.731	14.62
278.2	4.02
278.668	10.22
279.136	4.82
279.604	5.42
280.072	8.52
280.54	7.92
281.008	3.82
281.477	9.42
281.945	7.02
282.413	7.62
282.881	11.32
283.348	3.52
283.816	7.02
284.284	5.52
284.752	10.52
285.22	11.32
285.688	7.82
286.156	9.92
286.623	18.72
287.091	7.92
287.559	8.22
288.026	8.42
288.494	8.12
288.962	3.62
289.429	3.32
289.897	6.92
290.364	8.52
290.832	13.12
291.3	16.52
291.767	12.82
292.234	12.32
292.702	9.12
293.169	4.92
293.637	15.52
294.104	11.52
294.571	4.32
295.039	5.42
295.506	9.02
295.973	12.52
296.44	10.22
296.908	12.32
297.375	12.62
297.842	15.22
298.309	8.62
298.776	9.02
299.243	11.02
299.71	6.32
300.177	11.12
300.644	17.02
301.111	8.72
301.578	16.82
302.045	14.42
302.512	10.32
302.979	21.52
303.446	15.82
303.913	12.92
304.379	12.32
304.846	19.32
305.313	15.52
305.78	17.82
306.246	21.82
306.713	16.12
307.18	21.22
307.646	21.32
308.113	17.82
308.579	16.02
309.046	21.52
309.512	13.22
309.979	6.72
310.445	21.32
310.912	21.72
311.378	26.12
311.845	22.52
312.311	30.62
312.777	17.72
313.244	20.12
313.71	30.02
314.176	25.62
314.642	20.52
315.109	18.92
315.575	24.62
316.041	32.62
316.507	22.42
316.973	27.22
317.439	23.22
317.905	24.82
318.371	25.22
318.837	27.32
319.303	26.32
319.769	27.62
320.235	24.72
320.701	28.82
321.167	29.22
321.633	25.72
322.099	19.12
322.564	26.42
323.03	31.02
323.496	26.82
323.962	35.52
324.427	24.02
324.893	35.12
325.359	25.22
325.824	32.12
326.29	29.72
326.755	29.72
327.221	29.92
327.686	25.12
328.152	36.72
328.617	37.02
329.083	41.82
329.548	39.02
330.014	39.82
330.479	29.02
330.944	26.52
331.41	32.22
331.875	40.52
332.34	36.62
332.805	33.12
333.271	38.82
333.736	30.72
334.201	38.32
334.666	41.12
335.131	42.12
335.596	44.62
336.061	42.92
336.526	35.92
336.991	29.12
337.456	44.22
337.921	41.62
338.386	33.02
338.851	35.12
339.316	35.82
339.781	34.72
340.246	47.82
340.711	36.62
341.175	42.12
341.64	44.52
342.105	43.02
342.569	46.52
343.034	48.62
343.499	48.82
343.963	45.22
344.428	57.62
344.893	53.62
345.357	49.02
345.822	46.22
346.286	51.42
346.751	58.12
347.215	49.22
347.679	61.42
348.144	68.52
348.608	71.82
349.073	55.62
349.537	60.12
350.001	65.02
350.465	73.22
350.93	65.62
351.394	68.52
351.858	60.42
352.322	67.92
352.786	66.22
353.25	85.12
353.715	90.72
354.179	83.72
354.643	99.02
355.107	98.02
355.571	81.82
356.035	84.42
356.498	92.62
356.962	98.52
357.426	99.22
357.89	93.22
358.354	72.42
358.818	66.92
359.281	63.42
359.745	60.12
360.209	66.22
360.673	60.72
361.136	66.82
361.6	73.22
362.064	71.72
362.527	74.72
362.991	71.62
363.454	65.42
363.918	63.72
364.381	65.42
364.845	70.32
365.308	75.22
365.772	80.02
366.235	78.32
366.698	75.72
367.162	74.82
367.625	72.12
368.088	71.72
368.552	75.82
369.015	77.12
369.478	83.52
369.941	90.82
370.404	78.22
370.867	89.12
371.331	96.42
371.794	96.02
372.257	84.62
372.72	91.22
373.183	86.82
373.646	83.52
374.109	91.22
374.572	87.42
375.035	91.52
375.497	93.22
375.96	98.12
376.423	91.02
376.886	98.52
377.349	102.42
377.811	88.02
378.274	92.82
378.737	93.72
379.199	95.02
379.662	93.22
380.125	105.62
380.587	90.82
381.05	98.52
381.512	103.92
381.975	109.32
382.437	111.82
382.9	102.52
383.362	111.12
383.825	115.72
384.287	115.12
384.75	105.32
385.212	111.02
385.674	120.62
386.136	119.02
386.599	114.32
387.061	117.32
387.523	111.12
387.985	118.42
388.447	127.32
388.91	119.52
389.372	124.22
389.834	119.92
390.296	116.02
390.758	129.22
391.22	133.12
391.682	145.02
392.144	146.82
392.606	143.62
393.068	133.22
393.529	141.92
393.991	128.62
394.453	117.22
394.915	131.72
395.377	129.62
395.838	134.02
396.3	131.32
396.762	130.32
397.224	128.02
397.685	127.02
398.147	118.12
398.608	119.42
399.07	118.52
399.531	120.92
399.993	134.32
400.454	143.02
400.916	140.92
401.377	137.12
401.839	137.42
402.3	143.52
402.762	147.12
403.223	168.12
403.684	157.22
404.145	146.32
404.607	153.92
405.068	153.52
405.529	160.92
405.99	171.42
406.451	158.02
406.913	162.12
407.374	153.22
407.835	153.52
408.296	164.62
408.757	164.02
409.218	178.52
409.679	167.52
410.14	169.32
410.601	165.02
411.062	170.02
411.522	167.92
411.983	169.42
412.444	163.82
412.905	171.22
413.366	177.82
413.826	183.52
414.287	211.42
414.748	249.32
415.208	245.72
415.669	205.82
416.13	205.22
416.59	196.62
417.051	209.92
417.511	216.02
417.972	233.62
418.432	241.52
418.893	289.02
419.353	247.42
419.814	194.72
420.274	181.42
420.734	178.22
421.195	187.02
421.655	186.02
422.115	182.72
422.576	196.92
423.036	189.92
423.496	202.62
423.956	205.62
424.416	217.72
424.876	255.62
425.336	246.42
425.797	252.72
426.257	252.82
426.717	229.73
427.177	226.82
427.637	217.12
428.097	226.52
428.556	233.62
429.016	256.02
429.476	250.92
429.936	263.32
430.396	275.62
430.856	283.22
431.315	295.32
431.775	335.52
432.235	363.92
432.694	337.12
433.154	348.82
433.614	375.02
434.073	320.92
434.533	268.32
434.993	260.72
435.452	265.72
435.912	285.52
436.371	284.92
436.83	264.12
437.29	250.12
437.749	245.92
438.209	241.22
438.668	260.82
439.127	271.52
439.587	258.23
440.046	238.02
440.505	253.23
440.964	268.42
441.424	312.02
441.883	296.72
442.342	260.52
442.801	221.42
443.26	219.42
443.719	223.32
444.178	219.22
444.637	211.32
445.096	219.02
445.555	233.32
446.014	223.22
446.473	227.32
446.932	234.22
447.391	221.12
447.849	221.02
448.308	223.32
448.767	225.92
449.226	238.82
449.685	237.62
450.143	252.92
450.602	241.52
451.061	226.52
451.519	233.23
451.978	230.82
452.436	232.22
452.895	237.12
453.353	251.42
453.812	239.92
454.27	238.22
454.729	244.62
455.187	246.02
455.646	242.02
456.104	246.12
456.562	266.12
457.021	266.62
457.479	257.92
457.937	275.32
458.395	263.32
458.854	247.22
459.312	257.22
459.77	271.22
460.228	248.52
460.686	244.32
461.144	256.42
461.602	249.02
462.06	248.42
462.518	263.92
462.976	260.82
463.434	266.02
463.892	268.22
464.35	270.82
464.808	292.52
465.266	259.32
465.724	271.73
466.181	275.62
466.639	275.42
467.097	294.62
467.555	305.52
468.012	303.72
468.47	313.72
468.928	336.62
469.385	341.23
469.843	345.62
470.3	349.92
470.758	363.42
471.215	388.32
471.673	412.32
472.13	403.22
472.588	420.82
473.045	366.02
473.503	377.62
473.96	396.92
474.417	411.02
474.875	439.72
475.332	477.52
475.789	465.82
476.246	467.52
476.704	492.62
477.161	515.32
477.618	521.92
478.075	552.62
478.532	614.82
478.989	666.82
479.446	786.32
479.903	747.52
480.36	786.02
480.817	808.52
481.274	920.22
481.731	1004.62
482.188	1072.02
482.645	1191.22
483.102	1287.12
483.558	1394.82
484.015	1435.43
484.472	1417.82
484.929	1377.62
485.385	1330.23
485.842	1288.82
486.299	1253.02
486.755	1217.72
487.212	1036.42
487.668	894.22
488.125	817.82
488.582	767.42
489.038	732.22
489.494	705.52
489.951	664.62
490.407	660.52
490.864	634.02
491.32	629.62
491.776	642.92
492.233	641.32
492.689	614.12
493.145	610.92
493.602	590.32
494.058	609.92
494.514	604.12
494.97	631.42
495.426	638.72
495.882	620.12
496.338	617.82
496.794	617.02
497.251	605.02
497.707	626.52
498.163	629.92
498.618	636.02
499.074	642.02
499.53	666.82
499.986	668.22
500.442	647.23
500.898	628.82
501.354	613.82
501.809	625.42
502.265	631.82
502.721	634.02
503.177	640.82
503.632	653.02
504.088	653.62
504.543	673.42
504.999	694.82
505.455	664.82
505.91	646.62
506.366	649.72
506.821	630.32
507.277	641.92
507.732	630.62
508.187	641.52
508.643	648.22
509.098	641.72
509.553	661.72
510.009	677.92
510.464	681.82
510.919	697.52
511.375	706.02
511.83	713.82
512.285	727.52
512.74	766.22
513.195	788.52
513.65	769.02
514.105	770.42
514.56	776.82
515.015	797.52
515.47	802.52
515.925	787.73
516.38	788.82
516.835	790.52
517.29	784.12
517.745	784.32
518.2	767.82
518.655	753.22
519.109	750.73
519.564	747.32
520.019	736.82
520.474	733.12
520.928	739.22
521.383	730.62
521.838	715.92
522.292	720.12
522.747	724.32
523.201	728.12
523.656	701.92
524.11	707.23
524.565	701.52
525.019	705.42
525.474	706.62
525.928	713.62
526.382	695.32
526.837	709.42
527.291	721.42
527.745	704.32
528.2	712.02
528.654	694.42
529.108	690.52
529.562	698.92
530.016	701.02
530.47	706.62
530.925	705.12
531.379	703.02
531.833	709.72
532.287	718.22
532.741	710.62
533.195	713.82
533.649	718.12
534.103	713.22
534.556	712.62
535.01	716.62
535.464	716.72
535.918	725.23
536.372	721.22
536.826	721.12
537.279	707.92
537.733	717.42
538.187	721.02
538.64	727.82
539.094	735.52
539.548	734.42
540.001	730.22
540.455	731.32
540.908	745.82
541.362	741.12
541.815	760.12
542.269	776.32
542.722	772.82
543.175	782.52
543.629	787.92
544.082	794.02
544.536	807.92
544.989	805.02
545.442	813.72
545.895	805.22
546.349	811.02
546.802	812.02
547.255	823.32
547.708	817.62
548.161	827.32
548.614	839.22
549.067	854.22
549.52	846.82
549.973	840.02
550.426	830.02
550.879	806.92
551.332	826.12
551.785	827.62
552.238	827.02
552.691	844.12
553.144	859.82
553.596	866.73
554.049	879.22
554.502	904.72
554.955	927.42
555.407	930.82
555.86	923.02
556.313	911.92
556.765	906.02
557.218	895.02
557.67	896.42
558.123	903.42
558.576	896.22
559.028	894.02
559.48	900.32
559.933	892.72
560.385	859.12
560.838	835.12
561.29	816.72
561.742	806.92
562.195	790.92
562.647	785.92
563.099	799.32
563.551	799.72
564.004	805.82
564.456	791.72
564.908	778.12
565.36	754.02
565.812	751.32
566.264	735.42
566.716	736.82
567.168	725.72
567.62	729.52
568.072	712.92
568.524	708.73
568.976	710.72
569.428	699.42
569.88	700.32
570.332	712.52
570.784	707.72
571.235	710.92
571.687	713.62
572.139	721.92
572.59	741.32
573.042	741.22
573.494	732.72
573.945	736.12
574.397	710.32
574.849	709.72
575.3	708.42
575.752	698.82
576.203	688.02
576.655	690.32
577.106	684.02
577.557	687.52
578.009	688.52
578.46	683.82
578.912	674.02
579.363	682.62
579.814	690.32
580.265	686.92
580.717	692.52
581.168	698.42
581.619	703.02
582.07	706.52
582.521	695.82
582.972	691.92
583.423	695.82
583.875	691.62
584.326	709.02
584.777	723.02
585.227	746.92
585.678	771.62
586.129	780.82
586.58	806.42
587.031	836.72
587.482	880.92
587.933	929.42
588.384	898.92
588.834	818.02
589.285	797.52
589.736	791.62
590.186	787.32
590.637	788.52
591.088	765.82
591.538	757.22
591.989	750.52
592.439	749.92
592.89	742.32
593.34	731.52
593.791	724.02
594.241	720.72
594.692	716.32
595.142	720.92
595.593	716.92
596.043	719.42
596.493	727.52
596.943	725.42
597.394	739.72
597.844	729.92
598.294	752.73
598.744	779.02
599.195	807.32
599.645	843.82
600.095	897.62
600.545	960.82
600.995	1003.72
601.445	1072.33
601.895	1118.62
602.345	1168.92
602.795	1152.12
603.245	1114.32
603.695	1048.92
604.145	999.52
604.594	951.92
605.044	891.12
605.494	824.52
605.944	781.82
606.393	766.62
606.843	746.72
607.293	759.32
607.743	748.82
608.192	766.02
608.642	791.32
609.091	787.52
609.541	777.82
609.99	787.62
610.44	777.23
610.889	732.12
611.339	721.02
611.788	710.62
612.238	720.52
612.687	726.22
613.136	715.62
613.586	719.72
614.035	724.92
614.484	736.62
614.933	734.12
615.383	730.62
615.832	732.92
616.281	732.73
616.73	681.82
617.179	672.82
617.628	663.52
618.077	656.62
618.526	649.22
618.975	634.52
619.424	639.42
619.873	632.23
620.322	632.22
620.771	625.12
621.22	623.62
621.669	622.73
622.118	610.02
622.567	589.52
623.015	585.62
623.464	593.62
623.913	580.42
624.361	578.42
624.81	569.52
625.259	560.73
625.707	570.92
626.156	567.92
626.604	585.52
627.053	575.52
627.501	588.32
627.95	590.62
628.398	600.42
628.847	587.52
629.295	593.62
629.744	593.32
630.192	601.82
630.64	589.22
631.089	575.02
631.537	560.42
631.985	554.12
632.433	553.62
632.881	552.02
633.33	561.52
633.778	552.02
634.226	547.92
634.674	561.82
635.122	563.12
635.57	581.72
636.018	577.22
636.466	582.72
636.914	568.72
637.362	584.42
637.81	600.92
638.258	607.62
638.705	607.22
639.153	635.12
639.601	632.92
640.049	666.82
640.497	694.02
640.944	707.92
641.392	666.72
641.84	635.12
642.287	601.12
642.735	586.02
643.182	587.12
643.63	588.32
644.078	580.42
644.525	595.72
644.973	608.12
645.42	608.82
645.867	638.22
646.315	661.82
646.762	684.42
647.21	706.92
647.657	718.12
648.104	763.22
648.551	776.62
648.999	840.32
649.446	913.72
649.893	998.53
650.34	1146.42
650.787	1365.72
651.234	1673.53
651.682	2176.12
652.129	2989.12
652.576	4238.12
653.023	6162.02
653.47	8288.02
653.917	10242.32
654.363	11711.33
654.81	12816.33
655.257	12163.52
655.704	8042.82
656.151	4854.22
656.598	3200.53
657.044	2280.93
657.491	1781.83
657.938	1431.53
658.385	1216.23
658.831	1057.23
659.278	942.22
659.724	846.92
660.171	795.82
660.618	733.02
661.064	698.42
661.511	677.62
661.957	668.32
662.404	656.62
662.85	667.12
663.296	644.72
663.743	569.22
664.189	561.42
664.635	543.52
665.082	546.82
665.528	554.62
665.974	534.62
666.42	525.52
666.867	524.22
667.313	511.92
667.759	479.62
668.205	470.42
668.651	471.73
669.097	472.52
669.543	469.12
669.989	464.32
670.435	457.52
670.881	468.32
671.327	472.02
671.773	487.32
672.219	519.92
672.665	574.42
673.11	616.52
673.556	658.52
674.002	697.62
674.448	681.82
674.893	577.02
675.339	497.32
675.785	462.02
676.23	442.12
676.676	407.82
677.122	406.72
677.567	397.12
678.013	389.12
678.458	378.52
678.904	373.32
679.349	363.82
679.794	371.22
680.24	364.32
680.685	368.82
681.131	366.62
681.576	368.82
682.021	377.02
682.466	374.12
682.912	362.52
683.357	375.92
683.802	396.62
684.247	431.42
684.692	489.42
685.137	532.42
685.583	566.82
686.028	593.42
686.473	543.92
686.918	468.22
687.363	441.12
687.807	413.62
688.252	379.32
688.697	370.52
689.142	352.22
689.587	351.82
690.032	341.72
690.477	358.82
690.921	364.52
691.366	403.22
691.811	422.42
692.255	459.62
692.7	496.82
693.145	539.92
693.589	754.12
694.034	1238.03
694.478	1652.33
694.923	1817.83
695.367	2346.43
695.812	1265.12
696.256	524.72
696.701	390.02
697.145	359.12
697.59	349.62
698.034	341.82
698.478	341.52
698.922	338.82
699.367	330.62
699.811	349.72
700.255	374.73
700.699	408.42
701.143	446.82
701.588	506.62
702.032	545.92
702.476	542.23
702.92	525.02
703.364	524.32
703.808	704.02
704.252	1142.53
704.696	1565.42
705.14	1764.32
705.584	2215.62
706.027	1122.83
706.471	558.62
706.915	427.42
707.359	371.92
707.803	341.32
708.246	330.82
708.69	325.52
709.134	331.92
709.577	327.62
710.021	327.72
710.465	322.62
710.908	320.42
711.352	314.42
711.795	328.32
712.239	375.72
712.682	406.72
713.126	432.62
713.569	474.92
714.012	376.82
714.456	322.82
714.899	306.52
715.342	280.82
715.786	274.52
716.229	278.02
716.672	268.02
717.115	263.02
717.558	262.82
718.002	263.22
718.445	275.52
718.888	294.32
719.331	313.73
719.774	334.02
720.217	322.92
720.66	296.42
721.103	278.52
721.546	270.02
721.989	270.32
722.432	243.72
722.874	252.62
723.317	249.52
723.76	252.72
724.203	274.22
724.645	341.72
725.088	476.62
725.531	606.72
725.974	677.92
726.416	573.82
726.859	321.62
727.301	256.32
727.744	250.23
728.187	237.42
728.629	249.72
729.071	256.42
729.514	276.22
729.956	292.42
730.399	300.02
730.841	305.72
731.283	289.82
731.726	286.02
732.168	275.32
732.61	287.02
733.053	305.62
733.495	339.23
733.937	380.32
734.379	428.72
734.821	469.82
735.263	590.72
735.705	931.62
736.148	1739.33
736.59	2795.02
737.032	3220.62
737.474	2627.12
737.916	876.72
738.357	458.42
738.799	359.72
739.241	312.62
739.683	306.82
740.125	303.92
740.567	320.02
741.008	335.92
741.45	349.22
741.892	346.92
742.334	377.73
742.775	383.92
743.217	367.12
743.658	285.82
744.1	279.52
744.542	283.12
744.983	329.72
745.425	366.02
745.866	369.72
746.307	301.52
746.749	299.72
747.19	351.62
747.632	497.52
748.073	999.82
748.514	2058.02
748.956	3054.12
749.397	3845.82
749.838	3190.52
750.279	3086.53
750.72	1587.02
751.162	588.12
751.603	342.12
752.044	263.62
752.485	233.42
752.926	224.12
753.367	215.52
753.808	200.92
754.249	201.62
754.69	200.92
755.131	189.02
755.572	191.32
756.013	185.12
756.453	192.02
756.894	192.72
757.335	200.23
757.776	204.02
758.216	202.62
758.657	212.62
759.098	216.12
759.538	248.62
759.979	292.62
760.42	418.12
760.86	785.82
761.301	2071.72
761.741	4860.02
762.182	6736.42
762.622	4763.52
763.063	1409.72
763.503	577.22
763.943	351.82
764.384	296.02
764.824	274.82
765.264	261.62
765.705	232.22
766.145	205.12
766.585	191.82
767.025	182.02
767.465	183.32
767.906	197.12
768.346	217.72
768.786	230.02
769.226	243.62
769.666	338.52
770.106	684.42
770.546	1739.22
770.986	2787.93
771.426	2481.62
771.866	846.92
772.306	347.02
772.745	210.92
773.185	181.02
773.625	173.32
774.065	166.52
774.505	172.32
774.944	231.22
775.384	415.92
775.824	664.32
776.263	640.42
776.703	299.82
777.142	172.42
777.582	142.62
778.021	130.12
778.461	133.72
778.9	137.62
779.34	132.82
779.779	115.02
780.219	114.02
780.658	109.42
781.097	116.72
781.537	110.72
781.976	107.82
782.415	110.22
782.855	107.52
783.294	111.92
783.733	110.02
784.172	112.22
784.611	100.62
785.05	116.92
785.489	114.42
785.928	125.62
786.367	130.42
786.806	120.22
787.245	131.32
787.684	137.52
788.123	153.52
788.562	142.02
789.001	135.82
789.44	130.42
789.879	122.72
790.317	131.52
790.756	131.12
791.195	130.52
791.634	153.12
792.072	224.32
792.511	412.23
792.95	1132.03
793.388	2269.92
793.827	1994.22
794.265	712.02
794.704	301.02
795.142	191.02
795.581	153.82
796.019	146.72
796.458	136.12
796.896	129.42
797.334	133.82
797.773	164.92
798.211	244.02
798.649	493.82
799.087	1116.92
799.526	1727.43
799.964	2169.53
800.402	2096.53
800.84	806.62
801.278	328.72
801.716	199.12
802.154	166.12
802.592	162.52
803.03	150.82
803.468	146.02
803.906	159.32
804.344	155.42
804.782	143.42
805.22	141.02
805.658	145.62
806.096	157.32
806.533	172.62
806.971	184.82
807.409	235.12
807.847	353.72
808.284	756.22
808.722	2060.62
809.16	3506.63
809.597	3460.93
810.035	5869.92
810.472	5989.02
810.91	2222.03
811.347	866.73
811.785	431.32
812.222	285.02
812.66	207.52
813.097	171.22
813.535	153.62
813.972	142.62
814.409	129.22
814.846	115.12
815.284	118.82
815.721	103.02
816.158	108.62
816.595	120.42
817.032	164.12
817.47	181.52
817.907	129.62
818.344	106.02
818.781	100.12
819.218	98.22
819.655	133.52
820.092	205.12
820.529	223.42
820.966	178.72
821.403	127.72
821.839	101.32
822.276	106.92
822.713	128.72
823.15	140.62
823.587	130.02
824.023	160.42
824.46	336.32
824.897	984.13
825.333	1424.12
825.77	610.32
826.206	248.92
826.643	142.12
827.08	103.42
827.516	87.42
827.953	78.32
828.389	86.32
828.825	69.42
829.262	69.72
829.698	65.02
830.135	68.62
830.571	64.02
831.007	68.32
831.443	66.72
831.88	64.12
832.316	65.72
832.752	69.82
833.188	68.62
833.624	75.32
834.06	70.22
834.497	73.12
834.933	77.22
835.369	84.92
835.805	71.32
836.241	87.02
836.677	89.32
837.112	100.92
837.548	116.42
837.984	151.32
838.42	223.62
838.856	563.02
839.292	1659.53
839.727	2414.23
840.163	1154.72
840.599	1023.02
841.034	2218.53
841.47	2215.03
841.906	824.12
842.341	362.62
842.777	213.02
843.212	228.22
843.648	205.32
844.083	125.22
844.519	90.92
844.954	77.22
845.39	61.52
845.825	60.12
846.261	63.02
846.696	59.42
847.131	55.22
847.566	60.42
848.002	54.12
848.437	58.92
848.872	64.92
849.307	59.02
849.742	99.82
850.177	199.02
850.613	614.02
851.048	921.02
851.483	395.82
851.918	168.02
852.353	90.32
852.788	64.32
853.223	52.32
853.657	56.22
854.092	50.02
854.527	47.52
854.962	48.52
855.397	47.52
855.832	49.62
856.266	43.32
856.701	42.52
857.136	37.12
857.57	46.62
858.005	56.02
858.44	65.12
858.874	42.32
859.309	52.62
859.743	44.52
860.178	53.52
860.612	45.32
861.047	55.62
861.481	75.52
861.915	72.32
862.35	52.22
862.784	38.92
863.218	41.62
863.653	34.32
864.087	49.82
864.521	61.92
864.955	67.42
865.39	168.92
865.824	179.32
866.258	123.42
866.692	183.42
867.126	188.62
867.56	115.02
867.994	58.92
868.428	42.52
868.862	51.22
869.296	57.92
869.73	61.22
870.164	62.42
870.598	50.42
871.031	35.42
871.465	32.02
871.899	34.52
872.333	24.22
872.766	28.92
873.2	23.72
873.634	34.82
874.067	33.52
874.501	33.42
874.935	32.82
875.368	31.22
875.802	26.92
876.235	29.12
876.669	31.32
877.102	31.12
877.535	28.12
877.969	24.42
878.402	26.12
878.836	26.82
879.269	28.92
879.702	24.12
880.135	30.22
880.569	25.32
881.002	23.82
881.435	20.92
881.868	21.42
882.301	25.52
882.734	18.22
883.167	25.82
883.601	20.22
884.034	21.22
884.467	14.42
884.899	22.82
885.332	18.82
885.765	15.02
886.198	21.52
886.631	20.62
887.064	19.72
887.497	21.52
887.929	25.52
888.362	7.42
888.795	18.02
889.228	19.82
889.66	20.02
890.093	20.82
890.526	18.02
890.958	18.32
891.391	14.42
891.823	25.62
892.256	18.32
892.688	16.12
893.121	17.52
893.553	10.82
893.985	25.32
894.418	17.22
894.85	16.02
895.282	17.12
895.715	16.82
896.147	16.32
896.579	14.12
897.011	15.02
897.444	16.82
897.876	15.02
898.308	22.82
898.74	17.32
899.172	13.72
899.604	23.42
900.036	18.92
900.468	14.72
900.9	14.62
901.332	19.42
901.764	14.42
902.196	25.22
902.628	22.12
903.06	16.92
903.491	28.02
903.923	27.02
904.355	21.12
904.787	28.12
905.218	21.02
905.65	24.32
906.082	11.12
906.513	23.22
906.945	15.42
907.376	13.32
907.808	16.72
908.239	19.52
908.671	20.12
909.102	23.32
909.534	30.12
909.965	49.92
910.397	106.12
910.828	342.52
911.259	494.92
911.691	227.72
912.122	109.12
912.553	56.52
912.984	35.32
913.415	24.82
913.847	27.42
914.278	14.52
914.709	13.82
915.14	19.62
915.571	20.82
916.002	14.02
916.433	21.22
916.864	12.92
917.295	7.12
917.726	27.02
918.157	18.22
918.587	31.62
919.018	23.22
919.449	25.02
919.88	24.12
920.311	32.12
920.741	53.52
921.172	182.42
921.603	154.02
922.033	77.72
922.464	43.22
922.895	23.82
923.325	19.82
923.756	16.02
924.186	7.72
924.617	21.22
925.047	20.42
925.478	25.32
925.908	25.92
926.338	17.12
926.769	13.62
927.199	15.52
927.629	13.42
928.06	18.02
928.49	15.42
928.92	15.22
929.35	14.72
929.78	8.12
930.21	7.22
930.641	9.02
931.071	9.22
931.501	2.92
931.931	8.72
932.361	14.02
932.791	9.02
933.221	2.02
933.651	6.42
934.08	16.72
934.51	31.22
934.94	11.62
935.37	13.12
935.8	14.42
936.229	9.52
936.659	10.62
937.089	6.42
937.519	15.42
937.948	22.12
938.378	19.52
938.807	7.82
939.237	4.92
939.666	9.52
940.096	-5.58
940.525	-1.18
940.955	7.12
941.384	4.32
941.814	-5.28
942.243	1.72
942.672	0.52
943.102	-4.98
943.531	0.32
943.96	2.92
944.39	1.42
944.819	6.32
945.248	3.02
945.677	0.82
946.106	7.02
946.535	2.72
946.964	4.12
947.393	4.32
947.822	4.22
948.251	0.32
948.68	3.22
949.109	8.62
949.538	4.72
949.967	2.22
950.396	3.82
950.825	-2.48
951.254	3.62
951.682	-7.48
952.111	1.02
952.54	2.62
952.969	-3.08
953.397	-0.78
953.826	-1.08
954.254	-2.28
954.683	8.02
955.112	-2.98
955.54	1.92
955.969	4.22
956.397	0.92
956.826	-2.08
957.254	4.12
957.682	2.22
958.111	5.42
958.539	1.22
958.967	0.62
959.396	-3.28
959.824	-3.78
960.252	0.52
960.68	-6.78
961.109	-2.88
961.537	-1.68
961.965	2.52
962.393	4.22
962.821	-4.48
963.249	-1.98
963.677	3.52
964.105	10.92
964.533	44.62
964.961	44.72
965.389	22.72
965.817	5.72
966.245	-1.68
966.672	-2.68
967.1	-2.98
967.528	-3.18
967.956	-3.78
968.383	-2.68
968.811	-3.08
969.239	2.12
969.666	1.02
970.094	2.42
970.522	4.82
970.949	3.82
971.377	-5.58
971.804	-2.78
972.232	-3.08
972.659	-1.98
973.087	1.02
973.514	0.72
973.941	-7.18
974.369	4.32
974.796	5.62
975.223	0.02
975.651	-3.48
976.078	1.12
976.505	-1.28
976.932	7.52
977.359	16.62
977.786	16.22
978.214	0.12
978.641	-0.38
979.068	1.32
979.495	0.42
979.922	-1.28
980.349	-3.18
980.776	0.02
981.202	-3.28
981.629	4.62
982.056	1.42
982.483	-4.58
982.91	2.52
983.337	-4.38
983.763	6.82
984.19	-4.48
984.617	-2.28
985.043	-2.28
985.47	3.52
985.897	-4.78
986.323	-5.28
986.75	5.02
987.176	1.12
987.603	-5.88
988.029	5.82
988.456	0.12
988.882	5.32
989.308	-5.08
989.735	-2.18
990.161	2.52
990.587	-8.28
991.014	-0.98
991.44	10.32
991.866	0.22
992.292	-6.08
992.719	-6.88
993.145	1.72
993.571	-7.78
993.997	-6.58
994.423	-1.88
994.849	-3.18
995.275	2.02
995.701	-3.58
996.127	-2.38
996.553	-4.48
996.979	-9.08
997.405	-2.28
997.83	-6.38
998.256	-2.38
998.682	-4.98
999.108	-11.68
999.534	0.12
999.959	-1.38
1000.385	-0.38
1000.811	2.52
1001.236	-4.98
1001.662	-3.58
1002.087	-9.98
1002.513	-0.28
1002.938	6.42
1003.364	-0.48
1003.789	-6.58
1004.215	6.72
1004.64	-1.08
1005.066	1.32
1005.491	3.62
1005.916	4.52
1006.342	-3.08
1006.767	-7.68
1007.192	3.92
1007.617	-3.88
1008.042	-12.58
1008.468	-9.78
1008.893	-9.18
1009.318	0.02
1009.743	-3.38
1010.168	-3.78
1010.593	-0.48
1011.018	-11.28
1011.443	3.62
1011.868	2.02
1012.293	-5.98
1012.718	-0.88
1013.143	-0.88
1013.567	-4.68
1013.992	-5.38
1014.417	-14.48
1014.842	2.32
1015.267	-1.18
1015.691	-6.88
1016.116	3.42
1016.541	-1.08
1016.965	3.52
1017.39	2.42
1017.814	5.72
1018.239	-3.78
1018.663	-6.08
1019.088	-7.48
1019.512	-3.08
1019.937	1.92
1020.361	-4.28
1020.785	-7.48
1021.21	-2.48
1021.634	-4.48
1022.058	-3.78
1022.483	7.12
1022.907	-3.98
1023.331	-5.88
1023.755	-1.88
1024.179	2.52
1024.604	-7.68
1025.028	-7.28
1025.452	-3.48
1025.876	-11.88
1026.3	1.42
1026.724	-8.38
1027.148	1.22
1027.572	-9.18
1027.996	-2.28
1028.42	-3.68
1028.843	-8.38
1029.267	-7.18
1029.691	1.12
1030.115	-1.58
1030.539	-10.08
1030.962	-4.58
1031.386	-5.18
1031.81	-4.38
1032.233	1.82
1032.657	-5.28
1033.08	1.22
1033.504	-3.88
1033.927	-3.98
1034.351	-0.78
1034.774	-3.58
1035.198	-6.28
1035.621	-8.48
1036.045	-10.58
1036.468	-3.28
1036.891	-9.68
1037.315	-12.48
1037.738	-12.58
1038.161	0.62
1038.584	-4.28
1039.008	-4.78
1039.431	0.82
1039.854	-4.38
1040.277	-9.38
1040.7	-10.48
1041.123	2.62
1041.546	-7.28
1041.969	-5.68
1042.392	-8.78
1042.815	-4.28
1043.238	2.12
1043.661	-2.08
1044.084	-5.98
1044.507	-3.18
1044.93	-7.28
1045.352	-9.08
1045.775	2.32
1046.198	1.32
1046.621	-3.58
1047.043	0.52
1047.466	2.32
1047.889	-4.38
1048.311	-6.48
1048.734	-5.58
1049.156	-1.48
1049.579	-2.18
1050.001	-6.38
1050.424	0.12
1050.846	-7.88
1051.269	-3.48
1051.691	-6.68
1052.113	-9.48
1052.536	-8.18
1052.958	-5.58
1053.38	-6.48
1053.802	-15.98
1054.225	-5.98
1054.647	-9.68
1055.069	-8.18
1055.491	-0.98
1055.913	-10.48
1056.335	-5.78
1056.757	-2.48
1057.179	-6.18
1057.601	-3.18
1058.023	-1.48
1058.445	-5.58
1058.867	-4.38
1059.289	-4.08
1059.711	-4.98
1060.133	-5.28
1060.555	-10.88
1060.976	-10.68
1061.398	-3.08
1061.82	-0.28
1062.241	-10.28
1062.663	-7.28
1063.085	-9.08
1063.506	3.62
1063.928	-6.18
1064.35	-2.88
1064.771	-12.28
1065.193	0.02
1065.614	-3.58
1066.035	-2.18
1066.457	-3.08
1066.878	1.52
1067.3	-1.38
1067.721	-1.88
1068.142	-4.18
1068.564	-5.68
1068.985	-0.18
1069.406	-2.48
1069.827	-4.18
1070.248	2.32
1070.67	-9.58
1071.091	-6.18
1071.512	-3.38
1071.933	-5.08
1072.354	-10.08
1072.775	-9.68
1073.196	-8.58
1073.617	-5.28
1074.038	-9.58
1074.459	-5.48
1074.88	-11.28
1075.3	-0.98
1075.721	-6.48
1076.142	-3.88
1076.563	-2.78
1076.983	-13.08
1077.404	-2.98
1077.825	-12.18
1078.246	-7.78
1078.666	-11.28
1079.087	-3.98
1079.507	-9.58
1079.928	-0.68
1080.348	-1.08
1080.769	-3.58
1081.189	4.52
1081.61	-1.28
1082.03	-3.38
1082.451	-9.58
1082.871	-1.78
1083.291	-10.08
1083.711	-8.38
1084.132	-11.48
1084.552	-4.28
1084.972	-1.48
1085.392	-13.08
1085.813	-11.58
1086.233	-6.28
1086.653	-7.58
1087.073	-3.88
1087.493	-9.58
1087.913	-6.88
1088.333	-8.18
1088.753	-5.98
1089.173	-5.08
1089.593	-6.98
1090.013	-2.98
1090.433	0.12
1090.852	-3.68
1091.272	-2.68
1091.692	-3.78
1092.112	-8.38
1092.531	-11.68
1092.951	-13.08
1093.371	-6.58
1093.79	2.42
1094.21	-2.68
1094.63	-0.18
1095.049	-2.48
1095.469	-1.98
1095.888	-3.28
1096.308	6.32
1096.727	0.82
1097.146	-3.68
1097.566	-4.38
1097.985	0.12
1098.405	-2.08
1098.824	-0.18
1099.243	-6.88
1099.662	-7.48
1100.082	-6.58
1100.501	-5.58
1100.92	-11.58
1101.339	-6.08
1101.758	-4.08
