Data from 20171114-ORNL-Ar_H_NY_Subt18_08-04-55-020.txt Node
Date: Tue Nov 14 08:04:55 EST 2017
User: Ender
Spectrometer: HR+D1039
Trigger mode: 0
Integration Time (sec): 2.730000E-2
Scans to average: 10
Electric dark correction enabled: true
Nonlinearity correction enabled: false
Boxcar width: 0
XAxis mode: Wavelengths
Number of Pixels in Spectrum: 2048
>>>>>Begin Spectral Data<<<<<
187.836	-4.33
188.309	-4.33
188.782	-4.33
189.255	-2.13
189.728	2.57
190.201	3.87
190.674	3.77
191.147	4.77
191.619	-2.43
192.092	7.87
192.565	4.57
193.038	-5.13
193.511	-1.53
193.984	-4.13
194.456	-2.93
194.929	0.47
195.402	-7.13
195.874	1.87
196.347	0.97
196.82	-1.63
197.292	8.57
197.765	-5.43
198.237	-3.63
198.71	1.97
199.182	-3.03
199.655	2.37
200.127	2.97
200.6	-2.03
201.072	-9.33
201.544	-7.73
202.017	-4.53
202.489	-2.63
202.961	-2.33
203.433	-3.73
203.906	-7.13
204.378	-10.23
204.85	3.77
205.322	-9.13
205.794	-2.73
206.266	-8.03
206.739	-9.63
207.211	4.07
207.683	-7.13
208.155	-6.63
208.627	-9.73
209.099	-6.83
209.57	-8.13
210.042	-2.53
210.514	0.87
210.986	-1.93
211.458	-3.03
211.93	3.87
212.402	4.47
212.873	-11.83
213.345	-5.63
213.817	-7.23
214.288	-1.13
214.76	-13.73
215.232	-6.73
215.703	-2.53
216.175	-5.73
216.646	-1.43
217.118	-5.73
217.589	-7.23
218.061	-5.13
218.532	-7.63
219.004	-6.53
219.475	-1.93
219.946	0.37
220.418	-10.33
220.889	1.77
221.36	0.47
221.832	-0.43
222.303	-14.53
222.774	4.37
223.245	-5.33
223.717	-4.93
224.188	-7.93
224.659	-9.43
225.13	-6.03
225.601	-6.43
226.072	3.57
226.543	-2.03
227.014	5.37
227.485	-5.43
227.956	-1.43
228.427	1.97
228.898	2.17
229.369	1.97
229.839	2.17
230.31	-9.43
230.781	1.67
231.252	2.07
231.722	-12.33
232.193	1.77
232.664	2.37
233.135	6.27
233.605	-2.13
234.076	-6.73
234.546	0.37
235.017	-0.53
235.487	-0.53
235.958	-0.83
236.428	0.87
236.899	7.77
237.369	0.67
237.84	-3.53
238.31	13.27
238.78	-1.03
239.251	2.37
239.721	3.27
240.191	1.37
240.662	2.97
241.132	4.77
241.602	2.17
242.072	2.57
242.542	10.37
243.013	-0.63
243.483	3.97
243.953	5.97
244.423	-1.63
244.893	-1.93
245.363	2.67
245.833	2.17
246.303	-1.23
246.773	12.17
247.243	3.57
247.712	5.17
248.182	12.17
248.652	4.17
249.122	3.07
249.592	14.07
250.061	25.77
250.531	35.07
251.001	19.37
251.471	27.67
251.94	17.67
252.41	8.87
252.879	2.97
253.349	17.37
253.818	8.07
254.288	9.67
254.757	5.77
255.227	5.77
255.696	2.27
256.166	12.27
256.635	8.77
257.105	10.17
257.574	13.17
258.043	6.57
258.513	12.17
258.982	17.77
259.451	10.77
259.92	12.67
260.389	14.17
260.859	23.17
261.328	13.67
261.797	26.37
262.266	12.67
262.735	17.17
263.204	7.97
263.673	1.47
264.142	6.37
264.611	0.87
265.08	2.37
265.549	-2.13
266.018	8.37
266.487	-1.83
266.955	4.57
267.424	-0.93
267.893	7.67
268.362	5.27
268.83	9.97
269.299	13.57
269.768	10.17
270.236	10.77
270.705	9.37
271.174	14.37
271.642	9.47
272.111	9.67
272.579	20.37
273.048	29.07
273.516	28.77
273.985	26.27
274.453	25.27
274.922	19.67
275.39	16.07
275.858	5.87
276.327	15.37
276.795	22.67
277.263	12.67
277.731	26.97
278.2	58.97
278.668	72.57
279.136	53.27
279.604	23.77
280.072	15.17
280.54	13.07
281.008	11.97
281.477	15.67
281.945	12.87
282.413	14.97
282.881	16.17
283.348	6.37
283.816	19.07
284.284	11.17
284.752	23.37
285.22	17.27
285.688	17.07
286.156	23.17
286.623	46.17
287.091	54.37
287.559	30.77
288.026	23.67
288.494	19.67
288.962	9.17
289.429	15.27
289.897	20.67
290.364	11.07
290.832	16.57
291.3	19.67
291.767	18.87
292.234	19.47
292.702	13.67
293.169	25.77
293.637	22.27
294.104	25.97
294.571	9.97
295.039	11.17
295.506	18.17
295.973	18.37
296.44	18.47
296.908	22.97
297.375	24.97
297.842	15.37
298.309	18.37
298.776	15.27
299.243	25.17
299.71	14.27
300.177	21.87
300.644	25.87
301.111	23.47
301.578	24.27
302.045	20.47
302.512	32.57
302.979	23.07
303.446	24.27
303.913	19.57
304.379	24.77
304.846	28.47
305.313	27.07
305.78	30.67
306.246	26.17
306.713	31.67
307.18	27.47
307.646	27.97
308.113	27.97
308.579	20.37
309.046	27.87
309.512	27.67
309.979	22.17
310.445	29.67
310.912	34.47
311.378	36.07
311.845	31.97
312.311	33.67
312.777	32.47
313.244	32.47
313.71	38.67
314.176	32.67
314.642	39.37
315.109	36.57
315.575	32.47
316.041	37.97
316.507	33.17
316.973	43.47
317.439	38.57
317.905	35.77
318.371	37.27
318.837	38.47
319.303	38.97
319.769	33.87
320.235	42.67
320.701	41.37
321.167	38.77
321.633	33.57
322.099	42.47
322.564	44.17
323.03	44.87
323.496	40.27
323.962	42.97
324.427	39.67
324.893	45.17
325.359	42.27
325.824	41.07
326.29	40.87
326.755	42.87
327.221	41.27
327.686	44.17
328.152	44.77
328.617	46.57
329.083	45.97
329.548	54.27
330.014	47.07
330.479	45.87
330.944	45.77
331.41	42.17
331.875	45.67
332.34	46.07
332.805	43.67
333.271	45.77
333.736	42.67
334.201	53.87
334.666	50.57
335.131	55.77
335.596	54.97
336.061	56.17
336.526	41.17
336.991	47.07
337.456	61.07
337.921	55.87
338.386	45.07
338.851	44.27
339.316	48.17
339.781	46.57
340.246	49.07
340.711	48.77
341.175	56.57
341.64	47.67
342.105	56.17
342.569	57.37
343.034	59.77
343.499	58.57
343.963	47.57
344.428	63.77
344.893	63.37
345.357	69.97
345.822	61.87
346.286	71.57
346.751	75.87
347.215	68.27
347.679	70.17
348.144	96.07
348.608	90.77
349.073	69.77
349.537	74.77
350.001	78.77
350.465	89.87
350.93	82.87
351.394	87.57
351.858	78.67
352.322	88.67
352.786	83.07
353.25	107.37
353.715	108.97
354.179	100.27
354.643	122.87
355.107	128.87
355.571	105.97
356.035	99.87
356.498	112.57
356.962	131.77
357.426	132.87
357.89	116.87
358.354	94.27
358.818	90.27
359.281	81.67
359.745	71.57
360.209	69.97
360.673	71.17
361.136	84.07
361.6	82.47
362.064	87.27
362.527	82.87
362.991	86.47
363.454	84.57
363.918	77.07
364.381	78.97
364.845	85.47
365.308	82.87
365.772	82.97
366.235	84.87
366.698	83.97
367.162	85.47
367.625	86.17
368.088	86.97
368.552	85.47
369.015	86.17
369.478	98.57
369.941	98.47
370.404	96.07
370.867	103.07
371.331	108.47
371.794	114.57
372.257	110.67
372.72	116.67
373.183	104.47
373.646	104.17
374.109	103.57
374.572	106.47
375.035	103.37
375.497	109.07
375.96	106.17
376.423	104.17
376.886	109.47
377.349	111.77
377.811	96.67
378.274	106.47
378.737	94.77
379.199	106.37
379.662	111.17
380.125	109.27
380.587	114.97
381.05	117.07
381.512	123.27
381.975	127.37
382.437	133.47
382.9	123.07
383.362	120.67
383.825	137.87
384.287	149.27
384.75	132.57
385.212	132.97
385.674	136.67
386.136	134.97
386.599	121.67
387.061	121.77
387.523	125.67
387.985	131.27
388.447	140.47
388.91	138.67
389.372	149.77
389.834	147.17
390.296	142.77
390.758	149.37
391.22	166.57
391.682	200.27
392.144	284.27
392.606	218.67
393.068	162.97
393.529	160.87
393.991	151.17
394.453	138.77
394.915	153.47
395.377	184.37
395.838	210.47
396.3	147.47
396.762	132.97
397.224	131.07
397.685	120.37
398.147	125.97
398.608	124.57
399.07	128.07
399.531	125.37
399.993	133.97
400.454	145.37
400.916	138.17
401.377	142.47
401.839	142.27
402.3	149.07
402.762	162.47
403.223	177.07
403.684	162.17
404.145	156.77
404.607	155.77
405.068	157.27
405.529	169.27
405.99	185.97
406.451	165.47
406.913	169.97
407.374	157.57
407.835	153.47
408.296	166.87
408.757	168.07
409.218	178.17
409.679	173.07
410.14	171.57
410.601	175.57
411.062	176.47
411.522	185.97
411.983	176.97
412.444	171.57
412.905	173.87
413.366	172.27
413.826	187.77
414.287	205.97
414.748	253.37
415.208	234.77
415.669	205.37
416.13	189.17
416.59	194.97
417.051	206.87
417.511	215.67
417.972	228.37
418.432	235.17
418.893	278.17
419.353	239.17
419.814	195.97
420.274	173.57
420.734	175.97
421.195	192.57
421.655	187.37
422.115	184.97
422.576	187.57
423.036	189.67
423.496	191.67
423.956	201.97
424.416	223.17
424.876	257.47
425.336	253.67
425.797	259.37
426.257	248.17
426.717	226.27
427.177	221.47
427.637	218.87
428.097	228.97
428.556	235.77
429.016	263.27
429.476	250.97
429.936	269.57
430.396	265.37
430.856	282.37
431.315	302.97
431.775	332.67
432.235	361.67
432.694	342.47
433.154	353.97
433.614	382.67
434.073	323.57
434.533	279.67
434.993	263.77
435.452	276.57
435.912	282.57
436.371	286.47
436.83	263.07
437.29	263.67
437.749	237.67
438.209	233.27
438.668	261.67
439.127	278.57
439.587	258.17
440.046	239.47
440.505	256.77
440.964	266.97
441.424	306.27
441.883	289.27
442.342	250.57
442.801	218.37
443.26	211.07
443.719	209.67
444.178	210.27
444.637	204.37
445.096	209.37
445.555	214.97
446.014	211.67
446.473	213.87
446.932	220.07
447.391	216.27
447.849	214.37
448.308	210.57
448.767	215.67
449.226	226.17
449.685	227.07
450.143	239.47
450.602	225.27
451.061	217.97
451.519	227.57
451.978	227.87
452.436	227.17
452.895	230.47
453.353	236.37
453.812	231.87
454.27	228.47
454.729	228.37
455.187	235.27
455.646	234.87
456.104	241.17
456.562	246.97
457.021	256.77
457.479	242.77
457.937	256.47
458.395	248.57
458.854	240.07
459.312	239.37
459.77	258.77
460.228	247.67
460.686	235.57
461.144	241.57
461.602	229.87
462.06	231.17
462.518	242.27
462.976	247.37
463.434	247.17
463.892	259.37
464.35	270.07
464.808	279.67
465.266	263.57
465.724	257.67
466.181	261.27
466.639	256.47
467.097	273.17
467.555	284.17
468.012	287.67
468.47	296.57
468.928	304.17
469.385	325.37
469.843	334.47
470.3	331.97
470.758	341.87
471.215	367.27
471.673	391.67
472.13	386.87
472.588	396.87
473.045	351.27
473.503	360.57
473.96	376.27
474.417	387.97
474.875	413.67
475.332	455.17
475.789	447.17
476.246	442.67
476.704	472.47
477.161	482.47
477.618	494.37
478.075	538.07
478.532	588.27
478.989	662.67
479.446	777.97
479.903	732.37
480.36	782.37
480.817	831.17
481.274	926.17
481.731	1038.67
482.188	1126.17
482.645	1265.77
483.102	1373.87
483.558	1503.47
484.015	1543.57
484.472	1528.57
484.929	1483.47
485.385	1439.97
485.842	1402.67
486.299	1337.67
486.755	1265.87
487.212	1049.27
487.668	890.37
488.125	817.07
488.582	754.27
489.038	719.37
489.494	690.07
489.951	656.87
490.407	639.17
490.864	625.07
491.32	614.97
491.776	611.17
492.233	616.97
492.689	596.07
493.145	573.27
493.602	572.77
494.058	587.87
494.514	592.27
494.97	603.87
495.426	621.17
495.882	606.77
496.338	586.27
496.794	601.77
497.251	598.07
497.707	618.37
498.163	611.77
498.618	629.87
499.074	625.97
499.53	647.57
499.986	657.17
500.442	628.67
500.898	599.07
501.354	597.67
501.809	616.97
502.265	614.27
502.721	635.07
503.177	639.97
503.632	634.27
504.088	648.27
504.543	679.37
504.999	678.97
505.455	630.27
505.91	602.67
506.366	609.97
506.821	603.07
507.277	594.27
507.732	601.67
508.187	602.17
508.643	601.87
509.098	605.87
509.553	625.77
510.009	633.77
510.464	638.17
510.919	660.67
511.375	659.17
511.83	688.17
512.285	695.37
512.74	726.77
513.195	749.67
513.65	749.27
514.105	733.77
514.56	734.47
515.015	757.27
515.47	779.37
515.925	762.67
516.38	758.77
516.835	763.97
517.29	761.67
517.745	733.57
518.2	737.37
518.655	721.07
519.109	715.17
519.564	708.37
520.019	696.97
520.474	697.87
520.928	695.77
521.383	696.97
521.838	686.07
522.292	680.47
522.747	677.77
523.201	675.87
523.656	658.07
524.11	654.17
524.565	672.37
525.019	650.17
525.474	673.97
525.928	674.37
526.382	673.87
526.837	671.87
527.291	673.77
527.745	658.47
528.2	659.07
528.654	659.37
529.108	651.67
529.562	652.77
530.016	660.87
530.47	659.57
530.925	653.57
531.379	663.97
531.833	667.67
532.287	677.27
532.741	672.77
533.195	667.37
533.649	686.47
534.103	700.27
534.556	687.37
535.01	672.77
535.464	674.97
535.918	691.37
536.372	687.67
536.826	681.67
537.279	680.47
537.733	673.97
538.187	676.67
538.64	685.17
539.094	689.97
539.548	696.67
540.001	689.27
540.455	688.07
540.908	685.57
541.362	700.47
541.815	701.97
542.269	716.07
542.722	722.47
543.175	723.27
543.629	729.77
544.082	738.57
544.536	745.97
544.989	731.07
545.442	758.07
545.895	752.37
546.349	744.17
546.802	744.37
547.255	754.07
547.708	757.37
548.161	766.97
548.614	785.17
549.067	785.07
549.52	776.17
549.973	770.87
550.426	769.87
550.879	756.47
551.332	767.07
551.785	763.17
552.238	762.47
552.691	779.87
553.144	789.37
553.596	801.07
554.049	811.77
554.502	847.17
554.955	873.37
555.407	859.17
555.86	865.47
556.313	844.67
556.765	833.77
557.218	843.47
557.67	827.97
558.123	833.47
558.576	823.77
559.028	826.57
559.48	831.97
559.933	823.97
560.385	788.77
560.838	769.27
561.29	738.27
561.742	743.67
562.195	719.07
562.647	710.67
563.099	720.47
563.551	721.47
564.004	736.07
564.456	725.97
564.908	718.17
565.36	697.47
565.812	686.27
566.264	693.77
566.716	694.47
567.168	676.67
567.62	683.67
568.072	661.47
568.524	650.57
568.976	649.07
569.428	631.07
569.88	631.67
570.332	634.67
570.784	640.57
571.235	648.27
571.687	648.97
572.139	666.17
572.59	661.37
573.042	667.47
573.494	663.77
573.945	651.27
574.397	644.97
574.849	646.07
575.3	640.07
575.752	649.37
576.203	633.37
576.655	636.17
577.106	618.57
577.557	618.47
578.009	617.67
578.46	614.37
578.912	614.87
579.363	617.97
579.814	620.97
580.265	619.47
580.717	629.87
581.168	623.27
581.619	631.07
582.07	627.77
582.521	626.07
582.972	634.77
583.423	640.17
583.875	637.27
584.326	655.97
584.777	701.07
585.227	764.17
585.678	850.27
586.129	941.97
586.58	1023.17
587.031	1102.77
587.482	1253.27
587.933	1430.97
588.384	1240.77
588.834	904.97
589.285	751.47
589.736	727.27
590.186	716.17
590.637	710.17
591.088	687.57
591.538	677.17
591.989	683.07
592.439	671.17
592.89	671.97
593.34	655.27
593.791	654.77
594.241	649.97
594.692	662.17
595.142	643.67
595.593	644.07
596.043	651.27
596.493	659.67
596.943	654.67
597.394	659.47
597.844	655.47
598.294	675.27
598.744	695.67
599.195	713.87
599.645	742.47
600.095	785.37
600.545	835.47
600.995	884.47
601.445	945.77
601.895	1000.87
602.345	1048.57
602.795	1026.17
603.245	992.47
603.695	926.87
604.145	880.17
604.594	840.17
605.044	784.67
605.494	731.17
605.944	683.77
606.393	680.27
606.843	668.07
607.293	679.97
607.743	676.07
608.192	680.97
608.642	685.77
609.091	703.17
609.541	709.77
609.99	703.87
610.44	698.67
610.889	654.27
611.339	637.27
611.788	623.37
612.238	640.47
612.687	661.37
613.136	648.67
613.586	676.07
614.035	671.47
614.484	686.27
614.933	695.17
615.383	680.07
615.832	672.27
616.281	664.87
616.73	627.97
617.179	610.07
617.628	589.67
618.077	582.47
618.526	566.47
618.975	565.57
619.424	559.07
619.873	550.57
620.322	560.47
620.771	551.17
621.22	548.47
621.669	544.57
622.118	532.47
622.567	525.87
623.015	513.87
623.464	520.17
623.913	510.17
624.361	501.67
624.81	499.37
625.259	510.47
625.707	502.57
626.156	509.57
626.604	512.27
627.053	512.07
627.501	513.77
627.95	511.67
628.398	515.67
628.847	510.07
629.295	526.77
629.744	524.97
630.192	515.87
630.64	526.47
631.089	512.97
631.537	526.67
631.985	532.77
632.433	541.37
632.881	551.67
633.33	588.67
633.778	569.67
634.226	504.97
634.674	522.57
635.122	522.57
635.57	540.57
636.018	573.37
636.466	522.57
636.914	502.27
637.362	516.17
637.81	513.57
638.258	517.77
638.705	511.27
639.153	539.27
639.601	550.47
640.049	573.47
640.497	612.17
640.944	624.27
641.392	576.97
641.84	548.57
642.287	520.97
642.735	508.67
643.182	520.77
643.63	523.17
644.078	520.07
644.525	534.27
644.973	536.77
645.42	548.67
645.867	559.07
646.315	569.97
646.762	600.97
647.21	612.37
647.657	644.27
648.104	674.17
648.551	695.77
648.999	745.47
649.446	817.07
649.893	902.97
650.34	1032.07
650.787	1239.87
651.234	1542.07
651.682	2009.67
652.129	2749.47
652.576	3957.17
653.023	5887.17
653.47	8109.27
653.917	10227.47
654.363	11937.57
654.81	13347.47
655.257	12699.77
655.704	8237.87
656.151	4834.97
656.598	3131.77
657.044	2207.47
657.491	1702.17
657.938	1350.27
658.385	1122.47
658.831	983.07
659.278	862.67
659.724	775.77
660.171	701.17
660.618	648.87
661.064	616.77
661.511	591.47
661.957	587.77
662.404	567.57
662.85	578.87
663.296	551.77
663.743	502.17
664.189	477.57
664.635	477.57
665.082	477.47
665.528	466.77
665.974	455.67
666.42	456.17
666.867	451.27
667.313	441.87
667.759	431.57
668.205	435.67
668.651	433.07
669.097	429.07
669.543	455.67
669.989	427.27
670.435	399.77
670.881	398.97
671.327	396.27
671.773	417.17
672.219	434.17
672.665	480.07
673.11	516.27
673.556	556.07
674.002	594.57
674.448	581.07
674.893	484.57
675.339	424.87
675.785	391.07
676.23	369.07
676.676	347.87
677.122	335.37
677.567	335.27
678.013	330.37
678.458	317.67
678.904	309.97
679.349	304.77
679.794	314.37
680.24	311.97
680.685	317.47
681.131	302.97
681.576	304.07
682.021	311.97
682.466	302.47
682.912	302.77
683.357	305.77
683.802	332.47
684.247	354.87
684.692	404.57
685.137	432.47
685.583	471.37
686.028	495.87
686.473	464.47
686.918	392.57
687.363	371.27
687.807	343.87
688.252	324.57
688.697	307.17
689.142	292.47
689.587	289.07
690.032	289.87
690.477	299.57
690.921	306.37
691.366	328.57
691.811	341.57
692.255	383.07
692.7	407.77
693.145	435.47
693.589	598.87
694.034	962.07
694.478	1342.37
694.923	1548.57
695.367	2043.57
695.812	1059.67
696.256	442.17
696.701	327.67
697.145	303.07
697.59	294.07
698.034	275.17
698.478	287.47
698.922	288.77
699.367	286.67
699.811	295.27
700.255	311.07
700.699	343.97
701.143	373.77
701.588	420.87
702.032	458.27
702.476	444.47
702.92	427.27
703.364	429.17
703.808	543.37
704.252	885.57
704.696	1253.87
705.14	1480.07
705.584	1913.97
706.027	949.17
706.471	460.57
706.915	348.47
707.359	303.77
707.803	275.67
708.246	274.87
708.69	274.17
709.134	273.27
709.577	275.17
710.021	280.77
710.465	268.07
710.908	255.17
711.352	261.67
711.795	265.57
712.239	304.57
712.682	338.67
713.126	366.67
713.569	410.37
714.012	321.77
714.456	289.87
714.899	267.07
715.342	238.87
715.786	222.97
716.229	228.17
716.672	226.87
717.115	222.67
717.558	216.67
718.002	214.17
718.445	232.97
718.888	247.77
719.331	255.67
719.774	271.37
720.217	274.87
720.66	245.07
721.103	224.47
721.546	226.77
721.989	221.47
722.432	207.27
722.874	199.87
723.317	201.47
723.76	203.97
724.203	232.67
724.645	278.27
725.088	376.07
725.531	488.77
725.974	561.57
726.416	485.87
726.859	272.97
727.301	214.87
727.744	213.67
728.187	201.57
728.629	207.77
729.071	212.37
729.514	233.37
729.956	234.27
730.399	247.07
730.841	250.27
731.283	242.07
731.726	232.67
732.168	225.47
732.61	233.57
733.053	244.67
733.495	267.67
733.937	299.47
734.379	345.37
734.821	370.47
735.263	468.07
735.705	708.87
736.148	1339.37
736.59	2211.97
737.032	2737.77
737.474	2230.27
737.916	715.27
738.357	373.67
738.799	290.47
739.241	262.57
739.683	240.47
740.125	251.07
740.567	264.37
741.008	273.07
741.45	277.27
741.892	277.47
742.334	302.17
742.775	316.67
743.217	305.07
743.658	235.17
744.1	221.47
744.542	220.87
744.983	277.37
745.425	300.77
745.866	303.07
746.307	246.67
746.749	249.37
747.19	281.27
747.632	386.47
748.073	737.07
748.514	1579.07
748.956	2493.37
749.397	3113.97
749.838	2602.97
750.279	2654.97
750.72	1325.27
751.162	476.37
751.603	274.47
752.044	220.27
752.485	181.27
752.926	183.67
753.367	170.47
753.808	171.67
754.249	163.77
754.69	162.07
755.131	154.87
755.572	157.47
756.013	158.27
756.453	160.77
756.894	169.17
757.335	165.67
757.776	178.57
758.216	181.87
758.657	173.37
759.098	174.17
759.538	191.57
759.979	229.47
760.42	320.67
760.86	597.67
761.301	1523.07
761.741	3788.27
762.182	5792.27
762.622	4043.87
763.063	1146.97
763.503	472.97
763.943	299.87
764.384	288.87
764.824	366.27
765.264	400.47
765.705	273.77
766.145	179.37
766.585	161.87
767.025	154.17
767.465	156.17
767.906	217.87
768.346	281.17
768.786	307.77
769.226	237.17
769.666	271.27
770.106	520.77
770.546	1316.67
770.986	2347.47
771.426	2122.17
771.866	691.77
772.306	284.77
772.745	190.87
773.185	157.07
773.625	148.77
774.065	143.87
774.505	175.97
774.944	268.87
775.384	590.57
775.824	1122.07
776.263	1116.17
776.703	461.37
777.142	200.07
777.582	139.47
778.021	117.57
778.461	120.57
778.9	122.27
779.34	114.97
779.779	93.27
780.219	95.37
780.658	91.47
781.097	91.97
781.537	100.47
781.976	102.37
782.415	92.47
782.855	91.17
783.294	88.37
783.733	90.97
784.172	85.77
784.611	91.97
785.05	92.27
785.489	96.77
785.928	103.47
786.367	106.37
786.806	108.47
787.245	111.37
787.684	111.17
788.123	132.17
788.562	121.07
789.001	106.67
789.44	106.17
789.879	99.37
790.317	101.87
790.756	110.97
791.195	111.27
791.634	127.37
792.072	172.17
792.511	303.07
792.95	843.57
793.388	1882.17
793.827	1745.57
794.265	592.77
794.704	245.67
795.142	158.27
795.581	130.07
796.019	121.07
796.458	107.87
796.896	98.87
797.334	113.37
797.773	134.87
798.211	185.27
798.649	359.17
799.087	880.17
799.526	1375.77
799.964	1737.87
800.402	1794.77
800.84	667.47
801.278	265.37
801.716	161.27
802.154	140.77
802.592	126.57
803.03	126.07
803.468	118.77
803.906	120.37
804.344	130.37
804.782	121.77
805.22	112.67
805.658	107.57
806.096	130.77
806.533	133.07
806.971	150.07
807.409	193.67
807.847	273.37
808.284	555.87
808.722	1583.57
809.16	2897.97
809.597	2691.27
810.035	4718.67
810.472	5204.67
810.91	1843.17
811.347	690.77
811.785	348.97
812.222	230.57
812.66	171.67
813.097	140.27
813.535	120.87
813.972	109.77
814.409	101.27
814.846	96.87
815.284	93.97
815.721	93.57
816.158	95.77
816.595	102.37
817.032	151.97
817.47	176.57
817.907	144.87
818.344	135.27
818.781	106.57
819.218	89.67
819.655	105.37
820.092	166.67
820.529	191.57
820.966	158.47
821.403	119.97
821.839	103.27
822.276	90.47
822.713	104.27
823.15	116.77
823.587	106.17
824.023	130.07
824.46	253.17
824.897	772.07
825.333	1206.37
825.77	513.67
826.206	198.47
826.643	116.97
827.08	80.27
827.516	71.17
827.953	66.77
828.389	67.47
828.825	68.47
829.262	55.37
829.698	55.37
830.135	57.17
830.571	53.57
831.007	59.97
831.443	60.37
831.88	59.67
832.316	49.17
832.752	56.17
833.188	63.97
833.624	63.17
834.06	57.07
834.497	58.67
834.933	53.97
835.369	64.07
835.805	61.47
836.241	66.67
836.677	70.57
837.112	74.97
837.548	94.27
837.984	114.27
838.42	174.27
838.856	410.47
839.292	1312.07
839.727	2059.87
840.163	942.47
840.599	794.87
841.034	1756.57
841.47	1919.87
841.906	690.07
842.341	284.07
842.777	203.17
843.212	281.47
843.648	276.47
844.083	132.27
844.519	86.27
844.954	66.97
845.39	51.77
845.825	37.87
846.261	46.67
846.696	40.07
847.131	46.47
847.566	47.77
848.002	44.37
848.437	51.67
848.872	49.37
849.307	52.87
849.742	69.87
850.177	148.57
850.613	474.37
851.048	780.57
851.483	329.97
851.918	131.77
852.353	75.37
852.788	52.97
853.223	53.07
853.657	44.17
854.092	46.67
854.527	35.47
854.962	39.97
855.397	38.17
855.832	48.47
856.266	39.47
856.701	36.67
857.136	35.57
857.57	37.17
858.005	45.87
858.44	53.37
858.874	38.87
859.309	46.17
859.743	41.27
860.178	37.77
860.612	36.57
861.047	45.07
861.481	63.27
861.915	65.57
862.35	40.27
862.784	28.57
863.218	29.27
863.653	29.87
864.087	39.27
864.521	45.97
864.955	63.47
865.39	129.87
865.824	151.87
866.258	98.87
866.692	142.57
867.126	163.67
867.56	95.97
867.994	45.07
868.428	27.67
868.862	37.17
869.296	44.87
869.73	49.57
870.164	41.57
870.598	36.37
871.031	36.47
871.465	29.27
871.899	27.27
872.333	19.67
872.766	21.77
873.2	21.77
873.634	20.97
874.067	19.27
874.501	23.97
874.935	32.17
875.368	25.57
875.802	24.97
876.235	18.37
876.669	18.27
877.102	15.37
877.535	26.17
877.969	19.87
878.402	25.57
878.836	16.87
879.269	23.27
879.702	19.37
880.135	20.87
880.569	19.07
881.002	25.97
881.435	23.57
881.868	13.67
882.301	20.47
882.734	16.67
883.167	21.77
883.601	8.87
884.034	26.97
884.467	12.67
884.899	17.37
885.332	13.07
885.765	7.27
886.198	9.57
886.631	15.87
887.064	19.27
887.497	14.77
887.929	24.97
888.362	8.67
888.795	11.77
889.228	15.87
889.66	16.27
890.093	12.07
890.526	11.57
890.958	15.77
891.391	12.97
891.823	18.97
892.256	11.77
892.688	12.77
893.121	13.77
893.553	16.67
893.985	22.57
894.418	15.97
894.85	9.17
895.282	12.27
895.715	14.37
896.147	17.37
896.579	13.77
897.011	20.27
897.444	16.37
897.876	15.47
898.308	8.57
898.74	16.27
899.172	9.77
899.604	26.77
900.036	20.37
900.468	9.17
900.9	6.57
901.332	13.67
901.764	8.67
902.196	15.87
902.628	22.47
903.06	12.47
903.491	27.17
903.923	19.07
904.355	16.67
904.787	21.37
905.218	17.37
905.65	21.17
906.082	13.07
906.513	9.37
906.945	14.17
907.376	9.97
907.808	16.37
908.239	24.07
908.671	18.47
909.102	21.47
909.534	20.77
909.965	44.37
910.397	78.57
910.828	275.17
911.259	421.47
911.691	192.97
912.122	90.57
912.553	50.07
912.984	28.17
913.415	19.07
913.847	22.57
914.278	14.57
914.709	7.77
915.14	13.87
915.571	13.37
916.002	5.07
916.433	17.87
916.864	15.17
917.295	17.97
917.726	19.07
918.157	15.77
918.587	26.87
919.018	19.27
919.449	18.07
919.88	23.87
920.311	21.27
920.741	42.27
921.172	148.77
921.603	125.07
922.033	59.67
922.464	35.57
922.895	20.87
923.325	16.47
923.756	10.37
924.186	12.97
924.617	22.77
925.047	38.27
925.478	51.87
925.908	39.57
926.338	20.77
926.769	15.47
927.199	18.87
927.629	8.97
928.06	14.57
928.49	10.07
928.92	9.47
929.35	11.57
929.78	12.27
930.21	5.67
930.641	9.17
931.071	5.17
931.501	2.27
931.931	6.17
932.361	6.67
932.791	5.17
933.221	6.37
933.651	2.77
934.08	12.37
934.51	36.77
934.94	9.17
935.37	2.37
935.8	6.77
936.229	8.37
936.659	10.47
937.089	3.87
937.519	13.67
937.948	24.47
938.378	20.17
938.807	8.97
939.237	6.87
939.666	7.37
940.096	-9.43
940.525	1.27
940.955	4.07
941.384	4.27
941.814	-4.13
942.243	-4.13
942.672	-0.63
943.102	3.97
943.531	7.17
943.96	10.87
944.39	3.27
944.819	0.37
945.248	2.97
945.677	5.57
946.106	0.87
946.535	11.67
946.964	1.67
947.393	4.97
947.822	4.57
948.251	-8.03
948.68	5.17
949.109	0.17
949.538	-0.33
949.967	1.47
950.396	1.27
950.825	4.57
951.254	2.37
951.682	-3.03
952.111	0.07
952.54	7.77
952.969	1.77
953.397	-6.33
953.826	3.97
954.254	-3.43
954.683	1.17
955.112	-4.53
955.54	3.87
955.969	2.57
956.397	1.77
956.826	-5.63
957.254	2.67
957.682	0.67
958.111	4.27
958.539	-1.53
958.967	3.47
959.396	-0.43
959.824	0.97
960.252	3.87
960.68	-0.73
961.109	-1.13
961.537	-2.13
961.965	-0.23
962.393	-1.03
962.821	-4.13
963.249	4.77
963.677	-1.03
964.105	1.97
964.533	40.57
964.961	43.57
965.389	17.97
965.817	6.87
966.245	4.77
966.672	2.17
967.1	-1.83
967.528	-2.03
967.956	0.97
968.383	-3.03
968.811	-2.33
969.239	-2.33
969.666	-7.23
970.094	-2.63
970.522	-5.73
970.949	-0.23
971.377	-4.83
971.804	0.17
972.232	-0.03
972.659	0.67
973.087	-4.33
973.514	-1.53
973.941	-5.23
974.369	4.37
974.796	6.27
975.223	-2.33
975.651	2.87
976.078	0.17
976.505	-0.23
976.932	-1.43
977.359	14.87
977.786	16.77
978.214	-1.53
978.641	-2.13
979.068	-3.03
979.495	2.47
979.922	2.57
980.349	-1.83
980.776	3.87
981.202	-0.73
981.629	1.77
982.056	2.27
982.483	0.37
982.91	4.97
983.337	-4.33
983.763	-2.83
984.19	-7.93
984.617	-7.83
985.043	-7.73
985.47	-4.93
985.897	-3.53
986.323	-3.33
986.75	-1.73
987.176	3.57
987.603	-0.73
988.029	-1.83
988.456	-6.53
988.882	6.47
989.308	-8.53
989.735	-6.13
990.161	-1.03
990.587	-10.43
991.014	0.97
991.44	11.27
991.866	5.47
992.292	-10.03
992.719	-4.93
993.145	1.77
993.571	-9.43
993.997	-9.93
994.423	-2.53
994.849	-1.43
995.275	-4.23
995.701	2.47
996.127	-3.43
996.553	3.97
996.979	-2.33
997.405	0.37
997.83	-0.33
998.256	-6.43
998.682	-0.53
999.108	-4.63
999.534	-0.13
999.959	-2.83
1000.385	-1.23
1000.811	1.97
1001.236	-3.33
1001.662	-0.53
1002.087	-12.43
1002.513	4.27
1002.938	-1.13
1003.364	6.17
1003.789	-1.63
1004.215	6.87
1004.64	6.37
1005.066	5.37
1005.491	1.87
1005.916	0.77
1006.342	1.87
1006.767	-11.33
1007.192	9.27
1007.617	-6.43
1008.042	-3.63
1008.468	-4.03
1008.893	-1.63
1009.318	-2.33
1009.743	-3.03
1010.168	2.17
1010.593	1.57
1011.018	-3.43
1011.443	-4.63
1011.868	0.37
1012.293	-5.23
1012.718	-4.33
1013.143	2.87
1013.567	0.17
1013.992	0.67
1014.417	-13.03
1014.842	5.97
1015.267	-7.73
1015.691	-3.63
1016.116	4.57
1016.541	-2.73
1016.965	6.17
1017.39	2.87
1017.814	-2.53
1018.239	0.97
1018.663	-9.33
1019.088	-11.13
1019.512	-3.33
1019.937	-1.83
1020.361	-6.03
1020.785	-10.63
1021.21	-3.83
1021.634	-2.33
1022.058	-1.43
1022.483	3.27
1022.907	1.47
1023.331	-5.63
1023.755	-4.03
1024.179	3.67
1024.604	-12.63
1025.028	-4.13
1025.452	-5.13
1025.876	1.77
1026.3	4.17
1026.724	-13.73
1027.148	-0.53
1027.572	-12.93
1027.996	0.57
1028.42	1.77
1028.843	-2.93
1029.267	-8.03
1029.691	-5.23
1030.115	-6.53
1030.539	-4.23
1030.962	-4.73
1031.386	-13.23
1031.81	1.37
1032.233	1.37
1032.657	-0.83
1033.08	-2.23
1033.504	-1.23
1033.927	-3.73
1034.351	-4.43
1034.774	-4.43
1035.198	-3.93
1035.621	-5.53
1036.045	-7.83
1036.468	-0.63
1036.891	-10.13
1037.315	-8.53
1037.738	-5.03
1038.161	0.27
1038.584	-3.93
1039.008	-8.93
1039.431	-3.63
1039.854	-4.93
1040.277	-6.83
1040.7	-15.33
1041.123	-3.23
1041.546	-6.23
1041.969	-6.83
1042.392	-6.03
1042.815	-1.63
1043.238	1.77
1043.661	1.67
1044.084	-9.53
1044.507	-2.23
1044.93	-3.63
1045.352	0.07
1045.775	2.77
1046.198	-4.33
1046.621	-4.03
1047.043	-1.63
1047.466	3.67
1047.889	-0.93
1048.311	-0.43
1048.734	-0.83
1049.156	-0.63
1049.579	-0.93
1050.001	-0.63
1050.424	1.87
1050.846	-2.03
1051.269	-2.53
1051.691	-0.73
1052.113	-9.33
1052.536	-0.73
1052.958	-1.73
1053.38	-6.93
1053.802	-10.73
1054.225	-0.83
1054.647	-6.93
1055.069	-5.53
1055.491	3.97
1055.913	-11.43
1056.335	-1.23
1056.757	-3.73
1057.179	-9.43
1057.601	-8.33
1058.023	-7.63
1058.445	-8.63
1058.867	-6.73
1059.289	4.77
1059.711	-7.43
1060.133	-2.63
1060.555	-8.33
1060.976	-4.73
1061.398	-0.53
1061.82	-1.53
1062.241	-2.13
1062.663	-7.33
1063.085	0.37
1063.506	0.67
1063.928	-0.93
1064.35	-1.23
1064.771	-6.83
1065.193	-6.13
1065.614	-10.23
1066.035	-0.83
1066.457	-9.03
1066.878	5.17
1067.3	-4.53
1067.721	0.37
1068.142	-3.83
1068.564	3.37
1068.985	-1.43
1069.406	-9.73
1069.827	-1.83
1070.248	-2.63
1070.67	-1.63
1071.091	-5.63
1071.512	-4.13
1071.933	-8.13
1072.354	-10.83
1072.775	-6.03
1073.196	-8.33
1073.617	-2.53
1074.038	-10.93
1074.459	-1.83
1074.88	-12.03
1075.3	-4.03
1075.721	-3.33
1076.142	-0.93
1076.563	1.17
1076.983	-7.63
1077.404	-7.63
1077.825	-8.03
1078.246	-9.43
1078.666	-12.73
1079.087	-5.03
1079.507	-5.43
1079.928	3.67
1080.348	0.97
1080.769	-4.43
1081.189	0.17
1081.61	-6.83
1082.03	-6.73
1082.451	-11.13
1082.871	-2.93
1083.291	-6.73
1083.711	-11.33
1084.132	-8.53
1084.552	-8.83
1084.972	-2.13
1085.392	-15.23
1085.813	-8.23
1086.233	-7.93
1086.653	-4.63
1087.073	-5.33
1087.493	-6.63
1087.913	-7.13
1088.333	-7.93
1088.753	-6.83
1089.173	-1.03
1089.593	-4.13
1090.013	-5.73
1090.433	1.67
1090.852	-7.63
1091.272	1.07
1091.692	-0.33
1092.112	3.17
1092.531	-9.43
1092.951	-13.93
1093.371	1.57
1093.79	0.67
1094.21	-0.93
1094.63	-4.13
1095.049	-6.43
1095.469	-1.93
1095.888	-0.43
1096.308	0.37
1096.727	5.67
1097.146	-7.53
1097.566	2.17
1097.985	-12.03
1098.405	-4.43
1098.824	-7.93
1099.243	-6.13
1099.662	-11.13
1100.082	-3.83
1100.501	-6.03
1100.92	-0.93
1101.339	-6.33
1101.758	-2.03
