Data from 20171114-ORNL-Ar_H_NY_Subt18_08-05-15-220.txt Node
Date: Tue Nov 14 08:05:15 EST 2017
User: Ender
Spectrometer: HR+D1039
Trigger mode: 0
Integration Time (sec): 2.730000E-2
Scans to average: 10
Electric dark correction enabled: true
Nonlinearity correction enabled: false
Boxcar width: 0
XAxis mode: Wavelengths
Number of Pixels in Spectrum: 2048
>>>>>Begin Spectral Data<<<<<
187.836	-5.81
188.309	-5.81
188.782	-5.81
189.255	4.79
189.728	-1.11
190.201	3.09
190.674	4.19
191.147	3.09
191.619	-11.81
192.092	1.09
192.565	2.79
193.038	1.29
193.511	-0.81
193.984	-0.61
194.456	-4.41
194.929	1.09
195.402	-0.61
195.874	3.69
196.347	-1.01
196.82	-8.01
197.292	1.59
197.765	-3.41
198.237	-8.21
198.71	5.19
199.182	-2.31
199.655	6.09
200.127	-0.11
200.6	-3.41
201.072	0.49
201.544	-6.01
202.017	-1.51
202.489	1.79
202.961	-1.41
203.433	-2.51
203.906	-6.71
204.378	-9.61
204.85	-2.31
205.322	-10.51
205.794	1.79
206.266	3.09
206.739	-4.61
207.211	5.19
207.683	-5.61
208.155	-5.51
208.627	-3.61
209.099	-3.01
209.57	-11.11
210.042	-5.71
210.514	-4.01
210.986	3.19
211.458	-10.41
211.93	-4.41
212.402	2.09
212.873	-9.11
213.345	-7.71
213.817	-13.11
214.288	-4.01
214.76	-7.61
215.232	0.29
215.703	-6.91
216.175	2.09
216.646	-5.71
217.118	-3.11
217.589	-8.01
218.061	-3.81
218.532	-6.61
219.004	-1.61
219.475	-1.61
219.946	-2.71
220.418	-6.81
220.889	-1.31
221.36	-4.71
221.832	-1.61
222.303	-10.11
222.774	-2.61
223.245	-13.51
223.717	-6.91
224.188	-3.91
224.659	-8.11
225.13	-2.61
225.601	-4.51
226.072	2.19
226.543	1.89
227.014	0.49
227.485	2.19
227.956	-6.11
228.427	1.39
228.898	-2.71
229.369	4.29
229.839	-3.51
230.31	-3.41
230.781	1.69
231.252	-5.61
231.722	-7.21
232.193	-5.81
232.664	2.09
233.135	0.79
233.605	3.19
234.076	2.59
234.546	-4.81
235.017	0.79
235.487	-0.51
235.958	-4.91
236.428	-6.81
236.899	2.59
237.369	4.79
237.84	-2.71
238.31	7.79
238.78	5.99
239.251	-2.81
239.721	3.09
240.191	3.09
240.662	1.49
241.132	0.29
241.602	-2.41
242.072	0.09
242.542	4.99
243.013	-0.41
243.483	0.19
243.953	3.39
244.423	0.89
244.893	-1.81
245.363	4.29
245.833	-2.41
246.303	-0.21
246.773	10.59
247.243	5.59
247.712	7.29
248.182	8.79
248.652	8.39
249.122	0.69
249.592	5.49
250.061	16.09
250.531	31.89
251.001	20.49
251.471	24.19
251.94	24.79
252.41	1.39
252.879	6.69
253.349	15.29
253.818	6.99
254.288	11.49
254.757	5.79
255.227	4.19
255.696	7.29
256.166	6.19
256.635	3.99
257.105	10.69
257.574	9.19
258.043	10.39
258.513	12.39
258.982	21.69
259.451	8.39
259.92	15.09
260.389	10.29
260.859	16.69
261.328	17.99
261.797	19.49
262.266	10.19
262.735	6.19
263.204	8.19
263.673	4.69
264.142	7.79
264.611	1.29
265.08	6.89
265.549	0.89
266.018	4.39
266.487	-1.61
266.955	-1.11
267.424	8.09
267.893	12.69
268.362	4.79
268.83	5.19
269.299	15.89
269.768	7.09
270.236	6.79
270.705	0.39
271.174	11.69
271.642	8.99
272.111	12.69
272.579	23.69
273.048	27.29
273.516	31.99
273.985	29.49
274.453	23.09
274.922	22.09
275.39	12.69
275.858	5.79
276.327	18.99
276.795	28.09
277.263	11.89
277.731	32.69
278.2	61.79
278.668	61.89
279.136	50.29
279.604	17.99
280.072	17.99
280.54	17.09
281.008	14.49
281.477	15.29
281.945	15.79
282.413	13.89
282.881	18.29
283.348	12.39
283.816	10.39
284.284	15.59
284.752	20.99
285.22	19.69
285.688	16.99
286.156	18.79
286.623	46.19
287.091	53.89
287.559	29.59
288.026	14.99
288.494	19.49
288.962	11.89
289.429	9.59
289.897	25.39
290.364	16.89
290.832	21.19
291.3	18.89
291.767	16.19
292.234	23.99
292.702	19.79
293.169	23.59
293.637	23.89
294.104	19.09
294.571	13.29
295.039	8.79
295.506	21.99
295.973	15.19
296.44	10.59
296.908	22.89
297.375	19.79
297.842	18.39
298.309	23.69
298.776	17.59
299.243	27.59
299.71	14.49
300.177	22.99
300.644	28.69
301.111	28.29
301.578	28.69
302.045	24.19
302.512	26.29
302.979	23.49
303.446	15.29
303.913	25.79
304.379	25.29
304.846	24.49
305.313	30.69
305.78	27.19
306.246	24.69
306.713	29.79
307.18	30.29
307.646	32.59
308.113	31.39
308.579	30.99
309.046	26.69
309.512	28.79
309.979	20.29
310.445	29.69
310.912	25.29
311.378	28.19
311.845	34.09
312.311	35.79
312.777	35.59
313.244	34.59
313.71	39.89
314.176	36.39
314.642	37.09
315.109	36.29
315.575	38.19
316.041	48.09
316.507	36.19
316.973	43.99
317.439	40.89
317.905	37.39
318.371	43.49
318.837	38.89
319.303	39.49
319.769	31.99
320.235	38.59
320.701	40.19
321.167	37.99
321.633	44.69
322.099	45.69
322.564	40.99
323.03	39.69
323.496	37.79
323.962	40.99
324.427	39.19
324.893	43.79
325.359	35.09
325.824	41.09
326.29	38.89
326.755	41.89
327.221	42.59
327.686	41.99
328.152	47.49
328.617	46.39
329.083	47.59
329.548	54.39
330.014	55.09
330.479	48.09
330.944	48.39
331.41	48.39
331.875	45.19
332.34	49.29
332.805	45.89
333.271	47.79
333.736	40.09
334.201	55.09
334.666	55.19
335.131	57.79
335.596	54.99
336.061	55.79
336.526	42.49
336.991	56.29
337.456	60.59
337.921	56.59
338.386	45.19
338.851	48.09
339.316	47.99
339.781	51.59
340.246	55.99
340.711	52.59
341.175	54.19
341.64	47.69
342.105	49.19
342.569	58.99
343.034	62.19
343.499	61.69
343.963	58.29
344.428	65.49
344.893	64.39
345.357	67.09
345.822	68.79
346.286	71.19
346.751	79.49
347.215	72.09
347.679	73.59
348.144	102.29
348.608	81.19
349.073	67.69
349.537	78.09
350.001	81.89
350.465	95.99
350.93	90.59
351.394	87.69
351.858	77.59
352.322	88.19
352.786	89.19
353.25	105.39
353.715	111.49
354.179	97.39
354.643	122.59
355.107	127.39
355.571	109.59
356.035	107.79
356.498	121.49
356.962	128.19
357.426	138.29
357.89	123.29
358.354	88.59
358.818	84.99
359.281	84.99
359.745	78.09
360.209	79.89
360.673	81.89
361.136	77.69
361.6	87.59
362.064	84.29
362.527	77.99
362.991	88.19
363.454	78.99
363.918	79.59
364.381	83.59
364.845	81.89
365.308	91.69
365.772	91.49
366.235	88.99
366.698	89.39
367.162	94.19
367.625	84.69
368.088	93.69
368.552	95.09
369.015	92.39
369.478	101.59
369.941	109.79
370.404	95.99
370.867	99.49
371.331	114.39
371.794	120.59
372.257	114.69
372.72	124.59
373.183	112.29
373.646	106.39
374.109	100.69
374.572	108.59
375.035	106.09
375.497	113.29
375.96	106.39
376.423	104.59
376.886	112.49
377.349	112.09
377.811	110.99
378.274	110.89
378.737	104.39
379.199	110.39
379.662	114.09
380.125	119.19
380.587	115.79
381.05	120.49
381.512	128.39
381.975	132.99
382.437	126.09
382.9	131.29
383.362	140.09
383.825	144.39
384.287	150.09
384.75	139.19
385.212	133.29
385.674	140.49
386.136	136.09
386.599	128.49
387.061	130.09
387.523	129.99
387.985	131.29
388.447	142.19
388.91	145.79
389.372	157.19
389.834	150.69
390.296	144.89
390.758	145.89
391.22	168.79
391.682	208.09
392.144	289.09
392.606	232.09
393.068	164.89
393.529	165.19
393.991	157.59
394.453	145.89
394.915	153.49
395.377	193.09
395.838	218.79
396.3	155.09
396.762	142.49
397.224	130.79
397.685	131.79
398.147	134.09
398.608	125.49
399.07	129.49
399.531	131.99
399.993	140.89
400.454	151.49
400.916	145.09
401.377	144.69
401.839	154.79
402.3	148.69
402.762	158.69
403.223	176.29
403.684	169.29
404.145	159.79
404.607	156.39
405.068	163.59
405.529	173.39
405.99	187.99
406.451	182.79
406.913	170.99
407.374	160.39
407.835	162.79
408.296	164.19
408.757	167.69
409.218	180.79
409.679	182.39
410.14	173.59
410.601	173.99
411.062	187.19
411.522	188.09
411.983	192.69
412.444	170.19
412.905	183.59
413.366	182.69
413.826	188.79
414.287	212.69
414.748	267.49
415.208	245.29
415.669	206.89
416.13	203.49
416.59	199.59
417.051	214.79
417.511	209.69
417.972	230.79
418.432	240.49
418.893	287.49
419.353	247.29
419.814	198.69
420.274	185.39
420.734	180.59
421.195	199.29
421.655	191.59
422.115	196.39
422.576	194.49
423.036	200.59
423.496	200.69
423.956	213.79
424.416	234.49
424.876	261.09
425.336	264.19
425.797	258.69
426.257	254.29
426.717	240.79
427.177	231.49
427.637	218.79
428.097	234.49
428.556	244.79
429.016	266.79
429.476	256.29
429.936	271.19
430.396	269.79
430.856	292.19
431.315	320.09
431.775	348.59
432.235	367.79
432.694	345.79
433.154	360.79
433.614	390.29
434.073	337.99
434.533	287.69
434.993	274.19
435.452	283.99
435.912	289.59
436.371	290.29
436.83	275.59
437.29	269.49
437.749	245.79
438.209	245.59
438.668	270.79
439.127	290.49
439.587	260.19
440.046	248.09
440.505	259.79
440.964	277.49
441.424	325.19
441.883	312.29
442.342	258.89
442.801	219.79
443.26	217.19
443.719	214.89
444.178	219.79
444.637	205.19
445.096	212.49
445.555	216.39
446.014	222.49
446.473	219.39
446.932	231.59
447.391	217.79
447.849	219.39
448.308	214.39
448.767	216.59
449.226	237.39
449.685	235.49
450.143	252.49
450.602	239.99
451.061	224.39
451.519	229.19
451.978	224.79
452.436	222.59
452.895	247.09
453.353	251.09
453.812	238.99
454.27	240.09
454.729	240.59
455.187	238.39
455.646	241.69
456.104	244.09
456.562	256.39
457.021	268.99
457.479	257.49
457.937	276.49
458.395	262.99
458.854	250.89
459.312	259.19
459.77	269.49
460.228	254.89
460.686	249.49
461.144	245.39
461.602	244.99
462.06	237.29
462.518	256.19
462.976	248.09
463.434	263.79
463.892	262.89
464.35	271.19
464.808	290.39
465.266	262.99
465.724	272.59
466.181	272.29
466.639	263.49
467.097	293.99
467.555	301.39
468.012	302.09
468.47	304.89
468.928	329.49
469.385	337.19
469.843	345.09
470.3	348.59
470.758	362.39
471.215	384.69
471.673	400.19
472.13	401.29
472.588	421.29
473.045	370.09
473.503	377.69
473.96	392.19
474.417	396.99
474.875	432.29
475.332	477.49
475.789	463.39
476.246	458.49
476.704	489.39
477.161	511.19
477.618	524.59
478.075	562.09
478.532	613.49
478.989	689.59
479.446	797.29
479.903	769.79
480.36	803.39
480.817	867.69
481.274	965.39
481.731	1066.59
482.188	1165.49
482.645	1308.59
483.102	1404.59
483.558	1541.49
484.015	1592.69
484.472	1564.99
484.929	1521.59
485.385	1474.89
485.842	1437.19
486.299	1372.69
486.755	1300.29
487.212	1082.99
487.668	924.39
488.125	843.09
488.582	784.49
489.038	742.19
489.494	718.49
489.951	693.19
490.407	670.69
490.864	653.29
491.32	645.39
491.776	640.19
492.233	645.39
492.689	606.19
493.145	597.09
493.602	587.09
494.058	615.79
494.514	615.49
494.97	634.09
495.426	643.69
495.882	620.49
496.338	616.69
496.794	628.79
497.251	625.39
497.707	648.99
498.163	644.39
498.618	647.59
499.074	648.09
499.53	679.09
499.986	679.49
500.442	661.49
500.898	631.59
501.354	630.09
501.809	640.59
502.265	646.69
502.721	653.39
503.177	667.29
503.632	660.99
504.088	681.09
504.543	710.59
504.999	711.39
505.455	651.79
505.91	628.59
506.366	634.69
506.821	624.69
507.277	617.79
507.732	625.99
508.187	623.59
508.643	630.29
509.098	640.69
509.553	666.09
510.009	668.69
510.464	673.89
510.919	688.39
511.375	688.99
511.83	705.89
512.285	723.49
512.74	764.09
513.195	788.19
513.65	767.79
514.105	778.69
514.56	769.69
515.015	792.09
515.47	806.99
515.925	794.29
516.38	791.89
516.835	791.69
517.29	794.39
517.745	779.99
518.2	769.89
518.655	748.29
519.109	750.09
519.564	736.79
520.019	739.19
520.474	721.09
520.928	727.09
521.383	724.79
521.838	709.99
522.292	713.49
522.747	704.79
523.201	706.59
523.656	700.69
524.11	683.59
524.565	688.49
525.019	682.79
525.474	695.89
525.928	699.59
526.382	692.29
526.837	694.79
527.291	707.29
527.745	696.29
528.2	695.59
528.654	696.79
529.108	689.49
529.562	689.49
530.016	683.29
530.47	683.69
530.925	686.49
531.379	704.49
531.833	707.19
532.287	701.49
532.741	707.39
533.195	704.39
533.649	721.99
534.103	716.59
534.556	711.69
535.01	711.09
535.464	705.29
535.918	724.79
536.372	719.19
536.826	719.29
537.279	709.99
537.733	709.89
538.187	712.29
538.64	718.49
539.094	724.19
539.548	722.49
540.001	714.59
540.455	719.99
540.908	739.09
541.362	728.49
541.815	740.19
542.269	753.79
542.722	762.49
543.175	763.69
543.629	767.39
544.082	788.29
544.536	781.09
544.989	783.79
545.442	787.79
545.895	786.59
546.349	783.59
546.802	789.79
547.255	796.29
547.708	793.49
548.161	812.49
548.614	816.29
549.067	826.19
549.52	815.59
549.973	811.09
550.426	806.59
550.879	782.89
551.332	795.89
551.785	799.99
552.238	803.39
552.691	819.89
553.144	825.09
553.596	839.89
554.049	848.59
554.502	883.49
554.955	898.39
555.407	907.99
555.86	899.59
556.313	890.29
556.765	883.09
557.218	873.99
557.67	870.59
558.123	876.39
558.576	866.89
559.028	877.19
559.48	875.69
559.933	865.99
560.385	836.69
560.838	801.19
561.29	768.89
561.742	770.09
562.195	756.99
562.647	751.79
563.099	770.79
563.551	757.49
564.004	780.69
564.456	767.69
564.908	752.19
565.36	738.79
565.812	722.09
566.264	720.79
566.716	709.29
567.168	702.79
567.62	708.19
568.072	688.39
568.524	684.49
568.976	679.29
569.428	665.29
569.88	669.29
570.332	663.19
570.784	677.39
571.235	673.49
571.687	685.69
572.139	686.59
572.59	702.09
573.042	704.29
573.494	702.09
573.945	694.69
574.397	679.49
574.849	680.49
575.3	676.39
575.752	674.99
576.203	658.39
576.655	675.79
577.106	659.09
577.557	651.69
578.009	646.09
578.46	647.99
578.912	650.09
579.363	647.59
579.814	654.49
580.265	655.89
580.717	657.79
581.168	653.49
581.619	665.49
582.07	667.89
582.521	655.79
582.972	653.49
583.423	671.39
583.875	675.29
584.326	692.79
584.777	736.29
585.227	800.99
585.678	879.19
586.129	963.29
586.58	1035.39
587.031	1110.39
587.482	1275.89
587.933	1440.59
588.384	1257.19
588.834	943.99
589.285	792.69
589.736	757.79
590.186	755.79
590.637	743.49
591.088	727.79
591.538	721.69
591.989	717.99
592.439	707.99
592.89	701.19
593.34	682.29
593.791	689.29
594.241	685.39
594.692	690.19
595.142	677.29
595.593	676.29
596.043	694.49
596.493	689.09
596.943	693.79
597.394	698.29
597.844	683.19
598.294	710.49
598.744	722.99
599.195	751.69
599.645	788.39
600.095	828.09
600.545	878.29
600.995	941.19
601.445	989.49
601.895	1058.79
602.345	1109.29
602.795	1073.39
603.245	1032.49
603.695	978.99
604.145	935.99
604.594	887.29
605.044	826.49
605.494	770.29
605.944	731.19
606.393	727.19
606.843	699.39
607.293	711.29
607.743	714.49
608.192	729.99
608.642	737.89
609.091	748.49
609.541	752.79
609.99	741.59
610.44	741.59
610.889	705.69
611.339	678.49
611.788	665.89
612.238	678.79
612.687	683.89
613.136	701.49
613.586	710.89
614.035	718.29
614.484	732.59
614.933	718.09
615.383	721.19
615.832	712.69
616.281	700.09
616.73	652.39
617.179	644.59
617.628	629.39
618.077	614.89
618.526	601.09
618.975	592.19
619.424	599.89
619.873	592.49
620.322	599.89
620.771	585.09
621.22	593.09
621.669	571.09
622.118	556.69
622.567	553.49
623.015	553.89
623.464	540.89
623.913	531.59
624.361	531.69
624.81	531.09
625.259	535.69
625.707	538.49
626.156	536.19
626.604	547.69
627.053	533.09
627.501	545.19
627.95	543.49
628.398	557.89
628.847	550.59
629.295	546.39
629.744	548.49
630.192	550.89
630.64	541.69
631.089	539.59
631.537	554.89
631.985	559.29
632.433	568.39
632.881	586.89
633.33	621.89
633.778	606.99
634.226	539.59
634.674	553.99
635.122	550.99
635.57	575.59
636.018	605.59
636.466	559.29
636.914	527.99
637.362	537.39
637.81	554.49
638.258	548.49
638.705	546.89
639.153	579.69
639.601	585.19
640.049	610.19
640.497	642.59
640.944	662.39
641.392	622.59
641.84	582.29
642.287	556.49
642.735	545.29
643.182	542.59
643.63	539.69
644.078	557.29
644.525	559.69
644.973	566.49
645.42	577.79
645.867	590.39
646.315	605.99
646.762	633.59
647.21	653.79
647.657	681.49
648.104	711.69
648.551	730.69
648.999	800.59
649.446	863.89
649.893	956.79
650.34	1086.29
650.787	1312.39
651.234	1623.39
651.682	2101.99
652.129	2888.29
652.576	4158.99
653.023	6143.99
653.47	8462.79
653.917	10628.69
654.363	12416.89
654.81	13754.69
655.257	13107.39
655.704	8531.69
656.151	5034.89
656.598	3279.79
657.044	2321.79
657.491	1768.19
657.938	1412.09
658.385	1180.39
658.831	1029.39
659.278	916.19
659.724	824.69
660.171	747.79
660.618	689.59
661.064	650.79
661.511	636.49
661.957	632.79
662.404	615.59
662.85	618.39
663.296	592.49
663.743	532.59
664.189	516.79
664.635	507.39
665.082	489.39
665.528	491.59
665.974	485.89
666.42	485.19
666.867	479.29
667.313	461.19
667.759	450.09
668.205	444.19
668.651	455.29
669.097	449.39
669.543	473.49
669.989	444.99
670.435	424.79
670.881	410.39
671.327	426.09
671.773	437.39
672.219	452.99
672.665	510.09
673.11	536.69
673.556	584.29
674.002	625.89
674.448	614.79
674.893	528.59
675.339	453.09
675.785	420.39
676.23	390.09
676.676	372.39
677.122	353.89
677.567	346.79
678.013	352.39
678.458	339.69
678.904	337.09
679.349	320.69
679.794	333.59
680.24	319.39
680.685	328.39
681.131	318.89
681.576	328.69
682.021	323.39
682.466	323.29
682.912	322.39
683.357	327.49
683.802	358.89
684.247	386.99
684.692	426.59
685.137	467.39
685.583	514.39
686.028	527.19
686.473	490.59
686.918	420.09
687.363	384.59
687.807	362.89
688.252	336.19
688.697	337.59
689.142	316.79
689.587	308.49
690.032	306.69
690.477	315.69
690.921	331.39
691.366	351.09
691.811	378.29
692.255	406.29
692.7	429.59
693.145	469.69
693.589	643.59
694.034	1034.69
694.478	1425.79
694.923	1633.99
695.367	2157.69
695.812	1118.29
696.256	471.89
696.701	352.99
697.145	314.59
697.59	304.99
698.034	307.39
698.478	311.29
698.922	300.69
699.367	308.09
699.811	317.79
700.255	329.29
700.699	361.79
701.143	394.79
701.588	452.59
702.032	483.59
702.476	477.79
702.92	457.09
703.364	452.19
703.808	569.89
704.252	950.29
704.696	1338.39
705.14	1574.69
705.584	2012.49
706.027	1002.69
706.471	485.49
706.915	370.69
707.359	337.89
707.803	300.79
708.246	289.89
708.69	297.09
709.134	288.19
709.577	289.69
710.021	297.79
710.465	280.19
710.908	282.69
711.352	282.29
711.795	290.49
712.239	316.09
712.682	358.69
713.126	389.89
713.569	440.59
714.012	345.39
714.456	300.49
714.899	283.59
715.342	257.29
715.786	243.49
716.229	238.59
716.672	235.59
717.115	239.89
717.558	237.69
718.002	236.59
718.445	249.09
718.888	262.29
719.331	276.89
719.774	290.29
720.217	287.39
720.66	258.99
721.103	252.39
721.546	237.39
721.989	228.49
722.432	218.79
722.874	228.19
723.317	220.49
723.76	220.89
724.203	243.19
724.645	295.49
725.088	416.89
725.531	528.39
725.974	603.79
726.416	514.89
726.859	289.29
727.301	231.29
727.744	219.09
728.187	218.09
728.629	223.69
729.071	220.29
729.514	240.59
729.956	255.29
730.399	260.09
730.841	265.09
731.283	254.59
731.726	245.39
732.168	238.09
732.61	252.59
733.053	267.99
733.495	292.99
733.937	323.29
734.379	364.39
734.821	403.19
735.263	495.19
735.705	755.49
736.148	1431.29
736.59	2376.69
737.032	2897.99
737.474	2353.09
737.916	758.19
738.357	396.59
738.799	300.09
739.241	283.89
739.683	258.89
740.125	271.79
740.567	276.39
741.008	300.49
741.45	296.29
741.892	295.59
742.334	318.49
742.775	333.59
743.217	316.89
743.658	251.49
744.1	230.89
744.542	236.69
744.983	287.79
745.425	315.49
745.866	322.19
746.307	266.49
746.749	260.09
747.19	300.99
747.632	408.99
748.073	794.59
748.514	1684.89
748.956	2652.89
749.397	3313.99
749.838	2746.99
750.279	2798.99
750.72	1407.19
751.162	504.99
751.603	288.89
752.044	234.99
752.485	196.79
752.926	199.19
753.367	188.69
753.808	178.19
754.249	177.59
754.69	172.59
755.131	171.19
755.572	160.19
756.013	162.39
756.453	168.59
756.894	170.39
757.335	176.49
757.776	186.19
758.216	182.89
758.657	181.39
759.098	184.29
759.538	208.39
759.979	246.59
760.42	348.29
760.86	628.49
761.301	1637.29
761.741	4032.29
762.182	6094.09
762.622	4302.29
763.063	1217.99
763.503	500.39
763.943	317.09
764.384	309.89
764.824	370.89
765.264	399.19
765.705	282.49
766.145	191.09
766.585	174.69
767.025	169.09
767.465	164.79
767.906	226.19
768.346	285.49
768.786	312.29
769.226	238.09
769.666	289.49
770.106	558.49
770.546	1403.79
770.986	2476.99
771.426	2237.09
771.866	738.19
772.306	302.19
772.745	194.69
773.185	161.99
773.625	156.19
774.065	150.49
774.505	180.79
774.944	273.99
775.384	598.29
775.824	1128.09
776.263	1105.09
776.703	470.09
777.142	208.59
777.582	141.89
778.021	124.59
778.461	127.29
778.9	129.89
779.34	120.59
779.779	110.19
780.219	101.59
780.658	102.59
781.097	106.09
781.537	104.99
781.976	100.89
782.415	99.59
782.855	100.29
783.294	97.29
783.733	96.29
784.172	96.79
784.611	94.59
785.05	100.79
785.489	99.79
785.928	107.49
786.367	118.59
786.806	106.89
787.245	120.99
787.684	127.89
788.123	138.79
788.562	119.59
789.001	114.99
789.44	111.59
789.879	111.09
790.317	111.39
790.756	114.59
791.195	114.39
791.634	137.79
792.072	190.79
792.511	327.09
792.95	899.89
793.388	1963.99
793.827	1836.49
794.265	637.89
794.704	255.29
795.142	172.79
795.581	143.09
796.019	125.09
796.458	123.29
796.896	113.29
797.334	115.09
797.773	141.19
798.211	204.49
798.649	388.89
799.087	932.29
799.526	1486.59
799.964	1838.39
800.402	1908.09
800.84	706.49
801.278	280.69
801.716	169.19
802.154	144.39
802.592	135.99
803.03	129.09
803.468	131.59
803.906	135.49
804.344	141.79
804.782	130.39
805.22	122.19
805.658	119.99
806.096	138.99
806.533	142.89
806.971	160.39
807.409	196.29
807.847	284.99
808.284	589.39
808.722	1694.19
809.16	3066.19
809.597	2837.59
810.035	5001.09
810.472	5517.29
810.91	1968.89
811.347	738.79
811.785	372.49
812.222	239.39
812.66	183.69
813.097	150.09
813.535	129.59
813.972	121.39
814.409	110.49
814.846	98.19
815.284	105.09
815.721	95.89
816.158	92.99
816.595	112.79
817.032	168.29
817.47	181.99
817.907	145.89
818.344	137.79
818.781	103.79
819.218	91.49
819.655	114.39
820.092	168.99
820.529	201.69
820.966	164.39
821.403	125.79
821.839	101.39
822.276	93.49
822.713	111.69
823.15	124.59
823.587	112.29
824.023	134.39
824.46	262.39
824.897	812.69
825.333	1280.59
825.77	554.39
826.206	220.79
826.643	120.99
827.08	98.99
827.516	80.19
827.953	77.59
828.389	68.79
828.825	64.89
829.262	61.09
829.698	58.29
830.135	57.99
830.571	54.49
831.007	65.29
831.443	56.99
831.88	50.69
832.316	52.99
832.752	56.19
833.188	57.49
833.624	66.29
834.06	63.99
834.497	65.89
834.933	70.89
835.369	69.79
835.805	61.79
836.241	70.79
836.677	78.49
837.112	86.99
837.548	100.79
837.984	125.39
838.42	178.29
838.856	442.19
839.292	1393.69
839.727	2179.29
840.163	1003.19
840.599	829.39
841.034	1866.69
841.47	2016.79
841.906	725.79
842.341	315.59
842.777	216.99
843.212	290.19
843.648	285.99
844.083	141.09
844.519	85.59
844.954	71.99
845.39	57.89
845.825	54.29
846.261	50.19
846.696	48.59
847.131	52.19
847.566	52.79
848.002	44.69
848.437	53.19
848.872	57.79
849.307	57.09
849.742	73.09
850.177	170.59
850.613	504.19
851.048	830.79
851.483	354.49
851.918	145.39
852.353	84.79
852.788	51.79
853.223	44.99
853.657	48.09
854.092	43.99
854.527	35.99
854.962	41.19
855.397	42.29
855.832	45.39
856.266	39.49
856.701	42.59
857.136	35.69
857.57	38.29
858.005	47.69
858.44	55.79
858.874	37.99
859.309	44.99
859.743	35.59
860.178	44.79
860.612	33.79
861.047	48.49
861.481	59.69
861.915	63.29
862.35	46.69
862.784	34.29
863.218	34.19
863.653	36.99
864.087	36.99
864.521	51.59
864.955	61.69
865.39	134.69
865.824	164.39
866.258	109.29
866.692	156.59
867.126	164.29
867.56	101.69
867.994	53.09
868.428	34.59
868.862	46.49
869.296	49.49
869.73	54.49
870.164	47.99
870.598	45.09
871.031	36.89
871.465	31.69
871.899	26.89
872.333	22.69
872.766	25.39
873.2	24.69
873.634	30.99
874.067	27.19
874.501	27.99
874.935	31.29
875.368	27.79
875.802	23.89
876.235	23.29
876.669	22.19
877.102	22.79
877.535	31.29
877.969	17.69
878.402	26.49
878.836	15.19
879.269	24.09
879.702	23.29
880.135	22.19
880.569	22.09
881.002	21.09
881.435	19.69
881.868	14.59
882.301	24.19
882.734	14.09
883.167	21.69
883.601	15.99
884.034	17.59
884.467	13.49
884.899	25.69
885.332	16.69
885.765	8.29
886.198	17.09
886.631	13.89
887.064	12.49
887.497	19.79
887.929	18.79
888.362	18.09
888.795	8.49
889.228	21.99
889.66	12.89
890.093	14.49
890.526	16.59
890.958	13.29
891.391	18.69
891.823	13.49
892.256	14.59
892.688	11.49
893.121	22.29
893.553	11.89
893.985	16.89
894.418	17.29
894.85	10.79
895.282	11.19
895.715	16.19
896.147	14.99
896.579	14.79
897.011	14.59
897.444	17.49
897.876	13.49
898.308	16.59
898.74	10.49
899.172	17.49
899.604	19.09
900.036	17.79
900.468	17.29
900.9	15.59
901.332	12.59
901.764	11.69
902.196	18.29
902.628	15.39
903.06	19.79
903.491	28.99
903.923	21.49
904.355	15.99
904.787	18.89
905.218	17.99
905.65	15.49
906.082	7.49
906.513	15.59
906.945	16.49
907.376	14.29
907.808	22.89
908.239	18.69
908.671	15.49
909.102	15.69
909.534	26.29
909.965	42.79
910.397	83.49
910.828	286.69
911.259	447.79
911.691	201.69
912.122	101.29
912.553	48.09
912.984	31.59
913.415	24.39
913.847	20.89
914.278	14.39
914.709	16.49
915.14	21.29
915.571	12.49
916.002	6.59
916.433	16.29
916.864	13.79
917.295	12.89
917.726	14.79
918.157	16.49
918.587	25.99
919.018	20.39
919.449	21.49
919.88	21.69
920.311	25.99
920.741	39.09
921.172	157.79
921.603	137.69
922.033	65.29
922.464	41.09
922.895	19.39
923.325	18.69
923.756	13.69
924.186	12.79
924.617	28.09
925.047	34.79
925.478	47.39
925.908	37.49
926.338	24.69
926.769	26.19
927.199	24.19
927.629	8.29
928.06	18.79
928.49	15.19
928.92	19.49
929.35	16.49
929.78	12.29
930.21	5.49
930.641	10.99
931.071	5.29
931.501	1.09
931.931	1.49
932.361	7.39
932.791	1.79
933.221	8.89
933.651	9.09
934.08	14.79
934.51	27.09
934.94	11.79
935.37	5.99
935.8	12.99
936.229	5.49
936.659	9.59
937.089	4.29
937.519	12.79
937.948	24.19
938.378	16.29
938.807	7.19
939.237	1.99
939.666	9.09
940.096	-4.81
940.525	3.89
940.955	6.09
941.384	1.39
941.814	-2.41
942.243	-3.01
942.672	1.59
943.102	0.89
943.531	-3.91
943.96	7.79
944.39	5.39
944.819	2.29
945.248	2.29
945.677	-0.51
946.106	7.99
946.535	3.19
946.964	2.59
947.393	1.59
947.822	-2.91
948.251	-6.71
948.68	2.29
949.109	3.89
949.538	8.49
949.967	4.59
950.396	-0.71
950.825	-5.31
951.254	1.19
951.682	0.19
952.111	3.59
952.54	6.79
952.969	-0.91
953.397	-8.91
953.826	2.59
954.254	-2.81
954.683	2.99
955.112	-5.41
955.54	-0.21
955.969	3.69
956.397	1.69
956.826	1.49
957.254	-0.01
957.682	0.89
958.111	-0.51
958.539	7.99
958.967	-1.11
959.396	-0.71
959.824	-1.41
960.252	6.99
960.68	-7.41
961.109	1.29
961.537	-0.31
961.965	-2.91
962.393	4.39
962.821	-3.21
963.249	2.69
963.677	3.19
964.105	1.59
964.533	43.09
964.961	42.49
965.389	21.19
965.817	4.09
966.245	-0.11
966.672	0.09
967.1	-1.81
967.528	5.59
967.956	-8.31
968.383	-6.31
968.811	-3.91
969.239	-2.51
969.666	-9.21
970.094	0.29
970.522	-5.01
970.949	-0.61
971.377	-10.11
971.804	-2.11
972.232	-3.81
972.659	-3.81
973.087	-4.41
973.514	-1.91
973.941	-2.61
974.369	5.89
974.796	5.49
975.223	1.59
975.651	1.89
976.078	5.69
976.505	-0.61
976.932	9.09
977.359	14.09
977.786	6.39
978.214	-3.01
978.641	-4.61
979.068	-4.81
979.495	-3.41
979.922	-2.71
980.349	-5.41
980.776	4.59
981.202	1.59
981.629	3.39
982.056	5.49
982.483	-4.61
982.91	1.09
983.337	-2.91
983.763	4.59
984.19	-6.61
984.617	-1.61
985.043	-4.21
985.47	-2.61
985.897	-8.51
986.323	-7.01
986.75	0.29
987.176	-5.41
987.603	-4.31
988.029	1.99
988.456	0.19
988.882	5.29
989.308	-2.91
989.735	-6.11
990.161	-0.81
990.587	-9.81
991.014	-3.01
991.44	4.19
991.866	0.79
992.292	-6.61
992.719	1.59
993.145	2.39
993.571	-12.91
993.997	-3.91
994.423	-5.31
994.849	-2.71
995.275	2.79
995.701	-0.41
996.127	-2.21
996.553	0.09
996.979	-0.21
997.405	-2.01
997.83	-3.31
998.256	-3.01
998.682	1.09
999.108	-4.41
999.534	0.79
999.959	-4.41
1000.385	-5.61
1000.811	-0.51
1001.236	-14.11
1001.662	-5.51
1002.087	-10.41
1002.513	-2.21
1002.938	-4.01
1003.364	-4.41
1003.789	-2.61
1004.215	2.29
1004.64	-0.71
1005.066	0.69
1005.491	0.29
1005.916	-0.61
1006.342	-4.51
1006.767	-10.21
1007.192	3.59
1007.617	-4.41
1008.042	-7.81
1008.468	-6.61
1008.893	-4.71
1009.318	-5.31
1009.743	-5.61
1010.168	2.89
1010.593	0.59
1011.018	-6.71
1011.443	-1.51
1011.868	-2.41
1012.293	-4.41
1012.718	-6.01
1013.143	0.59
1013.567	4.79
1013.992	-0.01
1014.417	-7.61
1014.842	1.19
1015.267	-8.21
1015.691	-2.51
1016.116	3.99
1016.541	-1.51
1016.965	3.29
1017.39	4.19
1017.814	3.59
1018.239	-3.31
1018.663	-2.31
1019.088	-7.41
1019.512	-4.11
1019.937	0.59
1020.361	-2.81
1020.785	-9.41
1021.21	-2.91
1021.634	-2.51
1022.058	0.99
1022.483	0.59
1022.907	-0.11
1023.331	-8.31
1023.755	-0.21
1024.179	0.09
1024.604	-1.41
1025.028	-9.01
1025.452	-10.11
1025.876	-4.21
1026.3	-4.21
1026.724	-11.91
1027.148	-1.31
1027.572	-5.91
1027.996	-4.91
1028.42	-3.81
1028.843	-1.81
1029.267	-7.41
1029.691	-3.91
1030.115	-6.91
1030.539	-5.81
1030.962	-5.71
1031.386	-9.81
1031.81	-5.21
1032.233	-5.11
1032.657	2.49
1033.08	-0.31
1033.504	1.09
1033.927	1.39
1034.351	-0.11
1034.774	-6.31
1035.198	-5.41
1035.621	-8.71
1036.045	-7.41
1036.468	1.39
1036.891	-9.91
1037.315	-6.81
1037.738	-17.11
1038.161	-3.91
1038.584	-4.71
1039.008	-10.41
1039.431	-3.91
1039.854	-1.11
1040.277	-5.91
1040.7	-14.51
1041.123	-4.21
1041.546	-5.51
1041.969	-6.61
1042.392	-5.11
1042.815	-2.11
1043.238	-0.91
1043.661	-0.91
1044.084	-7.41
1044.507	-3.51
1044.93	-6.31
1045.352	-6.11
1045.775	-2.41
1046.198	2.79
1046.621	-4.11
1047.043	3.89
1047.466	3.09
1047.889	-4.81
1048.311	-3.81
1048.734	-8.51
1049.156	-7.21
1049.579	-1.61
1050.001	4.59
1050.424	2.89
1050.846	-1.21
1051.269	-3.01
1051.691	-5.51
1052.113	-5.61
1052.536	-0.11
1052.958	-0.41
1053.38	-5.91
1053.802	-10.31
1054.225	4.79
1054.647	-3.91
1055.069	-5.41
1055.491	1.29
1055.913	-6.51
1056.335	-1.81
1056.757	-5.01
1057.179	-2.21
1057.601	-7.41
1058.023	-5.41
1058.445	-2.51
1058.867	0.29
1059.289	-3.11
1059.711	-4.21
1060.133	-6.81
1060.555	-4.51
1060.976	-6.71
1061.398	-7.01
1061.82	-5.21
1062.241	-7.71
1062.663	-7.21
1063.085	-5.11
1063.506	-0.71
1063.928	-6.11
1064.35	-3.41
1064.771	-14.31
1065.193	0.59
1065.614	-7.51
1066.035	1.29
1066.457	-6.91
1066.878	0.99
1067.3	-8.01
1067.721	-4.21
1068.142	-6.21
1068.564	0.49
1068.985	-8.61
1069.406	-3.11
1069.827	-3.51
1070.248	-2.31
1070.67	-9.51
1071.091	-10.41
1071.512	3.39
1071.933	-5.11
1072.354	-3.21
1072.775	-5.41
1073.196	-6.81
1073.617	1.29
1074.038	-5.41
1074.459	-3.41
1074.88	-6.11
1075.3	-1.71
1075.721	-1.91
1076.142	-3.81
1076.563	-4.61
1076.983	-16.31
1077.404	-7.01
1077.825	-7.41
1078.246	-6.81
1078.666	-11.31
1079.087	-2.91
1079.507	-1.21
1079.928	0.39
1080.348	-1.21
1080.769	-5.41
1081.189	0.89
1081.61	-3.81
1082.03	-6.21
1082.451	-3.91
1082.871	-3.81
1083.291	-7.11
1083.711	-9.31
1084.132	-3.51
1084.552	-1.71
1084.972	-1.11
1085.392	-12.01
1085.813	-1.31
1086.233	-4.41
1086.653	-10.51
1087.073	-3.01
1087.493	-0.91
1087.913	-1.11
1088.333	-7.71
1088.753	-6.01
1089.173	-3.01
1089.593	-5.81
1090.013	-0.01
1090.433	4.99
1090.852	-5.01
1091.272	2.59
1091.692	-6.51
1092.112	-4.91
1092.531	-5.51
1092.951	-14.01
1093.371	-2.21
1093.79	2.59
1094.21	-1.31
1094.63	-1.61
1095.049	-5.01
1095.469	2.59
1095.888	1.19
1096.308	2.39
1096.727	2.29
1097.146	-10.71
1097.566	-3.61
1097.985	-1.71
1098.405	2.19
1098.824	-3.11
1099.243	-2.91
1099.662	-7.81
1100.082	-2.61
1100.501	-1.71
1100.92	-9.11
1101.339	-6.61
1101.758	-9.21
