Data from 20171114-ORNL-Ar_H_NY_Subt18_08-08-59-938.txt Node
Date: Tue Nov 14 08:08:59 EST 2017
User: Ender
Spectrometer: HR+D1039
Trigger mode: 0
Integration Time (sec): 2.730000E-2
Scans to average: 10
Electric dark correction enabled: true
Nonlinearity correction enabled: false
Boxcar width: 0
XAxis mode: Wavelengths
Number of Pixels in Spectrum: 2048
>>>>>Begin Spectral Data<<<<<
187.836	-2.17
188.309	-2.17
188.782	-2.17
189.255	0.02
189.728	0.93
190.201	5.23
190.674	2.92
191.147	4.52
191.619	-8.68
192.092	1.83
192.565	2.82
193.038	-0.98
193.511	-0.88
193.984	-0.67
194.456	-0.38
194.929	0.73
195.402	-3.58
195.874	-1.67
196.347	-3.38
196.82	-9.67
197.292	4.42
197.765	-1.17
198.237	-7.77
198.71	-0.18
199.182	0.52
199.655	3.33
200.127	1.12
200.6	-0.07
201.072	-0.18
201.544	-4.17
202.017	-3.48
202.489	3.12
202.961	1.83
203.433	-1.88
203.906	-3.77
204.378	-1.17
204.85	-5.58
205.322	-9.38
205.794	-1.77
206.266	1.52
206.739	-9.77
207.211	2.23
207.683	-5.17
208.155	-5.38
208.627	-8.77
209.099	-4.88
209.57	-4.57
210.042	-2.58
210.514	-9.77
210.986	-0.07
211.458	-10.17
211.93	0.52
212.402	0.83
212.873	-6.17
213.345	-7.97
213.817	-12.98
214.288	-3.08
214.76	-6.48
215.232	-0.77
215.703	0.93
216.175	-1.57
216.646	-5.67
217.118	-9.48
217.589	-6.47
218.061	-1.98
218.532	-6.07
219.004	-7.88
219.475	-4.77
219.946	-0.67
220.418	-8.77
220.889	7.12
221.36	0.03
221.832	-3.38
222.303	-6.97
222.774	-4.07
223.245	-12.17
223.717	-0.17
224.188	-6.57
224.659	-8.38
225.13	-4.27
225.601	0.52
226.072	6.83
226.543	0.32
227.014	0.23
227.485	-4.08
227.956	-6.07
228.427	-1.67
228.898	1.62
229.369	-1.38
229.839	-2.67
230.31	-11.08
230.781	-2.88
231.252	-4.57
231.722	-9.48
232.193	-6.47
232.664	-4.97
233.135	-0.88
233.605	-6.27
234.076	-8.08
234.546	-3.98
235.017	0.93
235.487	0.02
235.958	1.33
236.428	-9.77
236.899	0.93
237.369	4.83
237.84	-8.98
238.31	1.33
238.78	-6.27
239.251	-10.27
239.721	-4.88
240.191	-8.07
240.662	-2.87
241.132	-6.67
241.602	-6.08
242.072	-0.38
242.542	5.12
243.013	-1.88
243.483	1.73
243.953	1.63
244.423	-0.77
244.893	-5.38
245.363	-4.68
245.833	-5.98
246.303	-9.38
246.773	-0.07
247.243	-1.27
247.712	-0.77
248.182	7.23
248.652	1.73
249.122	-8.08
249.592	0.52
250.061	-1.27
250.531	11.63
251.001	1.13
251.471	1.62
251.94	5.32
252.41	-2.47
252.879	-4.27
253.349	5.82
253.818	2.62
254.288	-2.47
254.757	0.33
255.227	-4.87
255.696	1.52
256.166	0.53
256.635	1.33
257.105	-0.17
257.574	0.32
258.043	2.93
258.513	-0.88
258.982	1.03
259.451	0.42
259.92	-4.07
260.389	-1.57
260.859	6.02
261.328	-1.07
261.797	2.23
262.266	-5.88
262.735	5.43
263.204	1.02
263.673	-7.77
264.142	0.73
264.611	-3.67
265.08	1.62
265.549	-7.67
266.018	5.63
266.487	-3.68
266.955	-0.88
267.424	-3.47
267.893	-2.07
268.362	-0.07
268.83	1.23
269.299	10.63
269.768	-3.48
270.236	0.33
270.705	-3.38
271.174	-0.47
271.642	0.23
272.111	-0.38
272.579	-3.38
273.048	3.62
273.516	-2.67
273.985	1.83
274.453	2.62
274.922	10.83
275.39	8.82
275.858	-1.27
276.327	1.33
276.795	5.93
277.263	1.33
277.731	11.12
278.2	6.62
278.668	7.62
279.136	11.83
279.604	3.93
280.072	7.23
280.54	8.62
281.008	4.62
281.477	6.02
281.945	6.83
282.413	6.23
282.881	4.03
283.348	2.53
283.816	9.02
284.284	3.42
284.752	12.73
285.22	5.53
285.688	9.92
286.156	5.83
286.623	13.02
287.091	10.73
287.559	8.43
288.026	7.23
288.494	7.02
288.962	2.73
289.429	4.32
289.897	11.33
290.364	10.73
290.832	14.73
291.3	7.12
291.767	6.23
292.234	9.43
292.702	12.53
293.169	7.73
293.637	17.33
294.104	11.83
294.571	2.32
295.039	8.42
295.506	8.52
295.973	12.83
296.44	9.43
296.908	10.43
297.375	11.62
297.842	16.33
298.309	12.23
298.776	7.83
299.243	7.73
299.71	6.12
300.177	16.62
300.644	16.33
301.111	12.33
301.578	13.62
302.045	12.23
302.512	20.93
302.979	18.12
303.446	14.73
303.913	5.53
304.379	8.33
304.846	19.83
305.313	14.12
305.78	13.32
306.246	20.33
306.713	14.82
307.18	18.03
307.646	16.12
308.113	21.02
308.579	16.02
309.046	16.43
309.512	15.23
309.979	12.62
310.445	23.62
310.912	18.32
311.378	26.33
311.845	22.93
312.311	27.73
312.777	18.73
313.244	23.93
313.71	27.02
314.176	22.03
314.642	17.73
315.109	17.02
315.575	26.73
316.041	28.93
316.507	18.12
316.973	24.42
317.439	26.73
317.905	27.93
318.371	26.62
318.837	21.73
319.303	20.83
319.769	21.43
320.235	19.12
320.701	23.73
321.167	26.02
321.633	26.43
322.099	27.62
322.564	25.83
323.03	27.33
323.496	27.53
323.962	34.03
324.427	26.33
324.893	29.32
325.359	23.92
325.824	28.33
326.29	28.83
326.755	26.92
327.221	30.23
327.686	32.43
328.152	40.83
328.617	32.62
329.083	41.12
329.548	40.62
330.014	36.12
330.479	31.62
330.944	35.12
331.41	35.12
331.875	33.73
332.34	28.62
332.805	30.73
333.271	33.43
333.736	32.23
334.201	40.43
334.666	31.12
335.131	37.73
335.596	43.42
336.061	37.42
336.526	31.52
336.991	32.23
337.456	42.63
337.921	42.42
338.386	33.62
338.851	40.02
339.316	38.73
339.781	33.83
340.246	42.83
340.711	38.33
341.175	34.33
341.64	32.43
342.105	36.33
342.569	42.62
343.034	44.62
343.499	45.02
343.963	42.33
344.428	49.43
344.893	49.73
345.357	51.33
345.822	56.02
346.286	57.83
346.751	58.13
347.215	56.12
347.679	55.12
348.144	75.23
348.608	67.62
349.073	59.12
349.537	61.83
350.001	61.52
350.465	74.53
350.93	65.12
351.394	65.23
351.858	62.03
352.322	76.13
352.786	69.23
353.25	76.42
353.715	91.43
354.179	75.92
354.643	97.53
355.107	102.73
355.571	79.73
356.035	81.52
356.498	91.42
356.962	91.62
357.426	105.02
357.89	91.43
358.354	76.33
358.818	69.93
359.281	69.43
359.745	62.93
360.209	62.23
360.673	63.53
361.136	68.13
361.6	72.92
362.064	69.63
362.527	68.82
362.991	82.23
363.454	63.62
363.918	63.43
364.381	66.92
364.845	73.73
365.308	78.62
365.772	76.33
366.235	75.02
366.698	72.92
367.162	69.12
367.625	76.73
368.088	76.92
368.552	76.52
369.015	79.12
369.478	85.93
369.941	87.62
370.404	71.02
370.867	82.62
371.331	85.23
371.794	92.52
372.257	78.03
372.72	95.73
373.183	87.83
373.646	82.62
374.109	78.53
374.572	91.42
375.035	90.23
375.497	92.32
375.96	94.23
376.423	93.23
376.886	101.43
377.349	95.02
377.811	91.43
378.274	92.43
378.737	92.33
379.199	98.43
379.662	96.93
380.125	97.33
380.587	92.43
381.05	97.73
381.512	102.32
381.975	111.83
382.437	112.43
382.9	98.92
383.362	110.52
383.825	117.33
384.287	121.23
384.75	111.62
385.212	116.23
385.674	124.82
386.136	118.83
386.599	108.33
387.061	111.73
387.523	108.43
387.985	113.12
388.447	123.23
388.91	110.03
389.372	121.53
389.834	125.62
390.296	116.73
390.758	119.33
391.22	119.12
391.682	140.33
392.144	158.12
392.606	135.52
393.068	129.33
393.529	138.52
393.991	127.83
394.453	119.23
394.915	123.92
395.377	129.12
395.838	136.62
396.3	131.92
396.762	128.93
397.224	124.62
397.685	120.32
398.147	121.63
398.608	121.73
399.07	122.93
399.531	131.23
399.993	140.03
400.454	144.33
400.916	134.62
401.377	136.93
401.839	137.82
402.3	146.33
402.762	146.62
403.223	167.33
403.684	166.12
404.145	156.12
404.607	153.23
405.068	145.42
405.529	154.62
405.99	165.23
406.451	159.32
406.913	164.23
407.374	154.83
407.835	160.23
408.296	157.43
408.757	164.52
409.218	171.73
409.679	162.33
410.14	175.03
410.601	159.52
411.062	167.43
411.522	173.43
411.983	171.02
412.444	164.93
412.905	182.43
413.366	183.52
413.826	185.33
414.287	215.62
414.748	250.62
415.208	240.93
415.669	207.93
416.13	198.23
416.59	196.02
417.051	210.93
417.511	215.23
417.972	238.93
418.432	244.83
418.893	279.03
419.353	242.33
419.814	199.52
420.274	181.92
420.734	179.42
421.195	189.23
421.655	189.03
422.115	192.82
422.576	194.52
423.036	194.62
423.496	205.82
423.956	209.73
424.416	220.93
424.876	254.23
425.336	254.02
425.797	251.32
426.257	242.02
426.717	226.13
427.177	227.42
427.637	219.32
428.097	220.73
428.556	225.62
429.016	254.83
429.476	251.73
429.936	271.73
430.396	267.72
430.856	279.82
431.315	296.23
431.775	332.43
432.235	365.83
432.694	332.63
433.154	340.53
433.614	368.73
434.073	316.63
434.533	276.23
434.993	261.73
435.452	268.33
435.912	272.23
436.371	277.43
436.83	267.83
437.29	252.73
437.749	241.12
438.209	235.53
438.668	260.42
439.127	278.23
439.587	250.43
440.046	233.33
440.505	256.52
440.964	278.73
441.424	316.43
441.883	297.32
442.342	255.52
442.801	225.42
443.26	225.33
443.719	217.53
444.178	217.53
444.637	213.52
445.096	220.73
445.555	224.83
446.014	229.63
446.473	237.42
446.932	230.82
447.391	225.03
447.849	228.32
448.308	224.03
448.767	229.63
449.226	242.43
449.685	245.62
450.143	250.12
450.602	245.02
451.061	229.33
451.519	228.63
451.978	226.83
452.436	234.62
452.895	234.13
453.353	252.82
453.812	237.73
454.27	239.12
454.729	244.02
455.187	240.92
455.646	243.13
456.104	248.83
456.562	257.43
457.021	271.42
457.479	267.22
457.937	277.52
458.395	268.52
458.854	261.03
459.312	252.53
459.77	278.62
460.228	260.43
460.686	246.72
461.144	254.22
461.602	249.73
462.06	245.82
462.518	257.63
462.976	256.02
463.434	261.23
463.892	272.42
464.35	282.62
464.808	292.83
465.266	269.83
465.724	275.13
466.181	280.62
466.639	273.33
467.097	287.23
467.555	302.92
468.012	307.92
468.47	315.83
468.928	336.23
469.385	346.52
469.843	346.92
470.3	343.83
470.758	359.23
471.215	376.22
471.673	406.62
472.13	405.32
472.588	431.03
473.045	381.43
473.503	382.52
473.96	394.33
474.417	400.42
474.875	434.43
475.332	470.33
475.789	472.63
476.246	469.93
476.704	487.63
477.161	506.42
477.618	523.33
478.075	559.43
478.532	606.12
478.989	679.33
479.446	780.93
479.903	750.63
480.36	779.53
480.817	822.43
481.274	918.72
481.731	995.72
482.188	1065.42
482.645	1198.03
483.102	1277.32
483.558	1393.53
484.015	1438.32
484.472	1430.82
484.929	1369.72
485.385	1331.52
485.842	1296.92
486.299	1263.92
486.755	1220.83
487.212	1032.32
487.668	890.02
488.125	828.83
488.582	765.33
489.038	730.03
489.494	698.52
489.951	683.03
490.407	663.43
490.864	642.93
491.32	640.73
491.776	637.23
492.233	644.32
492.689	615.53
493.145	607.93
493.602	599.33
494.058	624.12
494.514	619.52
494.97	630.73
495.426	652.42
495.882	623.23
496.338	608.83
496.794	624.12
497.251	608.42
497.707	635.63
498.163	634.42
498.618	646.43
499.074	641.42
499.53	660.02
499.986	665.23
500.442	647.02
500.898	628.52
501.354	621.12
501.809	632.32
502.265	628.03
502.721	636.73
503.177	645.52
503.632	646.62
504.088	663.73
504.543	668.13
504.999	693.53
505.455	658.82
505.91	646.62
506.366	644.12
506.821	639.93
507.277	642.82
507.732	638.43
508.187	631.62
508.643	652.23
509.098	643.03
509.553	666.02
510.009	681.43
510.464	677.12
510.919	697.53
511.375	710.13
511.83	721.52
512.285	734.52
512.74	767.42
513.195	789.73
513.65	772.83
514.105	783.02
514.56	774.23
515.015	792.73
515.47	818.33
515.925	790.33
516.38	804.12
516.835	805.33
517.29	791.83
517.745	789.33
518.2	771.43
518.655	759.12
519.109	757.43
519.564	751.23
520.019	744.62
520.474	730.13
520.928	729.73
521.383	722.32
521.838	722.12
522.292	723.23
522.747	727.73
523.201	721.52
523.656	713.03
524.11	710.63
524.565	706.83
525.019	698.23
525.474	714.33
525.928	713.43
526.382	703.92
526.837	712.62
527.291	715.53
527.745	713.23
528.2	719.43
528.654	706.03
529.108	691.92
529.562	704.53
530.016	703.02
530.47	699.53
530.925	703.53
531.379	709.03
531.833	720.32
532.287	706.93
532.741	707.43
533.195	715.93
533.649	720.03
534.103	733.03
534.556	708.43
535.01	721.52
535.464	707.22
535.918	718.63
536.372	727.02
536.826	729.13
537.279	716.02
537.733	723.23
538.187	722.42
538.64	726.73
539.094	739.33
539.548	744.52
540.001	744.43
540.455	742.02
540.908	748.42
541.362	755.83
541.815	760.12
542.269	770.73
542.722	772.03
543.175	786.12
543.629	786.32
544.082	813.72
544.536	795.73
544.989	792.73
545.442	806.62
545.895	811.02
546.349	809.43
546.802	811.02
547.255	817.72
547.708	824.92
548.161	833.23
548.614	840.43
549.067	839.83
549.52	842.33
549.973	835.33
550.426	824.93
550.879	817.33
551.332	820.52
551.785	828.83
552.238	828.62
552.691	839.52
553.144	855.73
553.596	874.02
554.049	892.33
554.502	915.12
554.955	933.93
555.407	919.12
555.86	915.92
556.313	907.92
556.765	905.13
557.218	909.23
557.67	908.82
558.123	902.23
558.576	887.62
559.028	907.13
559.48	906.93
559.933	898.62
560.385	857.93
560.838	839.93
561.29	819.62
561.742	806.13
562.195	786.33
562.647	798.23
563.099	802.93
563.551	794.53
564.004	801.93
564.456	786.02
564.908	783.23
565.36	759.53
565.812	745.32
566.264	733.73
566.716	727.73
567.168	726.43
567.62	734.63
568.072	709.03
568.524	715.23
568.976	706.32
569.428	694.23
569.88	693.72
570.332	703.02
570.784	707.52
571.235	703.82
571.687	724.73
572.139	725.23
572.59	737.32
573.042	750.82
573.494	735.23
573.945	731.93
574.397	699.73
574.849	710.62
575.3	712.23
575.752	707.83
576.203	711.62
576.655	702.12
577.106	685.73
577.557	687.02
578.009	690.73
578.46	687.43
578.912	676.82
579.363	688.62
579.814	686.73
580.265	695.13
580.717	694.22
581.168	693.83
581.619	695.23
582.07	705.63
582.521	697.23
582.972	699.23
583.423	702.52
583.875	692.23
584.326	705.52
584.777	723.63
585.227	739.92
585.678	764.22
586.129	788.82
586.58	801.73
587.031	844.42
587.482	873.23
587.933	927.03
588.384	879.93
588.834	824.33
589.285	797.43
589.736	798.53
590.186	794.02
590.637	784.42
591.088	766.33
591.538	752.33
591.989	757.03
592.439	746.13
592.89	731.82
593.34	732.12
593.791	730.82
594.241	726.23
594.692	719.73
595.142	725.12
595.593	716.73
596.043	722.93
596.493	736.53
596.943	730.33
597.394	745.92
597.844	736.23
598.294	753.33
598.744	779.62
599.195	814.12
599.645	848.83
600.095	895.43
600.545	954.53
600.995	1011.53
601.445	1067.52
601.895	1120.83
602.345	1170.12
602.795	1158.22
603.245	1097.22
603.695	1049.43
604.145	995.73
604.594	948.02
605.044	895.22
605.494	826.13
605.944	772.12
606.393	771.13
606.843	758.53
607.293	749.13
607.743	754.53
608.192	767.73
608.642	776.33
609.091	788.93
609.541	783.92
609.99	793.23
610.44	782.23
610.889	744.13
611.339	722.12
611.788	704.83
612.238	701.23
612.687	731.23
613.136	723.23
613.586	732.82
614.035	713.93
614.484	740.42
614.933	730.22
615.383	741.73
615.832	735.93
616.281	724.43
616.73	699.23
617.179	673.73
617.628	661.82
618.077	657.33
618.526	636.43
618.975	635.52
619.424	640.23
619.873	636.23
620.322	631.62
620.771	621.12
621.22	618.02
621.669	616.02
622.118	602.43
622.567	597.02
623.015	600.03
623.464	590.12
623.913	579.13
624.361	567.02
624.81	574.53
625.259	571.52
625.707	569.63
626.156	574.53
626.604	592.93
627.053	573.82
627.501	586.52
627.95	596.73
628.398	606.93
628.847	594.43
629.295	578.23
629.744	592.52
630.192	592.32
630.64	581.62
631.089	565.52
631.537	565.53
631.985	549.42
632.433	562.42
632.881	555.83
633.33	564.23
633.778	548.92
634.226	548.23
634.674	550.33
635.122	562.43
635.57	573.02
636.018	595.72
636.466	579.73
636.914	574.83
637.362	592.52
637.81	598.73
638.258	608.63
638.705	611.22
639.153	636.62
639.601	643.53
640.049	664.32
640.497	689.13
640.944	716.43
641.392	670.33
641.84	641.43
642.287	604.62
642.735	590.52
643.182	581.83
643.63	579.12
644.078	584.43
644.525	591.73
644.973	605.12
645.42	620.43
645.867	637.33
646.315	662.93
646.762	683.23
647.21	700.83
647.657	722.02
648.104	759.22
648.551	766.12
648.999	842.12
649.446	915.42
649.893	992.72
650.34	1136.62
650.787	1343.12
651.234	1678.43
651.682	2176.52
652.129	2965.32
652.576	4185.02
653.023	6122.02
653.47	8234.73
653.917	10162.32
654.363	11662.83
654.81	12767.62
655.257	12105.33
655.704	8010.63
656.151	4837.82
656.598	3172.32
657.044	2286.82
657.491	1779.32
657.938	1442.32
658.385	1212.02
658.831	1061.52
659.278	948.33
659.724	851.63
660.171	795.52
660.618	731.72
661.064	695.23
661.511	679.92
661.957	659.93
662.404	652.42
662.85	672.02
663.296	638.12
663.743	577.23
664.189	554.43
664.635	542.83
665.082	541.03
665.528	550.63
665.974	529.22
666.42	524.52
666.867	511.72
667.313	497.42
667.759	485.02
668.205	465.43
668.651	473.93
669.097	460.12
669.543	463.73
669.989	460.83
670.435	467.52
670.881	469.93
671.327	470.42
671.773	485.02
672.219	517.02
672.665	580.43
673.11	616.82
673.556	663.62
674.002	703.62
674.448	680.52
674.893	583.12
675.339	503.13
675.785	472.83
676.23	440.23
676.676	408.73
677.122	407.52
677.567	391.72
678.013	391.53
678.458	379.73
678.904	377.63
679.349	366.03
679.794	367.53
680.24	370.13
680.685	367.62
681.131	367.22
681.576	365.62
682.021	371.03
682.466	359.52
682.912	361.93
683.357	373.23
683.802	401.33
684.247	430.82
684.692	476.32
685.137	522.03
685.583	571.42
686.028	591.12
686.473	546.02
686.918	474.73
687.363	436.43
687.807	408.43
688.252	386.82
688.697	374.82
689.142	355.83
689.587	352.23
690.032	346.52
690.477	366.93
690.921	375.93
691.366	400.33
691.811	427.32
692.255	453.62
692.7	487.53
693.145	536.23
693.589	752.52
694.034	1237.72
694.478	1651.12
694.923	1820.43
695.367	2341.03
695.812	1253.12
696.256	525.62
696.701	392.52
697.145	362.23
697.59	346.52
698.034	335.23
698.478	346.33
698.922	338.73
699.367	343.53
699.811	357.92
700.255	380.43
700.699	403.53
701.143	448.23
701.588	504.13
702.032	543.83
702.476	539.83
702.92	517.13
703.364	526.93
703.808	694.43
704.252	1142.12
704.696	1560.33
705.14	1759.02
705.584	2224.82
706.027	1132.33
706.471	561.02
706.915	415.73
707.359	377.03
707.803	339.62
708.246	325.52
708.69	324.52
709.134	328.62
709.577	321.03
710.021	329.02
710.465	316.13
710.908	313.22
711.352	319.03
711.795	336.52
712.239	376.42
712.682	410.73
713.126	430.82
713.569	478.22
714.012	376.03
714.456	322.43
714.899	313.23
715.342	285.83
715.786	267.03
716.229	270.13
716.672	273.62
717.115	265.03
717.558	263.13
718.002	256.23
718.445	281.23
718.888	300.43
719.331	302.02
719.774	319.83
720.217	316.33
720.66	304.23
721.103	280.52
721.546	261.52
721.989	255.93
722.432	246.33
722.874	248.73
723.317	242.62
723.76	243.33
724.203	273.52
724.645	334.62
725.088	480.73
725.531	602.73
725.974	664.73
726.416	571.82
726.859	321.23
727.301	262.33
727.744	249.13
728.187	241.43
728.629	255.93
729.071	259.62
729.514	277.12
729.956	289.93
730.399	297.62
730.841	305.73
731.283	280.63
731.726	273.63
732.168	272.12
732.61	278.52
733.053	308.63
733.495	339.02
733.937	376.83
734.379	423.12
734.821	468.62
735.263	593.23
735.705	924.42
736.148	1745.82
736.59	2792.43
737.032	3197.93
737.474	2607.72
737.916	868.62
738.357	455.72
738.799	349.83
739.241	319.33
739.683	299.12
740.125	316.12
740.567	318.72
741.008	334.93
741.45	338.73
741.892	335.12
742.334	367.93
742.775	380.73
743.217	371.62
743.658	286.02
744.1	276.43
744.542	289.62
744.983	338.33
745.425	366.32
745.866	365.12
746.307	296.62
746.749	299.73
747.19	359.73
747.632	502.83
748.073	980.03
748.514	2060.43
748.956	3053.42
749.397	3840.83
749.838	3184.23
750.279	3100.92
750.72	1576.72
751.162	586.53
751.603	345.23
752.044	270.02
752.485	237.03
752.926	218.13
753.367	211.73
753.808	203.23
754.249	196.43
754.69	197.12
755.131	191.73
755.572	194.73
756.013	192.73
756.453	193.33
756.894	199.03
757.335	198.93
757.776	202.32
758.216	207.82
758.657	205.02
759.098	219.53
759.538	245.33
759.979	288.73
760.42	411.53
760.86	789.83
761.301	2079.12
761.741	4866.23
762.182	6697.92
762.622	4758.23
763.063	1406.22
763.503	575.43
763.943	339.82
764.384	295.32
764.824	270.83
765.264	270.03
765.705	228.82
766.145	196.62
766.585	189.73
767.025	179.42
767.465	180.73
767.906	197.53
768.346	221.93
768.786	223.23
769.226	235.03
769.666	334.52
770.106	696.73
770.546	1733.32
770.986	2797.32
771.426	2478.73
771.866	850.33
772.306	352.83
772.745	219.62
773.185	186.83
773.625	171.62
774.065	159.73
774.505	167.52
774.944	226.82
775.384	395.32
775.824	635.52
776.263	603.33
776.703	291.73
777.142	177.33
777.582	145.62
778.021	132.83
778.461	136.83
778.9	135.62
779.34	134.03
779.779	126.12
780.219	111.93
780.658	118.33
781.097	116.83
781.537	113.33
781.976	116.02
782.415	105.12
782.855	108.52
783.294	111.33
783.733	106.62
784.172	111.23
784.611	109.23
785.05	110.62
785.489	111.63
785.928	121.12
786.367	128.12
786.806	129.52
787.245	137.82
787.684	146.92
788.123	159.23
788.562	139.52
789.001	133.33
789.44	136.12
789.879	124.23
790.317	122.02
790.756	137.33
791.195	130.83
791.634	157.93
792.072	222.23
792.511	404.93
792.95	1120.72
793.388	2251.02
793.827	1980.72
794.265	704.83
794.704	299.42
795.142	189.63
795.581	162.42
796.019	144.33
796.458	132.93
796.896	124.62
797.334	142.83
797.773	163.83
798.211	239.92
798.649	504.73
799.087	1124.02
799.526	1732.32
799.964	2167.53
800.402	2109.82
800.84	809.02
801.278	320.62
801.716	199.13
802.154	166.23
802.592	160.53
803.03	145.23
803.468	145.23
803.906	145.03
804.344	156.03
804.782	154.03
805.22	140.32
805.658	142.42
806.096	154.03
806.533	167.83
806.971	186.82
807.409	232.62
807.847	353.52
808.284	752.13
808.722	2062.82
809.16	3489.93
809.597	3465.32
810.035	5859.62
810.472	5986.02
810.91	2220.93
811.347	856.93
811.785	434.33
812.222	276.32
812.66	210.73
813.097	170.73
813.535	152.02
813.972	141.03
814.409	127.52
814.846	117.33
815.284	114.33
815.721	103.33
816.158	111.13
816.595	120.83
817.032	154.82
817.47	188.12
817.907	129.83
818.344	104.32
818.781	102.03
819.218	107.62
819.655	129.93
820.092	203.03
820.529	223.23
820.966	176.93
821.403	135.23
821.839	107.93
822.276	106.12
822.713	132.32
823.15	145.93
823.587	125.43
824.023	156.83
824.46	334.63
824.897	982.63
825.333	1419.03
825.77	604.32
826.206	256.82
826.643	140.62
827.08	102.43
827.516	86.13
827.953	80.93
828.389	83.92
828.825	71.23
829.262	69.92
829.698	61.73
830.135	69.73
830.571	63.82
831.007	68.73
831.443	69.52
831.88	66.63
832.316	65.02
832.752	67.12
833.188	72.83
833.624	65.83
834.06	74.62
834.497	73.33
834.933	76.63
835.369	77.52
835.805	72.02
836.241	78.52
836.677	85.63
837.112	100.32
837.548	105.62
837.984	150.93
838.42	222.83
838.856	558.83
839.292	1655.92
839.727	2410.32
840.163	1144.82
840.599	1032.22
841.034	2199.03
841.47	2214.22
841.906	826.83
842.341	356.33
842.777	214.23
843.212	216.02
843.648	198.82
844.083	115.82
844.519	86.53
844.954	72.63
845.39	55.73
845.825	60.83
846.261	58.73
846.696	63.83
847.131	55.73
847.566	60.62
848.002	54.73
848.437	58.53
848.872	64.23
849.307	63.53
849.742	95.93
850.177	208.02
850.613	604.13
851.048	916.23
851.483	406.43
851.918	169.82
852.353	89.52
852.788	51.02
853.223	52.92
853.657	55.52
854.092	45.33
854.527	45.02
854.962	42.62
855.397	53.73
855.832	55.52
856.266	41.73
856.701	42.83
857.136	39.62
857.57	43.43
858.005	54.83
858.44	60.93
858.874	46.53
859.309	55.03
859.743	43.23
860.178	51.52
860.612	47.42
861.047	52.02
861.481	71.83
861.915	71.23
862.35	51.83
862.784	41.02
863.218	42.73
863.653	38.62
864.087	49.12
864.521	55.03
864.955	74.63
865.39	166.42
865.824	187.83
866.258	122.23
866.692	180.12
867.126	193.33
867.56	118.23
867.994	63.12
868.428	42.93
868.862	53.53
869.296	58.33
869.73	65.32
870.164	60.12
870.598	51.73
871.031	40.73
871.465	32.52
871.899	33.13
872.333	20.13
872.766	32.12
873.2	26.62
873.634	28.73
874.067	27.33
874.501	28.32
874.935	41.32
875.368	26.82
875.802	28.83
876.235	30.52
876.669	23.33
877.102	25.43
877.535	29.73
877.969	27.43
878.402	27.12
878.836	15.33
879.269	27.43
879.702	24.42
880.135	25.42
880.569	27.23
881.002	36.43
881.435	26.73
881.868	18.62
882.301	23.83
882.734	15.12
883.167	21.23
883.601	18.83
884.034	25.23
884.467	13.83
884.899	23.93
885.332	18.12
885.765	20.03
886.198	18.83
886.631	21.02
887.064	21.33
887.497	27.33
887.929	21.92
888.362	13.83
888.795	15.83
889.228	20.52
889.66	23.62
890.093	19.82
890.526	17.92
890.958	17.63
891.391	20.03
891.823	23.03
892.256	16.33
892.688	11.62
893.121	12.53
893.553	13.83
893.985	23.42
894.418	17.52
894.85	14.73
895.282	14.02
895.715	12.33
896.147	17.13
896.579	21.83
897.011	11.93
897.444	16.83
897.876	10.43
898.308	13.73
898.74	13.93
899.172	9.33
899.604	22.23
900.036	24.82
900.468	15.12
900.9	21.33
901.332	16.02
901.764	15.12
902.196	20.13
902.628	20.93
903.06	20.02
903.491	30.73
903.923	22.83
904.355	21.33
904.787	23.92
905.218	20.03
905.65	27.83
906.082	16.62
906.513	7.23
906.945	14.52
907.376	8.32
907.808	17.43
908.239	22.63
908.671	18.53
909.102	27.43
909.534	24.63
909.965	50.03
910.397	99.12
910.828	332.72
911.259	492.52
911.691	227.12
912.122	113.23
912.553	56.12
912.984	34.83
913.415	28.63
913.847	23.62
914.278	15.93
914.709	14.52
915.14	19.43
915.571	21.73
916.002	14.52
916.433	19.63
916.864	16.83
917.295	18.92
917.726	16.93
918.157	24.42
918.587	27.93
919.018	26.53
919.449	23.73
919.88	23.42
920.311	29.43
920.741	53.73
921.172	183.83
921.603	163.52
922.033	76.02
922.464	50.53
922.895	24.73
923.325	21.73
923.756	12.52
924.186	8.83
924.617	16.93
925.047	24.93
925.478	23.23
925.908	22.12
926.338	19.43
926.769	12.63
927.199	20.03
927.629	8.33
928.06	13.12
928.49	16.53
928.92	10.33
929.35	10.63
929.78	13.42
930.21	2.73
930.641	7.23
931.071	9.33
931.501	-0.67
931.931	15.53
932.361	5.93
932.791	2.83
933.221	9.53
933.651	8.33
934.08	25.62
934.51	28.62
934.94	16.53
935.37	9.43
935.8	9.83
936.229	2.62
936.659	10.02
937.089	6.33
937.519	12.93
937.948	25.52
938.378	14.83
938.807	8.23
939.237	2.53
939.666	6.43
940.096	-6.88
940.525	7.02
940.955	6.33
941.384	6.43
941.814	-3.67
942.243	-9.27
942.672	7.83
943.102	-6.17
943.531	0.33
943.96	2.43
944.39	-0.58
944.819	1.32
945.248	7.93
945.677	0.73
946.106	5.73
946.535	4.12
946.964	-0.17
947.393	0.43
947.822	4.43
948.251	-3.18
948.68	1.63
949.109	3.42
949.538	5.73
949.967	7.73
950.396	3.42
950.825	7.62
951.254	-2.37
951.682	-6.38
952.111	12.43
952.54	4.73
952.969	-1.98
953.397	-3.77
953.826	-3.38
954.254	0.52
954.683	-0.38
955.112	1.62
955.54	1.33
955.969	5.12
956.397	-0.17
956.826	-0.38
957.254	1.73
957.682	-2.58
958.111	8.62
958.539	1.73
958.967	4.03
959.396	-2.08
959.824	-2.57
960.252	7.42
960.68	-12.58
961.109	-3.08
961.537	-7.07
961.965	1.73
962.393	1.62
962.821	-4.37
963.249	-2.58
963.677	3.12
964.105	9.12
964.533	49.23
964.961	48.62
965.389	23.03
965.817	7.92
966.245	1.42
966.672	-0.77
967.1	-11.07
967.528	-0.88
967.956	-4.07
968.383	4.12
968.811	-5.27
969.239	-7.68
969.666	-6.07
970.094	3.43
970.522	1.12
970.949	-2.77
971.377	-3.37
971.804	-4.88
972.232	-6.67
972.659	0.33
973.087	-1.58
973.514	-5.88
973.941	-5.77
974.369	3.23
974.796	-3.97
975.223	1.82
975.651	-0.67
976.078	6.62
976.505	0.73
976.932	6.12
977.359	17.62
977.786	15.12
978.214	4.33
978.641	-0.58
979.068	-2.38
979.495	-6.48
979.922	-0.68
980.349	-6.98
980.776	7.83
981.202	-0.27
981.629	1.83
982.056	10.12
982.483	-3.17
982.91	-1.38
983.337	-4.77
983.763	1.73
984.19	-1.58
984.617	-6.27
985.043	-5.07
985.47	-2.17
985.897	-0.57
986.323	-5.77
986.75	4.33
987.176	-0.58
987.603	-1.68
988.029	-2.98
988.456	-2.17
988.882	3.53
989.308	0.52
989.735	-5.98
990.161	-3.67
990.587	-5.68
991.014	3.83
991.44	7.23
991.866	-4.37
992.292	-7.47
992.719	-7.77
993.145	7.33
993.571	-6.87
993.997	-1.77
994.423	-2.77
994.849	-2.48
995.275	3.13
995.701	6.52
996.127	-2.38
996.553	2.83
996.979	-1.67
997.405	-4.47
997.83	-6.17
998.256	-3.77
998.682	-6.27
999.108	-9.98
999.534	-4.08
999.959	-5.98
1000.385	-9.07
1000.811	-0.48
1001.236	-8.98
1001.662	-10.17
1002.087	-7.17
1002.513	5.32
1002.938	0.93
1003.364	-5.07
1003.789	-2.57
1004.215	3.03
1004.64	-4.88
1005.066	0.03
1005.491	4.23
1005.916	-1.48
1006.342	-4.37
1006.767	-9.88
1007.192	1.93
1007.617	-2.77
1008.042	-2.47
1008.468	-8.48
1008.893	-4.07
1009.318	-5.27
1009.743	2.82
1010.168	6.33
1010.593	2.02
1011.018	-7.77
1011.443	1.23
1011.868	2.63
1012.293	-7.77
1012.718	-3.67
1013.143	-3.68
1013.567	-0.38
1013.992	-5.67
1014.417	-17.77
1014.842	-0.48
1015.267	-3.88
1015.691	-1.47
1016.116	1.23
1016.541	-2.48
1016.965	2.73
1017.39	-3.48
1017.814	2.33
1018.239	-0.17
1018.663	-8.27
1019.088	-4.77
1019.512	-2.48
1019.937	-4.67
1020.361	-5.98
1020.785	-6.88
1021.21	3.62
1021.634	-4.38
1022.058	3.02
1022.483	4.83
1022.907	-5.58
1023.331	-6.97
1023.755	-2.27
1024.179	1.73
1024.604	-7.67
1025.028	-4.48
1025.452	-7.88
1025.876	-6.27
1026.3	-0.58
1026.724	-11.17
1027.148	-9.88
1027.572	-7.67
1027.996	-3.77
1028.42	-5.58
1028.843	-6.77
1029.267	-5.88
1029.691	-4.68
1030.115	-5.77
1030.539	-6.38
1030.962	-4.38
1031.386	-14.17
1031.81	-3.17
1032.233	-2.38
1032.657	-2.57
1033.08	-3.88
1033.504	-7.27
1033.927	-3.97
1034.351	-0.27
1034.774	-3.88
1035.198	-5.88
1035.621	-5.07
1036.045	-11.17
1036.468	-2.88
1036.891	-7.58
1037.315	-9.18
1037.738	-8.57
1038.161	0.73
1038.584	-4.07
1039.008	-5.38
1039.431	-5.57
1039.854	1.73
1040.277	-7.27
1040.7	-13.38
1041.123	-6.77
1041.546	-4.37
1041.969	-8.88
1042.392	-5.27
1042.815	-5.38
1043.238	-2.67
1043.661	2.12
1044.084	-4.77
1044.507	-0.88
1044.93	-9.17
1045.352	-7.58
1045.775	-5.98
1046.198	-4.67
1046.621	-6.67
1047.043	-2.37
1047.466	2.23
1047.889	-9.67
1048.311	-9.88
1048.734	-1.67
1049.156	-4.97
1049.579	-6.68
1050.001	-2.17
1050.424	-7.98
1050.846	-5.48
1051.269	-1.47
1051.691	-5.57
1052.113	-3.08
1052.536	-3.07
1052.958	-5.07
1053.38	-7.67
1053.802	-8.88
1054.225	0.42
1054.647	-9.48
1055.069	-5.88
1055.491	-0.07
1055.913	-10.98
1056.335	-1.08
1056.757	0.23
1057.179	-12.08
1057.601	-4.97
1058.023	1.93
1058.445	-9.08
1058.867	-7.77
1059.289	-6.58
1059.711	-4.77
1060.133	-3.98
1060.555	-2.67
1060.976	-7.58
1061.398	-1.77
1061.82	-8.77
1062.241	-4.77
1062.663	-12.77
1063.085	-5.88
1063.506	-3.57
1063.928	0.12
1064.35	-2.47
1064.771	-15.58
1065.193	-5.18
1065.614	-11.17
1066.035	-3.67
1066.457	-1.57
1066.878	2.62
1067.3	-2.38
1067.721	1.33
1068.142	-7.38
1068.564	0.02
1068.985	-6.58
1069.406	-6.47
1069.827	-7.17
1070.248	-1.38
1070.67	-6.67
1071.091	-4.37
1071.512	-2.77
1071.933	-1.17
1072.354	-5.37
1072.775	-5.38
1073.196	-8.27
1073.617	-1.18
1074.038	-7.57
1074.459	-4.47
1074.88	-10.17
1075.3	-7.27
1075.721	-7.18
1076.142	-1.87
1076.563	-3.18
1076.983	-10.57
1077.404	-7.57
1077.825	-15.27
1078.246	-4.17
1078.666	-11.27
1079.087	-10.97
1079.507	-4.58
1079.928	-1.88
1080.348	1.13
1080.769	-5.38
1081.189	-6.47
1081.61	2.03
1082.03	-5.88
1082.451	-8.48
1082.871	-2.37
1083.291	-10.27
1083.711	-4.47
1084.132	-7.67
1084.552	-7.48
1084.972	-0.57
1085.392	-10.88
1085.813	-11.77
1086.233	-7.27
1086.653	-9.47
1087.073	0.33
1087.493	-1.88
1087.913	-9.98
1088.333	-6.27
1088.753	1.23
1089.173	1.02
1089.593	-3.17
1090.013	3.12
1090.433	4.02
1090.852	-8.07
1091.272	0.33
1091.692	-6.67
1092.112	-7.38
1092.531	-13.77
1092.951	-12.97
1093.371	-0.48
1093.79	-5.67
1094.21	-9.57
1094.63	-4.57
1095.049	-3.88
1095.469	-4.77
1095.888	-2.88
1096.308	3.52
1096.727	1.12
1097.146	-3.57
1097.566	-2.17
1097.985	-9.88
1098.405	-5.57
1098.824	-2.38
1099.243	-5.38
1099.662	-7.08
1100.082	-4.77
1100.501	-0.48
1100.92	-6.48
1101.339	-11.77
1101.758	1.33
