Data from 20171114-ORNL-Ar_H_NY_Subt18_08-06-15-820.txt Node
Date: Tue Nov 14 08:06:15 EST 2017
User: Ender
Spectrometer: HR+D1039
Trigger mode: 0
Integration Time (sec): 2.730000E-2
Scans to average: 10
Electric dark correction enabled: true
Nonlinearity correction enabled: false
Boxcar width: 0
XAxis mode: Wavelengths
Number of Pixels in Spectrum: 2048
>>>>>Begin Spectral Data<<<<<
187.836	0.71
188.309	0.71
188.782	0.71
189.255	2.61
189.728	3.41
190.201	4.91
190.674	-1.09
191.147	4.01
191.619	-11.39
192.092	1.31
192.565	7.81
193.038	-1.59
193.511	-3.79
193.984	0.11
194.456	-3.59
194.929	-2.49
195.402	-1.39
195.874	0.51
196.347	1.11
196.82	-10.09
197.292	2.11
197.765	-1.99
198.237	-4.59
198.71	2.11
199.182	-0.69
199.655	2.51
200.127	0.61
200.6	-2.49
201.072	0.41
201.544	-0.79
202.017	-3.29
202.489	4.11
202.961	-3.39
203.433	-2.69
203.906	-1.39
204.378	-4.99
204.85	-2.99
205.322	-7.19
205.794	-3.29
206.266	-0.69
206.739	-9.09
207.211	2.01
207.683	-4.29
208.155	-5.99
208.627	-13.89
209.099	-6.19
209.57	-9.19
210.042	-2.69
210.514	3.41
210.986	-0.89
211.458	-5.19
211.93	-4.49
212.402	0.11
212.873	-9.99
213.345	-9.79
213.817	-15.99
214.288	-2.59
214.76	-11.49
215.232	-1.79
215.703	-4.89
216.175	-2.99
216.646	-1.99
217.118	-13.59
217.589	-2.79
218.061	-1.49
218.532	-3.09
219.004	-3.29
219.475	0.11
219.946	-2.79
220.418	-3.39
220.889	1.61
221.36	2.81
221.832	-3.99
222.303	-12.09
222.774	1.91
223.245	-12.79
223.717	-4.59
224.188	1.31
224.659	-11.69
225.13	-8.59
225.601	-3.59
226.072	-2.09
226.543	-1.09
227.014	0.01
227.485	-5.29
227.956	-10.59
228.427	0.51
228.898	-0.19
229.369	-2.49
229.839	-3.49
230.31	-6.79
230.781	1.11
231.252	-2.89
231.722	-8.49
232.193	-1.49
232.664	-1.29
233.135	2.21
233.605	-0.89
234.076	-6.99
234.546	2.11
235.017	-0.49
235.487	0.41
235.958	-4.49
236.428	-2.79
236.899	2.91
237.369	9.51
237.84	2.61
238.31	6.31
238.78	0.61
239.251	-2.69
239.721	6.91
240.191	4.01
240.662	-4.59
241.132	-5.79
241.602	-2.49
242.072	0.81
242.542	10.51
243.013	-1.79
243.483	0.51
243.953	4.31
244.423	1.91
244.893	-1.99
245.363	0.11
245.833	1.31
246.303	-0.79
246.773	8.81
247.243	4.61
247.712	5.01
248.182	13.71
248.652	5.61
249.122	-5.19
249.592	7.21
250.061	18.61
250.531	35.71
251.001	17.61
251.471	21.51
251.94	21.01
252.41	6.71
252.879	0.61
253.349	13.01
253.818	6.51
254.288	3.21
254.757	9.11
255.227	4.91
255.696	10.01
256.166	7.11
256.635	11.11
257.105	7.11
257.574	10.21
258.043	14.21
258.513	16.91
258.982	13.01
259.451	7.61
259.92	15.21
260.389	7.11
260.859	14.21
261.328	12.91
261.797	18.81
262.266	6.81
262.735	14.11
263.204	7.11
263.673	3.81
264.142	8.31
264.611	1.61
265.08	2.01
265.549	-1.79
266.018	6.41
266.487	1.41
266.955	-0.89
267.424	0.41
267.893	3.81
268.362	1.81
268.83	1.41
269.299	7.41
269.768	3.21
270.236	10.01
270.705	3.81
271.174	8.91
271.642	9.61
272.111	4.31
272.579	20.01
273.048	26.21
273.516	27.91
273.985	24.21
274.453	22.21
274.922	15.81
275.39	16.81
275.858	4.01
276.327	14.91
276.795	16.91
277.263	6.91
277.731	32.41
278.2	52.81
278.668	64.01
279.136	53.11
279.604	24.81
280.072	14.71
280.54	11.61
281.008	10.21
281.477	10.21
281.945	8.31
282.413	13.21
282.881	18.11
283.348	7.21
283.816	16.61
284.284	15.91
284.752	23.11
285.22	12.11
285.688	12.91
286.156	20.21
286.623	48.81
287.091	55.51
287.559	28.41
288.026	23.11
288.494	17.31
288.962	7.51
289.429	9.41
289.897	17.91
290.364	15.31
290.832	16.71
291.3	17.21
291.767	20.21
292.234	21.71
292.702	13.11
293.169	25.51
293.637	28.41
294.104	23.41
294.571	12.21
295.039	12.51
295.506	12.71
295.973	20.21
296.44	19.71
296.908	21.11
297.375	19.01
297.842	20.41
298.309	20.01
298.776	16.21
299.243	21.91
299.71	19.01
300.177	20.91
300.644	23.11
301.111	21.51
301.578	21.31
302.045	15.31
302.512	23.91
302.979	26.01
303.446	22.11
303.913	20.81
304.379	16.11
304.846	28.21
305.313	21.41
305.78	21.01
306.246	26.61
306.713	31.01
307.18	25.91
307.646	28.71
308.113	29.11
308.579	23.01
309.046	25.41
309.512	21.41
309.979	23.71
310.445	28.11
310.912	30.41
311.378	36.81
311.845	37.01
312.311	27.01
312.777	31.41
313.244	35.21
313.71	38.91
314.176	30.61
314.642	31.01
315.109	36.81
315.575	31.91
316.041	39.11
316.507	35.01
316.973	33.11
317.439	33.71
317.905	31.61
318.371	36.41
318.837	37.61
319.303	36.71
319.769	32.01
320.235	41.01
320.701	33.21
321.167	36.21
321.633	39.81
322.099	41.81
322.564	50.01
323.03	38.21
323.496	36.91
323.962	40.71
324.427	40.81
324.893	39.81
325.359	37.11
325.824	39.21
326.29	42.81
326.755	38.01
327.221	42.91
327.686	43.61
328.152	45.21
328.617	40.31
329.083	45.51
329.548	46.71
330.014	46.91
330.479	41.61
330.944	46.21
331.41	43.31
331.875	47.11
332.34	38.81
332.805	41.01
333.271	49.11
333.736	38.71
334.201	54.11
334.666	59.61
335.131	57.51
335.596	49.71
336.061	50.21
336.526	41.71
336.991	49.01
337.456	55.21
337.921	52.11
338.386	48.71
338.851	44.51
339.316	39.51
339.781	50.31
340.246	50.11
340.711	46.71
341.175	55.81
341.64	44.81
342.105	60.21
342.569	59.61
343.034	53.91
343.499	54.41
343.963	53.11
344.428	61.51
344.893	60.71
345.357	61.81
345.822	58.91
346.286	71.71
346.751	74.11
347.215	72.81
347.679	72.31
348.144	98.71
348.608	87.71
349.073	65.41
349.537	75.21
350.001	75.71
350.465	92.91
350.93	82.21
351.394	83.01
351.858	77.41
352.322	89.31
352.786	81.91
353.25	103.81
353.715	113.01
354.179	94.91
354.643	128.11
355.107	124.51
355.571	110.71
356.035	109.61
356.498	120.41
356.962	129.81
357.426	133.61
357.89	123.41
358.354	93.01
358.818	87.71
359.281	78.81
359.745	82.71
360.209	72.91
360.673	78.21
361.136	77.61
361.6	81.81
362.064	85.01
362.527	82.41
362.991	93.21
363.454	81.41
363.918	82.31
364.381	84.81
364.845	83.61
365.308	81.21
365.772	86.11
366.235	87.11
366.698	84.41
367.162	89.91
367.625	87.01
368.088	87.91
368.552	83.21
369.015	88.41
369.478	92.31
369.941	93.21
370.404	100.11
370.867	105.11
371.331	107.51
371.794	118.31
372.257	113.51
372.72	116.91
373.183	108.01
373.646	105.41
374.109	103.91
374.572	101.71
375.035	110.31
375.497	111.21
375.96	104.11
376.423	108.71
376.886	118.01
377.349	115.01
377.811	102.71
378.274	108.81
378.737	111.91
379.199	107.11
379.662	108.01
380.125	118.31
380.587	122.01
381.05	122.91
381.512	134.01
381.975	139.21
382.437	131.91
382.9	134.11
383.362	134.01
383.825	142.61
384.287	149.81
384.75	142.21
385.212	140.91
385.674	141.91
386.136	135.21
386.599	128.01
387.061	131.31
387.523	130.51
387.985	136.21
388.447	144.61
388.91	146.11
389.372	159.51
389.834	152.61
390.296	144.01
390.758	157.41
391.22	171.71
391.682	211.81
392.144	313.21
392.606	233.41
393.068	167.81
393.529	168.51
393.991	158.91
394.453	149.71
394.915	155.21
395.377	194.21
395.838	223.11
396.3	158.21
396.762	139.81
397.224	137.41
397.685	132.91
398.147	134.71
398.608	127.61
399.07	128.71
399.531	136.81
399.993	140.61
400.454	154.01
400.916	150.41
401.377	147.11
401.839	151.81
402.3	162.21
402.762	168.71
403.223	180.91
403.684	177.01
404.145	157.11
404.607	158.91
405.068	168.41
405.529	175.11
405.99	194.31
406.451	178.11
406.913	170.91
407.374	171.31
407.835	163.71
408.296	170.41
408.757	176.01
409.218	195.91
409.679	188.91
410.14	179.51
410.601	183.41
411.062	189.61
411.522	192.71
411.983	195.71
412.444	181.61
412.905	188.21
413.366	181.11
413.826	190.61
414.287	221.41
414.748	269.61
415.208	250.31
415.669	220.31
416.13	208.21
416.59	202.21
417.051	209.71
417.511	220.11
417.972	242.11
418.432	247.41
418.893	285.51
419.353	259.21
419.814	204.71
420.274	179.31
420.734	186.91
421.195	199.81
421.655	199.51
422.115	196.81
422.576	195.41
423.036	197.51
423.496	207.31
423.956	217.91
424.416	234.01
424.876	271.61
425.336	261.91
425.797	260.91
426.257	262.11
426.717	236.41
427.177	232.21
427.637	225.81
428.097	234.11
428.556	245.21
429.016	274.71
429.476	269.01
429.936	284.51
430.396	276.61
430.856	289.21
431.315	319.91
431.775	349.91
432.235	390.71
432.694	365.01
433.154	376.21
433.614	404.31
434.073	342.71
434.533	296.21
434.993	273.51
435.452	290.91
435.912	301.61
436.371	290.91
436.83	294.51
437.29	270.11
437.749	252.81
438.209	250.51
438.668	275.81
439.127	288.71
439.587	269.31
440.046	246.31
440.505	260.71
440.964	276.01
441.424	322.91
441.883	316.11
442.342	264.31
442.801	234.51
443.26	224.81
443.719	225.01
444.178	217.91
444.637	212.71
445.096	212.31
445.555	232.01
446.014	227.61
446.473	220.31
446.932	240.61
447.391	226.11
447.849	232.91
448.308	226.61
448.767	226.21
449.226	232.21
449.685	240.21
450.143	246.71
450.602	240.11
451.061	229.11
451.519	223.41
451.978	235.71
452.436	237.21
452.895	245.81
453.353	253.01
453.812	242.31
454.27	243.71
454.729	248.31
455.187	240.21
455.646	245.91
456.104	257.51
456.562	265.11
457.021	273.91
457.479	262.81
457.937	278.31
458.395	261.41
458.854	248.11
459.312	261.91
459.77	280.11
460.228	260.91
460.686	243.71
461.144	248.91
461.602	243.41
462.06	251.11
462.518	262.01
462.976	257.21
463.434	261.61
463.892	267.11
464.35	286.01
464.808	293.11
465.266	274.81
465.724	273.91
466.181	273.01
466.639	272.31
467.097	299.01
467.555	301.91
468.012	307.31
468.47	312.01
468.928	338.41
469.385	339.91
469.843	352.71
470.3	350.71
470.758	367.51
471.215	387.31
471.673	417.61
472.13	413.31
472.588	424.31
473.045	377.51
473.503	381.21
473.96	397.31
474.417	404.31
474.875	435.31
475.332	486.51
475.789	465.91
476.246	469.21
476.704	482.81
477.161	512.31
477.618	531.01
478.075	573.71
478.532	627.51
478.989	707.41
479.446	829.11
479.903	786.31
480.36	827.01
480.817	881.31
481.274	976.91
481.731	1100.41
482.188	1184.11
482.645	1327.11
483.102	1424.71
483.558	1578.01
484.015	1631.31
484.472	1602.21
484.929	1557.21
485.385	1518.11
485.842	1465.01
486.299	1394.31
486.755	1322.41
487.212	1110.51
487.668	932.71
488.125	872.71
488.582	797.21
489.038	758.81
489.494	726.51
489.951	691.51
490.407	675.41
490.864	645.61
491.32	647.01
491.776	647.51
492.233	649.01
492.689	618.41
493.145	611.21
493.602	601.41
494.058	620.81
494.514	624.21
494.97	642.11
495.426	660.11
495.882	632.51
496.338	620.31
496.794	625.11
497.251	624.11
497.707	641.51
498.163	647.61
498.618	654.21
499.074	654.21
499.53	687.61
499.986	680.11
500.442	656.01
500.898	648.91
501.354	629.21
501.809	643.61
502.265	656.81
502.721	666.11
503.177	683.91
503.632	670.01
504.088	679.41
504.543	724.21
504.999	725.71
505.455	659.21
505.91	646.41
506.366	632.81
506.821	628.51
507.277	623.61
507.732	629.61
508.187	633.21
508.643	645.71
509.098	636.41
509.553	661.41
510.009	669.11
510.464	674.31
510.919	695.71
511.375	695.91
511.83	723.41
512.285	730.11
512.74	764.21
513.195	791.71
513.65	788.51
514.105	780.01
514.56	771.91
515.015	798.01
515.47	817.31
515.925	787.31
516.38	795.21
516.835	794.41
517.29	789.81
517.745	780.71
518.2	763.91
518.655	750.81
519.109	742.51
519.564	746.51
520.019	722.61
520.474	740.51
520.928	732.11
521.383	730.61
521.838	709.01
522.292	712.61
522.747	712.41
523.201	714.01
523.656	704.21
524.11	699.21
524.565	702.41
525.019	696.41
525.474	713.61
525.928	705.71
526.382	702.11
526.837	699.41
527.291	711.61
527.745	706.91
528.2	702.41
528.654	689.51
529.108	690.91
529.562	695.71
530.016	687.51
530.47	691.41
530.925	690.91
531.379	709.21
531.833	717.41
532.287	709.61
532.741	714.21
533.195	705.51
533.649	725.41
534.103	722.21
534.556	713.61
535.01	718.61
535.464	712.81
535.918	720.71
536.372	724.31
536.826	730.61
537.279	716.61
537.733	718.31
538.187	717.41
538.64	720.31
539.094	729.51
539.548	733.11
540.001	720.91
540.455	729.31
540.908	739.41
541.362	743.81
541.815	749.31
542.269	767.71
542.722	767.81
543.175	763.01
543.629	780.41
544.082	796.21
544.536	795.91
544.989	782.51
545.442	794.21
545.895	782.21
546.349	796.61
546.802	780.41
547.255	795.01
547.708	801.31
548.161	820.11
548.614	822.01
549.067	831.51
549.52	826.21
549.973	819.81
550.426	812.91
550.879	799.31
551.332	800.91
551.785	813.11
552.238	815.11
552.691	821.01
553.144	847.91
553.596	851.61
554.049	871.11
554.502	904.71
554.955	927.11
555.407	912.61
555.86	905.51
556.313	899.91
556.765	881.61
557.218	889.51
557.67	882.01
558.123	880.31
558.576	879.71
559.028	872.51
559.48	880.81
559.933	879.21
560.385	850.21
560.838	811.61
561.29	780.31
561.742	778.71
562.195	771.11
562.647	768.01
563.099	776.11
563.551	780.71
564.004	789.21
564.456	774.01
564.908	772.51
565.36	748.21
565.812	731.91
566.264	722.11
566.716	726.11
567.168	725.51
567.62	724.81
568.072	715.11
568.524	705.11
568.976	695.61
569.428	676.81
569.88	680.11
570.332	686.11
570.784	688.71
571.235	675.01
571.687	694.31
572.139	700.01
572.59	713.81
573.042	711.11
573.494	706.81
573.945	702.11
574.397	692.21
574.849	694.51
575.3	691.61
575.752	686.11
576.203	680.81
576.655	685.91
577.106	672.21
577.557	663.71
578.009	670.91
578.46	668.31
578.912	664.61
579.363	668.91
579.814	664.71
580.265	675.91
580.717	664.91
581.168	671.51
581.619	684.51
582.07	675.91
582.521	681.11
582.972	672.71
583.423	683.11
583.875	682.61
584.326	705.31
584.777	748.81
585.227	830.01
585.678	919.21
586.129	1004.91
586.58	1079.91
587.031	1165.81
587.482	1331.51
587.933	1509.61
588.384	1318.31
588.834	975.11
589.285	806.11
589.736	778.51
590.186	771.41
590.637	763.21
591.088	744.31
591.538	730.61
591.989	736.51
592.439	729.31
592.89	720.31
593.34	715.81
593.791	707.51
594.241	699.71
594.692	714.11
595.142	701.01
595.593	697.11
596.043	707.71
596.493	712.71
596.943	718.31
597.394	724.61
597.844	719.11
598.294	727.51
598.744	745.71
599.195	775.51
599.645	817.31
600.095	854.11
600.545	912.51
600.995	948.11
601.445	1016.71
601.895	1080.41
602.345	1126.61
602.795	1109.61
603.245	1067.31
603.695	1009.91
604.145	951.61
604.594	906.51
605.044	848.91
605.494	794.21
605.944	756.11
606.393	738.91
606.843	728.01
607.293	725.91
607.743	732.71
608.192	745.11
608.642	755.01
609.091	766.21
609.541	771.21
609.99	767.41
610.44	768.21
610.889	712.31
611.339	712.21
611.788	683.41
612.238	699.41
612.687	714.81
613.136	723.01
613.586	732.21
614.035	734.11
614.484	765.11
614.933	768.41
615.383	745.01
615.832	732.31
616.281	724.71
616.73	687.01
617.179	668.01
617.628	653.01
618.077	638.71
618.526	621.51
618.975	608.61
619.424	613.81
619.873	623.31
620.322	625.61
620.771	606.21
621.22	603.81
621.669	594.01
622.118	589.41
622.567	577.81
623.015	575.71
623.464	576.31
623.913	549.61
624.361	555.01
624.81	539.41
625.259	540.81
625.707	548.61
626.156	552.91
626.604	559.41
627.053	563.01
627.501	559.91
627.95	564.61
628.398	569.51
628.847	569.41
629.295	566.01
629.744	574.81
630.192	565.01
630.64	567.91
631.089	559.91
631.537	584.51
631.985	589.61
632.433	597.81
632.881	612.11
633.33	664.11
633.778	640.21
634.226	569.91
634.674	577.71
635.122	584.71
635.57	598.51
636.018	626.81
636.466	579.11
636.914	556.31
637.362	567.51
637.81	571.21
638.258	575.81
638.705	569.81
639.153	606.81
639.601	622.31
640.049	636.21
640.497	669.11
640.944	693.21
641.392	641.71
641.84	612.81
642.287	580.81
642.735	575.51
643.182	569.21
643.63	567.51
644.078	569.31
644.525	584.41
644.973	587.21
645.42	604.11
645.867	613.01
646.315	638.41
646.762	656.71
647.21	691.11
647.657	703.21
648.104	744.31
648.551	761.21
648.999	826.91
649.446	912.31
649.893	1000.51
650.34	1163.91
650.787	1390.31
651.234	1726.81
651.682	2254.11
652.129	3093.91
652.576	4462.61
653.023	6599.61
653.47	9052.71
653.917	11324.71
654.363	13081.71
654.81	14485.41
655.257	13796.81
655.704	9003.61
656.151	5311.81
656.598	3430.31
657.044	2427.21
657.491	1879.01
657.938	1489.21
658.385	1244.91
658.831	1073.81
659.278	962.31
659.724	850.01
660.171	786.61
660.618	721.51
661.064	685.41
661.511	666.51
661.957	662.41
662.404	646.21
662.85	645.91
663.296	624.31
663.743	558.01
664.189	534.21
664.635	522.71
665.082	522.21
665.528	517.71
665.974	508.51
666.42	505.11
666.867	507.51
667.313	489.61
667.759	476.11
668.205	477.11
668.651	479.91
669.097	484.51
669.543	495.81
669.989	469.81
670.435	441.11
670.881	440.61
671.327	441.11
671.773	462.81
672.219	486.51
672.665	535.51
673.11	575.51
673.556	620.41
674.002	650.41
674.448	640.61
674.893	536.31
675.339	465.41
675.785	435.81
676.23	407.81
676.676	387.51
677.122	372.41
677.567	363.11
678.013	367.41
678.458	359.41
678.904	355.91
679.349	345.11
679.794	344.11
680.24	338.81
680.685	341.61
681.131	337.91
681.576	344.31
682.021	354.51
682.466	344.71
682.912	350.01
683.357	349.61
683.802	375.51
684.247	410.01
684.692	446.31
685.137	488.61
685.583	528.01
686.028	553.31
686.473	507.91
686.918	430.41
687.363	408.71
687.807	387.91
688.252	354.31
688.697	343.11
689.142	330.81
689.587	323.11
690.032	316.51
690.477	337.31
690.921	354.01
691.366	373.81
691.811	395.51
692.255	421.51
692.7	455.21
693.145	493.41
693.589	686.21
694.034	1095.21
694.478	1498.91
694.923	1699.71
695.367	2225.31
695.812	1169.01
696.256	494.41
696.701	369.81
697.145	339.21
697.59	323.91
698.034	329.91
698.478	322.71
698.922	320.11
699.367	330.21
699.811	332.51
700.255	361.11
700.699	377.21
701.143	418.21
701.588	466.01
702.032	509.31
702.476	508.61
702.92	482.11
703.364	470.41
703.808	623.61
704.252	1008.21
704.696	1426.81
705.14	1652.01
705.584	2106.51
706.027	1030.11
706.471	513.61
706.915	392.21
707.359	337.41
707.803	314.61
708.246	307.01
708.69	300.61
709.134	302.61
709.577	304.11
710.021	313.81
710.465	301.61
710.908	294.01
711.352	289.71
711.795	303.41
712.239	352.01
712.682	383.71
713.126	416.61
713.569	457.31
714.012	363.21
714.456	320.01
714.899	294.71
715.342	271.41
715.786	255.01
716.229	249.31
716.672	250.91
717.115	239.51
717.558	239.71
718.002	248.01
718.445	267.31
718.888	285.11
719.331	288.71
719.774	312.31
720.217	299.31
720.66	284.61
721.103	264.01
721.546	251.01
721.989	243.91
722.432	221.91
722.874	234.71
723.317	232.41
723.76	240.01
724.203	255.01
724.645	315.61
725.088	441.01
725.531	557.61
725.974	631.11
726.416	537.31
726.859	303.71
727.301	243.41
727.744	228.41
728.187	234.81
728.629	231.31
729.071	234.41
729.514	249.51
729.956	262.41
730.399	273.11
730.841	283.31
731.283	265.31
731.726	260.11
732.168	258.61
732.61	263.81
733.053	290.61
733.495	314.61
733.937	335.11
734.379	381.61
734.821	426.61
735.263	527.01
735.705	811.01
736.148	1530.01
736.59	2501.21
737.032	2993.41
737.474	2436.41
737.916	787.11
738.357	421.51
738.799	320.41
739.241	291.51
739.683	281.51
740.125	283.11
740.567	292.11
741.008	308.81
741.45	304.41
741.892	300.21
742.334	335.91
742.775	348.81
743.217	332.41
743.658	267.41
744.1	250.41
744.542	256.41
744.983	308.71
745.425	335.81
745.866	332.71
746.307	280.11
746.749	279.81
747.19	312.41
747.632	444.41
748.073	858.61
748.514	1811.51
748.956	2777.31
749.397	3477.81
749.838	2893.51
750.279	2898.41
750.72	1460.61
751.162	540.31
751.603	315.71
752.044	246.11
752.485	212.41
752.926	203.71
753.367	194.51
753.808	198.81
754.249	192.41
754.69	182.91
755.131	177.61
755.572	186.61
756.013	181.61
756.453	177.61
756.894	182.91
757.335	190.51
757.776	188.61
758.216	192.61
758.657	199.31
759.098	197.91
759.538	226.61
759.979	258.31
760.42	360.51
760.86	682.71
761.301	1760.11
761.741	4279.01
762.182	6257.61
762.622	4434.31
763.063	1271.11
763.503	523.41
763.943	340.81
764.384	329.91
764.824	403.91
765.264	431.91
765.705	300.81
766.145	210.91
766.585	189.21
767.025	173.01
767.465	185.61
767.906	241.91
768.346	319.51
768.786	344.01
769.226	267.01
769.666	313.71
770.106	612.01
770.546	1507.21
770.986	2578.71
771.426	2310.61
771.866	772.21
772.306	320.61
772.745	208.31
773.185	177.91
773.625	169.31
774.065	165.91
774.505	189.81
774.944	308.71
775.384	686.61
775.824	1242.11
776.263	1215.41
776.703	514.51
777.142	221.11
777.582	157.21
778.021	140.41
778.461	130.21
778.9	139.61
779.34	131.71
779.779	113.91
780.219	112.21
780.658	106.91
781.097	107.31
781.537	116.81
781.976	108.11
782.415	109.11
782.855	107.11
783.294	105.01
783.733	111.81
784.172	106.01
784.611	102.51
785.05	101.91
785.489	106.61
785.928	119.51
786.367	123.61
786.806	119.11
787.245	129.81
787.684	134.31
788.123	143.51
788.562	131.91
789.001	123.21
789.44	116.51
789.879	113.81
790.317	112.71
790.756	127.01
791.195	128.61
791.634	146.71
792.072	198.41
792.511	357.21
792.95	977.31
793.388	2081.51
793.827	1900.11
794.265	662.81
794.704	280.31
795.142	176.91
795.581	151.11
796.019	135.61
796.458	128.01
796.896	114.71
797.334	130.61
797.773	155.51
798.211	217.81
798.649	419.51
799.087	985.61
799.526	1548.41
799.964	1969.81
800.402	1956.71
800.84	736.61
801.278	290.21
801.716	179.81
802.154	142.81
802.592	146.61
803.03	140.11
803.468	131.01
803.906	142.01
804.344	142.41
804.782	132.41
805.22	125.81
805.658	128.21
806.096	141.71
806.533	152.11
806.971	170.81
807.409	210.51
807.847	304.21
808.284	642.11
808.722	1801.81
809.16	3201.21
809.597	3023.91
810.035	5259.81
810.472	5626.91
810.91	2024.01
811.347	775.21
811.785	392.51
812.222	245.71
812.66	188.01
813.097	162.71
813.535	134.31
813.972	128.41
814.409	116.41
814.846	102.81
815.284	108.61
815.721	100.91
816.158	102.61
816.595	114.31
817.032	176.91
817.47	201.61
817.907	170.91
818.344	152.71
818.781	115.21
819.218	102.61
819.655	114.41
820.092	173.11
820.529	212.81
820.966	173.71
821.403	129.01
821.839	112.41
822.276	99.51
822.713	118.81
823.15	126.31
823.587	116.91
824.023	144.11
824.46	285.81
824.897	878.21
825.333	1330.21
825.77	561.91
826.206	232.31
826.643	130.01
827.08	101.81
827.516	80.01
827.953	82.31
828.389	77.01
828.825	69.91
829.262	69.51
829.698	62.11
830.135	65.11
830.571	63.51
831.007	60.21
831.443	61.81
831.88	59.71
832.316	58.11
832.752	65.51
833.188	53.11
833.624	65.21
834.06	68.41
834.497	72.11
834.933	72.71
835.369	71.71
835.805	65.81
836.241	72.41
836.677	83.91
837.112	86.71
837.548	104.11
837.984	134.21
838.42	195.11
838.856	482.01
839.292	1460.21
839.727	2243.81
840.163	1045.91
840.599	895.41
841.034	1971.01
841.47	2075.51
841.906	755.91
842.341	325.61
842.777	229.71
843.212	322.81
843.648	313.41
844.083	148.91
844.519	99.71
844.954	83.61
845.39	59.91
845.825	60.81
846.261	57.21
846.696	56.51
847.131	51.41
847.566	61.31
848.002	53.41
848.437	57.51
848.872	63.91
849.307	61.71
849.742	87.31
850.177	171.51
850.613	531.91
851.048	852.71
851.483	376.01
851.918	146.51
852.353	90.91
852.788	62.71
853.223	55.01
853.657	52.01
854.092	49.81
854.527	47.51
854.962	44.11
855.397	40.11
855.832	47.61
856.266	39.31
856.701	39.21
857.136	37.41
857.57	35.31
858.005	44.41
858.44	52.41
858.874	44.01
859.309	54.61
859.743	41.01
860.178	47.11
860.612	36.41
861.047	52.91
861.481	62.91
861.915	67.41
862.35	45.61
862.784	34.01
863.218	42.61
863.653	36.11
864.087	41.61
864.521	58.91
864.955	66.21
865.39	149.91
865.824	162.01
866.258	105.71
866.692	157.01
867.126	174.41
867.56	99.81
867.994	51.71
868.428	34.91
868.862	40.11
869.296	54.81
869.73	54.91
870.164	56.81
870.598	41.81
871.031	35.21
871.465	29.71
871.899	34.31
872.333	20.11
872.766	22.11
873.2	22.91
873.634	25.41
874.067	28.81
874.501	19.21
874.935	38.91
875.368	32.11
875.802	25.71
876.235	28.91
876.669	26.41
877.102	24.61
877.535	26.41
877.969	19.31
878.402	21.91
878.836	18.61
879.269	21.81
879.702	18.61
880.135	17.21
880.569	25.81
881.002	25.41
881.435	24.81
881.868	11.81
882.301	20.91
882.734	18.71
883.167	24.01
883.601	21.31
884.034	23.31
884.467	19.21
884.899	22.21
885.332	14.11
885.765	21.61
886.198	14.01
886.631	13.71
887.064	17.51
887.497	21.01
887.929	23.01
888.362	13.01
888.795	4.51
889.228	17.51
889.66	23.41
890.093	13.41
890.526	14.41
890.958	11.21
891.391	19.91
891.823	23.41
892.256	11.11
892.688	9.71
893.121	16.21
893.553	17.21
893.985	22.01
894.418	18.81
894.85	15.11
895.282	20.81
895.715	16.11
896.147	15.91
896.579	14.81
897.011	11.51
897.444	14.51
897.876	13.91
898.308	14.21
898.74	15.81
899.172	9.91
899.604	19.71
900.036	21.01
900.468	18.61
900.9	17.61
901.332	14.51
901.764	14.71
902.196	14.61
902.628	19.31
903.06	20.01
903.491	28.51
903.923	24.71
904.355	19.41
904.787	21.61
905.218	21.71
905.65	22.21
906.082	18.81
906.513	15.61
906.945	14.21
907.376	12.21
907.808	24.31
908.239	23.71
908.671	21.31
909.102	17.91
909.534	25.61
909.965	41.81
910.397	87.81
910.828	299.51
911.259	466.31
911.691	217.01
912.122	111.81
912.553	52.91
912.984	34.01
913.415	21.91
913.847	24.51
914.278	19.41
914.709	15.91
915.14	24.01
915.571	22.61
916.002	15.31
916.433	17.71
916.864	16.31
917.295	11.71
917.726	16.31
918.157	14.11
918.587	29.01
919.018	21.11
919.449	19.01
919.88	21.91
920.311	29.81
920.741	42.51
921.172	166.91
921.603	150.31
922.033	70.31
922.464	42.71
922.895	19.61
923.325	24.91
923.756	16.61
924.186	16.51
924.617	27.91
925.047	46.31
925.478	56.71
925.908	48.11
926.338	24.61
926.769	11.61
927.199	19.71
927.629	3.51
928.06	18.11
928.49	15.71
928.92	18.31
929.35	12.71
929.78	13.91
930.21	6.71
930.641	11.61
931.071	8.51
931.501	6.41
931.931	9.81
932.361	10.81
932.791	7.61
933.221	1.31
933.651	5.71
934.08	15.01
934.51	29.81
934.94	10.51
935.37	4.11
935.8	11.11
936.229	6.21
936.659	7.51
937.089	0.71
937.519	13.61
937.948	19.71
938.378	19.61
938.807	8.71
939.237	4.71
939.666	8.51
940.096	-7.49
940.525	-0.59
940.955	2.61
941.384	3.61
941.814	-3.09
942.243	-4.79
942.672	5.71
943.102	-4.29
943.531	3.21
943.96	5.71
944.39	2.51
944.819	-3.19
945.248	3.31
945.677	-0.79
946.106	5.71
946.535	3.61
946.964	0.41
947.393	2.71
947.822	-5.49
948.251	-7.99
948.68	2.71
949.109	10.01
949.538	10.31
949.967	1.91
950.396	4.31
950.825	4.21
951.254	2.31
951.682	-9.19
952.111	4.81
952.54	3.21
952.969	-3.89
953.397	-5.29
953.826	0.41
954.254	-6.39
954.683	4.81
955.112	-0.99
955.54	1.71
955.969	3.91
956.397	-3.09
956.826	-2.69
957.254	-4.29
957.682	-2.09
958.111	7.21
958.539	-0.99
958.967	0.01
959.396	-6.59
959.824	0.01
960.252	0.21
960.68	-4.59
961.109	-0.59
961.537	-6.29
961.965	0.91
962.393	-1.39
962.821	-5.89
963.249	-1.89
963.677	1.61
964.105	3.51
964.533	46.81
964.961	45.51
965.389	19.01
965.817	6.81
966.245	3.91
966.672	0.61
967.1	-4.49
967.528	-3.09
967.956	-2.69
968.383	1.61
968.811	2.61
969.239	2.81
969.666	-7.99
970.094	1.81
970.522	1.11
970.949	-4.49
971.377	-4.59
971.804	-4.99
972.232	-1.99
972.659	0.51
973.087	-3.19
973.514	-6.79
973.941	-7.99
974.369	5.11
974.796	2.31
975.223	2.21
975.651	-6.09
976.078	1.61
976.505	4.11
976.932	-0.89
977.359	19.11
977.786	12.51
978.214	8.41
978.641	1.71
979.068	0.11
979.495	-4.89
979.922	2.71
980.349	-6.29
980.776	1.31
981.202	-1.29
981.629	0.71
982.056	4.21
982.483	-4.59
982.91	5.01
983.337	-7.39
983.763	3.51
984.19	-4.79
984.617	0.91
985.043	-6.79
985.47	-4.19
985.897	-2.29
986.323	-10.29
986.75	2.61
987.176	-5.19
987.603	-2.09
988.029	-0.29
988.456	-6.79
988.882	1.31
989.308	-6.39
989.735	-4.79
990.161	-0.09
990.587	-6.79
991.014	0.71
991.44	1.81
991.866	-3.49
992.292	-0.89
992.719	-0.59
993.145	6.21
993.571	-13.99
993.997	0.11
994.423	-2.69
994.849	-4.59
995.275	0.31
995.701	3.01
996.127	-1.89
996.553	2.71
996.979	-6.09
997.405	-1.29
997.83	-0.29
998.256	-4.19
998.682	-6.19
999.108	-7.59
999.534	-7.59
999.959	-3.39
1000.385	-5.39
1000.811	-0.19
1001.236	-11.99
1001.662	-6.39
1002.087	-9.09
1002.513	0.91
1002.938	4.11
1003.364	-9.89
1003.789	-0.79
1004.215	-0.29
1004.64	1.21
1005.066	0.71
1005.491	0.21
1005.916	-3.79
1006.342	-3.79
1006.767	-5.89
1007.192	2.71
1007.617	-6.49
1008.042	-9.69
1008.468	-6.59
1008.893	-4.59
1009.318	-0.89
1009.743	-4.59
1010.168	-0.59
1010.593	0.91
1011.018	-10.59
1011.443	1.21
1011.868	-6.29
1012.293	-0.49
1012.718	-6.09
1013.143	0.81
1013.567	-3.99
1013.992	-4.39
1014.417	-9.29
1014.842	-0.29
1015.267	-2.19
1015.691	-4.59
1016.116	5.31
1016.541	3.11
1016.965	1.91
1017.39	1.31
1017.814	-1.09
1018.239	-4.79
1018.663	-8.89
1019.088	-11.39
1019.512	-9.09
1019.937	-0.99
1020.361	-5.29
1020.785	-11.69
1021.21	-3.99
1021.634	-0.49
1022.058	0.21
1022.483	2.21
1022.907	-2.29
1023.331	-5.39
1023.755	-6.09
1024.179	2.51
1024.604	-10.29
1025.028	-5.49
1025.452	-6.59
1025.876	-8.49
1026.3	-3.79
1026.724	-11.99
1027.148	-6.49
1027.572	-7.59
1027.996	-4.59
1028.42	-1.09
1028.843	-4.59
1029.267	-7.69
1029.691	0.11
1030.115	-0.29
1030.539	-9.19
1030.962	-9.29
1031.386	-11.99
1031.81	0.01
1032.233	-1.29
1032.657	1.21
1033.08	-2.49
1033.504	-0.39
1033.927	-2.19
1034.351	0.81
1034.774	-7.89
1035.198	-2.99
1035.621	-12.59
1036.045	-7.29
1036.468	1.71
1036.891	-10.89
1037.315	-6.49
1037.738	-3.89
1038.161	-2.09
1038.584	-8.29
1039.008	-0.39
1039.431	-7.49
1039.854	0.71
1040.277	-8.09
1040.7	-12.39
1041.123	-1.79
1041.546	-8.59
1041.969	-4.89
1042.392	-8.69
1042.815	-5.59
1043.238	0.61
1043.661	4.61
1044.084	-3.59
1044.507	-3.69
1044.93	-1.29
1045.352	-5.79
1045.775	-4.19
1046.198	1.01
1046.621	-0.49
1047.043	1.61
1047.466	7.21
1047.889	-3.99
1048.311	-3.99
1048.734	-7.89
1049.156	1.21
1049.579	-0.29
1050.001	-2.69
1050.424	-0.59
1050.846	-0.09
1051.269	-4.59
1051.691	-4.49
1052.113	-4.49
1052.536	1.91
1052.958	-2.19
1053.38	-6.19
1053.802	-13.69
1054.225	2.71
1054.647	-3.59
1055.069	-0.69
1055.491	-1.49
1055.913	-10.19
1056.335	-3.09
1056.757	-7.49
1057.179	-6.99
1057.601	-3.39
1058.023	-3.29
1058.445	-0.79
1058.867	-1.19
1059.289	-0.59
1059.711	-4.09
1060.133	-2.39
1060.555	-3.99
1060.976	-10.09
1061.398	-8.79
1061.82	-2.79
1062.241	-7.89
1062.663	-6.59
1063.085	-3.59
1063.506	3.31
1063.928	-5.79
1064.35	-2.09
1064.771	-16.19
1065.193	-1.39
1065.614	-12.49
1066.035	-4.29
1066.457	-1.69
1066.878	0.71
1067.3	-5.69
1067.721	-4.89
1068.142	-7.79
1068.564	-8.49
1068.985	-2.49
1069.406	-4.39
1069.827	-9.19
1070.248	1.61
1070.67	-7.99
1071.091	-5.59
1071.512	-3.69
1071.933	-7.19
1072.354	-8.29
1072.775	-10.79
1073.196	-11.29
1073.617	-5.19
1074.038	-8.89
1074.459	-1.39
1074.88	-8.69
1075.3	-2.69
1075.721	-2.19
1076.142	3.21
1076.563	-4.79
1076.983	-10.29
1077.404	-8.19
1077.825	-13.89
1078.246	-8.99
1078.666	-12.79
1079.087	-13.09
1079.507	-8.79
1079.928	0.61
1080.348	-0.69
1080.769	-5.89
1081.189	-2.29
1081.61	-0.89
1082.03	-5.59
1082.451	-11.69
1082.871	-9.59
1083.291	-6.29
1083.711	-11.79
1084.132	-9.19
1084.552	-5.29
1084.972	3.01
1085.392	-4.39
1085.813	-6.79
1086.233	-9.59
1086.653	-10.09
1087.073	-3.19
1087.493	-8.79
1087.913	-6.19
1088.333	-11.79
1088.753	-6.29
1089.173	1.91
1089.593	-1.49
1090.013	-3.49
1090.433	-3.49
1090.852	-5.79
1091.272	-0.29
1091.692	0.31
1092.112	-8.29
1092.531	-8.79
1092.951	-14.19
1093.371	-7.49
1093.79	-0.99
1094.21	-10.29
1094.63	-5.29
1095.049	-3.79
1095.469	-1.19
1095.888	0.91
1096.308	-0.99
1096.727	7.41
1097.146	-2.79
1097.566	-2.79
1097.985	-9.09
1098.405	-3.79
1098.824	0.11
1099.243	-9.89
1099.662	-12.09
1100.082	-6.39
1100.501	-1.89
1100.92	-4.89
1101.339	-0.59
1101.758	-8.69
