Data from 20171114-ORNL-Ar_H_NY_Subt18_08-04-06-157.txt Node
Date: Tue Nov 14 08:04:06 EST 2017
User: Ender
Spectrometer: HR+D1039
Trigger mode: 0
Integration Time (sec): 2.730000E-2
Scans to average: 10
Electric dark correction enabled: true
Nonlinearity correction enabled: false
Boxcar width: 0
XAxis mode: Wavelengths
Number of Pixels in Spectrum: 2048
>>>>>Begin Spectral Data<<<<<
187.836	2.21
188.309	2.21
188.782	2.21
189.255	-1.69
189.728	-8.69
190.201	5.01
190.674	3.71
191.147	5.31
191.619	-5.59
192.092	-1.59
192.565	6.41
193.038	-0.09
193.511	-1.69
193.984	0.91
194.456	-2.99
194.929	-4.09
195.402	-0.49
195.874	3.31
196.347	2.81
196.82	-4.69
197.292	6.71
197.765	2.01
198.237	-2.99
198.71	8.41
199.182	1.11
199.655	2.01
200.127	3.31
200.6	4.11
201.072	-0.39
201.544	-0.69
202.017	0.41
202.489	5.91
202.961	0.81
203.433	-1.29
203.906	-1.39
204.378	-1.99
204.85	-3.69
205.322	-10.49
205.794	-1.39
206.266	-7.29
206.739	-7.79
207.211	3.31
207.683	-7.49
208.155	0.81
208.627	-8.19
209.099	-6.19
209.57	-7.79
210.042	-2.49
210.514	5.41
210.986	-1.29
211.458	-5.29
211.93	-0.09
212.402	5.21
212.873	-1.49
213.345	-8.99
213.817	-6.99
214.288	-1.39
214.76	-9.59
215.232	2.01
215.703	-6.79
216.175	-3.99
216.646	-6.59
217.118	-9.69
217.589	1.61
218.061	-7.39
218.532	-0.39
219.004	2.41
219.475	-3.89
219.946	0.21
220.418	-7.49
220.889	-1.49
221.36	-2.89
221.832	-0.79
222.303	-5.69
222.774	7.41
223.245	-11.79
223.717	-4.39
224.188	-2.99
224.659	-12.69
225.13	-4.99
225.601	-3.69
226.072	8.81
226.543	4.51
227.014	1.51
227.485	-4.69
227.956	-3.49
228.427	-3.99
228.898	-0.49
229.369	4.41
229.839	2.21
230.31	-8.29
230.781	1.51
231.252	-4.69
231.722	-6.89
232.193	-8.19
232.664	0.41
233.135	-2.09
233.605	2.31
234.076	-7.99
234.546	-6.19
235.017	7.61
235.487	1.91
235.958	-1.49
236.428	-3.19
236.899	5.61
237.369	2.31
237.84	-1.29
238.31	8.81
238.78	3.21
239.251	1.81
239.721	0.61
240.191	1.31
240.662	-0.29
241.132	5.01
241.602	-2.89
242.072	-2.19
242.542	4.51
243.013	2.51
243.483	3.91
243.953	2.71
244.423	-6.19
244.893	-0.69
245.363	6.61
245.833	2.91
246.303	-0.19
246.773	5.81
247.243	4.01
247.712	0.61
248.182	5.21
248.652	0.51
249.122	-0.69
249.592	5.21
250.061	15.41
250.531	27.01
251.001	4.71
251.471	20.21
251.94	14.91
252.41	11.11
252.879	-0.89
253.349	12.81
253.818	6.31
254.288	3.21
254.757	2.11
255.227	0.51
255.696	3.01
256.166	3.01
256.635	8.61
257.105	7.71
257.574	7.51
258.043	9.01
258.513	13.91
258.982	16.31
259.451	5.41
259.92	6.01
260.389	9.71
260.859	12.31
261.328	10.41
261.797	14.91
262.266	11.21
262.735	10.41
263.204	5.21
263.673	6.11
264.142	3.81
264.611	-6.99
265.08	-0.29
265.549	-1.29
266.018	3.21
266.487	-11.99
266.955	-6.39
267.424	-3.69
267.893	7.91
268.362	0.11
268.83	-1.29
269.299	15.41
269.768	3.21
270.236	6.91
270.705	0.91
271.174	6.41
271.642	3.61
272.111	7.31
272.579	16.41
273.048	16.71
273.516	19.41
273.985	18.31
274.453	20.11
274.922	11.21
275.39	11.71
275.858	-4.49
276.327	10.11
276.795	12.11
277.263	6.61
277.731	23.71
278.2	33.91
278.668	44.71
279.136	35.01
279.604	16.21
280.072	12.11
280.54	10.81
281.008	8.01
281.477	13.41
281.945	5.51
282.413	8.81
282.881	14.01
283.348	-2.19
283.816	15.61
284.284	9.81
284.752	19.71
285.22	9.31
285.688	15.11
286.156	9.81
286.623	30.91
287.091	33.61
287.559	16.81
288.026	11.41
288.494	8.21
288.962	4.21
289.429	7.11
289.897	17.81
290.364	10.71
290.832	11.21
291.3	12.11
291.767	15.01
292.234	12.11
292.702	13.11
293.169	14.21
293.637	18.11
294.104	16.11
294.571	5.81
295.039	7.91
295.506	10.61
295.973	10.31
296.44	15.91
296.908	17.01
297.375	8.81
297.842	15.81
298.309	12.71
298.776	10.51
299.243	21.81
299.71	11.61
300.177	12.81
300.644	20.71
301.111	13.91
301.578	16.41
302.045	9.91
302.512	16.31
302.979	21.81
303.446	18.71
303.913	13.81
304.379	16.21
304.846	23.61
305.313	18.81
305.78	24.51
306.246	16.71
306.713	17.21
307.18	18.51
307.646	18.41
308.113	18.71
308.579	18.11
309.046	20.91
309.512	16.51
309.979	15.91
310.445	24.01
310.912	25.01
311.378	15.21
311.845	25.71
312.311	19.61
312.777	17.91
313.244	21.01
313.71	26.61
314.176	22.11
314.642	26.41
315.109	21.91
315.575	24.41
316.041	30.51
316.507	24.11
316.973	31.11
317.439	29.31
317.905	32.01
318.371	32.71
318.837	20.81
319.303	22.91
319.769	29.71
320.235	28.71
320.701	21.51
321.167	29.01
321.633	23.41
322.099	27.41
322.564	30.01
323.03	30.61
323.496	29.81
323.962	34.81
324.427	32.91
324.893	35.21
325.359	28.81
325.824	30.71
326.29	28.91
326.755	36.71
327.221	28.21
327.686	30.21
328.152	31.31
328.617	32.91
329.083	40.21
329.548	42.51
330.014	38.61
330.479	31.71
330.944	32.91
331.41	33.71
331.875	40.61
332.34	30.41
332.805	29.81
333.271	36.71
333.736	34.21
334.201	46.11
334.666	41.91
335.131	52.01
335.596	42.31
336.061	38.51
336.526	28.31
336.991	37.11
337.456	46.11
337.921	39.91
338.386	33.81
338.851	40.41
339.316	35.01
339.781	37.61
340.246	40.11
340.711	37.41
341.175	38.91
341.64	38.71
342.105	42.11
342.569	46.21
343.034	51.61
343.499	42.01
343.963	39.01
344.428	53.31
344.893	52.81
345.357	47.71
345.822	46.41
346.286	53.21
346.751	56.91
347.215	52.21
347.679	59.31
348.144	77.51
348.608	65.41
349.073	55.91
349.537	61.91
350.001	58.31
350.465	64.91
350.93	67.71
351.394	60.71
351.858	55.71
352.322	68.91
352.786	68.61
353.25	71.81
353.715	90.91
354.179	77.81
354.643	94.11
355.107	97.21
355.571	87.71
356.035	76.01
356.498	88.11
356.962	90.91
357.426	95.01
357.89	85.41
358.354	73.41
358.818	74.71
359.281	61.71
359.745	64.21
360.209	64.41
360.673	59.01
361.136	70.11
361.6	70.81
362.064	69.21
362.527	66.61
362.991	79.91
363.454	65.21
363.918	70.91
364.381	61.91
364.845	66.01
365.308	68.61
365.772	75.31
366.235	72.01
366.698	65.71
367.162	70.01
367.625	75.91
368.088	66.71
368.552	74.81
369.015	80.21
369.478	85.91
369.941	85.21
370.404	83.21
370.867	80.81
371.331	88.41
371.794	96.11
372.257	88.91
372.72	101.01
373.183	95.51
373.646	92.51
374.109	86.31
374.572	97.01
375.035	89.41
375.497	92.41
375.96	89.41
376.423	87.71
376.886	97.61
377.349	96.81
377.811	83.51
378.274	85.71
378.737	90.71
379.199	97.01
379.662	100.11
380.125	99.51
380.587	93.71
381.05	97.71
381.512	102.71
381.975	108.91
382.437	119.01
382.9	105.41
383.362	108.21
383.825	122.11
384.287	124.81
384.75	118.71
385.212	117.31
385.674	115.31
386.136	116.61
386.599	105.91
387.061	107.81
387.523	105.01
387.985	116.31
388.447	134.31
388.91	119.81
389.372	133.71
389.834	129.51
390.296	121.11
390.758	135.91
391.22	145.01
391.682	173.81
392.144	245.31
392.606	192.51
393.068	141.61
393.529	146.81
393.991	133.81
394.453	130.71
394.915	141.71
395.377	160.91
395.838	182.31
396.3	137.51
396.762	124.41
397.224	115.01
397.685	116.21
398.147	112.21
398.608	112.51
399.07	112.11
399.531	109.41
399.993	118.61
400.454	135.51
400.916	125.81
401.377	131.91
401.839	128.91
402.3	138.51
402.762	142.11
403.223	155.81
403.684	148.61
404.145	144.81
404.607	140.31
405.068	142.01
405.529	138.01
405.99	159.21
406.451	150.61
406.913	147.71
407.374	138.61
407.835	139.81
408.296	149.61
408.757	151.01
409.218	159.21
409.679	154.61
410.14	149.81
410.601	162.21
411.062	165.41
411.522	167.21
411.983	166.51
412.444	153.01
412.905	159.91
413.366	161.71
413.826	170.91
414.287	183.01
414.748	230.11
415.208	222.71
415.669	185.81
416.13	183.11
416.59	175.21
417.051	192.01
417.511	195.91
417.972	219.51
418.432	220.81
418.893	255.81
419.353	219.91
419.814	177.91
420.274	161.91
420.734	163.41
421.195	179.61
421.655	174.51
422.115	175.61
422.576	172.61
423.036	181.71
423.496	182.21
423.956	192.01
424.416	197.01
424.876	235.51
425.336	227.61
425.797	229.31
426.257	224.21
426.717	205.51
427.177	205.31
427.637	192.11
428.097	212.01
428.556	211.71
429.016	235.81
429.476	226.51
429.936	234.11
430.396	240.71
430.856	245.91
431.315	270.41
431.775	298.41
432.235	320.11
432.694	302.71
433.154	307.61
433.614	322.91
434.073	285.71
434.533	246.41
434.993	232.41
435.452	243.91
435.912	243.11
436.371	239.71
436.83	238.91
437.29	233.31
437.749	206.11
438.209	215.81
438.668	228.31
439.127	236.51
439.587	232.61
440.046	215.71
440.505	214.01
440.964	238.51
441.424	262.81
441.883	251.21
442.342	223.31
442.801	198.31
443.26	193.71
443.719	196.31
444.178	188.91
444.637	187.91
445.096	197.61
445.555	198.51
446.014	198.11
446.473	198.31
446.932	203.31
447.391	195.91
447.849	200.21
448.308	196.91
448.767	203.71
449.226	204.21
449.685	209.31
450.143	218.51
450.602	211.11
451.061	191.91
451.519	203.41
451.978	203.51
452.436	198.31
452.895	210.41
453.353	214.81
453.812	210.81
454.27	213.21
454.729	213.91
455.187	204.91
455.646	213.81
456.104	212.41
456.562	220.51
457.021	233.01
457.479	221.51
457.937	229.91
458.395	220.01
458.854	212.81
459.312	226.41
459.77	233.21
460.228	226.11
460.686	211.41
461.144	221.91
461.602	215.71
462.06	222.41
462.518	231.21
462.976	227.61
463.434	223.01
463.892	230.51
464.35	237.51
464.808	251.81
465.266	235.51
465.724	235.21
466.181	243.51
466.639	239.31
467.097	254.51
467.555	263.21
468.012	268.41
468.47	265.91
468.928	285.81
469.385	299.41
469.843	299.71
470.3	299.91
470.758	308.81
471.215	317.61
471.673	339.31
472.13	342.71
472.588	353.21
473.045	312.31
473.503	328.81
473.96	346.81
474.417	350.51
474.875	364.41
475.332	401.61
475.789	393.01
476.246	406.61
476.704	428.41
477.161	441.41
477.618	449.61
478.075	482.11
478.532	525.51
478.989	578.81
479.446	675.21
479.903	662.11
480.36	692.51
480.817	745.61
481.274	836.51
481.731	922.71
482.188	990.01
482.645	1115.91
483.102	1213.91
483.558	1320.51
484.015	1376.71
484.472	1367.81
484.929	1312.21
485.385	1268.71
485.842	1236.71
486.299	1171.61
486.755	1106.91
487.212	938.31
487.668	806.81
488.125	742.11
488.582	686.21
489.038	658.81
489.494	624.01
489.951	604.51
490.407	586.01
490.864	557.71
491.32	555.41
491.776	552.01
492.233	560.01
492.689	527.01
493.145	527.01
493.602	513.71
494.058	534.61
494.514	534.41
494.97	552.11
495.426	550.51
495.882	529.31
496.338	531.41
496.794	546.31
497.251	534.91
497.707	545.71
498.163	547.11
498.618	555.81
499.074	548.51
499.53	576.01
499.986	572.91
500.442	550.91
500.898	542.51
501.354	530.21
501.809	553.11
502.265	548.81
502.721	562.91
503.177	569.81
503.632	565.91
504.088	570.31
504.543	610.01
504.999	601.81
505.455	560.11
505.91	547.01
506.366	547.41
506.821	544.51
507.277	544.01
507.732	548.21
508.187	546.31
508.643	551.21
509.098	547.11
509.553	575.01
510.009	569.61
510.464	574.21
510.919	598.51
511.375	593.31
511.83	599.61
512.285	617.11
512.74	654.51
513.195	663.01
513.65	654.41
514.105	666.11
514.56	674.11
515.015	678.21
515.47	693.11
515.925	682.61
516.38	674.71
516.835	688.21
517.29	679.21
517.745	678.61
518.2	671.61
518.655	648.41
519.109	643.21
519.564	636.81
520.019	631.31
520.474	620.21
520.928	621.11
521.383	616.11
521.838	609.91
522.292	602.51
522.747	604.91
523.201	607.91
523.656	593.21
524.11	597.31
524.565	591.11
525.019	590.71
525.474	604.01
525.928	597.51
526.382	589.11
526.837	589.91
527.291	596.91
527.745	601.51
528.2	592.91
528.654	590.21
529.108	583.91
529.562	588.51
530.016	584.61
530.47	595.21
530.925	583.31
531.379	586.81
531.833	595.21
532.287	595.11
532.741	588.21
533.195	596.51
533.649	603.81
534.103	610.51
534.556	597.91
535.01	601.71
535.464	604.11
535.918	611.51
536.372	612.91
536.826	607.71
537.279	602.71
537.733	600.31
538.187	598.51
538.64	603.21
539.094	611.51
539.548	612.01
540.001	605.71
540.455	607.81
540.908	608.41
541.362	618.81
541.815	634.01
542.269	638.71
542.722	638.41
543.175	643.21
543.629	646.01
544.082	656.41
544.536	661.71
544.989	654.21
545.442	667.41
545.895	673.91
546.349	667.41
546.802	661.71
547.255	667.91
547.708	667.11
548.161	685.91
548.614	696.91
549.067	693.51
549.52	683.51
549.973	666.01
550.426	673.71
550.879	665.21
551.332	664.31
551.785	681.51
552.238	671.21
552.691	692.01
553.144	693.31
553.596	702.01
554.049	709.01
554.502	750.71
554.955	769.01
555.407	754.91
555.86	746.11
556.313	732.71
556.765	732.81
557.218	734.91
557.67	740.61
558.123	729.91
558.576	724.01
559.028	722.51
559.48	726.21
559.933	717.91
560.385	693.41
560.838	675.11
561.29	652.71
561.742	648.71
562.195	624.81
562.647	630.61
563.099	643.21
563.551	634.21
564.004	651.91
564.456	641.71
564.908	625.81
565.36	615.51
565.812	607.11
566.264	600.81
566.716	595.21
567.168	580.61
567.62	589.51
568.072	580.41
568.524	573.31
568.976	557.61
569.428	550.61
569.88	551.61
570.332	557.71
570.784	558.41
571.235	560.81
571.687	563.91
572.139	573.31
572.59	583.71
573.042	582.71
573.494	588.21
573.945	564.11
574.397	559.71
574.849	564.01
575.3	559.91
575.752	548.91
576.203	551.71
576.655	555.21
577.106	538.51
577.557	528.91
578.009	547.21
578.46	543.41
578.912	539.91
579.363	526.81
579.814	538.11
580.265	536.31
580.717	536.01
581.168	542.11
581.619	542.61
582.07	550.91
582.521	541.31
582.972	532.71
583.423	537.51
583.875	547.81
584.326	554.91
584.777	603.81
585.227	647.41
585.678	711.41
586.129	787.31
586.58	838.91
587.031	911.81
587.482	1037.11
587.933	1177.71
588.384	1031.11
588.834	763.91
589.285	661.11
589.736	629.91
590.186	618.41
590.637	609.01
591.088	598.31
591.538	583.51
591.989	570.01
592.439	580.41
592.89	572.01
593.34	567.41
593.791	561.51
594.241	560.61
594.692	566.91
595.142	557.81
595.593	544.61
596.043	565.11
596.493	565.91
596.943	555.01
597.394	576.21
597.844	564.11
598.294	574.11
598.744	596.81
599.195	615.21
599.645	640.01
600.095	680.61
600.545	712.71
600.995	765.61
601.445	800.81
601.895	864.91
602.345	906.41
602.795	876.51
603.245	840.71
603.695	804.71
604.145	750.81
604.594	726.01
605.044	679.41
605.494	627.81
605.944	592.41
606.393	588.81
606.843	570.01
607.293	569.81
607.743	569.41
608.192	577.31
608.642	587.11
609.091	599.81
609.541	593.61
609.99	595.71
610.44	593.51
610.889	559.41
611.339	548.31
611.788	531.41
612.238	553.01
612.687	555.81
613.136	557.91
613.586	571.21
614.035	572.21
614.484	582.31
614.933	578.91
615.383	570.51
615.832	560.51
616.281	556.31
616.73	536.91
617.179	521.31
617.628	503.81
618.077	501.41
618.526	491.41
618.975	479.81
619.424	476.41
619.873	474.11
620.322	477.21
620.771	471.61
621.22	470.51
621.669	465.11
622.118	467.01
622.567	451.91
623.015	434.61
623.464	449.81
623.913	438.01
624.361	427.31
624.81	425.91
625.259	427.31
625.707	429.41
626.156	423.61
626.604	443.31
627.053	431.01
627.501	430.61
627.95	440.01
628.398	444.11
628.847	439.91
629.295	443.31
629.744	444.81
630.192	446.51
630.64	443.21
631.089	420.11
631.537	440.51
631.985	437.31
632.433	450.71
632.881	451.41
633.33	491.71
633.778	473.11
634.226	432.41
634.674	427.81
635.122	440.21
635.57	447.41
636.018	472.61
636.466	444.41
636.914	423.01
637.362	439.31
637.81	435.61
638.258	442.61
638.705	438.01
639.153	457.61
639.601	466.71
640.049	479.51
640.497	507.31
640.944	533.31
641.392	493.41
641.84	467.81
642.287	436.01
642.735	431.01
643.182	437.61
643.63	435.01
644.078	434.51
644.525	453.41
644.973	452.31
645.42	457.31
645.867	467.41
646.315	479.51
646.762	498.91
647.21	527.71
647.657	528.91
648.104	567.51
648.551	579.71
648.999	623.01
649.446	678.11
649.893	736.91
650.34	855.31
650.787	1019.51
651.234	1261.71
651.682	1630.71
652.129	2240.51
652.576	3176.91
653.023	4699.61
653.47	6543.61
653.917	8231.51
654.363	9739.31
654.81	11010.51
655.257	10434.41
655.704	6801.61
656.151	3966.31
656.598	2580.21
657.044	1830.21
657.491	1400.01
657.938	1114.11
658.385	930.81
658.831	809.81
659.278	720.21
659.724	641.91
660.171	593.71
660.618	538.31
661.064	505.51
661.511	491.61
661.957	475.21
662.404	462.81
662.85	474.81
663.296	455.91
663.743	420.61
664.189	406.11
664.635	405.01
665.082	393.71
665.528	387.41
665.974	389.61
666.42	384.91
666.867	379.41
667.313	370.21
667.759	358.81
668.205	352.21
668.651	366.51
669.097	357.71
669.543	376.01
669.989	356.81
670.435	333.31
670.881	330.61
671.327	342.91
671.773	353.41
672.219	363.81
672.665	410.51
673.11	436.01
673.556	468.61
674.002	508.31
674.448	489.31
674.893	415.91
675.339	347.61
675.785	324.11
676.23	314.61
676.676	298.01
677.122	286.41
677.567	275.31
678.013	275.51
678.458	268.41
678.904	269.41
679.349	251.71
679.794	259.71
680.24	258.61
680.685	257.41
681.131	267.71
681.576	264.91
682.021	264.61
682.466	256.91
682.912	251.51
683.357	264.41
683.802	278.31
684.247	295.81
684.692	335.91
685.137	366.51
685.583	393.81
686.028	413.01
686.473	387.51
686.918	335.71
687.363	316.81
687.807	293.31
688.252	270.81
688.697	261.11
689.142	251.61
689.587	244.41
690.032	233.91
690.477	255.21
690.921	248.41
691.366	282.01
691.811	292.41
692.255	320.51
692.7	342.21
693.145	373.51
693.589	498.11
694.034	810.41
694.478	1129.61
694.923	1328.01
695.367	1756.21
695.812	909.41
696.256	380.51
696.701	282.21
697.145	259.91
697.59	240.91
698.034	237.01
698.478	248.11
698.922	243.31
699.367	241.81
699.811	253.01
700.255	259.81
700.699	281.71
701.143	313.61
701.588	358.91
702.032	382.71
702.476	388.81
702.92	365.71
703.364	356.41
703.808	457.71
704.252	738.61
704.696	1055.71
705.14	1255.31
705.584	1645.91
706.027	807.61
706.471	390.51
706.915	295.71
707.359	257.61
707.803	233.51
708.246	227.11
708.69	236.61
709.134	232.11
709.577	227.51
710.021	235.51
710.465	223.91
710.908	226.11
711.352	216.71
711.795	229.51
712.239	255.21
712.682	279.11
713.126	312.51
713.569	347.01
714.012	275.81
714.456	238.01
714.899	223.21
715.342	201.71
715.786	193.31
716.229	188.71
716.672	188.11
717.115	183.61
717.558	186.81
718.002	186.01
718.445	196.71
718.888	205.11
719.331	219.81
719.774	234.51
720.217	220.21
720.66	206.81
721.103	198.01
721.546	184.41
721.989	184.81
722.432	167.21
722.874	170.71
723.317	161.81
723.76	166.21
724.203	191.31
724.645	231.41
725.088	325.81
725.531	420.71
725.974	487.01
726.416	417.31
726.859	231.21
727.301	185.31
727.744	172.51
728.187	171.71
728.629	178.21
729.071	174.21
729.514	193.21
729.956	207.61
730.399	210.01
730.841	211.21
731.283	206.11
731.726	197.51
732.168	192.61
732.61	195.91
733.053	205.11
733.495	229.81
733.937	257.01
734.379	288.61
734.821	318.91
735.263	391.81
735.705	589.91
736.148	1113.21
736.59	1882.21
737.032	2352.71
737.474	1915.01
737.916	606.91
738.357	316.61
738.799	241.11
739.241	225.01
739.683	211.41
740.125	216.11
740.567	213.81
741.008	238.11
741.45	231.81
741.892	236.31
742.334	260.91
742.775	271.31
743.217	252.11
743.658	197.41
744.1	187.21
744.542	191.21
744.983	234.71
745.425	260.71
745.866	258.51
746.307	209.81
746.749	206.21
747.19	231.91
747.632	324.41
748.073	606.11
748.514	1325.41
748.956	2121.01
749.397	2666.01
749.838	2218.81
750.279	2291.01
750.72	1145.81
751.162	401.91
751.603	239.91
752.044	181.61
752.485	157.31
752.926	153.51
753.367	146.31
753.808	145.81
754.249	140.31
754.69	137.01
755.131	139.41
755.572	131.01
756.013	128.01
756.453	134.51
756.894	136.31
757.335	142.71
757.776	143.51
758.216	140.21
758.657	143.51
759.098	145.41
759.538	165.81
759.979	200.31
760.42	265.21
760.86	494.21
761.301	1288.91
761.741	3230.51
762.182	5094.91
762.622	3597.61
763.063	1002.21
763.503	415.11
763.943	262.61
764.384	250.91
764.824	290.41
765.264	321.61
765.705	220.11
766.145	146.61
766.585	138.21
767.025	136.71
767.465	134.11
767.906	176.41
768.346	229.81
768.786	249.71
769.226	188.51
769.666	228.71
770.106	430.11
770.546	1102.71
770.986	2018.01
771.426	1857.11
771.866	606.01
772.306	250.91
772.745	152.21
773.185	123.61
773.625	131.71
774.065	116.61
774.505	145.61
774.944	215.21
775.384	453.91
775.824	857.31
776.263	864.51
776.703	364.11
777.142	160.51
777.582	123.51
778.021	105.51
778.461	104.01
778.9	92.11
779.34	95.41
779.779	85.61
780.219	81.01
780.658	74.91
781.097	82.51
781.537	81.81
781.976	78.91
782.415	80.41
782.855	77.11
783.294	74.71
783.733	81.01
784.172	79.91
784.611	74.91
785.05	76.01
785.489	84.21
785.928	84.31
786.367	91.21
786.806	84.51
787.245	93.61
787.684	103.61
788.123	112.51
788.562	97.81
789.001	87.01
789.44	89.81
789.879	83.31
790.317	91.41
790.756	91.31
791.195	100.41
791.634	102.31
792.072	148.31
792.511	252.31
792.95	717.81
793.388	1618.91
793.827	1531.71
794.265	516.01
794.704	201.21
795.142	137.31
795.581	111.81
796.019	107.01
796.458	95.61
796.896	88.71
797.334	96.71
797.773	113.51
798.211	159.91
798.649	315.01
799.087	744.91
799.526	1194.31
799.964	1498.21
800.402	1581.21
800.84	576.51
801.278	220.31
801.716	137.71
802.154	112.51
802.592	107.21
803.03	104.11
803.468	99.31
803.906	107.01
804.344	114.81
804.782	100.01
805.22	95.11
805.658	96.71
806.096	111.11
806.533	114.51
806.971	129.61
807.409	162.71
807.847	229.41
808.284	463.81
808.722	1359.41
809.16	2533.81
809.597	2325.61
810.035	4164.91
810.472	4678.11
810.91	1660.71
811.347	610.91
811.785	302.51
812.222	194.01
812.66	153.31
813.097	124.31
813.535	110.41
813.972	96.61
814.409	87.01
814.846	78.41
815.284	84.01
815.721	72.41
816.158	78.91
816.595	82.01
817.032	135.81
817.47	154.51
817.907	127.01
818.344	105.81
818.781	90.01
819.218	69.01
819.655	95.31
820.092	152.81
820.529	172.11
820.966	138.91
821.403	99.51
821.839	86.31
822.276	76.31
822.713	95.01
823.15	98.31
823.587	85.01
824.023	101.41
824.46	211.41
824.897	652.61
825.333	1043.21
825.77	451.71
826.206	174.71
826.643	104.41
827.08	77.51
827.516	60.11
827.953	54.61
828.389	61.31
828.825	45.51
829.262	51.71
829.698	43.81
830.135	53.81
830.571	44.81
831.007	42.01
831.443	49.01
831.88	45.11
832.316	44.51
832.752	49.81
833.188	49.11
833.624	42.11
834.06	49.01
834.497	51.21
834.933	52.01
835.369	51.41
835.805	44.81
836.241	54.11
836.677	50.91
837.112	66.71
837.548	75.31
837.984	100.41
838.42	144.61
838.856	351.91
839.292	1137.91
839.727	1805.61
840.163	829.81
840.599	676.61
841.034	1543.71
841.47	1701.81
841.906	608.81
842.341	248.91
842.777	164.01
843.212	220.01
843.648	228.21
844.083	112.81
844.519	75.81
844.954	56.11
845.39	40.61
845.825	45.81
846.261	42.31
846.696	43.91
847.131	43.31
847.566	42.11
848.002	35.31
848.437	42.61
848.872	45.31
849.307	48.01
849.742	60.81
850.177	132.91
850.613	419.01
851.048	689.31
851.483	294.01
851.918	118.51
852.353	62.51
852.788	47.11
853.223	41.31
853.657	45.01
854.092	34.51
854.527	27.41
854.962	30.61
855.397	24.31
855.832	36.11
856.266	40.11
856.701	30.51
857.136	28.91
857.57	25.71
858.005	40.21
858.44	43.81
858.874	29.91
859.309	45.61
859.743	26.81
860.178	30.91
860.612	32.91
861.047	35.71
861.481	53.11
861.915	59.91
862.35	37.01
862.784	26.21
863.218	27.11
863.653	26.81
864.087	30.61
864.521	41.31
864.955	49.01
865.39	116.01
865.824	132.41
866.258	94.91
866.692	131.41
867.126	146.11
867.56	91.21
867.994	39.61
868.428	31.01
868.862	35.51
869.296	45.01
869.73	40.61
870.164	42.81
870.598	41.91
871.031	28.31
871.465	26.51
871.899	22.01
872.333	20.01
872.766	19.51
873.2	14.31
873.634	22.91
874.067	19.91
874.501	21.81
874.935	27.61
875.368	21.81
875.802	14.41
876.235	19.41
876.669	15.91
877.102	20.21
877.535	19.01
877.969	17.21
878.402	15.31
878.836	13.31
879.269	16.81
879.702	18.51
880.135	13.91
880.569	13.31
881.002	21.81
881.435	11.01
881.868	18.41
882.301	15.31
882.734	10.81
883.167	16.41
883.601	17.81
884.034	16.71
884.467	16.01
884.899	15.71
885.332	13.41
885.765	13.21
886.198	12.51
886.631	14.71
887.064	14.11
887.497	13.41
887.929	24.61
888.362	8.61
888.795	12.31
889.228	13.31
889.66	22.41
890.093	5.61
890.526	17.21
890.958	8.31
891.391	11.71
891.823	18.31
892.256	9.71
892.688	6.71
893.121	10.51
893.553	15.61
893.985	19.81
894.418	10.01
894.85	8.91
895.282	14.01
895.715	13.51
896.147	13.91
896.579	16.71
897.011	6.01
897.444	13.01
897.876	9.11
898.308	16.31
898.74	9.31
899.172	5.81
899.604	19.11
900.036	16.31
900.468	17.11
900.9	10.61
901.332	17.61
901.764	7.61
902.196	14.31
902.628	15.61
903.06	14.81
903.491	23.61
903.923	15.51
904.355	17.31
904.787	20.31
905.218	16.91
905.65	15.91
906.082	6.41
906.513	14.01
906.945	14.91
907.376	7.21
907.808	14.01
908.239	23.41
908.671	16.01
909.102	14.91
909.534	19.11
909.965	34.11
910.397	71.31
910.828	234.91
911.259	380.91
911.691	169.11
912.122	81.21
912.553	39.61
912.984	23.51
913.415	25.31
913.847	16.71
914.278	15.81
914.709	13.81
915.14	12.91
915.571	14.71
916.002	10.51
916.433	16.61
916.864	18.71
917.295	7.71
917.726	19.21
918.157	11.71
918.587	27.61
919.018	14.01
919.449	16.01
919.88	25.71
920.311	21.91
920.741	33.11
921.172	131.01
921.603	110.61
922.033	54.81
922.464	35.31
922.895	20.21
923.325	24.01
923.756	16.01
924.186	6.01
924.617	20.41
925.047	26.81
925.478	35.51
925.908	28.61
926.338	16.21
926.769	13.21
927.199	15.81
927.629	9.71
928.06	11.71
928.49	13.11
928.92	7.91
929.35	4.21
929.78	12.21
930.21	7.21
930.641	7.01
931.071	6.71
931.501	0.51
931.931	11.91
932.361	12.01
932.791	5.21
933.221	7.11
933.651	0.41
934.08	20.51
934.51	23.01
934.94	9.51
935.37	8.21
935.8	12.51
936.229	11.11
936.659	9.31
937.089	2.11
937.519	9.11
937.948	15.21
938.378	11.91
938.807	6.61
939.237	4.21
939.666	8.41
940.096	-5.89
940.525	4.21
940.955	2.61
941.384	6.11
941.814	-10.79
942.243	-3.69
942.672	0.41
943.102	-3.49
943.531	0.71
943.96	6.81
944.39	2.31
944.819	-1.39
945.248	4.81
945.677	1.41
946.106	3.31
946.535	4.11
946.964	-0.09
947.393	3.01
947.822	3.91
948.251	-10.29
948.68	0.81
949.109	-3.49
949.538	3.21
949.967	0.51
950.396	-4.49
950.825	-3.19
951.254	-0.59
951.682	-5.69
952.111	5.41
952.54	6.31
952.969	-6.69
953.397	-1.99
953.826	2.31
954.254	-1.99
954.683	5.31
955.112	-5.49
955.54	4.81
955.969	1.61
956.397	4.21
956.826	-1.99
957.254	7.71
957.682	0.51
958.111	6.31
958.539	-0.09
958.967	1.91
959.396	3.31
959.824	-2.89
960.252	3.61
960.68	-4.39
961.109	0.11
961.537	0.51
961.965	-0.49
962.393	-4.29
962.821	-9.49
963.249	2.31
963.677	4.21
964.105	1.51
964.533	33.51
964.961	32.51
965.389	16.61
965.817	8.61
966.245	2.51
966.672	-0.09
967.1	-4.49
967.528	-0.49
967.956	-2.69
968.383	2.51
968.811	0.61
969.239	0.21
969.666	1.11
970.094	3.31
970.522	8.81
970.949	0.71
971.377	-3.99
971.804	-2.89
972.232	0.71
972.659	0.61
973.087	-2.79
973.514	0.41
973.941	-5.99
974.369	3.41
974.796	4.41
975.223	1.11
975.651	-9.99
976.078	6.81
976.505	-3.29
976.932	1.41
977.359	10.31
977.786	10.81
978.214	5.21
978.641	-1.39
979.068	-6.29
979.495	-1.59
979.922	5.71
980.349	2.31
980.776	5.91
981.202	-1.69
981.629	9.11
982.056	5.81
982.483	-6.69
982.91	8.51
983.337	-3.09
983.763	4.71
984.19	-0.49
984.617	-4.99
985.043	-3.49
985.47	-1.49
985.897	-5.39
986.323	-12.19
986.75	-0.69
987.176	2.51
987.603	-1.19
988.029	5.81
988.456	-0.99
988.882	2.61
989.308	-10.69
989.735	-5.29
990.161	-0.99
990.587	-4.89
991.014	0.51
991.44	7.71
991.866	-0.29
992.292	-5.79
992.719	-1.79
993.145	7.61
993.571	-4.89
993.997	-7.99
994.423	-2.59
994.849	-2.59
995.275	2.51
995.701	-1.29
996.127	-2.69
996.553	2.71
996.979	-4.69
997.405	-2.49
997.83	-6.89
998.256	-3.49
998.682	-4.09
999.108	-7.49
999.534	-1.09
999.959	-0.39
1000.385	-0.89
1000.811	-0.59
1001.236	-9.39
1001.662	-8.69
1002.087	-5.99
1002.513	-4.89
1002.938	10.61
1003.364	1.71
1003.789	0.61
1004.215	5.31
1004.64	0.71
1005.066	3.81
1005.491	1.11
1005.916	-2.19
1006.342	-3.89
1006.767	-8.39
1007.192	7.01
1007.617	-4.29
1008.042	-5.19
1008.468	-12.89
1008.893	-6.49
1009.318	-7.99
1009.743	-4.99
1010.168	7.01
1010.593	2.61
1011.018	-4.59
1011.443	2.01
1011.868	-1.79
1012.293	-1.49
1012.718	-8.69
1013.143	1.21
1013.567	4.71
1013.992	-3.79
1014.417	-15.39
1014.842	2.01
1015.267	-2.19
1015.691	-1.09
1016.116	3.41
1016.541	-3.49
1016.965	3.01
1017.39	2.11
1017.814	-2.69
1018.239	-9.99
1018.663	-7.39
1019.088	-6.29
1019.512	0.51
1019.937	-1.79
1020.361	-5.39
1020.785	-6.99
1021.21	-1.89
1021.634	-1.79
1022.058	-1.19
1022.483	1.61
1022.907	-3.89
1023.331	-4.09
1023.755	-3.29
1024.179	-6.79
1024.604	-6.29
1025.028	-2.29
1025.452	-4.59
1025.876	-2.89
1026.3	-1.39
1026.724	-7.99
1027.148	-6.19
1027.572	-4.49
1027.996	-4.39
1028.42	-2.69
1028.843	0.21
1029.267	-6.29
1029.691	-1.89
1030.115	-4.49
1030.539	-10.89
1030.962	-6.69
1031.386	-10.59
1031.81	-5.29
1032.233	3.01
1032.657	-4.19
1033.08	1.41
1033.504	0.21
1033.927	-0.29
1034.351	0.81
1034.774	-0.59
1035.198	-0.09
1035.621	-0.79
1036.045	-5.09
1036.468	-0.99
1036.891	-7.09
1037.315	-10.09
1037.738	-10.49
1038.161	0.11
1038.584	-3.49
1039.008	-1.89
1039.431	-0.39
1039.854	-0.49
1040.277	-7.09
1040.7	-13.69
1041.123	9.31
1041.546	-2.79
1041.969	2.21
1042.392	-2.49
1042.815	-1.99
1043.238	3.11
1043.661	6.91
1044.084	-7.69
1044.507	-7.29
1044.93	-2.59
1045.352	-6.59
1045.775	-2.59
1046.198	2.31
1046.621	-2.39
1047.043	-1.99
1047.466	12.11
1047.889	-3.49
1048.311	-1.39
1048.734	1.41
1049.156	-1.89
1049.579	0.11
1050.001	-4.29
1050.424	-3.09
1050.846	-2.19
1051.269	-1.09
1051.691	-11.69
1052.113	-2.99
1052.536	1.51
1052.958	-2.69
1053.38	-3.59
1053.802	-6.69
1054.225	5.31
1054.647	-8.89
1055.069	-5.99
1055.491	5.21
1055.913	-7.19
1056.335	0.81
1056.757	-2.49
1057.179	-5.29
1057.601	-1.69
1058.023	1.81
1058.445	-3.89
1058.867	-4.39
1059.289	-0.79
1059.711	-8.59
1060.133	0.21
1060.555	-5.99
1060.976	-6.99
1061.398	-6.09
1061.82	-5.69
1062.241	-7.69
1062.663	-3.59
1063.085	3.41
1063.506	3.91
1063.928	-2.39
1064.35	-7.19
1064.771	-6.09
1065.193	-3.19
1065.614	-8.89
1066.035	-1.19
1066.457	-3.59
1066.878	-0.79
1067.3	-8.49
1067.721	-0.69
1068.142	-2.89
1068.564	1.71
1068.985	-7.99
1069.406	-4.19
1069.827	-5.79
1070.248	1.71
1070.67	-7.79
1071.091	-6.59
1071.512	2.21
1071.933	-4.59
1072.354	-4.89
1072.775	-4.99
1073.196	-10.69
1073.617	-3.19
1074.038	-5.79
1074.459	-3.69
1074.88	-6.69
1075.3	0.11
1075.721	-4.49
1076.142	4.31
1076.563	2.11
1076.983	-5.69
1077.404	-2.19
1077.825	-11.69
1078.246	-5.69
1078.666	-9.69
1079.087	-8.59
1079.507	-12.59
1079.928	1.21
1080.348	1.81
1080.769	-4.29
1081.189	3.81
1081.61	-6.29
1082.03	-6.59
1082.451	-11.69
1082.871	-3.59
1083.291	-7.49
1083.711	-3.79
1084.132	-2.79
1084.552	-1.39
1084.972	3.21
1085.392	-10.19
1085.813	-11.79
1086.233	-4.09
1086.653	-2.49
1087.073	-4.09
1087.493	-9.19
1087.913	-13.79
1088.333	-8.79
1088.753	-4.59
1089.173	3.91
1089.593	0.61
1090.013	1.51
1090.433	-1.89
1090.852	-7.59
1091.272	-2.79
1091.692	-3.59
1092.112	-4.79
1092.531	-7.59
1092.951	-9.39
1093.371	-2.49
1093.79	-1.99
1094.21	-2.19
1094.63	-1.29
1095.049	-9.29
1095.469	-7.49
1095.888	-5.49
1096.308	-2.49
1096.727	2.81
1097.146	-10.99
1097.566	0.01
1097.985	-6.99
1098.405	-2.29
1098.824	-0.49
1099.243	-9.69
1099.662	-9.69
1100.082	-2.09
1100.501	-0.99
1100.92	-3.09
1101.339	-3.29
1101.758	-3.69
