Data from 20171114-ORNL-Ar_H_NY_Subt18_08-09-22-322.txt Node
Date: Tue Nov 14 08:09:22 EST 2017
User: Ender
Spectrometer: HR+D1039
Trigger mode: 0
Integration Time (sec): 2.730000E-2
Scans to average: 10
Electric dark correction enabled: true
Nonlinearity correction enabled: false
Boxcar width: 0
XAxis mode: Wavelengths
Number of Pixels in Spectrum: 2048
>>>>>Begin Spectral Data<<<<<
187.836	-2.21
188.309	-2.21
188.782	-2.21
189.255	0.79
189.728	-2.11
190.201	4.69
190.674	-0.91
191.147	1.29
191.619	-5.41
192.092	5.69
192.565	6.39
193.038	2.59
193.511	0.59
193.984	0.29
194.456	-4.51
194.929	-1.31
195.402	-4.31
195.874	-1.61
196.347	-3.51
196.82	-4.51
197.292	4.49
197.765	-0.31
198.237	-7.91
198.71	3.39
199.182	0.29
199.655	5.89
200.127	1.89
200.6	0.79
201.072	-6.81
201.544	-6.11
202.017	-11.41
202.489	0.39
202.961	-5.01
203.433	-0.31
203.906	-7.91
204.378	-5.71
204.85	-5.41
205.322	-5.71
205.794	-4.31
206.266	-7.81
206.739	-14.01
207.211	-0.91
207.683	-10.21
208.155	-8.21
208.627	-3.51
209.099	-3.31
209.57	-11.71
210.042	-9.11
210.514	-3.41
210.986	-4.61
211.458	-10.71
211.93	-1.61
212.402	1.19
212.873	-11.51
213.345	-9.11
213.817	-12.61
214.288	-7.11
214.76	-14.71
215.232	-4.51
215.703	-5.01
216.175	-12.71
216.646	-7.31
217.118	-3.01
217.589	-9.11
218.061	-3.21
218.532	-8.31
219.004	-2.31
219.475	-5.01
219.946	-4.11
220.418	-4.31
220.889	-2.51
221.36	-1.71
221.832	1.99
222.303	-7.41
222.774	-1.81
223.245	-13.01
223.717	-7.81
224.188	-2.91
224.659	-10.71
225.13	-8.31
225.601	-6.31
226.072	-7.31
226.543	-5.41
227.014	2.89
227.485	-5.61
227.956	-8.51
228.427	1.19
228.898	-1.71
229.369	-2.31
229.839	-4.11
230.31	-8.41
230.781	-0.01
231.252	-6.91
231.722	-6.31
232.193	-4.71
232.664	-4.81
233.135	1.49
233.605	-5.21
234.076	-5.61
234.546	-7.61
235.017	-0.11
235.487	1.49
235.958	-10.01
236.428	-10.91
236.899	-3.41
237.369	-6.11
237.84	-9.41
238.31	-2.41
238.78	-8.51
239.251	-8.41
239.721	-8.61
240.191	-2.91
240.662	-4.21
241.132	-3.01
241.602	-3.61
242.072	0.79
242.542	-0.91
243.013	-0.01
243.483	1.39
243.953	-3.41
244.423	-0.91
244.893	-8.01
245.363	-2.91
245.833	-4.81
246.303	-7.71
246.773	-2.71
247.243	-2.81
247.712	-3.11
248.182	0.29
248.652	-1.31
249.122	-10.71
249.592	-5.61
250.061	-2.21
250.531	2.99
251.001	-1.71
251.471	3.89
251.94	5.09
252.41	-3.41
252.879	-8.51
253.349	6.49
253.818	0.89
254.288	-1.41
254.757	-2.41
255.227	-6.11
255.696	-5.11
256.166	-2.91
256.635	3.69
257.105	-3.61
257.574	-3.51
258.043	-5.61
258.513	-3.61
258.982	0.99
259.451	-5.61
259.92	-2.81
260.389	-1.11
260.859	8.19
261.328	4.09
261.797	2.99
262.266	-5.61
262.735	2.79
263.204	1.99
263.673	1.09
264.142	1.89
264.611	-10.31
265.08	-4.81
265.549	-7.61
266.018	0.29
266.487	-2.71
266.955	-6.81
267.424	-10.21
267.893	3.39
268.362	-4.61
268.83	0.09
269.299	3.79
269.768	-2.11
270.236	-2.91
270.705	-4.41
271.174	3.49
271.642	-3.21
272.111	-0.61
272.579	1.19
273.048	0.99
273.516	-2.31
273.985	2.69
274.453	6.79
274.922	7.69
275.39	1.19
275.858	-5.81
276.327	4.99
276.795	6.19
277.263	2.79
277.731	10.59
278.2	1.99
278.668	-0.41
279.136	4.19
279.604	0.69
280.072	5.99
280.54	-1.71
281.008	2.39
281.477	6.89
281.945	2.29
282.413	9.89
282.881	11.69
283.348	5.09
283.816	2.79
284.284	13.09
284.752	18.69
285.22	8.89
285.688	3.49
286.156	1.59
286.623	11.99
287.091	5.09
287.559	9.09
288.026	2.89
288.494	9.29
288.962	-5.11
289.429	3.79
289.897	7.59
290.364	12.09
290.832	7.99
291.3	3.09
291.767	9.69
292.234	5.29
292.702	1.39
293.169	9.59
293.637	17.79
294.104	10.69
294.571	3.19
295.039	5.49
295.506	3.69
295.973	3.19
296.44	4.89
296.908	13.19
297.375	4.79
297.842	8.29
298.309	9.49
298.776	2.09
299.243	12.29
299.71	3.19
300.177	20.59
300.644	10.19
301.111	11.89
301.578	10.29
302.045	5.19
302.512	11.79
302.979	11.29
303.446	6.39
303.913	9.49
304.379	7.79
304.846	16.39
305.313	12.19
305.78	12.39
306.246	15.89
306.713	17.79
307.18	14.79
307.646	15.59
308.113	22.89
308.579	12.29
309.046	16.19
309.512	11.29
309.979	14.19
310.445	18.79
310.912	11.39
311.378	20.49
311.845	15.09
312.311	16.49
312.777	23.19
313.244	20.09
313.71	26.29
314.176	22.49
314.642	15.59
315.109	16.49
315.575	19.79
316.041	22.09
316.507	15.69
316.973	20.39
317.439	19.69
317.905	28.79
318.371	23.19
318.837	21.39
319.303	15.29
319.769	17.09
320.235	23.59
320.701	28.19
321.167	22.49
321.633	17.49
322.099	25.59
322.564	32.39
323.03	29.69
323.496	24.89
323.962	25.59
324.427	25.09
324.893	28.49
325.359	29.49
325.824	24.89
326.29	28.89
326.755	26.09
327.221	22.49
327.686	28.19
328.152	37.99
328.617	28.09
329.083	32.39
329.548	36.49
330.014	32.49
330.479	27.99
330.944	32.29
331.41	27.99
331.875	32.39
332.34	31.19
332.805	26.99
333.271	27.49
333.736	25.69
334.201	33.19
334.666	35.19
335.131	40.49
335.596	29.89
336.061	31.39
336.526	29.79
336.991	33.09
337.456	41.59
337.921	34.89
338.386	33.59
338.851	32.09
339.316	35.99
339.781	38.29
340.246	45.49
340.711	32.19
341.175	39.19
341.64	35.19
342.105	36.89
342.569	40.59
343.034	46.89
343.499	42.09
343.963	36.49
344.428	45.99
344.893	49.89
345.357	44.69
345.822	42.69
346.286	44.69
346.751	58.39
347.215	48.39
347.679	49.99
348.144	63.69
348.608	60.89
349.073	51.29
349.537	51.49
350.001	57.99
350.465	61.39
350.93	52.69
351.394	61.99
351.858	60.49
352.322	65.09
352.786	56.79
353.25	72.59
353.715	82.19
354.179	76.59
354.643	92.39
355.107	93.59
355.571	76.39
356.035	75.69
356.498	87.19
356.962	88.89
357.426	91.09
357.89	86.89
358.354	68.49
358.818	67.49
359.281	59.29
359.745	58.49
360.209	58.29
360.673	56.29
361.136	65.29
361.6	69.19
362.064	71.19
362.527	72.39
362.991	82.19
363.454	65.09
363.918	64.59
364.381	60.29
364.845	68.99
365.308	72.69
365.772	74.19
366.235	76.09
366.698	65.29
367.162	69.09
367.625	70.39
368.088	69.79
368.552	69.69
369.015	71.59
369.478	78.49
369.941	80.19
370.404	74.19
370.867	81.69
371.331	77.39
371.794	81.69
372.257	77.09
372.72	88.69
373.183	86.09
373.646	80.29
374.109	79.59
374.572	88.69
375.035	88.39
375.497	88.39
375.96	86.19
376.423	90.29
376.886	95.19
377.349	98.49
377.811	81.99
378.274	84.99
378.737	84.99
379.199	94.29
379.662	86.29
380.125	98.39
380.587	93.69
381.05	91.39
381.512	101.89
381.975	108.69
382.437	99.39
382.9	103.29
383.362	100.49
383.825	108.49
384.287	101.19
384.75	102.29
385.212	96.19
385.674	111.09
386.136	115.19
386.599	112.79
387.061	101.59
387.523	105.89
387.985	108.29
388.447	117.29
388.91	109.99
389.372	105.29
389.834	115.39
390.296	109.19
390.758	114.59
391.22	118.09
391.682	125.09
392.144	131.39
392.606	119.69
393.068	123.09
393.529	135.59
393.991	128.19
394.453	119.59
394.915	117.69
395.377	120.69
395.838	116.79
396.3	122.09
396.762	131.39
397.224	119.79
397.685	117.09
398.147	114.49
398.608	120.29
399.07	115.99
399.531	127.99
399.993	134.39
400.454	144.49
400.916	130.59
401.377	136.09
401.839	139.49
402.3	136.99
402.762	148.29
403.223	158.59
403.684	151.99
404.145	146.99
404.607	143.69
405.068	140.69
405.529	152.19
405.99	162.39
406.451	153.69
406.913	160.39
407.374	158.49
407.835	146.19
408.296	152.49
408.757	154.69
409.218	165.29
409.679	161.19
410.14	159.49
410.601	160.29
411.062	170.79
411.522	163.19
411.983	157.09
412.444	157.79
412.905	177.49
413.366	173.79
413.826	183.99
414.287	208.39
414.748	248.19
415.208	236.49
415.669	200.29
416.13	195.59
416.59	193.89
417.051	203.79
417.511	214.09
417.972	225.99
418.432	234.99
418.893	276.29
419.353	237.09
419.814	187.29
420.274	175.19
420.734	173.39
421.195	189.99
421.655	173.99
422.115	180.89
422.576	184.19
423.036	186.99
423.496	199.49
423.956	207.99
424.416	219.19
424.876	254.19
425.336	249.59
425.797	251.59
426.257	241.19
426.717	222.19
427.177	222.19
427.637	213.79
428.097	217.09
428.556	227.69
429.016	251.99
429.476	246.79
429.936	256.09
430.396	260.29
430.856	271.29
431.315	294.29
431.775	319.29
432.235	342.99
432.694	318.29
433.154	337.99
433.614	364.89
434.073	308.89
434.533	266.69
434.993	254.79
435.452	263.39
435.912	268.79
436.371	260.89
436.83	261.99
437.29	248.99
437.749	234.69
438.209	237.89
438.668	259.69
439.127	271.89
439.587	250.59
440.046	238.29
440.505	242.49
440.964	260.29
441.424	303.59
441.883	290.19
442.342	248.29
442.801	217.19
443.26	220.49
443.719	218.09
444.178	218.99
444.637	211.39
445.096	218.59
445.555	227.09
446.014	226.29
446.473	227.29
446.932	235.59
447.391	226.69
447.849	227.39
448.308	214.99
448.767	219.89
449.226	226.99
449.685	231.89
450.143	248.09
450.602	236.59
451.061	224.09
451.519	228.49
451.978	226.99
452.436	225.59
452.895	228.49
453.353	245.09
453.812	229.49
454.27	232.99
454.729	236.49
455.187	237.19
455.646	249.79
456.104	245.09
456.562	253.69
457.021	258.89
457.479	252.19
457.937	264.39
458.395	259.79
458.854	246.19
459.312	248.19
459.77	267.99
460.228	250.39
460.686	239.09
461.144	244.99
461.602	241.59
462.06	240.59
462.518	253.09
462.976	250.39
463.434	258.99
463.892	261.49
464.35	271.39
464.808	285.79
465.266	272.39
465.724	262.19
466.181	269.29
466.639	269.39
467.097	284.59
467.555	298.19
468.012	296.69
468.47	309.39
468.928	315.19
469.385	339.09
469.843	340.69
470.3	345.79
470.758	347.99
471.215	379.69
471.673	391.59
472.13	391.69
472.588	414.09
473.045	367.69
473.503	379.19
473.96	393.79
474.417	405.29
474.875	432.89
475.332	464.09
475.789	449.89
476.246	459.89
476.704	481.79
477.161	487.49
477.618	507.19
478.075	545.69
478.532	588.69
478.989	656.99
479.446	764.79
479.903	740.09
480.36	766.09
480.817	812.39
481.274	885.99
481.731	971.59
482.188	1061.29
482.645	1160.09
483.102	1259.19
483.558	1365.89
484.015	1411.69
484.472	1385.39
484.929	1334.99
485.385	1308.89
485.842	1281.69
486.299	1221.69
486.755	1195.99
487.212	1022.39
487.668	873.29
488.125	809.89
488.582	740.19
489.038	715.09
489.494	692.29
489.951	663.99
490.407	648.39
490.864	629.99
491.32	632.79
491.776	632.59
492.233	639.49
492.689	604.09
493.145	599.99
493.602	582.29
494.058	596.09
494.514	598.09
494.97	623.69
495.426	641.89
495.882	610.79
496.338	596.99
496.794	614.59
497.251	607.49
497.707	623.09
498.163	624.79
498.618	632.09
499.074	633.49
499.53	656.09
499.986	653.29
500.442	637.09
500.898	619.69
501.354	600.29
501.809	599.69
502.265	611.89
502.721	635.19
503.177	633.29
503.632	641.39
504.088	637.89
504.543	651.09
504.999	681.89
505.455	648.29
505.91	628.29
506.366	631.99
506.821	632.99
507.277	632.99
507.732	626.19
508.187	631.39
508.643	635.29
509.098	638.69
509.553	658.29
510.009	658.99
510.464	677.59
510.919	691.69
511.375	699.99
511.83	712.69
512.285	722.49
512.74	750.69
513.195	774.29
513.65	760.59
514.105	756.39
514.56	764.39
515.015	782.19
515.47	802.79
515.925	774.09
516.38	782.89
516.835	782.19
517.29	777.79
517.745	779.59
518.2	776.89
518.655	740.99
519.109	748.19
519.564	746.19
520.019	726.19
520.474	725.29
520.928	728.29
521.383	711.59
521.838	712.19
522.292	712.79
522.747	717.59
523.201	704.99
523.656	701.09
524.11	695.29
524.565	703.59
525.019	696.69
525.474	712.39
525.928	690.19
526.382	700.69
526.837	699.39
527.291	711.39
527.745	700.59
528.2	694.29
528.654	692.49
529.108	683.99
529.562	697.09
530.016	697.99
530.47	687.49
530.925	681.09
531.379	687.19
531.833	706.59
532.287	701.39
532.741	712.39
533.195	701.29
533.649	706.99
534.103	721.29
534.556	711.79
535.01	726.99
535.464	713.39
535.918	719.49
536.372	717.49
536.826	719.39
537.279	713.49
537.733	714.69
538.187	713.49
538.64	722.79
539.094	723.59
539.548	730.49
540.001	735.99
540.455	724.39
540.908	734.69
541.362	746.59
541.815	750.69
542.269	759.79
542.722	762.19
543.175	774.19
543.629	772.49
544.082	797.99
544.536	796.39
544.989	795.29
545.442	809.49
545.895	802.99
546.349	804.39
546.802	792.69
547.255	801.49
547.708	810.69
548.161	826.89
548.614	831.69
549.067	836.59
549.52	835.99
549.973	820.79
550.426	809.39
550.879	804.99
551.332	815.59
551.785	816.69
552.238	815.29
552.691	824.49
553.144	845.69
553.596	852.59
554.049	867.79
554.502	905.69
554.955	924.89
555.407	916.29
555.86	915.99
556.313	907.29
556.765	893.89
557.218	886.89
557.67	891.19
558.123	883.49
558.576	885.89
559.028	889.49
559.48	899.99
559.933	885.99
560.385	860.49
560.838	828.79
561.29	808.89
561.742	801.49
562.195	778.79
562.647	786.39
563.099	796.99
563.551	780.59
564.004	796.09
564.456	778.19
564.908	771.19
565.36	761.69
565.812	738.49
566.264	730.49
566.716	722.69
567.168	713.69
567.62	731.29
568.072	715.19
568.524	700.79
568.976	698.49
569.428	690.39
569.88	683.29
570.332	694.59
570.784	696.79
571.235	700.79
571.687	710.69
572.139	723.39
572.59	725.69
573.042	721.69
573.494	714.09
573.945	721.29
574.397	697.39
574.849	702.89
575.3	706.19
575.752	684.39
576.203	690.59
576.655	696.49
577.106	675.49
577.557	687.99
578.009	681.89
578.46	676.39
578.912	675.59
579.363	678.29
579.814	681.59
580.265	675.39
580.717	678.79
581.168	685.79
581.619	694.69
582.07	691.89
582.521	690.89
582.972	682.19
583.423	685.39
583.875	684.09
584.326	693.79
584.777	707.89
585.227	723.19
585.678	732.99
586.129	752.69
586.58	767.69
587.031	789.79
587.482	802.39
587.933	820.99
588.384	813.99
588.834	793.39
589.285	792.59
589.736	786.19
590.186	790.69
590.637	782.89
591.088	749.49
591.538	749.29
591.989	741.79
592.439	744.89
592.89	735.39
593.34	721.39
593.791	720.59
594.241	716.69
594.692	704.99
595.142	708.99
595.593	708.49
596.043	709.99
596.493	715.49
596.943	718.49
597.394	734.19
597.844	731.59
598.294	751.89
598.744	782.89
599.195	796.09
599.645	829.39
600.095	884.49
600.545	926.29
600.995	994.19
601.445	1039.99
601.895	1115.89
602.345	1156.99
602.795	1125.19
603.245	1097.29
603.695	1031.59
604.145	977.39
604.594	933.39
605.044	876.89
605.494	821.89
605.944	764.49
606.393	761.89
606.843	744.79
607.293	746.09
607.743	746.89
608.192	753.49
608.642	760.49
609.091	775.99
609.541	780.39
609.99	774.09
610.44	763.19
610.889	729.69
611.339	708.39
611.788	699.99
612.238	698.29
612.687	718.69
613.136	714.89
613.586	727.99
614.035	714.09
614.484	724.99
614.933	726.39
615.383	715.49
615.832	712.89
616.281	717.89
616.73	678.89
617.179	677.39
617.628	654.59
618.077	646.19
618.526	635.69
618.975	635.89
619.424	635.69
619.873	629.99
620.322	630.49
620.771	618.39
621.22	605.99
621.669	609.99
622.118	603.19
622.567	593.99
623.015	575.99
623.464	590.09
623.913	580.79
624.361	560.89
624.81	548.99
625.259	562.49
625.707	569.69
626.156	569.19
626.604	575.09
627.053	563.39
627.501	572.29
627.95	578.49
628.398	593.09
628.847	590.49
629.295	589.39
629.744	577.79
630.192	578.29
630.64	573.19
631.089	549.39
631.537	555.99
631.985	547.29
632.433	550.89
632.881	540.59
633.33	533.99
633.778	537.39
634.226	536.19
634.674	547.59
635.122	545.39
635.57	558.99
636.018	570.09
636.466	574.59
636.914	563.29
637.362	586.49
637.81	593.99
638.258	593.59
638.705	599.19
639.153	625.69
639.601	636.39
640.049	653.29
640.497	692.19
640.944	712.39
641.392	663.49
641.84	632.79
642.287	601.09
642.735	566.99
643.182	576.99
643.63	577.59
644.078	571.89
644.525	582.69
644.973	596.59
645.42	603.39
645.867	626.69
646.315	646.89
646.762	673.89
647.21	691.29
647.657	706.19
648.104	751.79
648.551	768.79
648.999	828.29
649.446	909.49
649.893	993.39
650.34	1115.69
650.787	1344.79
651.234	1653.59
651.682	2125.69
652.129	2922.19
652.576	4166.39
653.023	6038.89
653.47	8119.59
653.917	10009.29
654.363	11423.99
654.81	12529.59
655.257	11860.29
655.704	7872.29
656.151	4754.69
656.598	3108.49
657.044	2237.49
657.491	1747.79
657.938	1411.69
658.385	1187.29
658.831	1047.89
659.278	944.79
659.724	836.59
660.171	778.49
660.618	722.89
661.064	694.39
661.511	668.29
661.957	658.09
662.404	638.69
662.85	651.39
663.296	629.69
663.743	567.89
664.189	549.29
664.635	550.29
665.082	538.69
665.528	538.29
665.974	527.29
666.42	528.69
666.867	515.79
667.313	500.99
667.759	477.29
668.205	459.99
668.651	462.49
669.097	457.89
669.543	460.89
669.989	453.19
670.435	460.49
670.881	465.29
671.327	465.89
671.773	493.59
672.219	513.89
672.665	568.89
673.11	607.59
673.556	643.89
674.002	682.99
674.448	671.99
674.893	572.69
675.339	488.99
675.785	456.69
676.23	436.09
676.676	399.49
677.122	399.79
677.567	391.69
678.013	379.59
678.458	375.89
678.904	374.39
679.349	360.69
679.794	365.09
680.24	364.09
680.685	366.19
681.131	365.79
681.576	369.49
682.021	368.29
682.466	366.69
682.912	367.59
683.357	364.89
683.802	394.29
684.247	433.69
684.692	490.19
685.137	522.99
685.583	561.09
686.028	585.59
686.473	540.59
686.918	467.89
687.363	434.49
687.807	403.29
688.252	375.79
688.697	368.59
689.142	353.49
689.587	346.19
690.032	338.99
690.477	354.89
690.921	358.59
691.366	400.29
691.811	427.29
692.255	448.09
692.7	483.59
693.145	532.59
693.589	752.29
694.034	1232.99
694.478	1639.69
694.923	1803.89
695.367	2314.39
695.812	1255.09
696.256	526.59
696.701	389.09
697.145	357.39
697.59	346.09
698.034	329.59
698.478	339.79
698.922	334.49
699.367	332.79
699.811	346.89
700.255	370.99
700.699	408.39
701.143	440.59
701.588	486.99
702.032	526.99
702.476	534.69
702.92	512.29
703.364	520.89
703.808	702.79
704.252	1134.99
704.696	1562.29
705.14	1732.39
705.584	2211.29
706.027	1119.89
706.471	562.59
706.915	415.29
707.359	367.99
707.803	337.99
708.246	325.49
708.69	327.69
709.134	328.49
709.577	333.59
710.021	335.59
710.465	325.49
710.908	317.69
711.352	310.09
711.795	323.19
712.239	370.59
712.682	408.09
713.126	430.69
713.569	475.79
714.012	372.09
714.456	312.99
714.899	300.59
715.342	279.89
715.786	270.29
716.229	266.49
716.672	263.09
717.115	258.19
717.558	259.69
718.002	267.19
718.445	267.99
718.888	299.69
719.331	306.79
719.774	313.29
720.217	316.19
720.66	298.29
721.103	283.19
721.546	263.99
721.989	253.39
722.432	242.19
722.874	250.89
723.317	234.99
723.76	243.89
724.203	270.59
724.645	335.19
725.088	478.09
725.531	604.89
725.974	659.99
726.416	572.39
726.859	324.69
727.301	254.49
727.744	242.49
728.187	248.29
728.629	248.79
729.071	262.99
729.514	269.79
729.956	285.49
730.399	304.09
730.841	302.49
731.283	290.39
731.726	277.49
732.168	273.59
732.61	284.69
733.053	305.99
733.495	339.69
733.937	369.19
734.379	419.09
734.821	461.89
735.263	584.89
735.705	932.89
736.148	1753.89
736.59	2784.29
737.032	3160.19
737.474	2587.39
737.916	865.79
738.357	446.69
738.799	341.09
739.241	305.79
739.683	303.19
740.125	303.09
740.567	319.69
741.008	323.29
741.45	327.99
741.892	333.29
742.334	371.69
742.775	376.69
743.217	360.79
743.658	293.39
744.1	278.49
744.542	279.19
744.983	338.99
745.425	365.89
745.866	362.19
746.307	291.19
746.749	292.39
747.19	344.59
747.632	496.89
748.073	994.09
748.514	2062.59
748.956	3035.49
749.397	3838.09
749.838	3171.09
750.279	3056.49
750.72	1587.49
751.162	593.39
751.603	347.59
752.044	260.39
752.485	224.29
752.926	217.29
753.367	216.99
753.808	201.99
754.249	203.49
754.69	194.29
755.131	192.89
755.572	193.79
756.013	190.99
756.453	197.19
756.894	198.39
757.335	195.99
757.776	201.49
758.216	198.49
758.657	204.59
759.098	215.19
759.538	236.49
759.979	291.69
760.42	412.09
760.86	799.89
761.301	2092.09
761.741	4867.09
762.182	6655.19
762.622	4709.59
763.063	1395.09
763.503	563.99
763.943	344.39
764.384	284.69
764.824	246.89
765.264	230.09
765.705	218.69
766.145	185.49
766.585	173.89
767.025	171.99
767.465	168.69
767.906	185.09
768.346	191.19
768.786	207.19
769.226	225.89
769.666	325.39
770.106	696.09
770.546	1739.29
770.986	2768.09
771.426	2452.39
771.866	839.29
772.306	344.49
772.745	215.39
773.185	178.19
773.625	163.69
774.065	156.29
774.505	166.19
774.944	216.19
775.384	381.89
775.824	587.19
776.263	560.59
776.703	283.79
777.142	161.99
777.582	135.29
778.021	127.39
778.461	125.69
778.9	130.79
779.34	133.29
779.779	110.79
780.219	107.09
780.658	113.09
781.097	108.99
781.537	115.69
781.976	112.29
782.415	110.59
782.855	112.89
783.294	100.59
783.733	109.19
784.172	107.89
784.611	111.59
785.05	109.39
785.489	120.99
785.928	124.79
786.367	124.89
786.806	119.49
787.245	136.69
787.684	133.49
788.123	152.49
788.562	136.69
789.001	133.99
789.44	125.69
789.879	124.69
790.317	125.19
790.756	133.99
791.195	135.09
791.634	153.79
792.072	223.39
792.511	409.99
792.95	1136.19
793.388	2244.89
793.827	1967.09
794.265	708.39
794.704	300.09
795.142	187.99
795.581	162.69
796.019	144.99
796.458	135.39
796.896	126.79
797.334	139.19
797.773	171.09
798.211	235.59
798.649	493.89
799.087	1113.69
799.526	1718.39
799.964	2156.19
800.402	2065.09
800.84	799.79
801.278	328.79
801.716	199.09
802.154	160.49
802.592	151.09
803.03	145.49
803.468	144.59
803.906	145.59
804.344	156.29
804.782	148.29
805.22	143.69
805.658	132.99
806.096	152.29
806.533	165.49
806.971	182.09
807.409	234.19
807.847	350.09
808.284	763.79
808.722	2056.99
809.16	3504.49
809.597	3450.49
810.035	5861.19
810.472	5949.29
810.91	2208.39
811.347	858.69
811.785	437.09
812.222	271.39
812.66	204.09
813.097	180.69
813.535	151.49
813.972	137.89
814.409	129.09
814.846	110.59
815.284	113.79
815.721	102.79
816.158	113.39
816.595	116.19
817.032	161.09
817.47	178.59
817.907	135.69
818.344	109.09
818.781	102.09
819.218	109.39
819.655	135.49
820.092	207.29
820.529	224.59
820.966	181.09
821.403	134.89
821.839	103.69
822.276	102.39
822.713	128.29
823.15	135.09
823.587	117.99
824.023	157.79
824.46	340.99
824.897	990.69
825.333	1397.99
825.77	613.29
826.206	245.29
826.643	145.79
827.08	105.79
827.516	86.69
827.953	84.59
828.389	84.39
828.825	74.59
829.262	77.89
829.698	66.89
830.135	63.09
830.571	65.09
831.007	66.29
831.443	63.49
831.88	63.19
832.316	62.39
832.752	69.49
833.188	68.39
833.624	67.19
834.06	71.19
834.497	78.19
834.933	73.89
835.369	73.49
835.805	76.29
836.241	79.49
836.677	80.09
837.112	98.19
837.548	117.69
837.984	149.19
838.42	219.79
838.856	562.49
839.292	1677.49
839.727	2399.19
840.163	1134.29
840.599	1030.59
841.034	2188.79
841.47	2198.69
841.906	818.99
842.341	350.99
842.777	207.79
843.212	208.19
843.648	191.59
844.083	115.89
844.519	79.79
844.954	68.79
845.39	56.69
845.825	53.19
846.261	59.49
846.696	50.79
847.131	49.09
847.566	62.09
848.002	56.19
848.437	56.79
848.872	69.09
849.307	65.09
849.742	82.39
850.177	209.59
850.613	612.49
851.048	921.19
851.483	392.19
851.918	160.29
852.353	85.79
852.788	55.59
853.223	55.19
853.657	59.09
854.092	46.59
854.527	38.49
854.962	44.99
855.397	48.29
855.832	53.19
856.266	41.59
856.701	39.89
857.136	38.69
857.57	48.69
858.005	51.89
858.44	59.39
858.874	47.19
859.309	56.99
859.743	41.19
860.178	44.39
860.612	42.09
861.047	59.09
861.481	68.79
861.915	72.59
862.35	51.49
862.784	31.49
863.218	36.89
863.653	35.99
864.087	49.19
864.521	58.89
864.955	71.59
865.39	159.69
865.824	182.89
866.258	127.39
866.692	179.59
867.126	189.59
867.56	114.29
867.994	56.99
868.428	38.39
868.862	48.49
869.296	60.99
869.73	58.69
870.164	59.49
870.598	58.29
871.031	41.69
871.465	30.39
871.899	32.19
872.333	28.79
872.766	32.49
873.2	28.29
873.634	27.79
874.067	26.89
874.501	24.79
874.935	37.19
875.368	38.69
875.802	27.49
876.235	29.89
876.669	27.39
877.102	19.79
877.535	25.99
877.969	25.89
878.402	28.79
878.836	19.99
879.269	22.09
879.702	21.49
880.135	21.19
880.569	21.99
881.002	23.99
881.435	22.19
881.868	17.89
882.301	22.99
882.734	20.69
883.167	23.29
883.601	20.69
884.034	24.19
884.467	19.99
884.899	24.89
885.332	15.79
885.765	14.49
886.198	18.49
886.631	9.29
887.064	19.49
887.497	25.19
887.929	23.19
888.362	10.59
888.795	16.89
889.228	14.99
889.66	24.39
890.093	14.49
890.526	16.29
890.958	17.99
891.391	14.79
891.823	19.99
892.256	12.59
892.688	12.19
893.121	13.69
893.553	16.59
893.985	22.39
894.418	15.39
894.85	14.39
895.282	15.29
895.715	17.69
896.147	20.29
896.579	17.29
897.011	9.09
897.444	15.19
897.876	12.19
898.308	16.79
898.74	17.69
899.172	15.69
899.604	21.79
900.036	20.89
900.468	8.39
900.9	13.99
901.332	21.99
901.764	18.59
902.196	19.99
902.628	16.79
903.06	18.79
903.491	27.69
903.923	23.39
904.355	23.79
904.787	28.89
905.218	18.59
905.65	22.39
906.082	15.69
906.513	15.29
906.945	17.69
907.376	15.59
907.808	17.89
908.239	19.19
908.671	21.19
909.102	22.79
909.534	23.09
909.965	50.19
910.397	107.49
910.828	341.19
911.259	493.59
911.691	228.49
912.122	114.29
912.553	49.89
912.984	32.39
913.415	21.99
913.847	23.29
914.278	11.39
914.709	17.69
915.14	26.99
915.571	13.49
916.002	8.19
916.433	15.39
916.864	15.99
917.295	11.19
917.726	20.59
918.157	19.09
918.587	25.99
919.018	19.89
919.449	24.29
919.88	24.59
920.311	34.09
920.741	50.19
921.172	178.59
921.603	162.69
922.033	77.09
922.464	47.19
922.895	21.29
923.325	21.99
923.756	16.59
924.186	12.09
924.617	20.99
925.047	18.89
925.478	19.19
925.908	23.19
926.338	11.49
926.769	8.09
927.199	15.69
927.629	5.29
928.06	14.79
928.49	10.99
928.92	7.79
929.35	8.39
929.78	12.59
930.21	11.59
930.641	12.59
931.071	9.19
931.501	-0.41
931.931	10.19
932.361	5.69
932.791	1.49
933.221	12.49
933.651	6.79
934.08	15.89
934.51	28.99
934.94	7.19
935.37	13.89
935.8	16.89
936.229	7.39
936.659	7.39
937.089	8.09
937.519	13.49
937.948	22.19
938.378	11.79
938.807	5.79
939.237	-3.81
939.666	5.59
940.096	-4.41
940.525	0.59
940.955	-2.71
941.384	1.49
941.814	-7.41
942.243	3.59
942.672	5.49
943.102	-2.61
943.531	3.59
943.96	0.49
944.39	5.59
944.819	3.99
945.248	2.09
945.677	5.69
946.106	4.99
946.535	5.09
946.964	2.49
947.393	3.99
947.822	5.89
948.251	-6.01
948.68	0.89
949.109	2.49
949.538	3.99
949.967	-1.71
950.396	4.19
950.825	1.19
951.254	-2.91
951.682	-1.81
952.111	5.49
952.54	2.39
952.969	-2.31
953.397	-4.81
953.826	-1.91
954.254	-1.11
954.683	-0.41
955.112	-2.71
955.54	-3.21
955.969	-2.51
956.397	2.09
956.826	2.39
957.254	5.09
957.682	-6.41
958.111	0.09
958.539	-0.71
958.967	4.89
959.396	-7.21
959.824	2.89
960.252	2.49
960.68	-5.11
961.109	-3.71
961.537	-6.01
961.965	0.79
962.393	4.09
962.821	-2.31
963.249	-0.81
963.677	7.79
964.105	2.49
964.533	43.69
964.961	41.59
965.389	19.09
965.817	7.69
966.245	8.39
966.672	2.29
967.1	-5.81
967.528	-3.91
967.956	-4.51
968.383	-3.71
968.811	-3.41
969.239	-6.01
969.666	-2.01
970.094	-0.61
970.522	3.39
970.949	-4.21
971.377	-7.51
971.804	-2.51
972.232	0.09
972.659	0.59
973.087	-1.01
973.514	-9.31
973.941	-7.31
974.369	1.09
974.796	-0.81
975.223	0.09
975.651	-5.11
976.078	6.19
976.505	-2.81
976.932	0.69
977.359	13.09
977.786	14.39
978.214	0.99
978.641	0.79
979.068	-7.71
979.495	-5.31
979.922	-1.71
980.349	-2.21
980.776	3.49
981.202	-3.81
981.629	5.19
982.056	7.19
982.483	-1.41
982.91	-0.31
983.337	-4.41
983.763	0.39
984.19	-7.21
984.617	-8.41
985.043	1.59
985.47	2.89
985.897	-0.81
986.323	-3.91
986.75	1.89
987.176	3.29
987.603	-3.51
988.029	0.59
988.456	0.69
988.882	-4.41
989.308	-3.61
989.735	-4.51
990.161	-2.91
990.587	-4.41
991.014	4.69
991.44	8.09
991.866	0.19
992.292	-11.81
992.719	-10.31
993.145	-1.51
993.571	-9.21
993.997	0.29
994.423	0.89
994.849	-9.81
995.275	0.79
995.701	8.09
996.127	-2.71
996.553	-3.21
996.979	-0.31
997.405	1.09
997.83	-6.11
998.256	-9.01
998.682	-9.61
999.108	-8.51
999.534	-6.21
999.959	0.59
1000.385	-1.51
1000.811	1.79
1001.236	-9.71
1001.662	-9.21
1002.087	-8.71
1002.513	2.29
1002.938	0.79
1003.364	0.29
1003.789	-0.31
1004.215	-6.01
1004.64	-0.61
1005.066	-1.21
1005.491	-2.51
1005.916	1.19
1006.342	-8.11
1006.767	-7.31
1007.192	1.49
1007.617	-6.11
1008.042	-4.91
1008.468	-7.41
1008.893	-1.91
1009.318	-8.01
1009.743	-3.31
1010.168	0.59
1010.593	4.89
1011.018	-8.81
1011.443	-1.91
1011.868	-0.61
1012.293	-5.71
1012.718	-3.11
1013.143	0.29
1013.567	-0.61
1013.992	0.89
1014.417	-10.31
1014.842	4.89
1015.267	-8.21
1015.691	-6.41
1016.116	6.49
1016.541	-4.71
1016.965	4.39
1017.39	7.69
1017.814	-0.51
1018.239	-4.31
1018.663	-11.81
1019.088	-10.41
1019.512	-3.31
1019.937	0.39
1020.361	-5.91
1020.785	-9.41
1021.21	-0.81
1021.634	-1.01
1022.058	-1.31
1022.483	5.69
1022.907	-2.81
1023.331	-9.41
1023.755	-6.91
1024.179	-7.11
1024.604	-4.11
1025.028	-1.41
1025.452	-1.11
1025.876	-4.61
1026.3	-0.11
1026.724	-7.01
1027.148	-3.11
1027.572	-8.61
1027.996	-6.11
1028.42	-6.31
1028.843	-7.01
1029.267	-4.01
1029.691	-0.21
1030.115	-5.51
1030.539	-8.81
1030.962	-6.81
1031.386	-10.51
1031.81	0.09
1032.233	0.29
1032.657	-4.21
1033.08	-5.81
1033.504	2.79
1033.927	-0.61
1034.351	0.09
1034.774	-3.61
1035.198	1.29
1035.621	-6.81
1036.045	-6.41
1036.468	2.29
1036.891	-9.31
1037.315	-10.41
1037.738	-9.31
1038.161	-1.81
1038.584	-5.31
1039.008	-8.81
1039.431	-0.71
1039.854	-2.51
1040.277	-5.31
1040.7	-13.91
1041.123	-0.41
1041.546	-6.61
1041.969	-2.21
1042.392	-7.91
1042.815	-2.41
1043.238	-2.41
1043.661	3.19
1044.084	-9.81
1044.507	-5.71
1044.93	-5.31
1045.352	-4.01
1045.775	-3.31
1046.198	0.29
1046.621	2.29
1047.043	2.79
1047.466	4.79
1047.889	-9.01
1048.311	-10.91
1048.734	-8.61
1049.156	-2.71
1049.579	5.09
1050.001	-5.71
1050.424	-2.31
1050.846	-6.11
1051.269	-6.01
1051.691	-9.71
1052.113	-9.21
1052.536	-4.81
1052.958	-3.11
1053.38	-8.41
1053.802	-13.71
1054.225	-3.01
1054.647	-10.41
1055.069	-12.51
1055.491	6.59
1055.913	-9.71
1056.335	0.89
1056.757	-8.11
1057.179	-8.81
1057.601	-11.41
1058.023	-2.21
1058.445	-2.01
1058.867	-5.21
1059.289	-6.61
1059.711	-5.61
1060.133	-2.51
1060.555	-5.01
1060.976	-7.51
1061.398	-4.21
1061.82	-4.61
1062.241	-7.11
1062.663	-8.61
1063.085	-1.51
1063.506	-3.11
1063.928	-7.41
1064.35	0.29
1064.771	-12.31
1065.193	-0.91
1065.614	-9.11
1066.035	-1.41
1066.457	2.49
1066.878	-0.41
1067.3	-11.01
1067.721	-6.81
1068.142	-5.21
1068.564	-5.31
1068.985	-7.21
1069.406	-4.81
1069.827	-1.51
1070.248	-3.11
1070.67	-12.31
1071.091	-2.61
1071.512	-6.01
1071.933	-7.81
1072.354	-12.41
1072.775	-3.91
1073.196	-11.21
1073.617	-1.11
1074.038	-6.41
1074.459	-1.81
1074.88	-4.71
1075.3	3.09
1075.721	-8.51
1076.142	2.09
1076.563	-4.71
1076.983	-9.61
1077.404	-9.01
1077.825	-13.31
1078.246	-5.81
1078.666	-9.91
1079.087	-2.31
1079.507	-6.51
1079.928	-0.71
1080.348	-3.51
1080.769	-11.11
1081.189	0.49
1081.61	-7.31
1082.03	-9.81
1082.451	-6.91
1082.871	0.59
1083.291	-8.21
1083.711	-5.71
1084.132	-7.61
1084.552	-6.31
1084.972	-2.91
1085.392	-10.11
1085.813	-8.41
1086.233	-3.21
1086.653	-6.51
1087.073	-3.71
1087.493	-8.61
1087.913	-6.71
1088.333	-11.01
1088.753	-6.91
1089.173	-0.61
1089.593	-3.41
1090.013	0.39
1090.433	-5.41
1090.852	-7.61
1091.272	-0.31
1091.692	-0.81
1092.112	-3.21
1092.531	-6.31
1092.951	-16.61
1093.371	-2.71
1093.79	-3.31
1094.21	-7.41
1094.63	-8.61
1095.049	-5.01
1095.469	-5.51
1095.888	-3.11
1096.308	-0.01
1096.727	4.59
1097.146	-4.41
1097.566	-1.01
1097.985	-5.71
1098.405	-3.71
1098.824	-8.01
1099.243	-5.31
1099.662	-6.91
1100.082	-3.51
1100.501	-0.31
1100.92	-8.41
1101.339	-5.81
1101.758	-5.71
