Data from 20171114-ORNL-Ar_H_NY_Subt18_08-09-12-495.txt Node
Date: Tue Nov 14 08:09:12 EST 2017
User: Ender
Spectrometer: HR+D1039
Trigger mode: 0
Integration Time (sec): 2.730000E-2
Scans to average: 10
Electric dark correction enabled: true
Nonlinearity correction enabled: false
Boxcar width: 0
XAxis mode: Wavelengths
Number of Pixels in Spectrum: 2048
>>>>>Begin Spectral Data<<<<<
187.836	-2.71
188.309	-2.71
188.782	-2.71
189.255	1.09
189.728	1.29
190.201	5.09
190.674	4.99
191.147	0.19
191.619	-12.01
192.092	0.19
192.565	5.19
193.038	4.49
193.511	-0.21
193.984	2.29
194.456	-0.41
194.929	-3.81
195.402	-3.41
195.874	-2.21
196.347	-2.11
196.82	-8.11
197.292	4.99
197.765	-6.01
198.237	-8.11
198.71	-1.11
199.182	-12.11
199.655	2.69
200.127	-0.41
200.6	0.09
201.072	-2.11
201.544	-7.11
202.017	-0.21
202.489	-0.71
202.961	-0.11
203.433	-3.71
203.906	-11.11
204.378	-8.61
204.85	-6.21
205.322	-14.61
205.794	-3.11
206.266	-9.41
206.739	-11.51
207.211	0.29
207.683	-11.81
208.155	-10.81
208.627	-9.81
209.099	-9.61
209.57	-8.61
210.042	-6.71
210.514	-1.71
210.986	0.19
211.458	-5.61
211.93	-7.41
212.402	-5.11
212.873	-9.21
213.345	-8.11
213.817	-7.31
214.288	-4.01
214.76	-12.31
215.232	-1.21
215.703	-2.01
216.175	-6.31
216.646	-0.61
217.118	-3.41
217.589	-5.31
218.061	-2.41
218.532	-6.71
219.004	4.69
219.475	-7.91
219.946	-5.61
220.418	-6.91
220.889	-0.41
221.36	3.59
221.832	-9.71
222.303	-10.31
222.774	-1.51
223.245	-13.51
223.717	-8.81
224.188	-7.71
224.659	-8.01
225.13	-7.31
225.601	-6.71
226.072	-2.11
226.543	1.69
227.014	-2.01
227.485	-6.31
227.956	-6.91
228.427	-7.21
228.898	-6.61
229.369	1.59
229.839	-3.51
230.31	-10.31
230.781	-5.11
231.252	-6.61
231.722	-8.91
232.193	-6.91
232.664	-2.21
233.135	-3.01
233.605	-1.21
234.076	-5.81
234.546	-6.21
235.017	-1.01
235.487	-2.81
235.958	-2.81
236.428	-6.91
236.899	-0.81
237.369	-0.41
237.84	-7.91
238.31	-3.71
238.78	-10.01
239.251	-5.21
239.721	-2.61
240.191	-2.81
240.662	-8.71
241.132	-10.01
241.602	-8.61
242.072	2.89
242.542	2.99
243.013	-4.21
243.483	-1.71
243.953	0.19
244.423	-4.91
244.893	-6.61
245.363	-0.91
245.833	-5.91
246.303	-2.11
246.773	2.99
247.243	-2.31
247.712	-0.51
248.182	-0.71
248.652	1.09
249.122	-11.31
249.592	-8.01
250.061	-1.81
250.531	9.19
251.001	-1.11
251.471	3.19
251.94	7.29
252.41	-3.11
252.879	-5.91
253.349	7.89
253.818	1.89
254.288	-0.01
254.757	-4.21
255.227	-14.21
255.696	-4.61
256.166	3.39
256.635	-1.91
257.105	3.59
257.574	-2.61
258.043	-1.91
258.513	-2.21
258.982	3.29
259.451	1.29
259.92	-0.51
260.389	-0.01
260.859	6.79
261.328	-4.91
261.797	4.59
262.266	-2.41
262.735	6.89
263.204	2.29
263.673	0.39
264.142	1.39
264.611	-8.71
265.08	-6.21
265.549	-2.91
266.018	-0.41
266.487	-4.41
266.955	-4.11
267.424	-4.71
267.893	0.49
268.362	-4.11
268.83	-8.11
269.299	3.39
269.768	-2.71
270.236	1.79
270.705	-5.91
271.174	0.29
271.642	-2.11
272.111	-5.71
272.579	-1.71
273.048	3.99
273.516	1.79
273.985	-2.21
274.453	-0.01
274.922	10.89
275.39	-1.71
275.858	-0.71
276.327	6.69
276.795	11.39
277.263	-0.71
277.731	6.39
278.2	3.19
278.668	6.99
279.136	3.19
279.604	-0.11
280.072	3.69
280.54	6.79
281.008	-6.61
281.477	2.49
281.945	8.29
282.413	6.29
282.881	5.69
283.348	-1.51
283.816	8.29
284.284	4.19
284.752	15.19
285.22	10.79
285.688	7.09
286.156	9.29
286.623	14.19
287.091	9.69
287.559	6.59
288.026	6.69
288.494	10.79
288.962	-7.91
289.429	4.79
289.897	6.19
290.364	3.79
290.832	7.19
291.3	6.59
291.767	9.49
292.234	11.09
292.702	3.59
293.169	3.99
293.637	20.99
294.104	13.19
294.571	2.69
295.039	8.09
295.506	8.59
295.973	7.39
296.44	10.49
296.908	12.99
297.375	4.59
297.842	5.19
298.309	6.09
298.776	-0.21
299.243	7.99
299.71	3.09
300.177	10.59
300.644	9.59
301.111	4.89
301.578	14.89
302.045	6.89
302.512	15.19
302.979	18.09
303.446	16.89
303.913	5.59
304.379	8.79
304.846	16.09
305.313	13.49
305.78	12.09
306.246	17.69
306.713	17.89
307.18	12.89
307.646	11.59
308.113	12.99
308.579	16.59
309.046	17.69
309.512	18.09
309.979	7.89
310.445	19.29
310.912	20.39
311.378	20.89
311.845	19.59
312.311	21.59
312.777	22.79
313.244	22.39
313.71	23.49
314.176	15.09
314.642	20.59
315.109	19.19
315.575	29.49
316.041	32.59
316.507	14.99
316.973	25.29
317.439	22.59
317.905	22.79
318.371	18.29
318.837	22.69
319.303	19.79
319.769	24.59
320.235	18.09
320.701	20.99
321.167	26.79
321.633	23.19
322.099	21.29
322.564	25.99
323.03	27.99
323.496	20.99
323.962	19.59
324.427	20.59
324.893	24.89
325.359	26.99
325.824	25.19
326.29	21.39
326.755	27.69
327.221	29.69
327.686	26.99
328.152	36.99
328.617	30.19
329.083	34.89
329.548	36.89
330.014	35.39
330.479	27.79
330.944	25.39
331.41	31.39
331.875	30.29
332.34	28.19
332.805	26.29
333.271	31.29
333.736	25.49
334.201	37.19
334.666	34.99
335.131	38.99
335.596	35.69
336.061	34.49
336.526	28.59
336.991	32.39
337.456	41.79
337.921	35.19
338.386	35.69
338.851	31.49
339.316	35.89
339.781	34.99
340.246	42.49
340.711	32.29
341.175	39.29
341.64	30.89
342.105	45.19
342.569	44.39
343.034	46.99
343.499	43.79
343.963	38.99
344.428	50.49
344.893	47.69
345.357	47.49
345.822	47.19
346.286	53.49
346.751	55.19
347.215	56.19
347.679	53.19
348.144	69.89
348.608	64.79
349.073	54.49
349.537	57.49
350.001	60.39
350.465	68.09
350.93	61.29
351.394	58.99
351.858	49.89
352.322	64.19
352.786	62.69
353.25	75.59
353.715	83.19
354.179	76.89
354.643	94.19
355.107	96.19
355.571	77.89
356.035	78.99
356.498	86.49
356.962	84.39
357.426	96.79
357.89	87.39
358.354	70.49
358.818	66.09
359.281	64.59
359.745	59.79
360.209	57.69
360.673	61.29
361.136	64.39
361.6	65.79
362.064	71.29
362.527	65.69
362.991	73.19
363.454	63.09
363.918	65.69
364.381	66.09
364.845	73.89
365.308	73.49
365.772	74.59
366.235	74.09
366.698	74.39
367.162	67.59
367.625	76.39
368.088	72.69
368.552	77.49
369.015	66.89
369.478	82.29
369.941	74.09
370.404	73.09
370.867	89.29
371.331	81.79
371.794	91.39
372.257	81.59
372.72	90.59
373.183	90.89
373.646	75.89
374.109	82.19
374.572	85.19
375.035	84.89
375.497	89.49
375.96	88.69
376.423	92.19
376.886	94.39
377.349	90.49
377.811	86.19
378.274	86.59
378.737	87.29
379.199	88.49
379.662	96.99
380.125	98.69
380.587	94.69
381.05	101.19
381.512	101.69
381.975	104.09
382.437	100.09
382.9	102.59
383.362	108.09
383.825	114.79
384.287	114.09
384.75	102.99
385.212	113.29
385.674	108.89
386.136	116.99
386.599	105.99
387.061	104.29
387.523	108.09
387.985	107.29
388.447	118.19
388.91	110.49
389.372	112.69
389.834	114.69
390.296	116.09
390.758	117.29
391.22	125.29
391.682	130.19
392.144	136.09
392.606	122.79
393.068	129.19
393.529	133.79
393.991	123.09
394.453	119.49
394.915	118.79
395.377	127.19
395.838	125.69
396.3	117.19
396.762	125.79
397.224	125.19
397.685	121.19
398.147	120.39
398.608	117.69
399.07	121.29
399.531	123.49
399.993	135.49
400.454	141.59
400.916	136.49
401.377	133.49
401.839	135.19
402.3	135.89
402.762	154.99
403.223	164.89
403.684	156.09
404.145	144.59
404.607	151.99
405.068	149.69
405.529	151.29
405.99	173.19
406.451	154.69
406.913	157.59
407.374	154.39
407.835	152.79
408.296	154.99
408.757	162.89
409.218	174.49
409.679	162.29
410.14	161.19
410.601	162.29
411.062	170.39
411.522	170.99
411.983	162.19
412.444	163.59
412.905	166.19
413.366	176.49
413.826	185.99
414.287	207.49
414.748	250.29
415.208	237.49
415.669	205.79
416.13	197.59
416.59	199.29
417.051	204.99
417.511	212.19
417.972	229.79
418.432	242.79
418.893	278.69
419.353	236.49
419.814	190.79
420.274	172.79
420.734	172.39
421.195	188.99
421.655	185.99
422.115	180.89
422.576	187.19
423.036	190.39
423.496	198.49
423.956	204.99
424.416	218.19
424.876	250.49
425.336	247.69
425.797	245.99
426.257	238.89
426.717	230.29
427.177	217.69
427.637	209.79
428.097	221.99
428.556	228.49
429.016	253.99
429.476	251.69
429.936	252.89
430.396	263.19
430.856	263.69
431.315	289.09
431.775	324.59
432.235	350.29
432.694	324.39
433.154	334.49
433.614	360.49
434.073	308.89
434.533	269.09
434.993	253.79
435.452	259.99
435.912	272.19
436.371	270.99
436.83	262.79
437.29	248.19
437.749	233.89
438.209	238.29
438.668	251.29
439.127	263.29
439.587	251.29
440.046	229.29
440.505	244.09
440.964	263.19
441.424	298.59
441.883	290.49
442.342	255.59
442.801	221.69
443.26	218.19
443.719	216.39
444.178	212.79
444.637	208.29
445.096	221.59
445.555	219.39
446.014	221.49
446.473	222.39
446.932	228.79
447.391	213.19
447.849	221.09
448.308	215.49
448.767	224.59
449.226	223.69
449.685	238.89
450.143	249.59
450.602	240.89
451.061	221.39
451.519	226.99
451.978	233.29
452.436	232.09
452.895	236.99
453.353	246.89
453.812	244.69
454.27	235.99
454.729	232.99
455.187	232.89
455.646	232.49
456.104	246.59
456.562	260.39
457.021	262.69
457.479	263.59
457.937	265.99
458.395	262.09
458.854	240.29
459.312	251.69
459.77	271.39
460.228	257.39
460.686	240.79
461.144	242.89
461.602	243.69
462.06	235.89
462.518	255.99
462.976	251.39
463.434	251.09
463.892	260.59
464.35	264.89
464.808	281.19
465.266	266.49
465.724	266.09
466.181	273.89
466.639	269.09
467.097	279.99
467.555	291.09
468.012	297.79
468.47	305.39
468.928	314.59
469.385	331.29
469.843	338.89
470.3	350.59
470.758	357.39
471.215	381.89
471.673	392.69
472.13	399.99
472.588	413.69
473.045	366.59
473.503	375.99
473.96	390.99
474.417	393.99
474.875	418.19
475.332	467.49
475.789	453.39
476.246	460.49
476.704	480.09
477.161	498.99
477.618	510.69
478.075	546.19
478.532	598.29
478.989	669.29
479.446	767.29
479.903	730.59
480.36	765.09
480.817	809.39
481.274	890.59
481.731	982.19
482.188	1068.19
482.645	1165.09
483.102	1253.09
483.558	1387.09
484.015	1413.09
484.472	1397.99
484.929	1350.89
485.385	1325.69
485.842	1283.09
486.299	1246.19
486.755	1195.39
487.212	1023.09
487.668	867.19
488.125	813.29
488.582	744.69
489.038	717.39
489.494	688.89
489.951	665.19
490.407	652.09
490.864	634.99
491.32	631.19
491.776	625.49
492.233	638.79
492.689	601.29
493.145	596.89
493.602	596.79
494.058	597.49
494.514	597.69
494.97	617.09
495.426	637.89
495.882	613.59
496.338	604.49
496.794	607.89
497.251	606.49
497.707	621.49
498.163	621.39
498.618	626.49
499.074	625.09
499.53	659.59
499.986	662.89
500.442	629.39
500.898	611.19
501.354	615.19
501.809	616.19
502.265	619.39
502.721	629.09
503.177	633.89
503.632	646.19
504.088	643.39
504.543	658.49
504.999	684.79
505.455	655.59
505.91	636.69
506.366	639.69
506.821	635.29
507.277	630.99
507.732	640.39
508.187	634.89
508.643	635.69
509.098	641.69
509.553	660.09
510.009	668.09
510.464	678.99
510.919	684.89
511.375	694.09
511.83	706.39
512.285	718.09
512.74	754.89
513.195	776.49
513.65	757.09
514.105	763.99
514.56	762.39
515.015	778.89
515.47	787.49
515.925	783.89
516.38	778.89
516.835	790.49
517.29	770.89
517.745	776.89
518.2	765.29
518.655	746.79
519.109	746.59
519.564	730.59
520.019	732.29
520.474	724.09
520.928	719.49
521.383	711.19
521.838	715.69
522.292	711.69
522.747	721.99
523.201	704.19
523.656	702.89
524.11	695.99
524.565	697.19
525.019	694.69
525.474	704.29
525.928	701.19
526.382	704.59
526.837	699.39
527.291	706.89
527.745	697.09
528.2	695.19
528.654	686.49
529.108	679.69
529.562	685.29
530.016	688.49
530.47	686.89
530.925	683.59
531.379	697.49
531.833	696.99
532.287	702.29
532.741	699.39
533.195	700.79
533.649	705.79
534.103	716.19
534.556	703.99
535.01	707.79
535.464	694.69
535.918	713.99
536.372	715.29
536.826	723.89
537.279	703.49
537.733	707.89
538.187	708.79
538.64	718.59
539.094	720.39
539.548	731.19
540.001	724.69
540.455	725.59
540.908	733.79
541.362	744.49
541.815	752.19
542.269	761.79
542.722	767.59
543.175	775.39
543.629	774.89
544.082	797.19
544.536	799.99
544.989	787.89
545.442	795.89
545.895	796.99
546.349	801.59
546.802	797.89
547.255	804.09
547.708	816.99
548.161	813.89
548.614	831.89
549.067	834.79
549.52	827.69
549.973	817.89
550.426	822.29
550.879	807.09
551.332	805.89
551.785	816.99
552.238	815.09
552.691	827.19
553.144	850.69
553.596	853.59
554.049	872.79
554.502	902.19
554.955	931.19
555.407	916.49
555.86	909.79
556.313	903.89
556.765	891.79
557.218	894.69
557.67	884.69
558.123	884.19
558.576	885.09
559.028	886.69
559.48	895.69
559.933	885.19
560.385	852.19
560.838	822.59
561.29	798.79
561.742	793.59
562.195	778.79
562.647	777.09
563.099	786.39
563.551	777.09
564.004	785.59
564.456	778.29
564.908	773.19
565.36	742.89
565.812	737.69
566.264	737.79
566.716	733.29
567.168	715.99
567.62	718.09
568.072	704.59
568.524	701.09
568.976	698.69
569.428	690.39
569.88	684.89
570.332	695.49
570.784	695.79
571.235	691.99
571.687	704.19
572.139	709.79
572.59	718.89
573.042	726.99
573.494	728.79
573.945	723.49
574.397	693.89
574.849	702.39
575.3	696.39
575.752	698.49
576.203	690.99
576.655	699.79
577.106	682.99
577.557	675.79
578.009	678.59
578.46	665.89
578.912	673.19
579.363	674.59
579.814	677.59
580.265	673.99
580.717	675.69
581.168	682.89
581.619	688.19
582.07	693.39
582.521	684.19
582.972	685.29
583.423	687.79
583.875	691.39
584.326	698.79
584.777	703.29
585.227	730.79
585.678	745.29
586.129	765.69
586.58	791.09
587.031	811.39
587.482	849.29
587.933	897.79
588.384	850.79
588.834	804.99
589.285	793.39
589.736	784.79
590.186	787.29
590.637	776.99
591.088	751.49
591.538	742.09
591.989	746.99
592.439	730.69
592.89	731.99
593.34	718.69
593.791	721.39
594.241	717.89
594.692	712.09
595.142	712.39
595.593	704.89
596.043	714.29
596.493	723.69
596.943	712.29
597.394	735.39
597.844	730.39
598.294	746.59
598.744	776.19
599.195	798.59
599.645	843.49
600.095	887.39
600.545	936.89
600.995	990.69
601.445	1047.29
601.895	1120.89
602.345	1152.99
602.795	1140.59
603.245	1086.59
603.695	1034.89
604.145	981.09
604.594	930.09
605.044	882.29
605.494	818.89
605.944	777.29
606.393	759.99
606.843	738.59
607.293	745.59
607.743	748.49
608.192	753.19
608.642	762.09
609.091	770.99
609.541	777.79
609.99	783.39
610.44	777.29
610.889	726.79
611.339	703.19
611.788	696.49
612.238	698.39
612.687	713.59
613.136	711.59
613.586	721.49
614.035	709.49
614.484	725.69
614.933	725.19
615.383	727.49
615.832	723.69
616.281	701.99
616.73	682.99
617.179	667.49
617.628	657.89
618.077	646.09
618.526	630.99
618.975	626.19
619.424	613.59
619.873	621.19
620.322	629.59
620.771	625.39
621.22	615.39
621.669	602.19
622.118	594.49
622.567	591.39
623.015	588.79
623.464	577.89
623.913	565.49
624.361	565.89
624.81	562.69
625.259	562.79
625.707	567.79
626.156	568.19
626.604	572.29
627.053	573.89
627.501	579.09
627.95	584.59
628.398	599.19
628.847	590.79
629.295	586.29
629.744	585.59
630.192	582.89
630.64	572.39
631.089	548.69
631.537	555.59
631.985	537.19
632.433	541.39
632.881	534.99
633.33	545.79
633.778	547.29
634.226	534.39
634.674	550.99
635.122	545.99
635.57	569.29
636.018	578.89
636.466	578.69
636.914	564.09
637.362	581.09
637.81	589.59
638.258	596.39
638.705	603.99
639.153	630.99
639.601	637.99
640.049	659.69
640.497	692.89
640.944	716.99
641.392	657.09
641.84	628.49
642.287	600.69
642.735	574.99
643.182	575.29
643.63	578.39
644.078	580.19
644.525	580.49
644.973	597.79
645.42	613.49
645.867	622.69
646.315	642.69
646.762	672.89
647.21	691.79
647.657	712.49
648.104	740.79
648.551	758.49
648.999	822.69
649.446	895.19
649.893	982.09
650.34	1140.89
650.787	1345.19
651.234	1670.19
651.682	2153.39
652.129	2937.49
652.576	4155.39
653.023	6051.49
653.47	8187.19
653.917	10048.19
654.363	11482.89
654.81	12594.59
655.257	11924.89
655.704	7904.79
656.151	4764.19
656.598	3124.89
657.044	2236.89
657.491	1749.09
657.938	1399.49
658.385	1189.59
658.831	1027.49
659.278	941.59
659.724	843.09
660.171	775.09
660.618	707.99
661.064	685.39
661.511	662.09
661.957	651.19
662.404	642.69
662.85	650.59
663.296	627.19
663.743	570.19
664.189	547.99
664.635	546.09
665.082	537.09
665.528	548.69
665.974	527.39
666.42	518.99
666.867	503.39
667.313	499.99
667.759	477.79
668.205	463.39
668.651	460.89
669.097	464.19
669.543	454.19
669.989	455.69
670.435	451.49
670.881	462.59
671.327	459.69
671.773	479.59
672.219	505.19
672.665	569.89
673.11	611.49
673.556	652.29
674.002	690.39
674.448	683.19
674.893	574.99
675.339	490.69
675.785	456.49
676.23	429.19
676.676	406.69
677.122	391.19
677.567	380.69
678.013	377.69
678.458	372.19
678.904	374.09
679.349	360.79
679.794	361.89
680.24	364.39
680.685	361.39
681.131	357.89
681.576	362.89
682.021	376.69
682.466	362.39
682.912	363.99
683.357	367.09
683.802	394.99
684.247	431.89
684.692	477.59
685.137	521.99
685.583	557.99
686.028	576.79
686.473	543.79
686.918	469.29
687.363	426.09
687.807	407.29
688.252	382.69
688.697	366.99
689.142	342.09
689.587	342.29
690.032	335.39
690.477	355.49
690.921	370.69
691.366	393.09
691.811	417.69
692.255	445.69
692.7	480.29
693.145	533.89
693.589	761.59
694.034	1223.49
694.478	1639.19
694.923	1802.29
695.367	2334.09
695.812	1242.09
696.256	518.39
696.701	388.59
697.145	360.79
697.59	338.29
698.034	320.09
698.478	336.09
698.922	338.49
699.367	335.29
699.811	342.79
700.255	363.89
700.699	404.49
701.143	443.39
701.588	483.99
702.032	519.69
702.476	536.49
702.92	514.19
703.364	518.29
703.808	696.89
704.252	1126.29
704.696	1546.29
705.14	1737.39
705.584	2213.69
706.027	1122.09
706.471	542.29
706.915	410.69
707.359	373.29
707.803	341.19
708.246	314.09
708.69	327.99
709.134	324.39
709.577	323.19
710.021	325.99
710.465	313.99
710.908	308.69
711.352	303.59
711.795	321.79
712.239	367.59
712.682	404.99
713.126	429.99
713.569	478.89
714.012	373.09
714.456	311.99
714.899	297.19
715.342	286.99
715.786	274.39
716.229	266.49
716.672	264.89
717.115	259.19
717.558	255.09
718.002	273.89
718.445	275.69
718.888	291.19
719.331	308.09
719.774	324.19
720.217	309.59
720.66	297.79
721.103	275.19
721.546	268.89
721.989	259.49
722.432	245.99
722.874	250.29
723.317	240.69
723.76	244.29
724.203	270.89
724.645	334.69
725.088	483.79
725.531	605.39
725.974	664.09
726.416	557.29
726.859	324.29
727.301	258.49
727.744	238.69
728.187	244.59
728.629	246.59
729.071	257.29
729.514	270.49
729.956	276.09
730.399	297.39
730.841	292.29
731.283	282.19
731.726	274.69
732.168	273.89
732.61	276.69
733.053	300.59
733.495	327.89
733.937	366.89
734.379	422.69
734.821	467.09
735.263	582.89
735.705	928.19
736.148	1743.69
736.59	2781.99
737.032	3146.89
737.474	2581.19
737.916	855.49
738.357	452.29
738.799	339.19
739.241	315.09
739.683	295.19
740.125	305.49
740.567	309.79
741.008	325.79
741.45	335.09
741.892	337.49
742.334	363.79
742.775	374.99
743.217	362.19
743.658	277.99
744.1	267.19
744.542	277.39
744.983	331.19
745.425	358.09
745.866	356.79
746.307	297.99
746.749	289.89
747.19	346.49
747.632	495.09
748.073	989.09
748.514	2063.99
748.956	3020.09
749.397	3811.59
749.838	3165.39
750.279	3074.89
750.72	1578.19
751.162	590.79
751.603	346.59
752.044	268.29
752.485	232.09
752.926	217.19
753.367	211.49
753.808	203.79
754.249	199.69
754.69	193.49
755.131	187.89
755.572	192.69
756.013	190.39
756.453	189.39
756.894	199.39
757.335	197.89
757.776	202.99
758.216	195.69
758.657	208.29
759.098	213.09
759.538	246.59
759.979	288.89
760.42	403.49
760.86	781.59
761.301	2082.89
761.741	4858.19
762.182	6649.69
762.622	4725.89
763.063	1401.19
763.503	561.69
763.943	347.19
764.384	281.19
764.824	260.99
765.264	241.19
765.705	219.99
766.145	185.29
766.585	174.89
767.025	169.19
767.465	171.99
767.906	197.39
768.346	210.69
768.786	218.39
769.226	229.79
769.666	333.89
770.106	698.59
770.546	1717.79
770.986	2756.49
771.426	2451.89
771.866	833.09
772.306	350.89
772.745	213.99
773.185	178.39
773.625	169.79
774.065	151.79
774.505	172.19
774.944	219.99
775.384	387.29
775.824	613.19
776.263	584.99
776.703	289.89
777.142	161.59
777.582	141.19
778.021	130.99
778.461	128.29
778.9	134.19
779.34	123.29
779.779	117.39
780.219	112.09
780.658	109.99
781.097	117.99
781.537	118.79
781.976	115.49
782.415	109.49
782.855	107.39
783.294	106.99
783.733	115.69
784.172	108.99
784.611	103.29
785.05	111.89
785.489	117.19
785.928	118.99
786.367	127.19
786.806	120.09
787.245	131.39
787.684	138.89
788.123	157.59
788.562	146.29
789.001	133.49
789.44	120.69
789.879	122.39
790.317	120.49
790.756	132.89
791.195	138.39
791.634	152.69
792.072	218.79
792.511	403.09
792.95	1116.79
793.388	2243.09
793.827	1977.19
794.265	706.29
794.704	292.19
795.142	187.39
795.581	151.69
796.019	142.39
796.458	134.09
796.896	127.09
797.334	135.69
797.773	163.39
798.211	238.19
798.649	492.09
799.087	1115.79
799.526	1725.99
799.964	2168.19
800.402	2082.19
800.84	799.99
801.278	320.29
801.716	194.59
802.154	166.59
802.592	155.29
803.03	149.79
803.468	140.69
803.906	154.79
804.344	157.39
804.782	154.39
805.22	148.49
805.658	134.89
806.096	157.09
806.533	166.49
806.971	187.29
807.409	237.79
807.847	353.29
808.284	754.79
808.722	2066.39
809.16	3478.79
809.597	3443.79
810.035	5829.99
810.472	5965.19
810.91	2198.09
811.347	850.69
811.785	428.09
812.222	275.29
812.66	211.69
813.097	176.69
813.535	144.89
813.972	136.39
814.409	127.19
814.846	116.99
815.284	113.89
815.721	100.19
816.158	109.09
816.595	108.29
817.032	160.89
817.47	180.79
817.907	132.19
818.344	107.49
818.781	101.09
819.218	104.19
819.655	129.69
820.092	199.19
820.529	215.09
820.966	178.89
821.403	127.99
821.839	103.99
822.276	102.99
822.713	127.39
823.15	143.79
823.587	118.29
824.023	159.39
824.46	344.89
824.897	979.39
825.333	1408.59
825.77	609.19
826.206	236.79
826.643	146.59
827.08	107.39
827.516	87.59
827.953	84.09
828.389	79.69
828.825	69.29
829.262	67.89
829.698	65.69
830.135	60.39
830.571	66.39
831.007	70.29
831.443	65.19
831.88	66.59
832.316	58.99
832.752	64.49
833.188	68.99
833.624	66.69
834.06	75.29
834.497	70.79
834.933	74.49
835.369	77.89
835.805	74.59
836.241	78.19
836.677	84.99
837.112	87.49
837.548	110.49
837.984	146.89
838.42	221.79
838.856	554.19
839.292	1657.19
839.727	2388.99
840.163	1151.29
840.599	1030.59
841.034	2176.79
841.47	2194.79
841.906	816.29
842.341	351.99
842.777	214.99
843.212	212.39
843.648	191.39
844.083	114.69
844.519	83.29
844.954	74.39
845.39	61.29
845.825	61.69
846.261	55.69
846.696	54.69
847.131	52.69
847.566	57.89
848.002	58.39
848.437	56.79
848.872	62.99
849.307	60.99
849.742	95.89
850.177	198.79
850.613	604.09
851.048	916.09
851.483	399.49
851.918	164.49
852.353	88.89
852.788	55.09
853.223	56.19
853.657	46.99
854.092	47.69
854.527	42.39
854.962	44.49
855.397	49.89
855.832	53.09
856.266	47.39
856.701	40.19
857.136	39.09
857.57	42.89
858.005	53.49
858.44	59.49
858.874	46.99
859.309	48.39
859.743	39.09
860.178	43.49
860.612	44.59
861.047	61.69
861.481	73.39
861.915	71.89
862.35	56.59
862.784	34.19
863.218	37.69
863.653	33.99
864.087	41.29
864.521	52.39
864.955	68.79
865.39	168.19
865.824	179.49
866.258	122.39
866.692	179.29
867.126	191.99
867.56	108.39
867.994	56.49
868.428	42.39
868.862	50.49
869.296	54.99
869.73	62.29
870.164	52.09
870.598	47.79
871.031	33.99
871.465	29.69
871.899	28.79
872.333	21.09
872.766	21.59
873.2	22.19
873.634	26.09
874.067	24.19
874.501	23.19
874.935	32.79
875.368	25.69
875.802	28.59
876.235	24.19
876.669	25.49
877.102	23.59
877.535	23.09
877.969	22.69
878.402	25.09
878.836	24.79
879.269	30.39
879.702	22.39
880.135	18.79
880.569	23.39
881.002	23.89
881.435	23.49
881.868	17.09
882.301	20.89
882.734	16.99
883.167	22.09
883.601	11.19
884.034	21.69
884.467	14.59
884.899	24.99
885.332	20.09
885.765	20.19
886.198	16.29
886.631	16.79
887.064	16.79
887.497	23.69
887.929	26.19
888.362	21.19
888.795	18.99
889.228	15.59
889.66	17.89
890.093	14.09
890.526	20.89
890.958	13.29
891.391	14.59
891.823	25.29
892.256	12.09
892.688	13.29
893.121	19.99
893.553	15.99
893.985	17.79
894.418	19.59
894.85	16.59
895.282	12.69
895.715	18.49
896.147	22.09
896.579	19.49
897.011	12.49
897.444	16.29
897.876	17.89
898.308	17.99
898.74	15.79
899.172	13.69
899.604	21.29
900.036	18.69
900.468	11.49
900.9	14.69
901.332	15.89
901.764	12.69
902.196	19.29
902.628	15.79
903.06	19.49
903.491	28.99
903.923	22.69
904.355	14.99
904.787	22.29
905.218	20.89
905.65	22.09
906.082	13.09
906.513	8.79
906.945	16.39
907.376	11.39
907.808	16.19
908.239	15.59
908.671	18.79
909.102	21.59
909.534	26.19
909.965	49.09
910.397	105.29
910.828	336.29
911.259	494.29
911.691	223.99
912.122	114.89
912.553	51.89
912.984	28.99
913.415	24.59
913.847	26.09
914.278	13.59
914.709	9.19
915.14	18.09
915.571	13.99
916.002	10.09
916.433	21.39
916.864	13.49
917.295	13.39
917.726	16.09
918.157	18.99
918.587	26.39
919.018	24.99
919.449	21.39
919.88	20.99
920.311	27.99
920.741	49.79
921.172	174.09
921.603	163.19
922.033	78.29
922.464	49.29
922.895	27.39
923.325	20.29
923.756	14.39
924.186	7.79
924.617	17.49
925.047	23.59
925.478	23.69
925.908	19.39
926.338	8.89
926.769	10.29
927.199	14.19
927.629	13.29
928.06	17.69
928.49	11.09
928.92	16.79
929.35	12.29
929.78	11.19
930.21	3.59
930.641	8.79
931.071	8.09
931.501	5.19
931.931	8.39
932.361	13.99
932.791	0.19
933.221	1.09
933.651	4.09
934.08	15.49
934.51	31.59
934.94	9.89
935.37	11.59
935.8	11.69
936.229	6.69
936.659	9.09
937.089	4.59
937.519	12.09
937.948	19.89
938.378	12.19
938.807	3.69
939.237	-0.81
939.666	12.29
940.096	0.19
940.525	-1.91
940.955	-0.21
941.384	2.49
941.814	-2.81
942.243	-6.61
942.672	5.49
943.102	-2.51
943.531	-0.21
943.96	1.59
944.39	3.89
944.819	0.09
945.248	3.49
945.677	4.19
946.106	3.99
946.535	0.59
946.964	0.49
947.393	3.79
947.822	-4.71
948.251	-1.61
948.68	-1.21
949.109	-1.71
949.538	6.49
949.967	7.09
950.396	-3.61
950.825	-1.81
951.254	3.69
951.682	-7.81
952.111	3.29
952.54	5.09
952.969	-5.71
953.397	-1.81
953.826	3.39
954.254	-5.31
954.683	-0.21
955.112	-5.51
955.54	-1.91
955.969	-5.51
956.397	-1.21
956.826	-4.81
957.254	4.79
957.682	1.49
958.111	3.89
958.539	-0.41
958.967	-2.41
959.396	1.89
959.824	0.59
960.252	5.89
960.68	-2.81
961.109	-0.41
961.537	-0.81
961.965	-3.41
962.393	0.19
962.821	-3.41
963.249	-2.31
963.677	-3.01
964.105	5.59
964.533	40.19
964.961	46.79
965.389	20.79
965.817	2.69
966.245	-1.71
966.672	0.89
967.1	-2.41
967.528	-1.01
967.956	4.89
968.383	-2.31
968.811	-2.21
969.239	-0.41
969.666	-11.01
970.094	2.59
970.522	0.89
970.949	-5.21
971.377	-2.01
971.804	-3.31
972.232	-6.71
972.659	-7.41
973.087	-6.21
973.514	-3.41
973.941	-4.21
974.369	3.49
974.796	-5.51
975.223	-5.01
975.651	-1.31
976.078	-0.01
976.505	-10.01
976.932	3.49
977.359	15.69
977.786	16.49
978.214	0.49
978.641	1.79
979.068	-5.71
979.495	-4.41
979.922	-9.41
980.349	-5.81
980.776	-3.81
981.202	-6.21
981.629	0.29
982.056	1.79
982.483	-4.71
982.91	0.89
983.337	-8.61
983.763	3.19
984.19	-2.01
984.617	-3.11
985.043	-4.31
985.47	-4.21
985.897	-2.71
986.323	-8.71
986.75	0.49
987.176	-0.31
987.603	-4.41
988.029	1.79
988.456	-3.21
988.882	-1.01
989.308	-7.51
989.735	-1.81
990.161	-0.71
990.587	-2.91
991.014	-0.31
991.44	4.19
991.866	0.19
992.292	-1.71
992.719	-6.81
993.145	2.89
993.571	-9.61
993.997	-1.31
994.423	-2.41
994.849	-4.21
995.275	-4.71
995.701	3.99
996.127	1.69
996.553	2.99
996.979	-0.21
997.405	-3.41
997.83	-4.01
998.256	-7.11
998.682	-3.11
999.108	-11.11
999.534	1.89
999.959	-2.91
1000.385	-2.21
1000.811	0.79
1001.236	-11.41
1001.662	-8.61
1002.087	-7.21
1002.513	-2.01
1002.938	0.39
1003.364	-5.11
1003.789	-3.01
1004.215	2.29
1004.64	-0.71
1005.066	-1.91
1005.491	-1.91
1005.916	-0.21
1006.342	-2.41
1006.767	-9.71
1007.192	1.59
1007.617	-5.01
1008.042	-2.21
1008.468	-7.31
1008.893	-7.71
1009.318	-1.01
1009.743	-2.31
1010.168	4.79
1010.593	0.79
1011.018	-10.91
1011.443	-1.81
1011.868	2.79
1012.293	-3.61
1012.718	-7.31
1013.143	-7.61
1013.567	5.69
1013.992	-6.21
1014.417	-11.11
1014.842	-2.21
1015.267	-9.81
1015.691	-10.61
1016.116	3.89
1016.541	-5.01
1016.965	3.19
1017.39	3.29
1017.814	-1.91
1018.239	-3.31
1018.663	-8.41
1019.088	-8.51
1019.512	-6.91
1019.937	-2.61
1020.361	-6.91
1020.785	-9.31
1021.21	-3.51
1021.634	-7.11
1022.058	0.59
1022.483	5.69
1022.907	-6.01
1023.331	-3.51
1023.755	-3.51
1024.179	-3.61
1024.604	-8.11
1025.028	-0.01
1025.452	-5.21
1025.876	-1.31
1026.3	2.29
1026.724	-7.61
1027.148	-4.61
1027.572	-2.81
1027.996	-3.41
1028.42	-1.71
1028.843	-5.61
1029.267	-8.91
1029.691	-2.51
1030.115	-7.71
1030.539	-8.91
1030.962	-6.71
1031.386	-7.61
1031.81	-3.91
1032.233	-2.51
1032.657	-6.41
1033.08	-1.01
1033.504	-4.01
1033.927	-5.31
1034.351	-3.41
1034.774	-0.71
1035.198	-1.01
1035.621	-2.21
1036.045	-7.01
1036.468	-8.21
1036.891	-9.61
1037.315	-6.71
1037.738	-12.21
1038.161	-1.51
1038.584	-9.41
1039.008	-2.81
1039.431	-5.31
1039.854	-3.71
1040.277	-9.11
1040.7	-6.71
1041.123	3.59
1041.546	-4.91
1041.969	-4.71
1042.392	-8.31
1042.815	-4.41
1043.238	0.89
1043.661	-0.71
1044.084	-8.01
1044.507	-7.71
1044.93	-13.11
1045.352	-9.11
1045.775	-2.91
1046.198	-3.61
1046.621	-0.91
1047.043	-4.51
1047.466	1.19
1047.889	1.19
1048.311	-5.31
1048.734	-6.21
1049.156	-2.81
1049.579	1.59
1050.001	-3.91
1050.424	1.69
1050.846	-4.71
1051.269	-4.21
1051.691	-9.21
1052.113	-6.11
1052.536	-7.21
1052.958	-1.81
1053.38	-6.41
1053.802	-11.21
1054.225	1.89
1054.647	-6.31
1055.069	-6.41
1055.491	1.59
1055.913	-11.31
1056.335	0.89
1056.757	-8.11
1057.179	-1.81
1057.601	-9.81
1058.023	-5.91
1058.445	-8.71
1058.867	-6.91
1059.289	-5.21
1059.711	-8.81
1060.133	-3.31
1060.555	-2.61
1060.976	-9.81
1061.398	-6.01
1061.82	-9.41
1062.241	-12.31
1062.663	-6.51
1063.085	-6.51
1063.506	-7.61
1063.928	-2.01
1064.35	-8.61
1064.771	-16.41
1065.193	-4.41
1065.614	-11.41
1066.035	-6.61
1066.457	2.29
1066.878	5.89
1067.3	-1.91
1067.721	-4.21
1068.142	-4.91
1068.564	-5.91
1068.985	-5.91
1069.406	-5.71
1069.827	-9.41
1070.248	-2.61
1070.67	-5.81
1071.091	-6.91
1071.512	-2.81
1071.933	-7.81
1072.354	-8.21
1072.775	-7.21
1073.196	-10.81
1073.617	-7.21
1074.038	-8.61
1074.459	-4.51
1074.88	-4.51
1075.3	1.59
1075.721	-3.61
1076.142	1.59
1076.563	-1.71
1076.983	-7.91
1077.404	-3.81
1077.825	-8.31
1078.246	-4.51
1078.666	-11.71
1079.087	-9.71
1079.507	-7.51
1079.928	3.49
1080.348	-2.71
1080.769	-7.01
1081.189	-4.41
1081.61	-10.21
1082.03	-9.81
1082.451	-11.91
1082.871	-1.71
1083.291	-15.01
1083.711	-7.91
1084.132	-3.11
1084.552	-11.51
1084.972	-7.31
1085.392	-15.61
1085.813	-14.31
1086.233	-3.01
1086.653	-13.21
1087.073	-6.21
1087.493	-8.51
1087.913	-8.11
1088.333	-7.11
1088.753	-8.01
1089.173	1.29
1089.593	-6.01
1090.013	2.29
1090.433	6.79
1090.852	-2.91
1091.272	0.89
1091.692	-4.51
1092.112	-1.51
1092.531	-10.21
1092.951	-11.61
1093.371	-5.71
1093.79	-1.61
1094.21	-6.81
1094.63	-3.81
1095.049	-5.01
1095.469	-4.51
1095.888	-1.11
1096.308	0.69
1096.727	2.39
1097.146	-9.21
1097.566	2.09
1097.985	-5.31
1098.405	-2.91
1098.824	-6.51
1099.243	-8.71
1099.662	-14.21
1100.082	-6.61
1100.501	-7.91
1100.92	-8.71
1101.339	-10.41
1101.758	-3.01
