Data from 20171114-ORNL-Ar_H_NY_Subt18_08-04-35-638.txt Node
Date: Tue Nov 14 08:04:35 EST 2017
User: Ender
Spectrometer: HR+D1039
Trigger mode: 0
Integration Time (sec): 2.730000E-2
Scans to average: 10
Electric dark correction enabled: true
Nonlinearity correction enabled: false
Boxcar width: 0
XAxis mode: Wavelengths
Number of Pixels in Spectrum: 2048
>>>>>Begin Spectral Data<<<<<
187.836	-4.09
188.309	-4.09
188.782	-4.09
189.255	6.21
189.728	2.41
190.201	5.41
190.674	3.01
191.147	4.31
191.619	-8.29
192.092	1.01
192.565	2.21
193.038	2.51
193.511	-2.99
193.984	-1.59
194.456	-3.69
194.929	0.61
195.402	-4.59
195.874	-2.49
196.347	1.81
196.82	-2.99
197.292	8.01
197.765	-0.49
198.237	-9.49
198.71	4.31
199.182	2.71
199.655	5.51
200.127	6.21
200.6	-0.79
201.072	-0.19
201.544	-1.69
202.017	-4.39
202.489	4.81
202.961	-0.49
203.433	-1.49
203.906	-0.09
204.378	-0.69
204.85	-7.09
205.322	-6.09
205.794	-1.99
206.266	-3.99
206.739	-8.29
207.211	5.61
207.683	-10.29
208.155	-6.09
208.627	0.21
209.099	2.61
209.57	-8.09
210.042	-7.39
210.514	-3.79
210.986	3.11
211.458	-6.19
211.93	1.81
212.402	2.91
212.873	-3.99
213.345	-8.99
213.817	-10.29
214.288	-4.49
214.76	-10.19
215.232	4.01
215.703	-1.09
216.175	-0.99
216.646	-2.59
217.118	-2.79
217.589	-1.89
218.061	0.81
218.532	-1.79
219.004	-6.69
219.475	-3.79
219.946	-5.09
220.418	-6.79
220.889	2.41
221.36	1.71
221.832	4.91
222.303	-6.29
222.774	0.91
223.245	-9.79
223.717	-6.59
224.188	-0.59
224.659	-2.89
225.13	-0.99
225.601	-4.19
226.072	2.71
226.543	3.91
227.014	4.31
227.485	-3.29
227.956	-0.39
228.427	0.31
228.898	-2.59
229.369	5.51
229.839	1.31
230.31	3.61
230.781	9.81
231.252	0.61
231.722	-3.19
232.193	2.41
232.664	1.21
233.135	1.91
233.605	2.61
234.076	-1.69
234.546	1.71
235.017	6.71
235.487	-1.19
235.958	2.11
236.428	0.11
236.899	5.31
237.369	9.41
237.84	8.21
238.31	9.41
238.78	0.01
239.251	5.41
239.721	5.11
240.191	6.91
240.662	3.51
241.132	4.91
241.602	1.91
242.072	10.11
242.542	15.11
243.013	-0.39
243.483	10.61
243.953	5.41
244.423	2.11
244.893	8.41
245.363	4.01
245.833	3.21
246.303	1.31
246.773	11.61
247.243	4.91
247.712	8.01
248.182	7.51
248.652	14.01
249.122	3.61
249.592	18.81
250.061	24.81
250.531	34.11
251.001	17.41
251.471	28.71
251.94	31.71
252.41	11.21
252.879	9.41
253.349	22.51
253.818	12.71
254.288	8.61
254.757	3.11
255.227	8.91
255.696	6.11
256.166	4.21
256.635	6.41
257.105	10.01
257.574	10.41
258.043	10.01
258.513	18.81
258.982	25.41
259.451	13.61
259.92	13.91
260.389	12.61
260.859	18.31
261.328	18.11
261.797	23.01
262.266	12.91
262.735	9.71
263.204	8.91
263.673	7.61
264.142	6.11
264.611	-5.89
265.08	7.01
265.549	10.81
266.018	7.51
266.487	-2.29
266.955	3.81
267.424	3.61
267.893	5.31
268.362	5.51
268.83	6.71
269.299	13.71
269.768	6.61
270.236	6.31
270.705	0.51
271.174	10.31
271.642	14.71
272.111	8.41
272.579	23.81
273.048	28.01
273.516	31.31
273.985	33.21
274.453	28.71
274.922	22.01
275.39	14.71
275.858	8.61
276.327	19.61
276.795	24.11
277.263	13.51
277.731	34.51
278.2	64.61
278.668	58.31
279.136	53.81
279.604	21.61
280.072	17.11
280.54	13.71
281.008	13.51
281.477	18.21
281.945	16.81
282.413	13.71
282.881	17.01
283.348	17.31
283.816	17.31
284.284	17.21
284.752	22.91
285.22	18.71
285.688	20.71
286.156	19.21
286.623	43.21
287.091	57.51
287.559	34.11
288.026	21.01
288.494	19.81
288.962	9.91
289.429	10.71
289.897	16.51
290.364	18.01
290.832	19.01
291.3	22.21
291.767	25.91
292.234	26.11
292.702	17.01
293.169	24.51
293.637	23.61
294.104	25.31
294.571	9.41
295.039	11.61
295.506	14.21
295.973	20.11
296.44	20.01
296.908	26.11
297.375	27.71
297.842	28.91
298.309	21.11
298.776	15.81
299.243	28.51
299.71	15.11
300.177	25.51
300.644	27.41
301.111	19.21
301.578	32.11
302.045	15.41
302.512	29.41
302.979	29.91
303.446	28.11
303.913	23.41
304.379	25.01
304.846	28.51
305.313	26.21
305.78	27.01
306.246	33.51
306.713	32.21
307.18	32.11
307.646	32.41
308.113	32.91
308.579	26.51
309.046	30.61
309.512	29.81
309.979	21.21
310.445	32.41
310.912	30.11
311.378	36.71
311.845	29.71
312.311	34.71
312.777	38.11
313.244	32.91
313.71	36.71
314.176	31.31
314.642	38.61
315.109	30.91
315.575	37.41
316.041	48.41
316.507	35.81
316.973	44.11
317.439	41.51
317.905	41.41
318.371	33.71
318.837	31.31
319.303	34.81
319.769	31.11
320.235	39.51
320.701	41.51
321.167	39.71
321.633	36.11
322.099	44.51
322.564	53.41
323.03	39.71
323.496	46.41
323.962	42.81
324.427	42.11
324.893	44.31
325.359	43.01
325.824	36.71
326.29	39.51
326.755	40.91
327.221	46.51
327.686	42.01
328.152	54.81
328.617	45.21
329.083	54.51
329.548	52.11
330.014	43.51
330.479	42.31
330.944	48.01
331.41	50.41
331.875	48.11
332.34	48.21
332.805	45.41
333.271	51.41
333.736	50.11
334.201	55.41
334.666	58.91
335.131	52.21
335.596	48.51
336.061	55.31
336.526	54.31
336.991	52.21
337.456	56.51
337.921	49.71
338.386	45.71
338.851	46.21
339.316	47.41
339.781	49.31
340.246	55.71
340.711	48.61
341.175	55.01
341.64	45.61
342.105	50.51
342.569	60.71
343.034	60.71
343.499	53.61
343.963	48.31
344.428	66.21
344.893	60.41
345.357	57.41
345.822	61.51
346.286	71.71
346.751	76.11
347.215	63.41
347.679	77.81
348.144	102.61
348.608	75.11
349.073	70.41
349.537	74.61
350.001	74.61
350.465	91.61
350.93	78.51
351.394	90.71
351.858	71.01
352.322	89.61
352.786	81.21
353.25	103.81
353.715	110.11
354.179	105.21
354.643	125.41
355.107	128.51
355.571	109.11
356.035	102.01
356.498	115.41
356.962	127.21
357.426	132.61
357.89	115.41
358.354	91.81
358.818	86.11
359.281	83.01
359.745	78.71
360.209	78.51
360.673	76.31
361.136	73.61
361.6	81.71
362.064	85.21
362.527	82.11
362.991	89.81
363.454	76.71
363.918	82.41
364.381	80.31
364.845	78.11
365.308	83.51
365.772	83.31
366.235	87.61
366.698	79.61
367.162	91.41
367.625	91.01
368.088	84.91
368.552	91.21
369.015	90.31
369.478	96.31
369.941	101.71
370.404	90.91
370.867	111.51
371.331	107.41
371.794	112.91
372.257	112.81
372.72	107.61
373.183	99.01
373.646	106.51
374.109	101.61
374.572	107.81
375.035	106.31
375.497	107.11
375.96	104.21
376.423	102.11
376.886	107.71
377.349	109.21
377.811	103.31
378.274	105.81
378.737	98.31
379.199	113.81
379.662	105.81
380.125	119.01
380.587	114.91
381.05	113.81
381.512	130.41
381.975	129.81
382.437	123.31
382.9	128.71
383.362	127.31
383.825	145.11
384.287	143.91
384.75	138.61
385.212	135.61
385.674	138.71
386.136	135.51
386.599	119.41
387.061	125.41
387.523	134.41
387.985	137.01
388.447	136.01
388.91	142.01
389.372	159.81
389.834	156.41
390.296	143.61
390.758	141.41
391.22	164.01
391.682	207.61
392.144	280.01
392.606	222.51
393.068	165.01
393.529	166.11
393.991	159.41
394.453	139.31
394.915	153.31
395.377	177.01
395.838	198.91
396.3	153.61
396.762	140.11
397.224	127.31
397.685	123.61
398.147	127.31
398.608	127.81
399.07	118.31
399.531	129.51
399.993	135.61
400.454	151.71
400.916	143.71
401.377	139.01
401.839	139.81
402.3	145.11
402.762	161.61
403.223	168.41
403.684	160.11
404.145	154.51
404.607	154.81
405.068	162.11
405.529	159.61
405.99	182.11
406.451	169.21
406.913	165.51
407.374	160.11
407.835	159.41
408.296	153.21
408.757	164.91
409.218	177.21
409.679	168.51
410.14	166.41
410.601	173.21
411.062	180.51
411.522	179.51
411.983	178.01
412.444	165.31
412.905	167.31
413.366	172.11
413.826	182.41
414.287	212.01
414.748	256.61
415.208	238.11
415.669	200.71
416.13	199.01
416.59	192.91
417.051	199.11
417.511	205.11
417.972	223.51
418.432	239.21
418.893	282.01
419.353	238.81
419.814	190.11
420.274	172.31
420.734	171.31
421.195	193.31
421.655	188.51
422.115	188.81
422.576	184.51
423.036	185.21
423.496	195.61
423.956	206.21
424.416	225.51
424.876	256.91
425.336	251.71
425.797	252.71
426.257	250.01
426.717	230.21
427.177	224.81
427.637	214.81
428.097	229.81
428.556	229.91
429.016	258.91
429.476	252.51
429.936	259.11
430.396	265.11
430.856	281.71
431.315	304.71
431.775	338.11
432.235	356.71
432.694	333.51
433.154	348.71
433.614	363.31
434.073	322.31
434.533	265.01
434.993	252.21
435.452	264.31
435.912	277.61
436.371	268.01
436.83	265.81
437.29	251.81
437.749	229.91
438.209	228.51
438.668	259.71
439.127	271.71
439.587	245.21
440.046	241.31
440.505	250.51
440.964	262.81
441.424	301.11
441.883	286.71
442.342	246.91
442.801	213.71
443.26	205.31
443.719	206.31
444.178	200.51
444.637	200.31
445.096	210.71
445.555	215.51
446.014	216.01
446.473	214.11
446.932	218.11
447.391	213.21
447.849	217.71
448.308	208.51
448.767	218.81
449.226	224.81
449.685	219.41
450.143	231.61
450.602	224.51
451.061	218.41
451.519	222.11
451.978	225.01
452.436	219.71
452.895	226.01
453.353	233.11
453.812	225.71
454.27	222.81
454.729	225.41
455.187	220.81
455.646	230.51
456.104	233.21
456.562	245.41
457.021	248.21
457.479	238.71
457.937	246.51
458.395	247.41
458.854	232.31
459.312	235.41
459.77	259.11
460.228	239.61
460.686	222.71
461.144	237.71
461.602	229.21
462.06	224.81
462.518	237.21
462.976	245.71
463.434	245.51
463.892	252.91
464.35	258.91
464.808	269.71
465.266	253.01
465.724	254.01
466.181	259.61
466.639	251.01
467.097	270.61
467.555	279.71
468.012	292.01
468.47	297.01
468.928	310.71
469.385	329.51
469.843	323.51
470.3	326.21
470.758	344.31
471.215	361.41
471.673	390.51
472.13	375.21
472.588	394.11
473.045	346.71
473.503	358.01
473.96	363.11
474.417	373.81
474.875	406.91
475.332	444.31
475.789	440.51
476.246	454.01
476.704	460.51
477.161	486.71
477.618	495.01
478.075	522.91
478.532	573.41
478.989	641.11
479.446	751.11
479.903	727.81
480.36	766.71
480.817	819.31
481.274	923.31
481.731	1021.61
482.188	1100.21
482.645	1225.51
483.102	1324.21
483.558	1453.91
484.015	1504.81
484.472	1497.71
484.929	1449.11
485.385	1398.91
485.842	1356.51
486.299	1289.81
486.755	1223.11
487.212	1034.91
487.668	870.61
488.125	801.41
488.582	735.41
489.038	706.41
489.494	673.81
489.951	647.61
490.407	636.21
490.864	607.21
491.32	607.81
491.776	597.51
492.233	605.41
492.689	573.21
493.145	565.61
493.602	559.11
494.058	578.21
494.514	581.81
494.97	594.31
495.426	600.71
495.882	581.51
496.338	574.21
496.794	591.31
497.251	582.31
497.707	599.21
498.163	599.81
498.618	598.41
499.074	614.31
499.53	636.41
499.986	628.51
500.442	616.41
500.898	612.61
501.354	587.41
501.809	594.71
502.265	602.61
502.721	620.31
503.177	631.11
503.632	620.21
504.088	634.21
504.543	670.01
504.999	660.71
505.455	610.01
505.91	589.21
506.366	590.31
506.821	593.21
507.277	590.31
507.732	583.81
508.187	581.31
508.643	594.31
509.098	593.41
509.553	616.41
510.009	627.41
510.464	631.21
510.919	644.71
511.375	651.31
511.83	664.21
512.285	679.01
512.74	708.31
513.195	736.51
513.65	730.11
514.105	722.41
514.56	718.71
515.015	733.21
515.47	752.71
515.925	745.41
516.38	733.51
516.835	748.21
517.29	734.21
517.745	720.81
518.2	711.51
518.655	700.71
519.109	690.11
519.564	700.01
520.019	690.61
520.474	676.81
520.928	676.11
521.383	673.31
521.838	663.61
522.292	662.91
522.747	662.81
523.201	657.91
523.656	650.51
524.11	654.71
524.565	644.21
525.019	641.11
525.474	657.71
525.928	657.91
526.382	649.61
526.837	648.01
527.291	650.81
527.745	651.21
528.2	651.91
528.654	636.71
529.108	629.81
529.562	636.01
530.016	633.81
530.47	632.01
530.925	651.01
531.379	644.11
531.833	653.61
532.287	646.31
532.741	659.31
533.195	664.21
533.649	662.41
534.103	676.71
534.556	667.71
535.01	660.61
535.464	657.81
535.918	671.91
536.372	662.31
536.826	658.71
537.279	654.21
537.733	658.01
538.187	655.81
538.64	663.41
539.094	667.41
539.548	682.61
540.001	673.51
540.455	678.31
540.908	670.71
541.362	678.41
541.815	692.91
542.269	708.21
542.722	704.81
543.175	713.71
543.629	717.41
544.082	716.11
544.536	734.61
544.989	723.61
545.442	735.31
545.895	728.31
546.349	721.91
546.802	732.01
547.255	736.31
547.708	737.91
548.161	746.61
548.614	746.41
549.067	762.81
549.52	755.91
549.973	754.31
550.426	748.31
550.879	735.51
551.332	731.51
551.785	731.31
552.238	734.01
552.691	750.21
553.144	756.31
553.596	782.91
554.049	779.31
554.502	818.71
554.955	837.01
555.407	845.01
555.86	828.11
556.313	807.01
556.765	804.21
557.218	804.11
557.67	807.41
558.123	791.01
558.576	796.11
559.028	795.41
559.48	806.11
559.933	786.51
560.385	763.81
560.838	733.61
561.29	716.51
561.742	715.11
562.195	696.21
562.647	683.01
563.099	705.41
563.551	705.81
564.004	718.61
564.456	698.51
564.908	689.91
565.36	686.61
565.812	671.61
566.264	661.81
566.716	650.61
567.168	644.81
567.62	657.01
568.072	638.91
568.524	627.21
568.976	625.41
569.428	611.61
569.88	616.61
570.332	618.71
570.784	616.51
571.235	610.81
571.687	634.41
572.139	621.61
572.59	633.81
573.042	646.11
573.494	647.21
573.945	646.91
574.397	613.61
574.849	635.81
575.3	622.31
575.752	613.11
576.203	612.41
576.655	627.41
577.106	608.51
577.557	600.31
578.009	604.41
578.46	597.01
578.912	595.81
579.363	605.41
579.814	605.61
580.265	594.81
580.717	596.11
581.168	601.01
581.619	606.71
582.07	615.31
582.521	603.21
582.972	606.21
583.423	612.41
583.875	617.41
584.326	632.71
584.777	670.41
585.227	734.71
585.678	830.11
586.129	901.41
586.58	978.11
587.031	1042.01
587.482	1197.91
587.933	1356.61
588.384	1176.21
588.834	872.21
589.285	722.71
589.736	702.91
590.186	692.11
590.637	690.41
591.088	659.81
591.538	654.31
591.989	646.81
592.439	647.61
592.89	649.41
593.34	631.91
593.791	626.31
594.241	632.31
594.692	629.71
595.142	625.71
595.593	617.11
596.043	630.71
596.493	634.41
596.943	637.91
597.394	648.21
597.844	624.71
598.294	649.81
598.744	681.81
599.195	698.31
599.645	718.41
600.095	738.41
600.545	816.11
600.995	850.91
601.445	898.21
601.895	960.01
602.345	1009.51
602.795	984.21
603.245	945.91
603.695	900.61
604.145	843.61
604.594	805.31
605.044	761.31
605.494	710.91
605.944	669.71
606.393	659.11
606.843	648.31
607.293	643.91
607.743	643.31
608.192	658.21
608.642	669.91
609.091	678.81
609.541	681.21
609.99	673.11
610.44	670.01
610.889	622.11
611.339	613.91
611.788	602.91
612.238	616.11
612.687	638.61
613.136	629.21
613.586	655.11
614.035	652.01
614.484	670.11
614.933	666.41
615.383	663.91
615.832	646.61
616.281	636.01
616.73	608.11
617.179	585.31
617.628	564.91
618.077	552.91
618.526	542.31
618.975	544.01
619.424	538.71
619.873	531.01
620.322	532.11
620.771	533.81
621.22	535.61
621.669	509.51
622.118	517.51
622.567	504.41
623.015	493.81
623.464	501.71
623.913	499.81
624.361	477.61
624.81	476.11
625.259	476.51
625.707	482.41
626.156	486.21
626.604	497.11
627.053	490.51
627.501	501.91
627.95	489.91
628.398	501.71
628.847	496.31
629.295	492.61
629.744	499.61
630.192	494.51
630.64	495.71
631.089	485.11
631.537	499.71
631.985	510.81
632.433	521.81
632.881	524.41
633.33	570.71
633.778	541.41
634.226	491.61
634.674	496.61
635.122	503.51
635.57	517.61
636.018	538.21
636.466	504.31
636.914	487.11
637.362	497.41
637.81	502.61
638.258	498.91
638.705	496.11
639.153	521.51
639.601	524.91
640.049	555.11
640.497	581.11
640.944	601.91
641.392	558.31
641.84	519.91
642.287	494.91
642.735	486.61
643.182	496.81
643.63	487.81
644.078	490.71
644.525	508.21
644.973	522.71
645.42	519.31
645.867	534.91
646.315	549.61
646.762	568.91
647.21	595.71
647.657	612.71
648.104	644.81
648.551	654.01
648.999	721.41
649.446	786.21
649.893	856.01
650.34	986.51
650.787	1185.91
651.234	1465.51
651.682	1903.91
652.129	2620.81
652.576	3739.81
653.023	5545.21
653.47	7635.91
653.917	9697.61
654.363	11328.31
654.81	12708.51
655.257	12121.91
655.704	7838.61
656.151	4600.21
656.598	2978.31
657.044	2107.01
657.491	1608.51
657.938	1289.01
658.385	1078.71
658.831	934.31
659.278	833.21
659.724	734.11
660.171	677.41
660.618	613.81
661.064	583.61
661.511	564.21
661.957	552.51
662.404	548.01
662.85	558.11
663.296	526.71
663.743	485.81
664.189	466.21
664.635	460.71
665.082	448.71
665.528	451.01
665.974	437.21
666.42	436.11
666.867	432.11
667.313	423.41
667.759	404.91
668.205	401.51
668.651	420.01
669.097	425.61
669.543	431.81
669.989	409.41
670.435	390.51
670.881	380.31
671.327	384.11
671.773	404.51
672.219	414.31
672.665	466.01
673.11	494.41
673.556	527.51
674.002	572.41
674.448	565.61
674.893	458.71
675.339	407.81
675.785	380.81
676.23	356.01
676.676	337.11
677.122	323.51
677.567	314.01
678.013	317.01
678.458	304.21
678.904	298.31
679.349	292.21
679.794	301.31
680.24	293.51
680.685	296.11
681.131	296.31
681.576	297.51
682.021	305.31
682.466	292.71
682.912	289.11
683.357	296.51
683.802	319.91
684.247	345.21
684.692	389.71
685.137	418.31
685.583	453.01
686.028	477.21
686.473	443.61
686.918	378.61
687.363	354.81
687.807	328.01
688.252	314.11
688.697	305.21
689.142	293.91
689.587	276.31
690.032	277.81
690.477	285.01
690.921	293.21
691.366	323.11
691.811	344.01
692.255	363.11
692.7	383.11
693.145	415.91
693.589	572.91
694.034	927.31
694.478	1298.11
694.923	1487.91
695.367	1965.21
695.812	1027.61
696.256	425.71
696.701	307.31
697.145	288.91
697.59	283.31
698.034	263.91
698.478	287.41
698.922	275.41
699.367	277.41
699.811	290.01
700.255	300.51
700.699	322.71
701.143	357.21
701.588	395.21
702.032	436.31
702.476	437.11
702.92	405.51
703.364	412.11
703.808	521.31
704.252	841.71
704.696	1208.71
705.14	1414.31
705.584	1837.91
706.027	914.31
706.471	444.21
706.915	328.71
707.359	293.51
707.803	266.31
708.246	262.61
708.69	261.61
709.134	257.01
709.577	260.31
710.021	268.41
710.465	258.01
710.908	253.81
711.352	250.41
711.795	259.21
712.239	294.61
712.682	315.11
713.126	348.91
713.569	396.21
714.012	313.41
714.456	275.21
714.899	261.21
715.342	225.71
715.786	223.01
716.229	217.51
716.672	220.41
717.115	205.31
717.558	213.51
718.002	211.31
718.445	221.01
718.888	244.21
719.331	251.91
719.774	259.01
720.217	255.91
720.66	237.41
721.103	220.61
721.546	215.01
721.989	207.41
722.432	192.21
722.874	205.91
723.317	196.91
723.76	202.11
724.203	219.21
724.645	262.01
725.088	365.51
725.531	474.31
725.974	545.11
726.416	472.61
726.859	252.91
727.301	213.41
727.744	201.21
728.187	193.21
728.629	201.61
729.071	193.71
729.514	216.91
729.956	226.91
730.399	233.41
730.841	245.11
731.283	227.51
731.726	224.51
732.168	213.21
732.61	217.41
733.053	237.81
733.495	261.61
733.937	297.71
734.379	334.31
734.821	359.01
735.263	445.81
735.705	678.51
736.148	1277.81
736.59	2137.11
737.032	2621.61
737.474	2130.81
737.916	677.11
738.357	354.21
738.799	274.91
739.241	256.11
739.683	237.71
740.125	248.11
740.567	252.61
741.008	271.11
741.45	261.71
741.892	263.61
742.334	293.91
742.775	313.01
743.217	289.51
743.658	229.01
744.1	213.01
744.542	213.61
744.983	262.51
745.425	293.31
745.866	287.31
746.307	239.81
746.749	228.11
747.19	268.41
747.632	373.01
748.073	701.41
748.514	1499.21
748.956	2395.21
749.397	2979.01
749.838	2479.11
750.279	2538.51
750.72	1287.91
751.162	460.51
751.603	268.71
752.044	212.31
752.485	186.51
752.926	172.11
753.367	166.01
753.808	171.21
754.249	160.61
754.69	158.01
755.131	150.41
755.572	145.21
756.013	152.81
756.453	149.71
756.894	158.31
757.335	157.71
757.776	163.61
758.216	167.61
758.657	166.51
759.098	166.21
759.538	189.81
759.979	223.11
760.42	307.41
760.86	566.61
761.301	1458.41
761.741	3638.41
762.182	5577.11
762.622	3937.51
763.063	1119.21
763.503	459.91
763.943	289.51
764.384	286.21
764.824	345.51
765.264	386.51
765.705	256.11
766.145	171.11
766.585	156.91
767.025	150.41
767.465	148.81
767.906	200.21
768.346	274.91
768.786	292.31
769.226	211.91
769.666	254.61
770.106	498.01
770.546	1259.31
770.986	2250.81
771.426	2049.91
771.866	672.81
772.306	268.61
772.745	174.21
773.185	145.71
773.625	144.01
774.065	136.81
774.505	168.21
774.944	256.41
775.384	562.51
775.824	1060.01
776.263	1061.11
776.703	442.01
777.142	197.21
777.582	134.11
778.021	111.21
778.461	118.31
778.9	117.71
779.34	116.01
779.779	104.51
780.219	89.41
780.658	89.91
781.097	96.21
781.537	96.71
781.976	89.81
782.415	94.91
782.855	93.61
783.294	89.01
783.733	88.01
784.172	91.81
784.611	86.51
785.05	94.61
785.489	89.81
785.928	94.41
786.367	98.81
786.806	97.51
787.245	110.21
787.684	112.91
788.123	129.41
788.562	114.31
789.001	109.21
789.44	102.01
789.879	97.01
790.317	104.31
790.756	112.11
791.195	100.21
791.634	122.51
792.072	173.01
792.511	289.41
792.95	807.11
793.388	1808.21
793.827	1690.31
794.265	575.61
794.704	236.91
795.142	160.21
795.581	127.61
796.019	118.21
796.458	112.91
796.896	100.81
797.334	110.61
797.773	122.81
798.211	175.61
798.649	353.81
799.087	833.41
799.526	1341.61
799.964	1694.11
800.402	1744.51
800.84	643.11
801.278	251.71
801.716	154.71
802.154	131.21
802.592	122.91
803.03	116.31
803.468	108.81
803.906	122.21
804.344	128.91
804.782	115.41
805.22	113.91
805.658	107.61
806.096	124.11
806.533	130.61
806.971	142.71
807.409	179.71
807.847	253.81
808.284	533.01
808.722	1529.41
809.16	2817.21
809.597	2575.21
810.035	4580.61
810.472	5093.71
810.91	1810.51
811.347	673.91
811.785	333.51
812.222	213.31
812.66	162.41
813.097	136.21
813.535	121.01
813.972	105.71
814.409	100.81
814.846	94.81
815.284	100.51
815.721	86.51
816.158	90.21
816.595	98.11
817.032	152.41
817.47	174.41
817.907	143.41
818.344	132.01
818.781	101.51
819.218	83.61
819.655	97.11
820.092	165.01
820.529	184.81
820.966	150.91
821.403	116.61
821.839	92.81
822.276	82.11
822.713	102.31
823.15	113.11
823.587	106.61
824.023	121.41
824.46	237.81
824.897	735.71
825.333	1159.41
825.77	502.31
826.206	194.91
826.643	110.31
827.08	84.31
827.516	78.11
827.953	66.21
828.389	66.01
828.825	59.41
829.262	56.41
829.698	50.01
830.135	58.61
830.571	49.81
831.007	49.61
831.443	52.41
831.88	56.91
832.316	49.91
832.752	56.61
833.188	52.31
833.624	51.21
834.06	62.51
834.497	49.91
834.933	61.01
835.369	58.21
835.805	58.11
836.241	65.91
836.677	67.31
837.112	80.11
837.548	83.01
837.984	112.21
838.42	161.41
838.856	399.61
839.292	1251.11
839.727	1978.91
840.163	920.11
840.599	756.11
841.034	1711.81
841.47	1863.91
841.906	668.71
842.341	283.81
842.777	193.51
843.212	270.01
843.648	274.11
844.083	139.11
844.519	85.71
844.954	68.71
845.39	47.11
845.825	48.11
846.261	45.71
846.696	47.31
847.131	50.81
847.566	49.61
848.002	45.91
848.437	45.81
848.872	49.31
849.307	52.31
849.742	68.01
850.177	140.61
850.613	465.31
851.048	752.41
851.483	325.51
851.918	131.21
852.353	77.31
852.788	46.61
853.223	46.61
853.657	49.51
854.092	44.61
854.527	38.21
854.962	29.11
855.397	35.31
855.832	44.61
856.266	35.91
856.701	41.11
857.136	28.61
857.57	36.81
858.005	40.21
858.44	49.11
858.874	42.31
859.309	42.91
859.743	33.81
860.178	39.41
860.612	31.31
861.047	41.21
861.481	50.51
861.915	59.91
862.35	44.91
862.784	28.21
863.218	36.91
863.653	30.61
864.087	39.21
864.521	44.71
864.955	55.81
865.39	129.11
865.824	152.21
866.258	98.11
866.692	144.51
867.126	153.71
867.56	91.91
867.994	48.41
868.428	31.51
868.862	36.81
869.296	47.21
869.73	47.91
870.164	44.21
870.598	42.81
871.031	28.71
871.465	29.11
871.899	30.51
872.333	22.21
872.766	26.81
873.2	20.21
873.634	27.11
874.067	22.31
874.501	23.71
874.935	31.71
875.368	26.91
875.802	22.21
876.235	16.61
876.669	23.51
877.102	22.31
877.535	23.41
877.969	21.51
878.402	19.41
878.836	18.01
879.269	21.51
879.702	24.01
880.135	18.71
880.569	18.21
881.002	26.01
881.435	20.91
881.868	18.71
882.301	19.81
882.734	13.51
883.167	24.11
883.601	15.81
884.034	19.31
884.467	12.21
884.899	20.11
885.332	17.11
885.765	12.31
886.198	14.11
886.631	14.81
887.064	14.91
887.497	22.91
887.929	22.21
888.362	13.11
888.795	10.71
889.228	13.61
889.66	21.51
890.093	20.61
890.526	12.01
890.958	18.71
891.391	14.21
891.823	23.91
892.256	11.71
892.688	10.31
893.121	16.21
893.553	9.71
893.985	17.21
894.418	17.91
894.85	9.11
895.282	15.31
895.715	12.01
896.147	19.11
896.579	18.71
897.011	12.51
897.444	13.71
897.876	13.71
898.308	15.01
898.74	11.11
899.172	14.51
899.604	27.71
900.036	23.21
900.468	13.11
900.9	12.01
901.332	14.81
901.764	12.11
902.196	12.01
902.628	19.41
903.06	11.71
903.491	24.51
903.923	21.81
904.355	21.41
904.787	23.31
905.218	18.41
905.65	20.41
906.082	7.81
906.513	10.41
906.945	16.51
907.376	9.11
907.808	18.51
908.239	21.91
908.671	19.91
909.102	21.51
909.534	21.11
909.965	42.91
910.397	81.61
910.828	270.31
911.259	413.71
911.691	189.71
912.122	88.51
912.553	44.01
912.984	31.71
913.415	29.01
913.847	25.81
914.278	16.01
914.709	11.91
915.14	16.41
915.571	11.81
916.002	15.11
916.433	17.71
916.864	17.11
917.295	7.21
917.726	18.91
918.157	16.41
918.587	21.71
919.018	14.01
919.449	16.11
919.88	25.01
920.311	26.41
920.741	41.11
921.172	134.51
921.603	130.71
922.033	63.91
922.464	44.11
922.895	23.31
923.325	22.01
923.756	11.71
924.186	12.81
924.617	26.51
925.047	35.71
925.478	50.01
925.908	43.01
926.338	13.41
926.769	15.11
927.199	22.31
927.629	6.61
928.06	11.11
928.49	15.81
928.92	10.91
929.35	4.01
929.78	5.11
930.21	3.91
930.641	9.91
931.071	8.71
931.501	2.01
931.931	5.61
932.361	9.41
932.791	9.11
933.221	6.41
933.651	5.81
934.08	15.01
934.51	24.21
934.94	8.31
935.37	9.61
935.8	4.71
936.229	6.21
936.659	6.81
937.089	1.41
937.519	12.81
937.948	19.81
938.378	16.61
938.807	8.81
939.237	5.91
939.666	12.01
940.096	-3.59
940.525	6.01
940.955	2.91
941.384	4.91
941.814	-2.29
942.243	2.61
942.672	5.11
943.102	4.11
943.531	-0.29
943.96	6.51
944.39	10.61
944.819	0.51
945.248	5.61
945.677	4.51
946.106	6.51
946.535	5.91
946.964	2.11
947.393	5.91
947.822	0.71
948.251	-0.99
948.68	7.51
949.109	6.41
949.538	6.91
949.967	7.11
950.396	5.61
950.825	6.31
951.254	-4.99
951.682	-2.49
952.111	8.31
952.54	5.31
952.969	-3.49
953.397	-2.89
953.826	2.71
954.254	-5.99
954.683	4.11
955.112	3.61
955.54	2.41
955.969	-2.29
956.397	3.41
956.826	-2.09
957.254	6.11
957.682	6.21
958.111	5.91
958.539	0.11
958.967	3.01
959.396	-0.29
959.824	-0.29
960.252	4.91
960.68	-1.79
961.109	0.71
961.537	-3.59
961.965	3.21
962.393	7.81
962.821	-2.09
963.249	2.81
963.677	9.71
964.105	4.91
964.533	37.41
964.961	32.91
965.389	14.11
965.817	7.71
966.245	1.11
966.672	5.41
967.1	-1.49
967.528	2.31
967.956	1.11
968.383	-0.79
968.811	-2.09
969.239	1.91
969.666	-7.89
970.094	2.31
970.522	6.31
970.949	-0.19
971.377	-2.49
971.804	4.81
972.232	2.71
972.659	-1.19
973.087	-0.09
973.514	-1.89
973.941	-5.99
974.369	9.81
974.796	7.11
975.223	2.51
975.651	1.21
976.078	-0.09
976.505	1.41
976.932	5.81
977.359	12.71
977.786	14.61
978.214	5.61
978.641	-3.49
979.068	-1.19
979.495	-5.59
979.922	-3.59
980.349	-1.79
980.776	5.21
981.202	-1.59
981.629	6.11
982.056	7.61
982.483	1.51
982.91	-0.99
983.337	-4.49
983.763	5.91
984.19	2.21
984.617	-0.79
985.043	-7.59
985.47	-0.99
985.897	-2.89
986.323	-2.49
986.75	5.11
987.176	4.91
987.603	1.51
988.029	2.21
988.456	-0.09
988.882	6.11
989.308	-6.59
989.735	-4.09
990.161	2.51
990.587	-2.59
991.014	1.01
991.44	12.41
991.866	-1.59
992.292	-0.79
992.719	-1.89
993.145	2.71
993.571	-6.29
993.997	6.81
994.423	1.61
994.849	-3.29
995.275	-1.19
995.701	2.31
996.127	-7.79
996.553	2.81
996.979	-1.99
997.405	-1.89
997.83	-0.89
998.256	-4.59
998.682	2.11
999.108	-7.39
999.534	1.61
999.959	-3.99
1000.385	0.41
1000.811	4.01
1001.236	-5.29
1001.662	-5.09
1002.087	-9.99
1002.513	5.21
1002.938	3.21
1003.364	-3.89
1003.789	4.11
1004.215	12.11
1004.64	-3.49
1005.066	5.21
1005.491	3.51
1005.916	0.31
1006.342	-1.39
1006.767	-9.49
1007.192	6.41
1007.617	-4.79
1008.042	-2.79
1008.468	-5.39
1008.893	-3.29
1009.318	0.11
1009.743	-3.09
1010.168	3.81
1010.593	1.01
1011.018	-8.59
1011.443	1.11
1011.868	4.21
1012.293	-1.69
1012.718	-9.39
1013.143	2.21
1013.567	3.51
1013.992	-1.49
1014.417	-10.89
1014.842	4.21
1015.267	-4.29
1015.691	-3.89
1016.116	5.41
1016.541	5.81
1016.965	1.71
1017.39	1.51
1017.814	0.01
1018.239	3.31
1018.663	-5.59
1019.088	-10.09
1019.512	-1.79
1019.937	3.61
1020.361	-5.59
1020.785	-10.19
1021.21	-1.09
1021.634	1.91
1022.058	-2.29
1022.483	11.11
1022.907	2.41
1023.331	0.21
1023.755	-0.79
1024.179	-3.79
1024.604	-4.59
1025.028	-1.89
1025.452	1.31
1025.876	5.81
1026.3	2.41
1026.724	-8.29
1027.148	-3.19
1027.572	-3.59
1027.996	-1.49
1028.42	2.11
1028.843	2.71
1029.267	-9.49
1029.691	3.71
1030.115	-7.69
1030.539	-8.69
1030.962	-6.79
1031.386	-8.39
1031.81	1.11
1032.233	2.31
1032.657	-6.19
1033.08	-0.19
1033.504	-0.89
1033.927	-2.89
1034.351	0.41
1034.774	0.11
1035.198	-1.19
1035.621	-1.29
1036.045	-3.49
1036.468	0.01
1036.891	-9.39
1037.315	-7.79
1037.738	-9.79
1038.161	-0.69
1038.584	-5.99
1039.008	-4.99
1039.431	-6.79
1039.854	-0.29
1040.277	-2.69
1040.7	-7.19
1041.123	3.11
1041.546	-4.19
1041.969	-2.59
1042.392	-9.29
1042.815	0.01
1043.238	5.11
1043.661	2.31
1044.084	-7.29
1044.507	-0.69
1044.93	-5.19
1045.352	-3.79
1045.775	2.21
1046.198	3.21
1046.621	-2.39
1047.043	-1.39
1047.466	13.31
1047.889	-2.19
1048.311	-5.29
1048.734	3.51
1049.156	2.11
1049.579	-2.99
1050.001	-3.59
1050.424	0.51
1050.846	-0.79
1051.269	-6.89
1051.691	-4.79
1052.113	-4.69
1052.536	1.51
1052.958	0.01
1053.38	-0.39
1053.802	-3.49
1054.225	-2.59
1054.647	-8.39
1055.069	-4.49
1055.491	9.31
1055.913	-5.09
1056.335	1.81
1056.757	-3.89
1057.179	-5.19
1057.601	-5.29
1058.023	-0.19
1058.445	-4.59
1058.867	-5.39
1059.289	-0.69
1059.711	-7.79
1060.133	0.21
1060.555	0.21
1060.976	-5.69
1061.398	2.41
1061.82	-9.39
1062.241	0.01
1062.663	-6.19
1063.085	-8.19
1063.506	0.71
1063.928	-0.19
1064.35	-0.09
1064.771	-8.39
1065.193	-3.39
1065.614	-8.29
1066.035	0.21
1066.457	-4.39
1066.878	1.71
1067.3	-2.29
1067.721	-2.09
1068.142	-1.09
1068.564	3.81
1068.985	-4.79
1069.406	-6.29
1069.827	-6.89
1070.248	1.91
1070.67	-3.99
1071.091	-6.69
1071.512	-2.89
1071.933	-4.49
1072.354	-8.49
1072.775	0.31
1073.196	-4.79
1073.617	0.21
1074.038	-2.89
1074.459	-5.99
1074.88	-3.29
1075.3	-2.69
1075.721	-9.89
1076.142	0.91
1076.563	-0.89
1076.983	-10.49
1077.404	0.41
1077.825	-7.39
1078.246	-1.09
1078.666	-6.69
1079.087	-3.49
1079.507	-5.39
1079.928	2.61
1080.348	1.31
1080.769	-5.99
1081.189	-0.19
1081.61	-7.49
1082.03	-2.29
1082.451	-0.99
1082.871	-0.69
1083.291	-3.39
1083.711	-9.29
1084.132	-9.99
1084.552	-9.89
1084.972	1.71
1085.392	-7.99
1085.813	-8.69
1086.233	-9.59
1086.653	-2.49
1087.073	-3.79
1087.493	-1.89
1087.913	-4.49
1088.333	-5.29
1088.753	-0.29
1089.173	0.71
1089.593	0.31
1090.013	-0.49
1090.433	11.61
1090.852	-1.39
1091.272	-0.79
1091.692	-5.19
1092.112	1.01
1092.531	-6.39
1092.951	-9.29
1093.371	0.71
1093.79	-1.79
1094.21	-2.39
1094.63	-6.79
1095.049	-3.49
1095.469	0.61
1095.888	-0.89
1096.308	0.31
1096.727	4.31
1097.146	-4.99
1097.566	0.81
1097.985	-0.09
1098.405	0.81
1098.824	-5.69
1099.243	-5.89
1099.662	-6.59
1100.082	0.21
1100.501	2.41
1100.92	-4.89
1101.339	-6.39
1101.758	-0.89
