Data from 20171114-ORNL-Ar_H_NY_Subt18_08-07-15-602.txt Node
Date: Tue Nov 14 08:07:15 EST 2017
User: Ender
Spectrometer: HR+D1039
Trigger mode: 0
Integration Time (sec): 2.730000E-2
Scans to average: 10
Electric dark correction enabled: true
Nonlinearity correction enabled: false
Boxcar width: 0
XAxis mode: Wavelengths
Number of Pixels in Spectrum: 2048
>>>>>Begin Spectral Data<<<<<
187.836	-3.18
188.309	-3.18
188.782	-3.18
189.255	-0.88
189.728	3.62
190.201	5.52
190.674	-3.58
191.147	3.02
191.619	-12.68
192.092	2.32
192.565	5.02
193.038	4.32
193.511	0.22
193.984	3.22
194.456	-1.38
194.929	-2.88
195.402	-1.08
195.874	-1.58
196.347	-2.68
196.82	-7.78
197.292	5.02
197.765	-3.38
198.237	-5.78
198.71	5.72
199.182	-2.38
199.655	1.22
200.127	3.82
200.6	-0.38
201.072	2.12
201.544	-1.08
202.017	-2.38
202.489	1.62
202.961	-2.78
203.433	-1.78
203.906	-1.88
204.378	-5.98
204.85	1.42
205.322	-10.58
205.794	-0.88
206.266	-2.68
206.739	-6.18
207.211	3.02
207.683	-5.58
208.155	-1.68
208.627	-9.78
209.099	-1.08
209.57	-10.98
210.042	-5.78
210.514	0.02
210.986	0.22
211.458	-8.48
211.93	-1.28
212.402	-2.48
212.873	-9.28
213.345	-4.98
213.817	-11.08
214.288	-3.78
214.76	-14.08
215.232	-0.58
215.703	-1.38
216.175	-8.18
216.646	-3.88
217.118	-2.18
217.589	-3.58
218.061	-1.18
218.532	-6.38
219.004	-4.18
219.475	-5.68
219.946	-4.58
220.418	-5.78
220.889	2.02
221.36	0.82
221.832	-4.98
222.303	-5.08
222.774	-1.48
223.245	-5.48
223.717	-4.58
224.188	-0.78
224.659	-9.98
225.13	-9.08
225.601	-3.08
226.072	2.52
226.543	-2.68
227.014	0.02
227.485	-1.78
227.956	-4.58
228.427	3.42
228.898	4.22
229.369	1.72
229.839	-4.48
230.31	-1.98
230.781	2.02
231.252	-1.78
231.722	-0.98
232.193	-4.68
232.664	-5.28
233.135	-3.38
233.605	2.32
234.076	-5.48
234.546	0.22
235.017	4.82
235.487	4.22
235.958	-3.38
236.428	-9.98
236.899	0.12
237.369	-1.18
237.84	-8.18
238.31	-6.98
238.78	-1.28
239.251	-7.28
239.721	-5.08
240.191	-1.28
240.662	-3.68
241.132	-1.58
241.602	-1.78
242.072	0.12
242.542	6.02
243.013	4.62
243.483	-2.58
243.953	-0.98
244.423	-3.18
244.893	-6.28
245.363	1.62
245.833	-0.08
246.303	-6.68
246.773	1.02
247.243	-4.88
247.712	-5.08
248.182	6.82
248.652	0.82
249.122	-9.38
249.592	-3.68
250.061	4.52
250.531	8.72
251.001	-2.78
251.471	5.62
251.94	6.02
252.41	-1.88
252.879	-6.18
253.349	6.42
253.818	2.42
254.288	2.12
254.757	-1.18
255.227	-0.48
255.696	-6.08
256.166	3.62
256.635	3.62
257.105	3.52
257.574	-2.78
258.043	-3.88
258.513	-5.18
258.982	1.92
259.451	-1.68
259.92	1.42
260.389	-2.08
260.859	7.02
261.328	0.72
261.797	6.62
262.266	-1.48
262.735	9.02
263.204	5.52
263.673	-0.18
264.142	5.32
264.611	-12.58
265.08	-2.38
265.549	-1.28
266.018	5.42
266.487	-3.28
266.955	-7.38
267.424	-7.28
267.893	0.32
268.362	-0.58
268.83	-4.48
269.299	11.02
269.768	3.22
270.236	0.02
270.705	1.62
271.174	-0.48
271.642	7.52
272.111	1.02
272.579	6.12
273.048	4.72
273.516	3.72
273.985	2.82
274.453	3.52
274.922	10.02
275.39	7.52
275.858	-1.48
276.327	9.42
276.795	11.12
277.263	0.52
277.731	9.12
278.2	6.32
278.668	10.12
279.136	9.22
279.604	11.32
280.072	1.52
280.54	7.02
281.008	5.42
281.477	14.22
281.945	10.62
282.413	7.62
282.881	7.02
283.348	4.72
283.816	9.22
284.284	8.92
284.752	17.92
285.22	8.62
285.688	11.52
286.156	10.92
286.623	16.62
287.091	7.12
287.559	6.02
288.026	12.92
288.494	16.72
288.962	2.42
289.429	6.82
289.897	14.92
290.364	10.02
290.832	5.52
291.3	12.42
291.767	2.62
292.234	10.72
292.702	4.72
293.169	10.22
293.637	23.12
294.104	11.52
294.571	8.72
295.039	9.52
295.506	10.32
295.973	6.92
296.44	11.82
296.908	14.02
297.375	11.82
297.842	14.02
298.309	6.02
298.776	0.52
299.243	13.12
299.71	8.12
300.177	15.42
300.644	19.62
301.111	14.82
301.578	15.42
302.045	13.22
302.512	16.02
302.979	17.72
303.446	11.52
303.913	12.32
304.379	17.42
304.846	23.02
305.313	17.12
305.78	19.82
306.246	22.12
306.713	24.22
307.18	20.42
307.646	23.92
308.113	21.92
308.579	15.72
309.046	21.42
309.512	20.92
309.979	12.42
310.445	19.92
310.912	21.52
311.378	28.32
311.845	22.72
312.311	22.12
312.777	25.42
313.244	27.32
313.71	27.32
314.176	24.12
314.642	23.52
315.109	25.52
315.575	31.52
316.041	29.52
316.507	21.42
316.973	29.42
317.439	23.12
317.905	23.02
318.371	27.72
318.837	25.62
319.303	30.32
319.769	33.12
320.235	24.22
320.701	30.42
321.167	26.72
321.633	24.02
322.099	28.12
322.564	34.32
323.03	34.92
323.496	27.02
323.962	31.32
324.427	26.82
324.893	39.52
325.359	33.62
325.824	31.12
326.29	25.92
326.755	31.92
327.221	33.12
327.686	34.52
328.152	40.42
328.617	31.92
329.083	38.82
329.548	38.12
330.014	44.12
330.479	37.72
330.944	40.32
331.41	40.32
331.875	41.72
332.34	35.82
332.805	31.82
333.271	36.42
333.736	32.02
334.201	44.12
334.666	40.42
335.131	44.12
335.596	43.32
336.061	39.32
336.526	38.12
336.991	40.22
337.456	50.52
337.921	41.52
338.386	42.42
338.851	36.52
339.316	44.12
339.781	40.52
340.246	44.42
340.711	39.12
341.175	48.62
341.64	41.42
342.105	53.22
342.569	51.72
343.034	50.02
343.499	50.22
343.963	44.82
344.428	54.22
344.893	57.32
345.357	52.52
345.822	55.22
346.286	53.62
346.751	64.32
347.215	55.12
347.679	58.72
348.144	82.32
348.608	77.52
349.073	62.82
349.537	67.32
350.001	70.62
350.465	80.72
350.93	63.62
351.394	71.62
351.858	70.22
352.322	79.02
352.786	77.82
353.25	82.32
353.715	89.32
354.179	83.22
354.643	99.32
355.107	105.82
355.571	89.42
356.035	80.62
356.498	97.92
356.962	99.22
357.426	109.32
357.89	95.52
358.354	75.82
358.818	75.22
359.281	71.42
359.745	62.72
360.209	69.82
360.673	67.42
361.136	75.92
361.6	75.92
362.064	71.92
362.527	80.02
362.991	79.42
363.454	80.32
363.918	61.62
364.381	77.32
364.845	78.22
365.308	79.62
365.772	80.82
366.235	80.92
366.698	72.92
367.162	81.12
367.625	80.12
368.088	83.02
368.552	86.62
369.015	79.22
369.478	83.82
369.941	85.62
370.404	86.82
370.867	93.92
371.331	93.02
371.794	105.02
372.257	88.72
372.72	102.52
373.183	100.32
373.646	86.02
374.109	88.42
374.572	97.12
375.035	90.12
375.497	98.62
375.96	93.82
376.423	98.92
376.886	110.92
377.349	102.92
377.811	88.52
378.274	102.82
378.737	102.52
379.199	104.22
379.662	108.12
380.125	105.82
380.587	100.42
381.05	100.52
381.512	101.12
381.975	113.22
382.437	108.32
382.9	116.62
383.362	118.32
383.825	123.62
384.287	122.32
384.75	115.02
385.212	125.12
385.674	127.62
386.136	127.62
386.599	119.12
387.061	118.82
387.523	125.42
387.985	121.42
388.447	131.32
388.91	119.72
389.372	123.32
389.834	121.92
390.296	117.22
390.758	126.42
391.22	131.22
391.682	133.52
392.144	152.02
392.606	135.52
393.068	133.72
393.529	147.62
393.991	132.72
394.453	132.62
394.915	125.22
395.377	134.02
395.838	130.02
396.3	135.22
396.762	143.12
397.224	136.02
397.685	132.02
398.147	133.02
398.608	138.42
399.07	131.32
399.531	143.52
399.993	145.32
400.454	156.02
400.916	148.92
401.377	148.72
401.839	153.42
402.3	142.82
402.762	171.02
403.223	181.22
403.684	171.12
404.145	163.92
404.607	159.42
405.068	159.52
405.529	168.92
405.99	185.62
406.451	174.62
406.913	168.92
407.374	168.62
407.835	164.52
408.296	169.32
408.757	175.92
409.218	185.22
409.679	179.42
410.14	178.52
410.601	177.02
411.062	185.82
411.522	183.72
411.983	179.52
412.444	170.82
412.905	182.52
413.366	185.32
413.826	198.62
414.287	228.52
414.748	272.52
415.208	258.22
415.669	223.22
416.13	220.92
416.59	210.82
417.051	223.82
417.511	223.42
417.972	243.42
418.432	261.22
418.893	303.52
419.353	262.82
419.814	213.82
420.274	192.02
420.734	184.02
421.195	201.82
421.655	195.82
422.115	201.62
422.576	211.62
423.036	216.12
423.496	216.72
423.956	223.82
424.416	242.32
424.876	275.02
425.336	271.92
425.797	265.12
426.257	263.02
426.717	249.72
427.177	239.82
427.637	228.52
428.097	239.62
428.556	254.32
429.016	268.02
429.476	265.22
429.936	278.02
430.396	282.12
430.856	297.82
431.315	312.02
431.775	352.22
432.235	384.12
432.694	351.92
433.154	365.82
433.614	394.42
434.073	336.12
434.533	295.62
434.993	281.62
435.452	287.32
435.912	293.62
436.371	283.62
436.83	278.72
437.29	264.72
437.749	254.02
438.209	249.62
438.668	281.72
439.127	290.42
439.587	269.42
440.046	259.02
440.505	265.42
440.964	282.32
441.424	325.12
441.883	320.12
442.342	271.12
442.801	242.62
443.26	237.02
443.719	240.02
444.178	237.12
444.637	234.02
445.096	237.12
445.555	235.02
446.014	232.32
446.473	235.02
446.932	247.92
447.391	239.12
447.849	246.72
448.308	237.32
448.767	239.12
449.226	255.72
449.685	254.42
450.143	268.92
450.602	258.12
451.061	242.82
451.519	245.62
451.978	248.62
452.436	243.72
452.895	250.52
453.353	264.82
453.812	255.22
454.27	261.72
454.729	255.52
455.187	256.02
455.646	253.52
456.104	270.02
456.562	278.72
457.021	284.02
457.479	285.62
457.937	285.22
458.395	280.02
458.854	269.12
459.312	279.32
459.77	284.12
460.228	269.02
460.686	265.62
461.144	270.42
461.602	265.92
462.06	263.02
462.518	276.12
462.976	270.22
463.434	280.32
463.892	278.52
464.35	288.42
464.808	305.62
465.266	288.42
465.724	290.32
466.181	300.42
466.639	294.42
467.097	304.82
467.555	325.62
468.012	325.82
468.47	324.72
468.928	345.62
469.385	364.72
469.843	378.02
470.3	367.62
470.758	382.42
471.215	405.62
471.673	432.52
472.13	421.92
472.588	440.52
473.045	397.02
473.503	396.92
473.96	422.22
474.417	422.92
474.875	458.22
475.332	495.82
475.789	487.92
476.246	502.92
476.704	516.82
477.161	533.02
477.618	550.92
478.075	593.42
478.532	638.42
478.989	717.12
479.446	820.52
479.903	790.02
480.36	819.72
480.817	869.12
481.274	952.12
481.731	1040.82
482.188	1123.22
482.645	1254.52
483.102	1354.22
483.558	1476.22
484.015	1520.82
484.472	1488.82
484.929	1444.72
485.385	1399.72
485.842	1375.92
486.299	1335.42
486.755	1279.02
487.212	1090.42
487.668	933.72
488.125	864.42
488.582	801.82
489.038	771.02
489.494	738.42
489.951	713.72
490.407	691.42
490.864	673.32
491.32	677.62
491.776	671.12
492.233	679.22
492.689	645.52
493.145	650.12
493.602	623.42
494.058	648.22
494.514	647.12
494.97	672.72
495.426	684.92
495.882	653.72
496.338	646.72
496.794	658.72
497.251	653.22
497.707	672.72
498.163	663.22
498.618	681.32
499.074	677.92
499.53	703.72
499.986	696.82
500.442	679.72
500.898	656.42
501.354	651.62
501.809	660.22
502.265	674.62
502.721	665.92
503.177	679.92
503.632	683.22
504.088	695.62
504.543	709.22
504.999	723.82
505.455	696.12
505.91	681.22
506.366	680.72
506.821	672.32
507.277	677.92
507.732	674.32
508.187	666.32
508.643	686.22
509.098	683.82
509.553	713.62
510.009	714.62
510.464	723.42
510.919	741.12
511.375	744.22
511.83	758.32
512.285	763.62
512.74	811.22
513.195	828.12
513.65	823.32
514.105	818.62
514.56	821.52
515.015	842.52
515.47	850.82
515.925	831.72
516.38	821.12
516.835	842.72
517.29	825.02
517.745	831.62
518.2	821.12
518.655	806.42
519.109	790.92
519.564	786.42
520.019	779.02
520.474	761.92
520.928	772.62
521.383	763.02
521.838	762.92
522.292	752.72
522.747	756.32
523.201	755.62
523.656	737.72
524.11	740.52
524.565	740.22
525.019	736.42
525.474	737.02
525.928	739.12
526.382	743.82
526.837	737.62
527.291	738.42
527.745	743.62
528.2	746.32
528.654	723.82
529.108	735.42
529.562	740.42
530.016	739.02
530.47	734.52
530.925	741.12
531.379	732.82
531.833	741.02
532.287	744.72
532.741	747.32
533.195	744.12
533.649	749.32
534.103	760.42
534.556	752.22
535.01	751.92
535.464	741.82
535.918	756.22
536.372	761.32
536.826	761.72
537.279	750.62
537.733	745.82
538.187	758.22
538.64	756.32
539.094	766.62
539.548	778.02
540.001	767.42
540.455	769.82
540.908	771.92
541.362	782.12
541.815	797.92
542.269	813.12
542.722	800.52
543.175	817.02
543.629	824.02
544.082	836.62
544.536	844.02
544.989	836.52
545.442	852.32
545.895	846.02
546.349	847.62
546.802	837.92
547.255	864.52
547.708	846.22
548.161	864.62
548.614	877.22
549.067	883.82
549.52	876.82
549.973	866.02
550.426	862.92
550.879	849.72
551.332	847.82
551.785	854.72
552.238	856.72
552.691	870.32
553.144	890.92
553.596	909.12
554.049	926.52
554.502	952.82
554.955	973.42
555.407	972.92
555.86	958.02
556.313	946.42
556.765	939.52
557.218	937.22
557.67	936.62
558.123	928.52
558.576	929.52
559.028	928.22
559.48	934.12
559.933	933.82
560.385	891.42
560.838	859.32
561.29	835.72
561.742	840.42
562.195	819.92
562.647	823.02
563.099	834.72
563.551	823.22
564.004	833.02
564.456	821.12
564.908	810.62
565.36	785.72
565.812	774.12
566.264	773.72
566.716	757.12
567.168	738.72
567.62	757.32
568.072	744.32
568.524	743.12
568.976	735.82
569.428	727.92
569.88	722.22
570.332	726.32
570.784	732.62
571.235	726.42
571.687	740.62
572.139	749.52
572.59	758.92
573.042	761.62
573.494	759.02
573.945	742.02
574.397	726.12
574.849	745.22
575.3	728.42
575.752	722.32
576.203	721.12
576.655	723.32
577.106	717.42
577.557	712.42
578.009	714.82
578.46	708.92
578.912	697.52
579.363	711.62
579.814	708.02
580.265	705.62
580.717	711.32
581.168	708.52
581.619	715.62
582.07	724.72
582.521	720.32
582.972	704.32
583.423	707.22
583.875	720.62
584.326	721.12
584.777	736.82
585.227	750.52
585.678	757.82
586.129	770.02
586.58	791.72
587.031	811.42
587.482	853.02
587.933	861.22
588.384	852.92
588.834	829.32
589.285	801.32
589.736	813.02
590.186	807.92
590.637	816.12
591.088	788.42
591.538	794.62
591.989	773.52
592.439	766.62
592.89	759.12
593.34	750.22
593.791	747.32
594.241	736.22
594.692	731.02
595.142	739.02
595.593	732.92
596.043	736.52
596.493	733.62
596.943	742.42
597.394	758.92
597.844	760.72
598.294	770.62
598.744	794.02
599.195	812.72
599.645	866.52
600.095	914.32
600.545	979.02
600.995	1016.82
601.445	1080.82
601.895	1161.62
602.345	1188.92
602.795	1177.32
603.245	1137.62
603.695	1079.72
604.145	1006.72
604.594	969.12
605.044	917.62
605.494	850.52
605.944	800.22
606.393	782.72
606.843	758.82
607.293	772.42
607.743	760.62
608.192	782.12
608.642	782.72
609.091	794.82
609.541	792.92
609.99	787.42
610.44	805.62
610.889	753.22
611.339	735.62
611.788	716.82
612.238	727.72
612.687	733.72
613.136	732.22
613.586	735.32
614.035	734.12
614.484	752.92
614.933	742.62
615.383	740.82
615.832	743.02
616.281	724.82
616.73	697.82
617.179	702.62
617.628	672.12
618.077	658.42
618.526	657.82
618.975	644.72
619.424	652.12
619.873	643.82
620.322	640.42
620.771	640.22
621.22	639.72
621.669	629.42
622.118	620.02
622.567	608.42
623.015	600.92
623.464	595.42
623.913	596.32
624.361	585.22
624.81	579.72
625.259	579.52
625.707	584.72
626.156	589.32
626.604	603.02
627.053	590.02
627.501	589.92
627.95	595.92
628.398	606.72
628.847	601.92
629.295	590.22
629.744	602.92
630.192	596.82
630.64	597.72
631.089	578.12
631.537	574.32
631.985	553.32
632.433	560.32
632.881	540.62
633.33	555.42
633.778	544.62
634.226	551.32
634.674	557.12
635.122	571.02
635.57	569.62
636.018	582.12
636.466	591.32
636.914	584.32
637.362	599.22
637.81	599.42
638.258	610.32
638.705	606.22
639.153	643.22
639.601	650.92
640.049	671.02
640.497	706.32
640.944	728.22
641.392	675.12
641.84	631.42
642.287	614.12
642.735	594.32
643.182	588.42
643.63	588.22
644.078	585.32
644.525	604.32
644.973	607.72
645.42	615.52
645.867	642.22
646.315	666.82
646.762	676.42
647.21	704.82
647.657	729.42
648.104	766.72
648.551	784.92
648.999	851.12
649.446	915.72
649.893	994.32
650.34	1146.72
650.787	1337.32
651.234	1673.42
651.682	2148.72
652.129	2938.92
652.576	4138.22
653.023	6054.22
653.47	8167.32
653.917	10140.32
654.363	11648.82
654.81	12901.42
655.257	12206.32
655.704	8078.52
656.151	4856.22
656.598	3184.82
657.044	2287.22
657.491	1787.32
657.938	1436.12
658.385	1208.62
658.831	1062.12
659.278	959.42
659.724	851.72
660.171	800.02
660.618	737.52
661.064	693.12
661.511	681.72
661.957	658.62
662.404	653.92
662.85	656.42
663.296	636.52
663.743	566.62
664.189	557.62
664.635	548.52
665.082	546.02
665.528	550.32
665.974	532.82
666.42	526.12
666.867	521.92
667.313	507.82
667.759	482.42
668.205	472.82
668.651	477.92
669.097	458.82
669.543	459.92
669.989	459.02
670.435	460.52
670.881	463.82
671.327	473.02
671.773	499.22
672.219	511.32
672.665	575.32
673.11	616.32
673.556	661.22
674.002	698.62
674.448	693.52
674.893	580.92
675.339	497.22
675.785	458.22
676.23	443.42
676.676	407.72
677.122	406.72
677.567	394.62
678.013	390.42
678.458	373.32
678.904	375.02
679.349	373.22
679.794	372.22
680.24	376.22
680.685	361.62
681.131	369.82
681.576	368.12
682.021	378.32
682.466	365.22
682.912	366.62
683.357	374.52
683.802	397.02
684.247	435.82
684.692	486.22
685.137	522.72
685.583	563.52
686.028	594.72
686.473	559.72
686.918	477.12
687.363	441.22
687.807	410.92
688.252	379.92
688.697	382.92
689.142	365.22
689.587	355.72
690.032	339.52
690.477	357.42
690.921	364.62
691.366	398.92
691.811	425.82
692.255	465.62
692.7	485.32
693.145	529.22
693.589	745.82
694.034	1209.82
694.478	1639.42
694.923	1842.22
695.367	2407.42
695.812	1273.52
696.256	527.82
696.701	392.02
697.145	370.62
697.59	335.42
698.034	336.52
698.478	342.62
698.922	332.42
699.367	345.52
699.811	350.32
700.255	372.82
700.699	400.72
701.143	448.82
701.588	503.42
702.032	543.62
702.476	539.92
702.92	519.22
703.364	527.72
703.808	678.32
704.252	1112.42
704.696	1549.32
705.14	1779.02
705.584	2250.22
706.027	1131.82
706.471	548.62
706.915	421.72
707.359	370.62
707.803	341.52
708.246	334.92
708.69	330.02
709.134	329.72
709.577	321.72
710.021	337.92
710.465	322.92
710.908	317.32
711.352	311.92
711.795	318.72
712.239	370.32
712.682	397.62
713.126	434.62
713.569	474.72
714.012	384.82
714.456	322.82
714.899	303.42
715.342	287.22
715.786	283.42
716.229	263.12
716.672	262.12
717.115	265.22
717.558	263.12
718.002	271.72
718.445	273.62
718.888	297.82
719.331	304.32
719.774	320.12
720.217	323.12
720.66	305.62
721.103	278.72
721.546	269.72
721.989	267.52
722.432	245.82
722.874	257.22
723.317	233.32
723.76	246.92
724.203	275.72
724.645	329.72
725.088	471.92
725.531	606.02
725.974	678.22
726.416	572.52
726.859	324.62
727.301	253.12
727.744	244.22
728.187	239.72
728.629	248.82
729.071	264.22
729.514	270.12
729.956	293.52
730.399	299.32
730.841	302.42
731.283	286.22
731.726	279.22
732.168	278.52
732.61	281.02
733.053	301.82
733.495	332.02
733.937	379.02
734.379	426.92
734.821	457.22
735.263	584.52
735.705	899.82
736.148	1693.82
736.59	2764.82
737.032	3254.92
737.474	2641.62
737.916	866.52
738.357	456.62
738.799	348.72
739.241	312.92
739.683	301.92
740.125	306.22
740.567	316.02
741.008	337.22
741.45	334.92
741.892	330.82
742.334	373.22
742.775	380.02
743.217	365.92
743.658	283.92
744.1	268.32
744.542	276.42
744.983	333.62
745.425	363.52
745.866	358.92
746.307	293.22
746.749	289.12
747.19	344.82
747.632	483.62
748.073	942.22
748.514	1997.42
748.956	3042.12
749.397	3837.52
749.838	3166.22
750.279	3151.42
750.72	1602.32
751.162	592.62
751.603	345.92
752.044	269.62
752.485	223.72
752.926	220.82
753.367	215.42
753.808	205.82
754.249	202.92
754.69	199.22
755.131	189.02
755.572	196.92
756.013	190.22
756.453	190.12
756.894	204.42
757.335	201.02
757.776	207.02
758.216	203.72
758.657	212.72
759.098	212.62
759.538	234.32
759.979	277.92
760.42	397.42
760.86	762.52
761.301	1996.12
761.741	4765.82
762.182	6828.12
762.622	4804.92
763.063	1393.22
763.503	566.92
763.943	343.62
764.384	276.82
764.824	252.32
765.264	231.12
765.705	214.32
766.145	193.82
766.585	192.32
767.025	180.32
767.465	171.22
767.906	181.52
768.346	196.72
768.786	207.92
769.226	223.12
769.666	328.62
770.106	662.62
770.546	1662.52
770.986	2817.92
771.426	2505.52
771.866	847.32
772.306	351.12
772.745	214.92
773.185	177.52
773.625	170.92
774.065	158.52
774.505	172.92
774.944	209.42
775.384	368.32
775.824	604.12
776.263	578.82
776.703	281.12
777.142	164.42
777.582	138.82
778.021	125.22
778.461	128.72
778.9	129.32
779.34	132.02
779.779	114.52
780.219	116.32
780.658	118.42
781.097	117.62
781.537	119.32
781.976	109.92
782.415	111.12
782.855	112.42
783.294	106.72
783.733	108.82
784.172	112.22
784.611	110.02
785.05	114.32
785.489	116.02
785.928	115.92
786.367	133.12
786.806	123.42
787.245	141.62
787.684	142.52
788.123	150.62
788.562	134.02
789.001	128.82
789.44	129.22
789.879	124.92
790.317	124.02
790.756	133.22
791.195	135.42
791.634	147.32
792.072	213.42
792.511	395.02
792.95	1082.02
793.388	2265.22
793.827	2037.42
794.265	708.82
794.704	299.32
795.142	197.32
795.581	162.12
796.019	139.82
796.458	134.12
796.896	133.52
797.334	143.02
797.773	162.12
798.211	235.42
798.649	466.52
799.087	1093.22
799.526	1717.52
799.964	2160.12
800.402	2132.52
800.84	803.42
801.278	326.32
801.716	192.52
802.154	165.32
802.592	149.92
803.03	151.92
803.468	146.22
803.906	148.92
804.344	163.12
804.782	152.62
805.22	137.62
805.658	132.82
806.096	160.32
806.533	165.22
806.971	189.12
807.409	228.32
807.847	335.72
808.284	725.82
808.722	2014.32
809.16	3541.12
809.597	3383.32
810.035	5829.32
810.472	6154.02
810.91	2241.02
811.347	856.92
811.785	433.82
812.222	273.82
812.66	208.82
813.097	171.42
813.535	150.22
813.972	139.92
814.409	127.72
814.846	116.62
815.284	112.72
815.721	109.62
816.158	104.42
816.595	121.32
817.032	157.72
817.47	185.12
817.907	150.42
818.344	103.52
818.781	98.52
819.218	104.32
819.655	124.32
820.092	205.82
820.529	230.32
820.966	183.42
821.403	129.92
821.839	102.42
822.276	102.22
822.713	134.12
823.15	141.32
823.587	125.62
824.023	159.12
824.46	328.62
824.897	952.62
825.333	1448.02
825.77	621.62
826.206	248.32
826.643	150.22
827.08	104.22
827.516	96.12
827.953	82.52
828.389	88.22
828.825	74.62
829.262	73.22
829.698	66.72
830.135	65.02
830.571	66.62
831.007	65.92
831.443	75.32
831.88	63.62
832.316	66.52
832.752	65.72
833.188	67.62
833.624	73.92
834.06	74.42
834.497	72.72
834.933	83.22
835.369	79.92
835.805	74.02
836.241	83.12
836.677	85.62
837.112	92.72
837.548	113.62
837.984	149.72
838.42	218.22
838.856	536.22
839.292	1632.62
839.727	2457.42
840.163	1153.52
840.599	998.32
841.034	2166.32
841.47	2247.22
841.906	822.82
842.341	349.62
842.777	205.02
843.212	217.02
843.648	192.82
844.083	120.72
844.519	89.22
844.954	70.72
845.39	65.92
845.825	58.22
846.261	60.82
846.696	56.72
847.131	56.12
847.566	56.52
848.002	59.42
848.437	57.62
848.872	60.72
849.307	68.52
849.742	95.62
850.177	190.82
850.613	596.22
851.048	922.72
851.483	402.82
851.918	163.62
852.353	90.32
852.788	56.82
853.223	54.42
853.657	53.72
854.092	43.72
854.527	47.72
854.962	40.12
855.397	48.62
855.832	51.12
856.266	45.42
856.701	53.92
857.136	40.42
857.57	46.22
858.005	53.62
858.44	59.12
858.874	50.62
859.309	54.42
859.743	42.42
860.178	47.72
860.612	43.22
861.047	60.72
861.481	69.82
861.915	79.42
862.35	57.52
862.784	35.12
863.218	40.52
863.653	39.02
864.087	48.72
864.521	64.52
864.955	70.32
865.39	166.72
865.824	186.32
866.258	119.52
866.692	185.62
867.126	192.32
867.56	113.42
867.994	60.02
868.428	44.72
868.862	53.22
869.296	61.02
869.73	57.02
870.164	55.92
870.598	52.02
871.031	47.22
871.465	37.82
871.899	34.02
872.333	28.62
872.766	28.42
873.2	21.82
873.634	30.92
874.067	24.42
874.501	27.02
874.935	30.72
875.368	33.22
875.802	29.22
876.235	22.82
876.669	23.32
877.102	24.52
877.535	32.12
877.969	28.22
878.402	30.32
878.836	24.12
879.269	25.42
879.702	22.92
880.135	23.82
880.569	23.32
881.002	29.52
881.435	22.62
881.868	19.12
882.301	28.52
882.734	15.42
883.167	22.12
883.601	23.12
884.034	24.62
884.467	12.02
884.899	17.72
885.332	18.62
885.765	16.62
886.198	19.72
886.631	15.42
887.064	19.52
887.497	17.72
887.929	24.52
888.362	14.72
888.795	19.32
889.228	19.12
889.66	26.62
890.093	17.32
890.526	11.92
890.958	22.32
891.391	21.62
891.823	22.82
892.256	13.82
892.688	15.72
893.121	20.82
893.553	18.72
893.985	24.52
894.418	22.62
894.85	12.62
895.282	14.62
895.715	15.82
896.147	17.82
896.579	13.62
897.011	18.32
897.444	21.92
897.876	18.62
898.308	16.32
898.74	14.12
899.172	14.92
899.604	27.02
900.036	21.72
900.468	15.52
900.9	14.82
901.332	19.82
901.764	15.92
902.196	20.42
902.628	21.32
903.06	21.42
903.491	33.72
903.923	27.52
904.355	22.12
904.787	22.32
905.218	28.12
905.65	21.12
906.082	13.12
906.513	17.62
906.945	13.72
907.376	18.22
907.808	22.52
908.239	25.52
908.671	16.52
909.102	20.02
909.534	28.82
909.965	52.62
910.397	97.02
910.828	336.42
911.259	496.92
911.691	233.42
912.122	119.92
912.553	57.52
912.984	38.82
913.415	33.22
913.847	29.82
914.278	20.42
914.709	12.32
915.14	18.72
915.571	11.32
916.002	15.32
916.433	15.72
916.864	17.02
917.295	12.62
917.726	18.22
918.157	10.92
918.587	24.52
919.018	25.62
919.449	26.12
919.88	28.12
920.311	27.42
920.741	52.82
921.172	183.22
921.603	161.82
922.033	81.22
922.464	50.42
922.895	31.02
923.325	22.92
923.756	11.22
924.186	21.12
924.617	19.32
925.047	17.32
925.478	24.82
925.908	25.12
926.338	7.72
926.769	14.32
927.199	17.62
927.629	6.22
928.06	11.22
928.49	13.72
928.92	15.92
929.35	14.72
929.78	9.82
930.21	10.12
930.641	9.42
931.071	3.52
931.501	8.82
931.931	4.62
932.361	10.42
932.791	5.62
933.221	9.32
933.651	8.12
934.08	17.72
934.51	30.22
934.94	14.92
935.37	7.82
935.8	9.52
936.229	13.32
936.659	12.22
937.089	2.52
937.519	15.72
937.948	22.42
938.378	20.72
938.807	6.52
939.237	3.32
939.666	8.92
940.096	-1.78
940.525	5.52
940.955	5.62
941.384	4.62
941.814	-7.58
942.243	-2.18
942.672	7.62
943.102	1.22
943.531	-0.58
943.96	5.42
944.39	5.22
944.819	8.22
945.248	3.32
945.677	4.12
946.106	7.62
946.535	9.12
946.964	2.92
947.393	3.22
947.822	2.82
948.251	-1.18
948.68	6.02
949.109	7.02
949.538	6.62
949.967	6.22
950.396	4.72
950.825	1.62
951.254	-3.98
951.682	-5.78
952.111	3.62
952.54	6.52
952.969	-2.28
953.397	0.32
953.826	2.42
954.254	1.52
954.683	5.42
955.112	-3.68
955.54	1.42
955.969	2.32
956.397	2.12
956.826	-4.68
957.254	3.72
957.682	0.32
958.111	2.92
958.539	-1.48
958.967	3.12
959.396	5.92
959.824	-3.18
960.252	1.02
960.68	0.12
961.109	2.12
961.537	-10.88
961.965	3.32
962.393	3.42
962.821	-4.98
963.249	-3.18
963.677	10.52
964.105	10.12
964.533	48.82
964.961	48.22
965.389	18.92
965.817	6.52
966.245	3.92
966.672	-2.18
967.1	-5.58
967.528	-0.68
967.956	-1.58
968.383	-2.88
968.811	-0.28
969.239	-4.48
969.666	-6.28
970.094	1.42
970.522	5.72
970.949	1.72
971.377	-5.18
971.804	3.42
972.232	1.32
972.659	0.62
973.087	-1.88
973.514	0.22
973.941	-3.28
974.369	2.92
974.796	4.82
975.223	-0.18
975.651	-2.28
976.078	-0.18
976.505	-2.88
976.932	7.72
977.359	21.82
977.786	20.72
978.214	1.02
978.641	-0.68
979.068	-4.18
979.495	-5.28
979.922	-3.18
980.349	-2.68
980.776	9.02
981.202	1.12
981.629	3.42
982.056	1.62
982.483	-3.08
982.91	0.22
983.337	-2.38
983.763	-3.18
984.19	-8.48
984.617	-5.28
985.043	-7.68
985.47	-2.98
985.897	2.62
986.323	-5.78
986.75	0.42
987.176	1.62
987.603	2.82
988.029	0.02
988.456	4.02
988.882	0.32
989.308	0.52
989.735	-2.58
990.161	-1.18
990.587	-4.88
991.014	2.82
991.44	7.82
991.866	-1.78
992.292	-2.18
992.719	-1.08
993.145	3.32
993.571	-10.48
993.997	-0.98
994.423	-3.18
994.849	-1.68
995.275	-0.38
995.701	2.52
996.127	-1.88
996.553	5.22
996.979	2.22
997.405	2.92
997.83	-4.08
998.256	-7.58
998.682	-3.88
999.108	-7.58
999.534	-0.88
999.959	3.62
1000.385	3.32
1000.811	-1.48
1001.236	-6.58
1001.662	-4.58
1002.087	-9.38
1002.513	6.02
1002.938	1.82
1003.364	-3.08
1003.789	1.02
1004.215	1.52
1004.64	3.02
1005.066	2.42
1005.491	2.42
1005.916	-4.18
1006.342	0.22
1006.767	-8.88
1007.192	2.62
1007.617	-4.18
1008.042	-0.78
1008.468	-8.58
1008.893	-5.78
1009.318	3.32
1009.743	0.12
1010.168	-0.38
1010.593	0.22
1011.018	-2.98
1011.443	1.32
1011.868	5.72
1012.293	-0.58
1012.718	-11.38
1013.143	1.02
1013.567	2.22
1013.992	-7.08
1014.417	-13.48
1014.842	3.32
1015.267	-3.98
1015.691	-3.18
1016.116	5.92
1016.541	2.82
1016.965	1.02
1017.39	-5.48
1017.814	2.72
1018.239	0.02
1018.663	-9.18
1019.088	-10.78
1019.512	2.42
1019.937	-3.58
1020.361	-6.38
1020.785	-9.58
1021.21	-8.18
1021.634	0.02
1022.058	-6.28
1022.483	4.92
1022.907	-8.18
1023.331	-2.48
1023.755	-5.08
1024.179	1.22
1024.604	-7.38
1025.028	-2.88
1025.452	-0.18
1025.876	2.52
1026.3	6.02
1026.724	-12.18
1027.148	-5.38
1027.572	-1.58
1027.996	-0.58
1028.42	-2.58
1028.843	-6.88
1029.267	-6.28
1029.691	-2.58
1030.115	-6.88
1030.539	-11.08
1030.962	-1.58
1031.386	-8.58
1031.81	-1.78
1032.233	2.42
1032.657	-1.58
1033.08	7.12
1033.504	-2.08
1033.927	0.22
1034.351	5.82
1034.774	-3.68
1035.198	-3.08
1035.621	-2.78
1036.045	-6.28
1036.468	1.62
1036.891	-10.38
1037.315	-9.88
1037.738	-6.68
1038.161	-2.88
1038.584	-6.68
1039.008	-5.18
1039.431	1.32
1039.854	-0.68
1040.277	-2.68
1040.7	-10.98
1041.123	-4.98
1041.546	-5.68
1041.969	-5.68
1042.392	-2.38
1042.815	-2.98
1043.238	1.32
1043.661	1.62
1044.084	-3.38
1044.507	-3.28
1044.93	-3.78
1045.352	-2.48
1045.775	-2.88
1046.198	4.62
1046.621	-1.38
1047.043	-0.28
1047.466	9.62
1047.889	-3.58
1048.311	-3.68
1048.734	-5.08
1049.156	-5.08
1049.579	-8.08
1050.001	-0.28
1050.424	-2.08
1050.846	-2.48
1051.269	-3.98
1051.691	-6.48
1052.113	-5.38
1052.536	-3.88
1052.958	-5.08
1053.38	-6.08
1053.802	-5.38
1054.225	-1.88
1054.647	-5.28
1055.069	-4.48
1055.491	-1.18
1055.913	-6.68
1056.335	-3.38
1056.757	-5.28
1057.179	-10.68
1057.601	-1.18
1058.023	-2.88
1058.445	-1.98
1058.867	-4.88
1059.289	-2.78
1059.711	-2.88
1060.133	-2.78
1060.555	-6.58
1060.976	-12.88
1061.398	-2.98
1061.82	-5.48
1062.241	-4.38
1062.663	-9.78
1063.085	0.12
1063.506	-2.08
1063.928	-5.68
1064.35	4.22
1064.771	-9.98
1065.193	-1.28
1065.614	-10.48
1066.035	-3.08
1066.457	-2.78
1066.878	0.42
1067.3	-2.68
1067.721	-6.68
1068.142	-0.68
1068.564	-7.08
1068.985	-4.98
1069.406	0.32
1069.827	-0.68
1070.248	-2.98
1070.67	1.92
1071.091	-7.88
1071.512	-2.68
1071.933	-6.48
1072.354	-13.28
1072.775	-0.78
1073.196	-7.58
1073.617	-1.58
1074.038	-5.88
1074.459	-4.78
1074.88	-9.38
1075.3	-3.98
1075.721	-3.48
1076.142	0.82
1076.563	1.32
1076.983	-6.78
1077.404	1.22
1077.825	-11.68
1078.246	-1.18
1078.666	-16.68
1079.087	-11.48
1079.507	-9.18
1079.928	1.42
1080.348	1.52
1080.769	-1.18
1081.189	2.22
1081.61	-2.68
1082.03	0.92
1082.451	-4.38
1082.871	-6.38
1083.291	-5.88
1083.711	-11.28
1084.132	-4.48
1084.552	-6.38
1084.972	4.32
1085.392	-7.58
1085.813	-6.88
1086.233	-6.08
1086.653	-6.68
1087.073	-1.38
1087.493	-10.18
1087.913	-3.78
1088.333	-7.98
1088.753	-0.88
1089.173	1.82
1089.593	-4.48
1090.013	2.72
1090.433	2.42
1090.852	-4.78
1091.272	-0.88
1091.692	5.92
1092.112	-4.88
1092.531	-13.98
1092.951	-14.48
1093.371	-0.88
1093.79	2.82
1094.21	-2.68
1094.63	-4.08
1095.049	-6.98
1095.469	-3.08
1095.888	-5.68
1096.308	-1.28
1096.727	0.92
1097.146	-1.38
1097.566	-2.38
1097.985	-6.28
1098.405	0.22
1098.824	-2.98
1099.243	-1.08
1099.662	-7.18
1100.082	-3.38
1100.501	-3.98
1100.92	1.22
1101.339	-4.78
1101.758	-0.78
