Data from 20171114-ORNL-Ar_H_NY_Subt18_08-05-59-715.txt Node
Date: Tue Nov 14 08:05:59 EST 2017
User: Ender
Spectrometer: HR+D1039
Trigger mode: 0
Integration Time (sec): 2.730000E-2
Scans to average: 10
Electric dark correction enabled: true
Nonlinearity correction enabled: false
Boxcar width: 0
XAxis mode: Wavelengths
Number of Pixels in Spectrum: 2048
>>>>>Begin Spectral Data<<<<<
187.836	-0.84
188.309	-0.84
188.782	-0.84
189.255	3.76
189.728	-1.34
190.201	5.96
190.674	4.96
191.147	0.66
191.619	-9.74
192.092	1.66
192.565	5.66
193.038	0.26
193.511	0.96
193.984	-1.34
194.456	-5.64
194.929	-2.04
195.402	-2.34
195.874	-0.54
196.347	1.76
196.82	-4.74
197.292	5.66
197.765	1.46
198.237	-9.54
198.71	1.96
199.182	-0.64
199.655	5.76
200.127	2.96
200.6	-5.34
201.072	-0.34
201.544	-5.14
202.017	-1.24
202.489	3.56
202.961	3.66
203.433	-7.34
203.906	-8.24
204.378	-3.24
204.85	-7.94
205.322	-12.24
205.794	-2.04
206.266	-4.44
206.739	-6.04
207.211	1.36
207.683	-5.34
208.155	-5.74
208.627	-6.44
209.099	-7.64
209.57	-7.24
210.042	1.96
210.514	-0.74
210.986	-2.94
211.458	-8.04
211.93	-2.14
212.402	-0.74
212.873	-1.84
213.345	-6.54
213.817	-9.04
214.288	-6.34
214.76	-9.24
215.232	-9.54
215.703	-5.24
216.175	-5.64
216.646	-7.34
217.118	-4.24
217.589	-2.74
218.061	-1.74
218.532	-5.44
219.004	2.46
219.475	-2.14
219.946	-2.64
220.418	-0.14
220.889	6.16
221.36	1.06
221.832	-2.64
222.303	-7.04
222.774	0.26
223.245	-10.14
223.717	-3.34
224.188	0.76
224.659	-11.24
225.13	-6.74
225.601	-5.14
226.072	2.96
226.543	1.26
227.014	-5.64
227.485	-0.34
227.956	-8.44
228.427	-4.24
228.898	4.96
229.369	3.16
229.839	-4.74
230.31	-3.34
230.781	3.06
231.252	-2.94
231.722	-8.54
232.193	-2.54
232.664	0.66
233.135	0.36
233.605	-3.34
234.076	-2.44
234.546	2.96
235.017	7.16
235.487	3.26
235.958	-0.44
236.428	-4.74
236.899	3.26
237.369	5.16
237.84	0.46
238.31	10.16
238.78	3.46
239.251	-1.84
239.721	2.26
240.191	3.66
240.662	-2.24
241.132	-0.44
241.602	-4.54
242.072	-1.24
242.542	10.36
243.013	4.36
243.483	9.36
243.953	1.76
244.423	3.06
244.893	-0.34
245.363	3.16
245.833	0.16
246.303	-1.74
246.773	12.16
247.243	2.86
247.712	4.96
248.182	9.06
248.652	9.56
249.122	3.76
249.592	9.36
250.061	25.76
250.531	36.46
251.001	18.66
251.471	22.76
251.94	12.56
252.41	8.66
252.879	4.16
253.349	17.06
253.818	10.46
254.288	7.86
254.757	0.96
255.227	4.96
255.696	-0.74
256.166	8.16
256.635	8.76
257.105	9.16
257.574	7.86
258.043	10.96
258.513	15.86
258.982	21.76
259.451	7.56
259.92	11.16
260.389	11.76
260.859	23.26
261.328	8.46
261.797	21.56
262.266	10.46
262.735	12.66
263.204	1.26
263.673	1.66
264.142	7.86
264.611	3.46
265.08	7.26
265.549	2.46
266.018	7.36
266.487	1.96
266.955	-3.94
267.424	5.86
267.893	9.16
268.362	8.76
268.83	5.36
269.299	15.06
269.768	12.66
270.236	6.36
270.705	1.76
271.174	6.86
271.642	12.76
272.111	5.96
272.579	16.26
273.048	27.16
273.516	23.56
273.985	33.76
274.453	25.36
274.922	22.36
275.39	9.06
275.858	5.76
276.327	10.26
276.795	19.86
277.263	13.56
277.731	33.96
278.2	57.06
278.668	56.16
279.136	50.46
279.604	23.16
280.072	20.66
280.54	15.26
281.008	12.06
281.477	12.16
281.945	20.16
282.413	20.86
282.881	13.26
283.348	6.56
283.816	21.16
284.284	16.16
284.752	19.46
285.22	15.06
285.688	16.26
286.156	21.66
286.623	41.76
287.091	53.16
287.559	31.36
288.026	15.36
288.494	18.96
288.962	3.06
289.429	18.06
289.897	19.96
290.364	23.06
290.832	18.36
291.3	17.36
291.767	20.56
292.234	23.56
292.702	14.26
293.169	20.56
293.637	19.46
294.104	22.26
294.571	13.56
295.039	17.26
295.506	25.66
295.973	19.76
296.44	19.76
296.908	16.16
297.375	17.16
297.842	23.96
298.309	17.46
298.776	14.96
299.243	22.26
299.71	17.76
300.177	24.86
300.644	23.26
301.111	20.56
301.578	21.76
302.045	20.66
302.512	23.96
302.979	29.66
303.446	24.46
303.913	23.16
304.379	26.96
304.846	27.46
305.313	25.76
305.78	25.16
306.246	30.46
306.713	29.26
307.18	20.36
307.646	27.26
308.113	27.66
308.579	28.56
309.046	31.86
309.512	29.86
309.979	21.56
310.445	32.66
310.912	38.86
311.378	36.96
311.845	30.66
312.311	28.96
312.777	39.36
313.244	31.96
313.71	37.36
314.176	32.36
314.642	35.66
315.109	29.76
315.575	44.36
316.041	44.16
316.507	34.26
316.973	44.66
317.439	39.56
317.905	35.86
318.371	38.26
318.837	33.26
319.303	33.66
319.769	35.26
320.235	39.46
320.701	36.56
321.167	39.76
321.633	35.56
322.099	42.86
322.564	54.66
323.03	47.96
323.496	39.96
323.962	45.06
324.427	37.96
324.893	43.06
325.359	42.96
325.824	42.76
326.29	41.16
326.755	42.76
327.221	41.26
327.686	45.56
328.152	46.46
328.617	45.66
329.083	52.06
329.548	51.26
330.014	53.76
330.479	45.16
330.944	47.06
331.41	46.66
331.875	45.56
332.34	47.36
332.805	47.36
333.271	51.56
333.736	41.86
334.201	49.16
334.666	52.46
335.131	58.86
335.596	58.16
336.061	55.06
336.526	51.36
336.991	44.56
337.456	57.06
337.921	55.26
338.386	45.86
338.851	50.56
339.316	48.86
339.781	51.16
340.246	54.56
340.711	53.96
341.175	53.06
341.64	46.26
342.105	51.76
342.569	54.96
343.034	66.16
343.499	62.56
343.963	61.36
344.428	66.06
344.893	62.56
345.357	65.16
345.822	61.46
346.286	73.86
346.751	77.56
347.215	72.96
347.679	72.46
348.144	104.96
348.608	87.36
349.073	76.36
349.537	75.36
350.001	87.86
350.465	94.66
350.93	87.36
351.394	87.16
351.858	81.96
352.322	91.36
352.786	92.36
353.25	110.06
353.715	118.46
354.179	105.16
354.643	122.06
355.107	135.56
355.571	117.86
356.035	113.16
356.498	123.66
356.962	127.36
357.426	130.76
357.89	127.26
358.354	96.56
358.818	90.76
359.281	78.96
359.745	93.56
360.209	83.46
360.673	88.96
361.136	85.46
361.6	89.96
362.064	98.26
362.527	92.06
362.991	99.26
363.454	86.36
363.918	81.86
364.381	85.26
364.845	83.36
365.308	89.96
365.772	95.16
366.235	89.56
366.698	87.16
367.162	97.36
367.625	88.96
368.088	96.36
368.552	96.06
369.015	94.96
369.478	101.86
369.941	107.26
370.404	101.96
370.867	111.66
371.331	115.16
371.794	118.76
372.257	115.86
372.72	114.16
373.183	116.26
373.646	109.86
374.109	106.66
374.572	111.16
375.035	109.46
375.497	117.66
375.96	115.06
376.423	110.66
376.886	117.26
377.349	117.26
377.811	110.06
378.274	112.36
378.737	113.26
379.199	116.96
379.662	118.56
380.125	127.96
380.587	128.76
381.05	124.26
381.512	132.66
381.975	136.96
382.437	136.26
382.9	133.26
383.362	141.56
383.825	148.26
384.287	154.66
384.75	144.66
385.212	153.86
385.674	146.36
386.136	144.06
386.599	138.96
387.061	133.36
387.523	141.86
387.985	143.66
388.447	154.16
388.91	156.06
389.372	159.76
389.834	158.66
390.296	151.56
390.758	161.36
391.22	180.06
391.682	222.56
392.144	308.66
392.606	238.86
393.068	183.76
393.529	182.36
393.991	161.86
394.453	160.56
394.915	174.36
395.377	202.76
395.838	221.26
396.3	159.36
396.762	150.66
397.224	144.26
397.685	138.16
398.147	139.56
398.608	141.86
399.07	132.86
399.531	140.26
399.993	148.46
400.454	160.36
400.916	152.96
401.377	152.06
401.839	166.06
402.3	163.16
402.762	180.76
403.223	184.46
403.684	182.26
404.145	169.66
404.607	172.06
405.068	175.16
405.529	184.96
405.99	191.36
406.451	193.26
406.913	178.66
407.374	171.96
407.835	167.86
408.296	174.06
408.757	182.86
409.218	196.06
409.679	184.46
410.14	192.46
410.601	188.56
411.062	194.66
411.522	199.76
411.983	201.16
412.444	179.36
412.905	189.46
413.366	191.96
413.826	202.66
414.287	226.66
414.748	277.26
415.208	267.86
415.669	222.56
416.13	219.86
416.59	214.86
417.051	225.76
417.511	228.06
417.972	252.36
418.432	261.86
418.893	298.26
419.353	263.46
419.814	216.26
420.274	187.66
420.734	196.36
421.195	210.66
421.655	204.56
422.115	211.56
422.576	204.06
423.036	209.66
423.496	213.16
423.956	227.36
424.416	239.56
424.876	279.36
425.336	273.96
425.797	274.36
426.257	269.86
426.717	257.26
427.177	246.66
427.637	231.56
428.097	246.36
428.556	258.86
429.016	282.26
429.476	277.16
429.936	282.56
430.396	283.76
430.856	307.96
431.315	323.86
431.775	371.76
432.235	399.96
432.694	369.36
433.154	381.36
433.614	416.36
434.073	355.76
434.533	297.06
434.993	274.56
435.452	295.86
435.912	304.46
436.371	300.06
436.83	297.16
437.29	284.96
437.749	264.36
438.209	260.76
438.668	288.16
439.127	304.96
439.587	281.36
440.046	268.06
440.505	281.26
440.964	296.36
441.424	342.46
441.883	320.56
442.342	279.06
442.801	244.96
443.26	234.76
443.719	235.36
444.178	229.56
444.637	223.56
445.096	236.46
445.555	235.46
446.014	238.06
446.473	235.26
446.932	238.86
447.391	235.46
447.849	241.36
448.308	229.16
448.767	236.56
449.226	245.06
449.685	248.86
450.143	258.36
450.602	253.56
451.061	243.36
451.519	243.46
451.978	238.96
452.436	244.46
452.895	252.66
453.353	269.16
453.812	259.06
454.27	260.66
454.729	253.16
455.187	261.76
455.646	259.66
456.104	255.46
456.562	276.86
457.021	283.46
457.479	276.66
457.937	288.06
458.395	277.26
458.854	262.16
459.312	264.06
459.77	295.16
460.228	270.56
460.686	258.56
461.144	264.76
461.602	259.56
462.06	260.16
462.518	263.06
462.976	274.66
463.434	264.36
463.892	273.16
464.35	285.06
464.808	303.96
465.266	276.86
465.724	277.56
466.181	287.26
466.639	283.76
467.097	297.56
467.555	313.96
468.012	320.36
468.47	323.16
468.928	344.16
469.385	358.26
469.843	364.46
470.3	361.26
470.758	382.06
471.215	405.86
471.673	427.56
472.13	424.26
472.588	441.16
473.045	391.86
473.503	396.36
473.96	412.96
474.417	423.06
474.875	456.76
475.332	496.86
475.789	483.36
476.246	483.26
476.704	505.16
477.161	533.06
477.618	543.16
478.075	577.26
478.532	644.86
478.989	738.96
479.446	847.16
479.903	808.56
480.36	846.46
480.817	897.36
481.274	1005.76
481.731	1116.46
482.188	1212.56
482.645	1352.26
483.102	1463.56
483.558	1604.86
484.015	1655.86
484.472	1641.96
484.929	1576.36
485.385	1538.66
485.842	1485.86
486.299	1418.16
486.755	1360.76
487.212	1154.36
487.668	969.66
488.125	902.46
488.582	807.56
489.038	774.86
489.494	742.86
489.951	714.26
490.407	695.56
490.864	668.16
491.32	676.16
491.776	671.96
492.233	671.76
492.689	634.36
493.145	634.36
493.602	625.36
494.058	641.96
494.514	641.56
494.97	659.96
495.426	675.16
495.882	645.66
496.338	639.46
496.794	654.46
497.251	653.06
497.707	669.86
498.163	667.96
498.618	676.36
499.074	672.06
499.53	708.76
499.986	706.36
500.442	685.56
500.898	657.06
501.354	660.46
501.809	665.76
502.265	686.16
502.721	687.66
503.177	695.26
503.632	688.76
504.088	698.36
504.543	745.36
504.999	739.16
505.455	688.46
505.91	653.46
506.366	666.46
506.821	656.36
507.277	649.86
507.732	651.16
508.187	660.16
508.643	665.06
509.098	662.26
509.553	680.06
510.009	694.36
510.464	695.36
510.919	721.06
511.375	721.56
511.83	746.36
512.285	758.16
512.74	789.86
513.195	820.46
513.65	804.46
514.105	792.46
514.56	808.16
515.015	814.56
515.47	843.16
515.925	826.96
516.38	815.46
516.835	828.26
517.29	816.96
517.745	814.76
518.2	798.66
518.655	785.86
519.109	768.36
519.564	758.86
520.019	753.76
520.474	748.06
520.928	759.76
521.383	746.06
521.838	743.16
522.292	744.76
522.747	743.16
523.201	735.36
523.656	725.26
524.11	727.76
524.565	716.56
525.019	724.76
525.474	725.06
525.928	733.86
526.382	718.06
526.837	728.56
527.291	733.56
527.745	717.66
528.2	720.26
528.654	719.66
529.108	714.76
529.562	713.86
530.016	717.26
530.47	715.66
530.925	727.66
531.379	725.66
531.833	729.46
532.287	728.76
532.741	730.26
533.195	733.26
533.649	749.16
534.103	747.76
534.556	729.86
535.01	742.96
535.464	738.16
535.918	741.76
536.372	744.86
536.826	748.16
537.279	734.46
537.733	737.16
538.187	741.56
538.64	737.26
539.094	744.26
539.548	758.86
540.001	748.96
540.455	751.16
540.908	754.16
541.362	773.96
541.815	770.56
542.269	791.46
542.722	789.86
543.175	799.66
543.629	804.26
544.082	822.16
544.536	804.16
544.989	822.76
545.442	818.36
545.895	822.46
546.349	818.26
546.802	820.16
547.255	826.56
547.708	836.86
548.161	842.16
548.614	848.16
549.067	859.86
549.52	857.26
549.973	846.26
550.426	835.96
550.879	837.66
551.332	827.36
551.785	827.26
552.238	831.76
552.691	846.26
553.144	865.36
553.596	884.56
554.049	892.26
554.502	927.96
554.955	938.56
555.407	938.06
555.86	935.66
556.313	922.36
556.765	900.06
557.218	916.06
557.67	922.46
558.123	909.76
558.576	902.36
559.028	925.46
559.48	914.26
559.933	906.16
560.385	873.06
560.838	845.86
561.29	813.96
561.742	810.46
562.195	792.96
562.647	790.26
563.099	802.56
563.551	794.86
564.004	817.16
564.456	799.56
564.908	796.06
565.36	767.66
565.812	760.66
566.264	750.46
566.716	750.26
567.168	738.96
567.62	750.16
568.072	732.66
568.524	723.76
568.976	706.36
569.428	705.06
569.88	688.76
570.332	705.66
570.784	702.66
571.235	709.26
571.687	713.26
572.139	722.56
572.59	726.36
573.042	733.16
573.494	729.96
573.945	729.16
574.397	709.86
574.849	714.96
575.3	713.56
575.752	697.86
576.203	706.76
576.655	710.36
577.106	687.06
577.557	678.16
578.009	684.36
578.46	687.06
578.912	681.16
579.363	684.06
579.814	697.16
580.265	683.46
580.717	694.66
581.168	689.16
581.619	696.26
582.07	703.56
582.521	697.76
582.972	689.66
583.423	699.36
583.875	703.66
584.326	724.26
584.777	767.76
585.227	832.26
585.678	925.16
586.129	1015.36
586.58	1101.66
587.031	1183.96
587.482	1330.46
587.933	1519.66
588.384	1330.06
588.834	996.06
589.285	814.66
589.736	814.96
590.186	803.36
590.637	796.06
591.088	761.56
591.538	757.96
591.989	754.06
592.439	749.96
592.89	737.26
593.34	733.36
593.791	723.16
594.241	722.56
594.692	727.86
595.142	712.16
595.593	717.26
596.043	719.96
596.493	738.56
596.943	737.96
597.394	749.26
597.844	729.36
598.294	750.26
598.744	770.76
599.195	801.66
599.645	837.36
600.095	881.96
600.545	928.06
600.995	978.36
601.445	1042.46
601.895	1103.86
602.345	1159.76
602.795	1141.56
603.245	1091.76
603.695	1035.76
604.145	980.36
604.594	922.66
605.044	877.06
605.494	814.56
605.944	764.66
606.393	758.46
606.843	741.46
607.293	747.36
607.743	741.66
608.192	753.46
608.642	769.86
609.091	786.76
609.541	786.96
609.99	786.46
610.44	769.96
610.889	738.66
611.339	719.96
611.788	699.36
612.238	715.66
612.687	722.66
613.136	728.26
613.586	759.36
614.035	749.96
614.484	773.36
614.933	771.76
615.383	759.46
615.832	756.16
616.281	734.96
616.73	693.26
617.179	669.36
617.628	660.76
618.077	647.06
618.526	644.86
618.975	625.76
619.424	622.46
619.873	628.46
620.322	633.86
620.771	616.36
621.22	613.36
621.669	603.46
622.118	608.56
622.567	597.96
623.015	589.66
623.464	577.76
623.913	571.06
624.361	564.76
624.81	560.36
625.259	570.86
625.707	561.76
626.156	555.56
626.604	569.86
627.053	579.66
627.501	576.26
627.95	575.76
628.398	584.46
628.847	582.36
629.295	586.36
629.744	591.66
630.192	578.96
630.64	579.76
631.089	568.46
631.537	587.56
631.985	592.76
632.433	608.46
632.881	614.56
633.33	673.06
633.778	643.56
634.226	573.26
634.674	583.86
635.122	581.16
635.57	602.36
636.018	640.86
636.466	592.46
636.914	569.56
637.362	582.76
637.81	588.96
638.258	590.56
638.705	585.56
639.153	619.36
639.601	626.56
640.049	653.26
640.497	682.16
640.944	699.06
641.392	650.66
641.84	617.26
642.287	592.26
642.735	580.26
643.182	572.66
643.63	579.46
644.078	590.76
644.525	600.66
644.973	608.56
645.42	604.86
645.867	622.76
646.315	642.06
646.762	666.06
647.21	700.36
647.657	727.86
648.104	752.86
648.551	786.46
648.999	856.56
649.446	926.16
649.893	1007.56
650.34	1168.86
650.787	1399.36
651.234	1739.06
651.682	2258.66
652.129	3101.76
652.576	4473.66
653.023	6559.86
653.47	9026.86
653.917	11282.16
654.363	13048.76
654.81	14431.66
655.257	13767.46
655.704	9023.76
656.151	5322.96
656.598	3442.16
657.044	2455.06
657.491	1889.06
657.938	1502.56
658.385	1259.56
658.831	1099.96
659.278	954.56
659.724	857.96
660.171	802.56
660.618	738.66
661.064	700.86
661.511	673.16
661.957	658.16
662.404	655.06
662.85	655.56
663.296	625.16
663.743	565.26
664.189	547.46
664.635	535.86
665.082	528.96
665.528	526.86
665.974	524.36
666.42	515.26
666.867	511.26
667.313	493.66
667.759	475.06
668.205	490.76
668.651	490.26
669.097	482.86
669.543	505.26
669.989	471.16
670.435	446.36
670.881	448.06
671.327	449.96
671.773	475.56
672.219	499.96
672.665	546.26
673.11	579.46
673.556	627.26
674.002	674.66
674.448	659.46
674.893	549.36
675.339	474.36
675.785	442.66
676.23	424.96
676.676	393.66
677.122	386.56
677.567	373.76
678.013	374.86
678.458	374.16
678.904	367.36
679.349	336.26
679.794	362.36
680.24	357.86
680.685	351.86
681.131	353.56
681.576	352.36
682.021	357.96
682.466	349.66
682.912	348.46
683.357	346.76
683.802	372.96
684.247	411.56
684.692	460.76
685.137	493.86
685.583	540.16
686.028	561.36
686.473	519.76
686.918	441.86
687.363	418.66
687.807	394.76
688.252	365.06
688.697	359.56
689.142	351.76
689.587	333.46
690.032	332.66
690.477	336.36
690.921	351.16
691.366	382.16
691.811	406.76
692.255	432.46
692.7	467.36
693.145	495.56
693.589	689.26
694.034	1111.46
694.478	1531.76
694.923	1736.16
695.367	2281.66
695.812	1199.76
696.256	500.16
696.701	371.86
697.145	345.56
697.59	336.06
698.034	325.66
698.478	334.46
698.922	331.96
699.367	329.76
699.811	338.16
700.255	355.46
700.699	384.56
701.143	425.16
701.588	482.16
702.032	524.86
702.476	512.06
702.92	491.06
703.364	490.36
703.808	631.96
704.252	1016.36
704.696	1446.16
705.14	1661.86
705.584	2150.16
706.027	1059.36
706.471	522.76
706.915	402.96
707.359	357.46
707.803	323.96
708.246	316.96
708.69	314.56
709.134	317.86
709.577	313.06
710.021	317.96
710.465	312.86
710.908	297.66
711.352	299.56
711.795	313.26
712.239	356.36
712.682	386.96
713.126	422.56
713.569	467.66
714.012	369.96
714.456	325.46
714.899	304.86
715.342	276.36
715.786	257.66
716.229	258.06
716.672	254.06
717.115	249.06
717.558	250.86
718.002	260.46
718.445	268.26
718.888	290.26
719.331	290.76
719.774	303.36
720.217	306.66
720.66	282.66
721.103	270.66
721.546	250.46
721.989	248.86
722.432	230.26
722.874	232.66
723.317	231.76
723.76	242.36
724.203	255.06
724.645	318.56
725.088	445.66
725.531	573.86
725.974	648.66
726.416	548.46
726.859	311.66
727.301	246.56
727.744	244.66
728.187	230.36
728.629	237.36
729.071	241.56
729.514	249.56
729.956	278.16
730.399	286.16
730.841	279.56
731.283	271.16
731.726	261.86
732.168	259.86
732.61	261.56
733.053	276.56
733.495	312.06
733.937	347.26
734.379	398.36
734.821	430.26
735.263	535.96
735.705	823.36
736.148	1552.56
736.59	2562.66
737.032	3055.76
737.474	2483.56
737.916	810.96
738.357	423.46
738.799	325.46
739.241	295.66
739.683	282.56
740.125	291.76
740.567	298.46
741.008	313.66
741.45	313.06
741.892	317.96
742.334	352.66
742.775	360.56
743.217	340.96
743.658	271.56
744.1	260.86
744.542	257.86
744.983	309.36
745.425	337.46
745.866	338.76
746.307	275.76
746.749	280.36
747.19	319.86
747.632	446.66
748.073	857.06
748.514	1833.76
748.956	2821.36
749.397	3538.46
749.838	2955.06
750.279	2971.06
750.72	1510.16
751.162	540.06
751.603	320.06
752.044	251.56
752.485	219.26
752.926	214.06
753.367	198.96
753.808	184.06
754.249	191.46
754.69	178.46
755.131	179.26
755.572	179.26
756.013	177.86
756.453	187.76
756.894	183.06
757.335	191.56
757.776	201.06
758.216	198.26
758.657	196.06
759.098	206.16
759.538	222.36
759.979	261.66
760.42	367.76
760.86	682.66
761.301	1774.36
761.741	4351.86
762.182	6410.86
762.622	4510.26
763.063	1302.96
763.503	546.16
763.943	344.06
764.384	335.46
764.824	411.36
765.264	432.36
765.705	305.96
766.145	209.76
766.585	186.16
767.025	189.46
767.465	188.46
767.906	241.26
768.346	322.86
768.786	348.36
769.226	264.66
769.666	310.06
770.106	608.86
770.546	1507.76
770.986	2628.46
771.426	2369.66
771.866	779.96
772.306	326.86
772.745	209.96
773.185	177.26
773.625	167.56
774.065	165.26
774.505	192.86
774.944	293.06
775.384	634.56
775.824	1178.56
776.263	1142.86
776.703	497.16
777.142	213.76
777.582	156.76
778.021	133.66
778.461	137.66
778.9	136.56
779.34	134.36
779.779	116.46
780.219	112.76
780.658	112.46
781.097	109.96
781.537	116.36
781.976	115.06
782.415	106.96
782.855	103.66
783.294	110.76
783.733	106.16
784.172	107.76
784.611	100.56
785.05	106.36
785.489	111.66
785.928	118.06
786.367	119.66
786.806	122.26
787.245	129.16
787.684	139.36
788.123	144.76
788.562	134.16
789.001	125.96
789.44	113.56
789.879	119.66
790.317	117.96
790.756	127.36
791.195	126.96
791.634	147.96
792.072	199.06
792.511	354.96
792.95	976.36
793.388	2129.46
793.827	1945.56
794.265	677.76
794.704	279.36
795.142	181.76
795.581	155.06
796.019	139.26
796.458	126.36
796.896	122.46
797.334	129.06
797.773	155.66
798.211	220.76
798.649	429.16
799.087	1001.46
799.526	1575.46
799.964	1973.86
800.402	2001.56
800.84	755.16
801.278	296.66
801.716	184.96
802.154	156.36
802.592	143.26
803.03	144.66
803.468	138.96
803.906	143.36
804.344	147.96
804.782	140.26
805.22	129.26
805.658	134.46
806.096	148.46
806.533	157.36
806.971	176.06
807.409	221.16
807.847	304.86
808.284	640.86
808.722	1829.36
809.16	3280.96
809.597	3076.56
810.035	5351.76
810.472	5784.16
810.91	2069.76
811.347	794.36
811.785	411.36
812.222	260.36
812.66	190.16
813.097	156.96
813.535	139.96
813.972	125.66
814.409	118.96
814.846	109.06
815.284	108.36
815.721	104.76
816.158	103.46
816.595	116.46
817.032	172.06
817.47	194.56
817.907	172.56
818.344	150.86
818.781	115.16
819.218	102.26
819.655	123.36
820.092	189.56
820.529	208.76
820.966	170.46
821.403	138.36
821.839	107.96
822.276	107.86
822.713	126.96
823.15	138.96
823.587	117.46
824.023	138.36
824.46	298.46
824.897	881.26
825.333	1355.46
825.77	575.56
826.206	234.56
826.643	141.96
827.08	106.56
827.516	86.66
827.953	83.16
828.389	86.76
828.825	72.16
829.262	72.76
829.698	63.46
830.135	60.76
830.571	63.96
831.007	68.46
831.443	66.76
831.88	68.96
832.316	59.46
832.752	66.46
833.188	66.56
833.624	61.86
834.06	63.86
834.497	66.76
834.933	73.56
835.369	74.86
835.805	68.46
836.241	77.86
836.677	83.16
837.112	86.66
837.548	101.76
837.984	133.86
838.42	195.36
838.856	484.26
839.292	1481.56
839.727	2307.16
840.163	1069.36
840.599	902.86
841.034	2002.06
841.47	2116.46
841.906	774.36
842.341	319.86
842.777	225.76
843.212	308.56
843.648	301.36
844.083	148.66
844.519	95.76
844.954	74.76
845.39	60.66
845.825	56.06
846.261	51.96
846.696	51.66
847.131	50.16
847.566	55.46
848.002	53.96
848.437	60.06
848.872	64.06
849.307	67.46
849.742	84.36
850.177	175.06
850.613	543.76
851.048	880.16
851.483	380.66
851.918	158.96
852.353	87.96
852.788	59.56
853.223	58.66
853.657	53.66
854.092	49.16
854.527	41.36
854.962	46.06
855.397	43.76
855.832	54.36
856.266	39.56
856.701	40.96
857.136	36.46
857.57	36.86
858.005	52.26
858.44	56.76
858.874	45.36
859.309	51.96
859.743	37.06
860.178	51.06
860.612	38.16
861.047	55.76
861.481	65.66
861.915	67.26
862.35	52.96
862.784	38.96
863.218	44.86
863.653	35.36
864.087	45.26
864.521	51.86
864.955	68.16
865.39	152.26
865.824	173.46
866.258	109.26
866.692	165.16
867.126	171.06
867.56	98.66
867.994	49.46
868.428	40.96
868.862	46.16
869.296	53.46
869.73	58.46
870.164	56.36
870.598	49.86
871.031	34.46
871.465	26.26
871.899	34.76
872.333	22.06
872.766	27.86
873.2	30.46
873.634	31.56
874.067	24.86
874.501	26.76
874.935	39.76
875.368	28.96
875.802	28.06
876.235	22.16
876.669	31.86
877.102	24.56
877.535	26.96
877.969	30.06
878.402	26.46
878.836	21.46
879.269	27.36
879.702	29.46
880.135	23.16
880.569	25.86
881.002	29.66
881.435	24.36
881.868	21.16
882.301	17.26
882.734	13.26
883.167	23.26
883.601	20.46
884.034	19.36
884.467	18.66
884.899	18.96
885.332	24.36
885.765	15.76
886.198	20.56
886.631	15.06
887.064	14.06
887.497	26.16
887.929	29.66
888.362	18.16
888.795	14.96
889.228	21.46
889.66	22.36
890.093	17.16
890.526	11.96
890.958	13.96
891.391	21.36
891.823	17.76
892.256	16.16
892.688	9.86
893.121	13.26
893.553	18.26
893.985	21.96
894.418	22.56
894.85	16.76
895.282	17.86
895.715	12.36
896.147	18.26
896.579	12.56
897.011	16.36
897.444	18.86
897.876	20.76
898.308	23.46
898.74	17.46
899.172	8.26
899.604	20.76
900.036	16.46
900.468	20.76
900.9	16.36
901.332	18.06
901.764	15.46
902.196	18.46
902.628	15.56
903.06	19.66
903.491	28.96
903.923	25.26
904.355	21.86
904.787	29.86
905.218	25.66
905.65	23.26
906.082	16.16
906.513	18.36
906.945	18.96
907.376	13.86
907.808	15.36
908.239	26.16
908.671	24.16
909.102	23.56
909.534	26.36
909.965	41.56
910.397	91.36
910.828	303.26
911.259	465.16
911.691	212.46
912.122	107.66
912.553	54.56
912.984	31.46
913.415	31.36
913.847	23.56
914.278	12.66
914.709	24.56
915.14	16.46
915.571	19.06
916.002	12.16
916.433	20.56
916.864	16.46
917.295	10.96
917.726	13.86
918.157	18.66
918.587	28.76
919.018	26.66
919.449	27.66
919.88	23.16
920.311	32.26
920.741	47.46
921.172	162.86
921.603	147.36
922.033	74.76
922.464	47.46
922.895	21.76
923.325	18.56
923.756	18.76
924.186	15.46
924.617	23.96
925.047	40.66
925.478	53.06
925.908	54.06
926.338	26.36
926.769	19.66
927.199	21.56
927.629	5.76
928.06	18.86
928.49	17.86
928.92	10.26
929.35	13.46
929.78	12.96
930.21	7.06
930.641	5.66
931.071	9.76
931.501	5.76
931.931	8.46
932.361	8.36
932.791	0.66
933.221	10.26
933.651	9.16
934.08	14.26
934.51	30.86
934.94	7.96
935.37	11.56
935.8	12.16
936.229	11.76
936.659	10.16
937.089	1.66
937.519	10.46
937.948	24.96
938.378	13.26
938.807	3.06
939.237	7.66
939.666	9.56
940.096	-10.24
940.525	-1.14
940.955	2.26
941.384	2.86
941.814	-3.74
942.243	-2.54
942.672	4.56
943.102	3.16
943.531	2.86
943.96	2.36
944.39	7.96
944.819	2.26
945.248	3.06
945.677	4.26
946.106	5.96
946.535	8.46
946.964	4.06
947.393	1.16
947.822	3.86
948.251	1.66
948.68	8.06
949.109	7.96
949.538	10.66
949.967	0.46
950.396	6.66
950.825	-2.94
951.254	5.06
951.682	-2.14
952.111	6.56
952.54	8.86
952.969	-6.84
953.397	-4.74
953.826	-0.44
954.254	-5.04
954.683	0.66
955.112	-4.24
955.54	1.16
955.969	-1.64
956.397	-1.34
956.826	-7.64
957.254	3.76
957.682	6.26
958.111	8.56
958.539	-0.04
958.967	7.26
959.396	0.66
959.824	4.56
960.252	1.66
960.68	-3.34
961.109	-0.14
961.537	-4.04
961.965	-3.44
962.393	-0.04
962.821	-4.14
963.249	1.26
963.677	4.46
964.105	5.96
964.533	42.96
964.961	41.06
965.389	25.86
965.817	14.86
966.245	0.06
966.672	4.66
967.1	-3.44
967.528	2.26
967.956	-4.24
968.383	-1.64
968.811	-0.44
969.239	-2.04
969.666	-6.44
970.094	3.56
970.522	0.86
970.949	-3.94
971.377	3.46
971.804	0.06
972.232	-5.84
972.659	-3.04
973.087	-0.34
973.514	-1.94
973.941	-0.44
974.369	0.16
974.796	4.46
975.223	-2.44
975.651	0.36
976.078	10.36
976.505	0.76
976.932	5.56
977.359	18.16
977.786	17.86
978.214	7.96
978.641	-3.34
979.068	-4.84
979.495	-8.24
979.922	-2.34
980.349	3.26
980.776	3.06
981.202	1.36
981.629	7.16
982.056	4.56
982.483	-0.94
982.91	5.16
983.337	-8.34
983.763	8.16
984.19	-2.24
984.617	-1.24
985.043	-3.94
985.47	-0.74
985.897	-1.94
986.323	-1.64
986.75	2.76
987.176	1.96
987.603	4.96
988.029	2.96
988.456	1.16
988.882	0.96
989.308	0.26
989.735	-5.84
990.161	-1.94
990.587	0.96
991.014	5.36
991.44	8.06
991.866	-3.64
992.292	-3.44
992.719	-1.34
993.145	8.46
993.571	-9.44
993.997	-7.34
994.423	-4.34
994.849	0.16
995.275	3.36
995.701	-2.44
996.127	-2.84
996.553	5.16
996.979	2.56
997.405	-5.04
997.83	-6.44
998.256	-5.84
998.682	-5.84
999.108	-9.74
999.534	3.76
999.959	7.36
1000.385	-2.44
1000.811	1.96
1001.236	-10.94
1001.662	-5.54
1002.087	-12.84
1002.513	-1.84
1002.938	2.56
1003.364	-1.54
1003.789	0.56
1004.215	6.26
1004.64	-0.14
1005.066	4.76
1005.491	6.36
1005.916	-3.14
1006.342	-0.14
1006.767	-2.94
1007.192	2.66
1007.617	-6.24
1008.042	-4.84
1008.468	-5.34
1008.893	-0.04
1009.318	-0.84
1009.743	-0.14
1010.168	3.86
1010.593	2.56
1011.018	-12.84
1011.443	-3.14
1011.868	-0.94
1012.293	-6.04
1012.718	-8.54
1013.143	5.26
1013.567	1.26
1013.992	0.86
1014.417	-6.94
1014.842	1.26
1015.267	-4.04
1015.691	-1.04
1016.116	2.86
1016.541	-3.04
1016.965	3.56
1017.39	6.26
1017.814	5.76
1018.239	5.66
1018.663	-1.74
1019.088	-7.24
1019.512	-1.44
1019.937	4.16
1020.361	-7.74
1020.785	-8.14
1021.21	-6.74
1021.634	-1.74
1022.058	1.26
1022.483	0.86
1022.907	-3.74
1023.331	-5.34
1023.755	-9.24
1024.179	-0.64
1024.604	-7.44
1025.028	-6.64
1025.452	-1.64
1025.876	-3.64
1026.3	0.26
1026.724	-9.74
1027.148	0.06
1027.572	-5.14
1027.996	0.46
1028.42	0.46
1028.843	-5.04
1029.267	-3.14
1029.691	-10.14
1030.115	-2.74
1030.539	-6.64
1030.962	-4.84
1031.386	-13.64
1031.81	-0.94
1032.233	-0.74
1032.657	-2.84
1033.08	-2.24
1033.504	0.76
1033.927	0.16
1034.351	-3.84
1034.774	-4.74
1035.198	7.06
1035.621	-5.54
1036.045	-10.64
1036.468	2.86
1036.891	-5.34
1037.315	-8.24
1037.738	-5.14
1038.161	3.96
1038.584	-5.24
1039.008	-4.84
1039.431	-4.24
1039.854	-6.74
1040.277	-10.84
1040.7	-11.84
1041.123	2.26
1041.546	-9.94
1041.969	-7.24
1042.392	-2.74
1042.815	-3.04
1043.238	2.26
1043.661	6.56
1044.084	-6.84
1044.507	-2.24
1044.93	-3.34
1045.352	-4.44
1045.775	4.46
1046.198	-1.34
1046.621	-3.84
1047.043	-2.54
1047.466	5.96
1047.889	-1.34
1048.311	-1.34
1048.734	-2.54
1049.156	0.36
1049.579	2.16
1050.001	-1.24
1050.424	0.76
1050.846	-6.64
1051.269	-3.64
1051.691	-4.84
1052.113	-5.74
1052.536	-2.94
1052.958	-2.24
1053.38	0.56
1053.802	-9.64
1054.225	4.36
1054.647	-9.34
1055.069	1.36
1055.491	0.36
1055.913	-3.44
1056.335	-0.84
1056.757	-3.94
1057.179	-12.54
1057.601	-2.84
1058.023	-1.64
1058.445	-8.04
1058.867	-4.54
1059.289	-5.04
1059.711	-10.74
1060.133	-0.14
1060.555	-7.64
1060.976	-3.74
1061.398	-6.14
1061.82	-5.94
1062.241	-4.44
1062.663	-4.84
1063.085	-2.14
1063.506	0.96
1063.928	-1.54
1064.35	2.56
1064.771	-10.54
1065.193	-4.14
1065.614	-8.14
1066.035	0.86
1066.457	-5.34
1066.878	4.76
1067.3	-5.14
1067.721	-4.34
1068.142	-5.94
1068.564	-3.54
1068.985	-3.44
1069.406	-5.64
1069.827	0.16
1070.248	-3.54
1070.67	-5.24
1071.091	-6.54
1071.512	1.26
1071.933	-8.04
1072.354	-4.84
1072.775	-6.74
1073.196	-4.64
1073.617	-5.54
1074.038	-3.44
1074.459	-2.74
1074.88	-9.04
1075.3	-8.24
1075.721	-7.54
1076.142	0.86
1076.563	-1.34
1076.983	-10.14
1077.404	-5.24
1077.825	-6.24
1078.246	2.56
1078.666	-7.84
1079.087	-5.94
1079.507	-5.34
1079.928	-0.44
1080.348	-2.34
1080.769	-6.54
1081.189	-1.94
1081.61	-3.94
1082.03	-1.14
1082.451	-4.14
1082.871	-1.04
1083.291	-5.34
1083.711	-9.74
1084.132	-0.34
1084.552	-4.64
1084.972	0.36
1085.392	-12.14
1085.813	-6.54
1086.233	-7.24
1086.653	-5.54
1087.073	-1.04
1087.493	-5.84
1087.913	-6.54
1088.333	-3.94
1088.753	-3.84
1089.173	7.86
1089.593	-6.04
1090.013	4.46
1090.433	2.56
1090.852	2.56
1091.272	-0.14
1091.692	4.26
1092.112	-10.74
1092.531	-12.14
1092.951	-8.94
1093.371	-0.64
1093.79	1.26
1094.21	-5.34
1094.63	-5.94
1095.049	-7.64
1095.469	-5.84
1095.888	1.36
1096.308	4.16
1096.727	1.76
1097.146	-3.84
1097.566	5.46
1097.985	-5.84
1098.405	-4.74
1098.824	-9.14
1099.243	-7.04
1099.662	-9.84
1100.082	-6.64
1100.501	0.26
1100.92	-6.24
1101.339	-3.24
1101.758	-8.84
