Data from 20171114-ORNL-Ar_H_NY_Subt18_08-06-46-121.txt Node
Date: Tue Nov 14 08:06:46 EST 2017
User: Ender
Spectrometer: HR+D1039
Trigger mode: 0
Integration Time (sec): 2.730000E-2
Scans to average: 10
Electric dark correction enabled: true
Nonlinearity correction enabled: false
Boxcar width: 0
XAxis mode: Wavelengths
Number of Pixels in Spectrum: 2048
>>>>>Begin Spectral Data<<<<<
187.836	-7.29
188.309	-7.29
188.782	-7.29
189.255	-2.69
189.728	0.61
190.201	8.01
190.674	0.11
191.147	4.71
191.619	-7.89
192.092	3.21
192.565	7.41
193.038	-2.29
193.511	1.91
193.984	1.51
194.456	-5.59
194.929	-1.99
195.402	0.01
195.874	0.21
196.347	-0.39
196.82	-6.49
197.292	0.91
197.765	2.11
198.237	-4.09
198.71	-0.79
199.182	-2.79
199.655	1.11
200.127	4.71
200.6	-0.89
201.072	-3.49
201.544	-4.99
202.017	-3.59
202.489	3.91
202.961	2.11
203.433	0.91
203.906	-7.19
204.378	-3.99
204.85	-2.99
205.322	-4.59
205.794	-0.19
206.266	-4.79
206.739	-6.99
207.211	2.91
207.683	-9.19
208.155	-2.69
208.627	-9.09
209.099	-3.69
209.57	-6.89
210.042	-9.19
210.514	-2.09
210.986	-7.99
211.458	-6.99
211.93	2.71
212.402	1.31
212.873	-8.19
213.345	-5.89
213.817	-11.49
214.288	-1.49
214.76	-10.09
215.232	-4.79
215.703	-4.29
216.175	-6.69
216.646	-7.99
217.118	-5.89
217.589	-5.39
218.061	0.21
218.532	-6.09
219.004	-1.59
219.475	-5.79
219.946	-1.99
220.418	-6.49
220.889	4.31
221.36	-7.29
221.832	-5.59
222.303	-5.49
222.774	1.51
223.245	-5.69
223.717	-4.59
224.188	-8.39
224.659	-13.29
225.13	-6.49
225.601	-2.59
226.072	-0.79
226.543	-5.59
227.014	-6.09
227.485	-7.89
227.956	-1.89
228.427	-4.89
228.898	-3.79
229.369	6.91
229.839	1.81
230.31	-2.79
230.781	-0.69
231.252	-2.89
231.722	-9.09
232.193	-3.89
232.664	-5.99
233.135	-2.69
233.605	-2.49
234.076	-6.29
234.546	1.71
235.017	4.11
235.487	0.31
235.958	-6.29
236.428	-4.69
236.899	-1.59
237.369	-3.99
237.84	-2.99
238.31	7.21
238.78	-2.19
239.251	-6.69
239.721	-4.59
240.191	-2.99
240.662	-9.19
241.132	-1.89
241.602	-2.99
242.072	0.91
242.542	2.41
243.013	-5.39
243.483	2.81
243.953	-0.49
244.423	-0.39
244.893	-8.09
245.363	-3.09
245.833	2.21
246.303	-2.19
246.773	-3.39
247.243	1.71
247.712	-3.59
248.182	3.31
248.652	0.81
249.122	-6.69
249.592	1.21
250.061	9.81
250.531	8.91
251.001	-1.59
251.471	3.41
251.94	3.31
252.41	2.71
252.879	-6.09
253.349	9.41
253.818	2.51
254.288	4.91
254.757	3.51
255.227	-1.29
255.696	-1.49
256.166	4.01
256.635	0.71
257.105	0.31
257.574	1.71
258.043	0.71
258.513	-2.89
258.982	1.41
259.451	-2.79
259.92	4.91
260.389	0.41
260.859	14.11
261.328	2.41
261.797	8.11
262.266	6.01
262.735	11.41
263.204	7.21
263.673	-4.99
264.142	9.11
264.611	-5.29
265.08	1.91
265.549	-6.99
266.018	4.51
266.487	-2.49
266.955	-2.49
267.424	0.21
267.893	7.51
268.362	-0.99
268.83	5.01
269.299	9.31
269.768	4.81
270.236	5.51
270.705	2.01
271.174	2.91
271.642	1.41
272.111	1.11
272.579	8.61
273.048	5.51
273.516	7.01
273.985	2.81
274.453	9.81
274.922	13.01
275.39	14.11
275.858	-4.89
276.327	8.11
276.795	12.21
277.263	4.81
277.731	12.61
278.2	10.91
278.668	13.01
279.136	16.81
279.604	5.61
280.072	6.41
280.54	10.31
281.008	6.81
281.477	15.11
281.945	10.41
282.413	10.71
282.881	13.31
283.348	3.51
283.816	9.11
284.284	12.71
284.752	20.81
285.22	5.01
285.688	6.71
286.156	14.11
286.623	14.81
287.091	8.61
287.559	12.31
288.026	13.21
288.494	10.11
288.962	7.81
289.429	7.71
289.897	17.11
290.364	12.01
290.832	9.71
291.3	16.01
291.767	15.71
292.234	20.71
292.702	15.21
293.169	21.21
293.637	24.51
294.104	20.21
294.571	11.41
295.039	11.41
295.506	15.61
295.973	18.11
296.44	18.21
296.908	16.61
297.375	18.21
297.842	16.31
298.309	15.61
298.776	7.51
299.243	20.41
299.71	17.31
300.177	17.51
300.644	22.51
301.111	19.31
301.578	26.71
302.045	14.61
302.512	23.71
302.979	27.51
303.446	20.71
303.913	22.01
304.379	21.11
304.846	21.61
305.313	22.31
305.78	18.41
306.246	25.31
306.713	26.91
307.18	19.81
307.646	30.91
308.113	28.11
308.579	21.81
309.046	23.81
309.512	23.21
309.979	16.71
310.445	28.01
310.912	31.01
311.378	29.21
311.845	28.21
312.311	33.91
312.777	27.71
313.244	30.81
313.71	37.71
314.176	30.51
314.642	33.11
315.109	27.51
315.575	33.61
316.041	40.41
316.507	31.71
316.973	30.21
317.439	29.41
317.905	33.91
318.371	33.51
318.837	33.21
319.303	27.31
319.769	36.71
320.235	35.31
320.701	31.61
321.167	35.31
321.633	32.31
322.099	33.71
322.564	43.51
323.03	36.01
323.496	38.51
323.962	40.51
324.427	31.51
324.893	44.61
325.359	37.41
325.824	43.21
326.29	39.21
326.755	37.21
327.221	36.21
327.686	35.21
328.152	44.61
328.617	42.71
329.083	49.01
329.548	51.11
330.014	50.01
330.479	40.11
330.944	40.51
331.41	35.81
331.875	46.11
332.34	36.01
332.805	43.51
333.271	47.91
333.736	39.81
334.201	47.11
334.666	44.61
335.131	52.01
335.596	49.01
336.061	47.61
336.526	40.61
336.991	49.91
337.456	52.01
337.921	44.61
338.386	45.21
338.851	39.61
339.316	45.81
339.781	46.71
340.246	48.91
340.711	40.81
341.175	47.51
341.64	48.31
342.105	47.01
342.569	60.01
343.034	59.41
343.499	55.41
343.963	49.91
344.428	62.21
344.893	62.41
345.357	69.81
345.822	58.81
346.286	76.91
346.751	69.71
347.215	68.01
347.679	72.41
348.144	93.41
348.608	82.41
349.073	71.01
349.537	71.31
350.001	76.21
350.465	79.61
350.93	82.21
351.394	80.81
351.858	77.41
352.322	86.51
352.786	81.91
353.25	94.91
353.715	104.61
354.179	90.71
354.643	116.51
355.107	120.31
355.571	96.41
356.035	104.51
356.498	112.21
356.962	116.11
357.426	124.81
357.89	108.61
358.354	89.21
358.818	84.81
359.281	76.11
359.745	73.11
360.209	76.41
360.673	78.41
361.136	79.11
361.6	83.81
362.064	82.01
362.527	86.01
362.991	92.81
363.454	83.41
363.918	69.01
364.381	82.61
364.845	84.51
365.308	83.51
365.772	89.31
366.235	86.31
366.698	85.21
367.162	88.61
367.625	83.91
368.088	88.51
368.552	90.21
369.015	82.21
369.478	95.41
369.941	101.81
370.404	90.21
370.867	96.51
371.331	100.91
371.794	114.11
372.257	99.01
372.72	106.31
373.183	99.91
373.646	95.81
374.109	92.61
374.572	99.61
375.035	104.01
375.497	105.61
375.96	108.01
376.423	106.81
376.886	118.01
377.349	110.71
377.811	102.61
378.274	106.71
378.737	107.81
379.199	109.61
379.662	112.41
380.125	113.81
380.587	113.41
381.05	101.91
381.512	112.31
381.975	129.91
382.437	125.51
382.9	116.61
383.362	123.01
383.825	130.61
384.287	128.01
384.75	118.21
385.212	129.61
385.674	135.41
386.136	136.61
386.599	122.71
387.061	125.81
387.523	122.71
387.985	136.81
388.447	138.21
388.91	125.51
389.372	127.31
389.834	137.41
390.296	129.71
390.758	138.81
391.22	143.31
391.682	154.81
392.144	168.21
392.606	151.21
393.068	147.61
393.529	155.21
393.991	147.51
394.453	135.01
394.915	143.51
395.377	136.01
395.838	146.81
396.3	145.61
396.762	147.31
397.224	136.91
397.685	139.61
398.147	137.61
398.608	139.41
399.07	138.01
399.531	140.71
399.993	143.71
400.454	155.61
400.916	155.91
401.377	151.41
401.839	159.31
402.3	152.11
402.762	174.91
403.223	185.01
403.684	170.51
404.145	170.31
404.607	169.61
405.068	174.31
405.529	173.81
405.99	194.91
406.451	186.31
406.913	182.11
407.374	169.71
407.835	173.11
408.296	176.21
408.757	178.11
409.218	191.91
409.679	183.61
410.14	185.81
410.601	183.81
411.062	192.51
411.522	186.81
411.983	187.41
412.444	181.41
412.905	193.51
413.366	191.01
413.826	210.41
414.287	233.41
414.748	279.81
415.208	273.51
415.669	232.01
416.13	223.21
416.59	218.51
417.051	228.01
417.511	235.61
417.972	255.61
418.432	270.11
418.893	313.21
419.353	276.21
419.814	220.21
420.274	199.81
420.734	194.81
421.195	209.81
421.655	208.11
422.115	213.91
422.576	210.51
423.036	216.61
423.496	222.81
423.956	233.71
424.416	250.41
424.876	280.81
425.336	275.41
425.797	275.61
426.257	271.71
426.717	254.81
427.177	254.31
427.637	239.01
428.097	250.01
428.556	262.31
429.016	282.61
429.476	275.91
429.936	287.41
430.396	293.31
430.856	300.21
431.315	320.01
431.775	354.71
432.235	393.91
432.694	365.31
433.154	379.01
433.614	410.21
434.073	345.91
434.533	297.61
434.993	286.51
435.452	293.51
435.912	307.91
436.371	306.31
436.83	292.01
437.29	284.41
437.749	267.11
438.209	260.21
438.668	295.31
439.127	303.71
439.587	281.41
440.046	269.91
440.505	279.91
440.964	298.21
441.424	346.81
441.883	324.41
442.342	277.11
442.801	248.61
443.26	248.01
443.719	233.41
444.178	235.71
444.637	229.41
445.096	237.81
445.555	243.21
446.014	245.91
446.473	239.51
446.932	253.91
447.391	260.81
447.849	249.91
448.308	242.21
448.767	241.91
449.226	257.11
449.685	251.81
450.143	268.01
450.602	255.51
451.061	243.11
451.519	248.51
451.978	259.01
452.436	254.51
452.895	260.71
453.353	275.21
453.812	260.11
454.27	262.11
454.729	253.31
455.187	266.11
455.646	266.01
456.104	272.61
456.562	289.91
457.021	292.81
457.479	280.21
457.937	292.71
458.395	293.71
458.854	276.11
459.312	278.51
459.77	288.41
460.228	275.01
460.686	262.31
461.144	276.51
461.602	271.91
462.06	269.31
462.518	276.01
462.976	277.21
463.434	283.11
463.892	282.11
464.35	300.61
464.808	310.61
465.266	286.71
465.724	286.41
466.181	293.51
466.639	292.61
467.097	309.41
467.555	327.11
468.012	332.21
468.47	330.01
468.928	359.91
469.385	373.11
469.843	373.51
470.3	375.01
470.758	394.41
471.215	413.41
471.673	437.11
472.13	433.61
472.588	448.71
473.045	401.81
473.503	412.71
473.96	427.71
474.417	439.41
474.875	466.71
475.332	507.11
475.789	502.01
476.246	493.41
476.704	517.61
477.161	543.21
477.618	562.31
478.075	596.81
478.532	659.21
478.989	726.21
479.446	834.81
479.903	808.91
480.36	830.21
480.817	882.61
481.274	980.41
481.731	1059.61
482.188	1150.91
482.645	1285.61
483.102	1378.81
483.558	1488.61
484.015	1544.51
484.472	1506.41
484.929	1460.51
485.385	1429.31
485.842	1411.41
486.299	1365.51
486.755	1319.51
487.212	1117.01
487.668	959.11
488.125	894.01
488.582	815.21
489.038	786.31
489.494	755.61
489.951	727.51
490.407	713.61
490.864	688.11
491.32	681.61
491.776	685.91
492.233	681.61
492.689	658.91
493.145	656.11
493.602	643.51
494.058	656.51
494.514	659.01
494.97	677.41
495.426	705.51
495.882	675.71
496.338	660.01
496.794	666.91
497.251	660.61
497.707	679.91
498.163	673.81
498.618	684.51
499.074	688.41
499.53	709.31
499.986	714.61
500.442	684.51
500.898	661.91
501.354	655.71
501.809	672.21
502.265	675.71
502.721	674.71
503.177	688.11
503.632	681.31
504.088	699.11
504.543	721.81
504.999	742.91
505.455	701.21
505.91	687.31
506.366	686.71
506.821	680.01
507.277	680.51
507.732	685.61
508.187	677.31
508.643	692.91
509.098	699.41
509.553	714.31
510.009	715.61
510.464	730.51
510.919	751.51
511.375	754.31
511.83	753.21
512.285	783.81
512.74	818.21
513.195	849.71
513.65	829.81
514.105	827.71
514.56	828.11
515.015	842.41
515.47	863.71
515.925	842.31
516.38	840.91
516.835	855.31
517.29	835.11
517.745	848.21
518.2	823.61
518.655	797.81
519.109	807.41
519.564	798.41
520.019	788.71
520.474	780.21
520.928	786.31
521.383	762.51
521.838	759.71
522.292	764.91
522.747	762.11
523.201	763.71
523.656	746.51
524.11	744.11
524.565	738.91
525.019	748.11
525.474	754.51
525.928	743.11
526.382	758.41
526.837	748.81
527.291	759.71
527.745	755.51
528.2	746.51
528.654	747.11
529.108	743.51
529.562	739.11
530.016	738.41
530.47	738.01
530.925	742.31
531.379	741.71
531.833	755.71
532.287	745.11
532.741	752.91
533.195	756.21
533.649	762.71
534.103	768.01
534.556	764.61
535.01	754.81
535.464	753.91
535.918	776.31
536.372	763.91
536.826	762.61
537.279	763.81
537.733	769.61
538.187	766.61
538.64	767.21
539.094	769.91
539.548	785.11
540.001	778.11
540.455	771.61
540.908	782.21
541.362	795.71
541.815	799.51
542.269	810.21
542.722	819.71
543.175	823.31
543.629	829.91
544.082	839.41
544.536	847.71
544.989	846.61
545.442	853.01
545.895	853.81
546.349	863.41
546.802	863.01
547.255	862.31
547.708	859.01
548.161	866.81
548.614	877.91
549.067	881.81
549.52	882.01
549.973	873.21
550.426	866.21
550.879	849.81
551.332	864.11
551.785	861.51
552.238	873.81
552.691	882.61
553.144	894.31
553.596	924.61
554.049	915.31
554.502	960.81
554.955	983.81
555.407	986.01
555.86	964.51
556.313	946.91
556.765	934.91
557.218	945.01
557.67	954.31
558.123	948.11
558.576	945.71
559.028	949.81
559.48	944.61
559.933	938.71
560.385	892.81
560.838	883.01
561.29	864.81
561.742	857.11
562.195	822.41
562.647	825.51
563.099	828.91
563.551	829.01
564.004	848.21
564.456	839.31
564.908	815.11
565.36	806.41
565.812	784.31
566.264	769.21
566.716	774.51
567.168	748.71
567.62	767.91
568.072	747.61
568.524	748.71
568.976	742.51
569.428	729.01
569.88	726.61
570.332	733.41
570.784	735.61
571.235	740.81
571.687	754.01
572.139	756.51
572.59	768.41
573.042	767.91
573.494	756.11
573.945	757.01
574.397	743.61
574.849	745.91
575.3	741.91
575.752	733.01
576.203	733.21
576.655	739.31
577.106	717.41
577.557	718.41
578.009	719.91
578.46	721.31
578.912	713.21
579.363	710.31
579.814	712.31
580.265	711.81
580.717	723.91
581.168	719.61
581.619	721.31
582.07	726.61
582.521	728.21
582.972	709.01
583.423	726.21
583.875	726.51
584.326	720.81
584.777	743.91
585.227	761.91
585.678	784.01
586.129	796.81
586.58	830.61
587.031	858.31
587.482	906.61
587.933	937.51
588.384	901.21
588.834	856.01
589.285	810.81
589.736	821.61
590.186	808.21
590.637	799.51
591.088	791.01
591.538	790.71
591.989	775.91
592.439	772.21
592.89	754.11
593.34	745.91
593.791	751.51
594.241	749.31
594.692	739.51
595.142	740.71
595.593	748.21
596.043	746.81
596.493	755.91
596.943	756.41
597.394	769.51
597.844	761.11
598.294	776.31
598.744	805.51
599.195	824.41
599.645	870.21
600.095	915.81
600.545	966.01
600.995	1029.61
601.445	1089.91
601.895	1155.51
602.345	1204.11
602.795	1180.71
603.245	1135.21
603.695	1084.31
604.145	1020.71
604.594	974.81
605.044	917.21
605.494	848.71
605.944	807.41
606.393	782.91
606.843	766.01
607.293	787.11
607.743	780.31
608.192	781.21
608.642	799.21
609.091	798.81
609.541	811.61
609.99	817.41
610.44	800.91
610.889	754.61
611.339	727.81
611.788	726.81
612.238	733.91
612.687	738.51
613.136	732.61
613.586	746.21
614.035	744.81
614.484	755.31
614.933	750.41
615.383	742.31
615.832	747.21
616.281	743.41
616.73	720.71
617.179	698.21
617.628	680.11
618.077	666.11
618.526	655.91
618.975	645.31
619.424	638.61
619.873	639.81
620.322	652.21
620.771	642.71
621.22	640.71
621.669	624.81
622.118	620.11
622.567	609.61
623.015	600.41
623.464	593.31
623.913	591.11
624.361	588.81
624.81	588.21
625.259	583.91
625.707	591.61
626.156	597.91
626.604	604.61
627.053	593.71
627.501	599.11
627.95	607.51
628.398	617.51
628.847	602.81
629.295	604.01
629.744	605.61
630.192	600.31
630.64	589.61
631.089	577.71
631.537	569.31
631.985	569.21
632.433	562.61
632.881	555.31
633.33	571.61
633.778	551.21
634.226	554.11
634.674	570.11
635.122	571.71
635.57	587.91
636.018	589.91
636.466	584.11
636.914	579.41
637.362	605.31
637.81	604.71
638.258	605.41
638.705	611.01
639.153	645.21
639.601	647.51
640.049	676.61
640.497	711.91
640.944	731.41
641.392	685.01
641.84	643.01
642.287	615.41
642.735	592.61
643.182	593.91
643.63	599.21
644.078	595.41
644.525	602.91
644.973	618.31
645.42	627.41
645.867	643.01
646.315	660.91
646.762	689.51
647.21	719.01
647.657	739.21
648.104	774.01
648.551	779.61
648.999	861.81
649.446	925.91
649.893	1001.31
650.34	1157.91
650.787	1372.41
651.234	1669.11
651.682	2167.61
652.129	2945.21
652.576	4175.11
653.023	6070.61
653.47	8225.61
653.917	10220.01
654.363	11812.01
654.81	12991.31
655.257	12351.01
655.704	8203.51
656.151	4936.41
656.598	3246.41
657.044	2322.41
657.491	1802.41
657.938	1462.81
658.385	1228.41
658.831	1077.41
659.278	965.51
659.724	860.41
660.171	791.61
660.618	743.01
661.064	704.11
661.511	685.01
661.957	674.21
662.404	669.11
662.85	673.41
663.296	638.91
663.743	583.71
664.189	556.71
664.635	562.51
665.082	551.41
665.528	543.21
665.974	543.11
666.42	534.31
666.867	528.81
667.313	517.41
667.759	483.31
668.205	472.81
668.651	480.51
669.097	468.11
669.543	463.11
669.989	467.61
670.435	473.21
670.881	465.61
671.327	471.51
671.773	495.11
672.219	514.71
672.665	581.61
673.11	619.31
673.556	662.71
674.002	706.41
674.448	687.81
674.893	591.61
675.339	508.51
675.785	472.71
676.23	446.81
676.676	415.31
677.122	404.21
677.567	399.31
678.013	387.91
678.458	384.91
678.904	376.11
679.349	370.01
679.794	380.31
680.24	371.61
680.685	368.31
681.131	369.31
681.576	367.91
682.021	378.01
682.466	373.71
682.912	373.21
683.357	372.41
683.802	401.91
684.247	437.21
684.692	483.01
685.137	510.31
685.583	559.51
686.028	590.71
686.473	537.01
686.918	471.11
687.363	444.31
687.807	415.41
688.252	382.41
688.697	371.31
689.142	360.91
689.587	353.81
690.032	349.11
690.477	358.51
690.921	370.11
691.366	409.51
691.811	430.61
692.255	449.61
692.7	487.91
693.145	533.31
693.589	739.61
694.034	1198.21
694.478	1641.01
694.923	1859.71
695.367	2399.51
695.812	1268.81
696.256	524.61
696.701	388.71
697.145	364.51
697.59	346.51
698.034	338.51
698.478	344.31
698.922	338.31
699.367	339.31
699.811	355.61
700.255	376.71
700.699	409.51
701.143	450.71
701.588	501.81
702.032	540.71
702.476	542.41
702.92	520.71
703.364	529.91
703.808	672.51
704.252	1099.21
704.696	1536.91
705.14	1780.61
705.584	2274.41
706.027	1130.31
706.471	553.21
706.915	415.21
707.359	374.81
707.803	332.31
708.246	332.41
708.69	333.91
709.134	329.41
709.577	329.81
710.021	339.11
710.465	328.71
710.908	304.01
711.352	310.11
711.795	329.61
712.239	369.91
712.682	403.41
713.126	443.01
713.569	484.81
714.012	374.71
714.456	317.31
714.899	308.21
715.342	290.81
715.786	272.51
716.229	268.41
716.672	266.91
717.115	265.21
717.558	270.01
718.002	272.31
718.445	274.81
718.888	296.61
719.331	306.21
719.774	330.21
720.217	321.01
720.66	304.01
721.103	284.91
721.546	266.21
721.989	267.11
722.432	245.41
722.874	250.11
723.317	237.91
723.76	254.81
724.203	268.11
724.645	333.71
725.088	461.11
725.531	608.61
725.974	675.71
726.416	584.11
726.859	330.81
727.301	259.31
727.744	256.61
728.187	246.01
728.629	250.71
729.071	261.81
729.514	273.71
729.956	282.11
730.399	296.61
730.841	304.21
731.283	286.71
731.726	281.21
732.168	272.91
732.61	284.71
733.053	304.41
733.495	330.21
733.937	377.91
734.379	425.81
734.821	462.11
735.263	585.21
735.705	890.21
736.148	1681.11
736.59	2760.21
737.032	3257.81
737.474	2651.61
737.916	865.51
738.357	448.81
738.799	346.91
739.241	315.61
739.683	301.51
740.125	307.31
740.567	318.61
741.008	336.51
741.45	331.81
741.892	336.31
742.334	366.11
742.775	380.21
743.217	370.21
743.658	289.91
744.1	269.91
744.542	275.91
744.983	337.21
745.425	366.61
745.866	369.21
746.307	290.61
746.749	294.41
747.19	339.11
747.632	486.41
748.073	934.41
748.514	1975.51
748.956	3022.01
749.397	3800.31
749.838	3168.71
750.279	3156.61
750.72	1590.71
751.162	577.91
751.603	340.21
752.044	273.51
752.485	229.61
752.926	225.71
753.367	215.51
753.808	212.51
754.249	201.61
754.69	196.41
755.131	192.91
755.572	192.11
756.013	188.51
756.453	190.91
756.894	198.51
757.335	200.41
757.776	208.11
758.216	203.01
758.657	208.61
759.098	212.01
759.538	243.01
759.979	284.61
760.42	400.51
760.86	751.41
761.301	1943.61
761.741	4698.01
762.182	6813.81
762.622	4825.31
763.063	1402.21
763.503	575.61
763.943	347.01
764.384	294.71
764.824	266.81
765.264	261.01
765.705	224.11
766.145	199.51
766.585	189.01
767.025	174.51
767.465	171.81
767.906	195.11
768.346	212.61
768.786	228.01
769.226	221.11
769.666	322.11
770.106	658.01
770.546	1644.11
770.986	2809.11
771.426	2501.41
771.866	842.81
772.306	340.81
772.745	217.11
773.185	181.81
773.625	170.81
774.065	157.81
774.505	168.61
774.944	217.11
775.384	391.51
775.824	638.81
776.263	628.41
776.703	302.51
777.142	171.81
777.582	137.01
778.021	126.81
778.461	122.71
778.9	129.31
779.34	134.31
779.779	117.31
780.219	115.51
780.658	117.11
781.097	118.61
781.537	115.51
781.976	113.01
782.415	109.01
782.855	117.61
783.294	113.91
783.733	112.51
784.172	113.21
784.611	107.61
785.05	113.81
785.489	122.31
785.928	123.61
786.367	134.61
786.806	123.21
787.245	133.51
787.684	147.61
788.123	154.81
788.562	138.11
789.001	135.91
789.44	126.81
789.879	131.51
790.317	126.31
790.756	133.31
791.195	132.01
791.634	156.21
792.072	217.21
792.511	383.71
792.95	1051.51
793.388	2236.61
793.827	2023.11
794.265	707.91
794.704	299.91
795.142	189.91
795.581	157.91
796.019	147.81
796.458	141.31
796.896	138.21
797.334	146.81
797.773	164.61
798.211	230.71
798.649	467.01
799.087	1078.61
799.526	1680.71
799.964	2142.01
800.402	2121.01
800.84	806.71
801.278	325.21
801.716	202.51
802.154	165.11
802.592	160.81
803.03	149.21
803.468	135.51
803.906	161.41
804.344	161.61
804.782	150.71
805.22	142.71
805.658	139.51
806.096	158.31
806.533	166.31
806.971	187.51
807.409	230.71
807.847	341.81
808.284	713.51
808.722	1993.91
809.16	3492.51
809.597	3345.31
810.035	5755.21
810.472	6128.21
810.91	2231.11
811.347	843.91
811.785	430.91
812.222	270.81
812.66	202.21
813.097	173.71
813.535	156.41
813.972	141.71
814.409	126.41
814.846	113.61
815.284	117.01
815.721	108.81
816.158	107.61
816.595	117.51
817.032	165.81
817.47	189.41
817.907	146.41
818.344	114.81
818.781	107.01
819.218	100.21
819.655	132.71
820.092	198.21
820.529	233.01
820.966	185.81
821.403	132.91
821.839	100.21
822.276	101.91
822.713	129.01
823.15	145.61
823.587	118.11
824.023	166.11
824.46	323.21
824.897	948.71
825.333	1421.71
825.77	622.91
826.206	244.01
826.643	145.01
827.08	109.71
827.516	90.21
827.953	82.01
828.389	83.21
828.825	70.61
829.262	68.31
829.698	61.81
830.135	68.31
830.571	65.21
831.007	67.01
831.443	70.61
831.88	69.41
832.316	72.61
832.752	65.01
833.188	68.61
833.624	68.71
834.06	75.91
834.497	78.11
834.933	72.21
835.369	83.41
835.805	72.81
836.241	77.81
836.677	88.61
837.112	97.61
837.548	107.61
837.984	145.91
838.42	209.51
838.856	528.51
839.292	1585.31
839.727	2432.81
840.163	1142.11
840.599	981.71
841.034	2136.81
841.47	2233.61
841.906	825.01
842.341	346.61
842.777	213.71
843.212	211.81
843.648	208.91
844.083	119.61
844.519	85.91
844.954	75.21
845.39	60.21
845.825	61.61
846.261	59.51
846.696	57.41
847.131	59.11
847.566	59.51
848.002	50.01
848.437	55.61
848.872	60.41
849.307	60.61
849.742	92.31
850.177	187.91
850.613	587.21
851.048	925.01
851.483	407.51
851.918	164.71
852.353	87.41
852.788	57.01
853.223	53.61
853.657	54.21
854.092	49.21
854.527	46.11
854.962	43.71
855.397	44.11
855.832	54.31
856.266	42.81
856.701	37.91
857.136	36.11
857.57	41.01
858.005	54.71
858.44	64.51
858.874	50.71
859.309	54.31
859.743	41.91
860.178	51.11
860.612	47.31
861.047	56.81
861.481	72.71
861.915	78.51
862.35	57.81
862.784	35.41
863.218	42.11
863.653	41.01
864.087	48.21
864.521	53.11
864.955	67.61
865.39	166.11
865.824	184.11
866.258	127.71
866.692	182.51
867.126	193.11
867.56	107.81
867.994	58.41
868.428	40.31
868.862	47.11
869.296	58.71
869.73	64.21
870.164	59.21
870.598	57.61
871.031	41.81
871.465	34.71
871.899	32.41
872.333	33.31
872.766	30.61
873.2	21.21
873.634	29.91
874.067	31.31
874.501	28.31
874.935	38.71
875.368	31.51
875.802	35.11
876.235	25.81
876.669	29.91
877.102	23.41
877.535	28.11
877.969	29.11
878.402	28.61
878.836	23.31
879.269	25.41
879.702	31.11
880.135	28.21
880.569	24.91
881.002	17.01
881.435	21.21
881.868	17.31
882.301	24.31
882.734	20.71
883.167	23.21
883.601	22.21
884.034	28.71
884.467	17.41
884.899	20.51
885.332	14.71
885.765	16.11
886.198	20.01
886.631	18.51
887.064	15.91
887.497	19.81
887.929	27.41
888.362	16.11
888.795	15.71
889.228	16.51
889.66	22.21
890.093	18.01
890.526	20.81
890.958	13.31
891.391	22.41
891.823	23.51
892.256	17.01
892.688	17.31
893.121	18.31
893.553	20.21
893.985	28.41
894.418	28.51
894.85	9.51
895.282	14.61
895.715	15.31
896.147	14.51
896.579	19.51
897.011	14.41
897.444	16.11
897.876	10.01
898.308	20.51
898.74	16.61
899.172	12.91
899.604	23.91
900.036	20.61
900.468	10.71
900.9	16.51
901.332	19.31
901.764	16.81
902.196	19.51
902.628	16.01
903.06	13.41
903.491	33.41
903.923	26.71
904.355	22.31
904.787	26.81
905.218	21.41
905.65	17.31
906.082	16.01
906.513	14.41
906.945	15.71
907.376	13.21
907.808	23.01
908.239	20.01
908.671	17.51
909.102	23.01
909.534	28.71
909.965	49.71
910.397	103.01
910.828	337.81
911.259	489.01
911.691	233.91
912.122	120.21
912.553	52.51
912.984	36.11
913.415	19.71
913.847	22.81
914.278	18.51
914.709	16.91
915.14	20.91
915.571	23.41
916.002	10.21
916.433	23.11
916.864	19.71
917.295	14.01
917.726	19.11
918.157	17.71
918.587	30.61
919.018	18.01
919.449	22.91
919.88	27.21
920.311	34.01
920.741	52.51
921.172	177.41
921.603	162.91
922.033	77.81
922.464	47.91
922.895	22.21
923.325	14.41
923.756	19.01
924.186	13.21
924.617	17.81
925.047	22.31
925.478	29.41
925.908	24.61
926.338	16.31
926.769	11.21
927.199	13.11
927.629	7.01
928.06	15.11
928.49	13.51
928.92	8.71
929.35	13.21
929.78	10.61
930.21	6.51
930.641	10.81
931.071	9.51
931.501	9.51
931.931	14.11
932.361	13.81
932.791	-3.09
933.221	4.21
933.651	2.41
934.08	17.61
934.51	33.21
934.94	14.01
935.37	14.71
935.8	14.01
936.229	4.51
936.659	7.21
937.089	6.31
937.519	20.61
937.948	22.11
938.378	12.71
938.807	3.21
939.237	8.21
939.666	11.41
940.096	-3.39
940.525	3.51
940.955	0.71
941.384	5.01
941.814	-0.29
942.243	3.51
942.672	9.91
943.102	-4.79
943.531	-1.69
943.96	3.01
944.39	1.61
944.819	6.01
945.248	-0.99
945.677	1.61
946.106	3.51
946.535	2.21
946.964	1.91
947.393	8.11
947.822	2.81
948.251	-2.39
948.68	4.51
949.109	9.81
949.538	5.01
949.967	-1.89
950.396	3.61
950.825	5.11
951.254	3.91
951.682	-5.39
952.111	9.11
952.54	8.51
952.969	1.21
953.397	-0.59
953.826	1.11
954.254	-5.79
954.683	1.81
955.112	-3.69
955.54	1.01
955.969	2.21
956.397	1.41
956.826	-2.89
957.254	2.71
957.682	0.21
958.111	11.41
958.539	1.41
958.967	-0.79
959.396	0.71
959.824	3.11
960.252	-0.29
960.68	-7.79
961.109	2.11
961.537	-4.69
961.965	1.91
962.393	5.41
962.821	-5.79
963.249	-0.09
963.677	8.01
964.105	7.91
964.533	50.51
964.961	44.51
965.389	21.81
965.817	12.91
966.245	6.21
966.672	2.31
967.1	-5.19
967.528	1.81
967.956	2.51
968.383	-1.49
968.811	-0.79
969.239	2.61
969.666	-4.69
970.094	-3.49
970.522	2.61
970.949	-0.89
971.377	-5.79
971.804	-1.19
972.232	-1.39
972.659	-3.69
973.087	-0.29
973.514	-2.99
973.941	-6.79
974.369	3.91
974.796	2.01
975.223	0.21
975.651	0.01
976.078	3.11
976.505	0.41
976.932	4.91
977.359	22.71
977.786	13.11
978.214	4.11
978.641	-6.29
979.068	-9.49
979.495	-5.39
979.922	4.51
980.349	-0.29
980.776	0.91
981.202	-0.49
981.629	3.71
982.056	3.31
982.483	-4.89
982.91	1.31
983.337	-5.79
983.763	-1.59
984.19	-6.89
984.617	-2.59
985.043	-6.09
985.47	-3.09
985.897	-3.49
986.323	-5.99
986.75	11.91
987.176	-0.69
987.603	3.71
988.029	0.71
988.456	-2.89
988.882	8.91
989.308	-1.29
989.735	-4.19
990.161	-2.99
990.587	1.11
991.014	-1.89
991.44	10.01
991.866	-1.59
992.292	-5.89
992.719	-0.89
993.145	4.41
993.571	-6.69
993.997	-7.99
994.423	-2.19
994.849	-1.99
995.275	1.71
995.701	-1.79
996.127	-2.69
996.553	-0.09
996.979	-5.19
997.405	-2.39
997.83	0.11
998.256	-3.59
998.682	-5.09
999.108	-7.19
999.534	1.71
999.959	-6.79
1000.385	-8.09
1000.811	-4.59
1001.236	-6.29
1001.662	-6.39
1002.087	-6.29
1002.513	0.31
1002.938	8.01
1003.364	-6.09
1003.789	-2.49
1004.215	4.31
1004.64	-3.89
1005.066	1.71
1005.491	-2.29
1005.916	-0.39
1006.342	-0.09
1006.767	-3.29
1007.192	2.81
1007.617	-9.89
1008.042	-1.89
1008.468	-7.39
1008.893	-4.19
1009.318	-4.09
1009.743	1.21
1010.168	4.81
1010.593	2.61
1011.018	-9.29
1011.443	-3.39
1011.868	7.91
1012.293	-4.49
1012.718	-5.99
1013.143	1.41
1013.567	6.51
1013.992	3.91
1014.417	-11.09
1014.842	4.11
1015.267	-6.69
1015.691	-4.49
1016.116	6.31
1016.541	1.91
1016.965	0.61
1017.39	6.61
1017.814	3.41
1018.239	1.61
1018.663	-3.39
1019.088	-10.89
1019.512	-3.19
1019.937	2.81
1020.361	-2.39
1020.785	-8.69
1021.21	-1.79
1021.634	0.61
1022.058	-0.69
1022.483	3.41
1022.907	-6.79
1023.331	-2.09
1023.755	-1.49
1024.179	-5.79
1024.604	-5.29
1025.028	-2.99
1025.452	0.31
1025.876	4.71
1026.3	0.91
1026.724	-6.79
1027.148	-5.89
1027.572	-5.49
1027.996	-1.39
1028.42	3.81
1028.843	-3.49
1029.267	-6.79
1029.691	-5.89
1030.115	-7.09
1030.539	-4.99
1030.962	-5.89
1031.386	-10.99
1031.81	-0.69
1032.233	-5.79
1032.657	-1.59
1033.08	0.41
1033.504	-2.99
1033.927	3.71
1034.351	1.31
1034.774	-2.69
1035.198	-2.69
1035.621	-4.29
1036.045	-11.99
1036.468	-2.09
1036.891	-4.59
1037.315	-5.29
1037.738	-12.39
1038.161	-0.19
1038.584	-1.99
1039.008	-3.39
1039.431	-1.49
1039.854	-7.69
1040.277	-8.29
1040.7	-5.29
1041.123	-2.19
1041.546	-4.29
1041.969	-5.99
1042.392	-9.39
1042.815	-4.29
1043.238	-2.49
1043.661	1.91
1044.084	-1.29
1044.507	-3.59
1044.93	-6.29
1045.352	-6.69
1045.775	-2.39
1046.198	-0.59
1046.621	-4.09
1047.043	-1.49
1047.466	4.91
1047.889	-0.79
1048.311	-6.79
1048.734	-4.79
1049.156	1.21
1049.579	-0.29
1050.001	-6.59
1050.424	-3.69
1050.846	3.01
1051.269	-2.49
1051.691	-4.79
1052.113	-5.59
1052.536	-1.69
1052.958	-2.79
1053.38	-3.19
1053.802	-11.79
1054.225	2.61
1054.647	-9.89
1055.069	1.71
1055.491	4.01
1055.913	-7.49
1056.335	3.71
1056.757	-4.09
1057.179	-5.09
1057.601	-2.29
1058.023	-2.39
1058.445	-4.59
1058.867	-6.29
1059.289	-4.79
1059.711	-10.79
1060.133	-1.39
1060.555	-6.19
1060.976	-4.29
1061.398	-3.49
1061.82	-9.39
1062.241	-9.29
1062.663	-11.19
1063.085	-5.69
1063.506	1.01
1063.928	-2.39
1064.35	0.31
1064.771	-18.29
1065.193	-8.49
1065.614	-9.89
1066.035	-1.89
1066.457	-0.49
1066.878	-0.09
1067.3	-8.59
1067.721	-3.69
1068.142	-4.79
1068.564	-4.69
1068.985	-6.39
1069.406	-9.99
1069.827	-4.59
1070.248	-0.29
1070.67	-10.79
1071.091	-13.99
1071.512	0.31
1071.933	-7.99
1072.354	-6.09
1072.775	-10.49
1073.196	-6.29
1073.617	-1.49
1074.038	-5.49
1074.459	-7.19
1074.88	-2.69
1075.3	2.71
1075.721	-6.79
1076.142	1.51
1076.563	2.61
1076.983	-10.09
1077.404	-8.19
1077.825	-5.79
1078.246	-2.19
1078.666	-10.19
1079.087	-5.59
1079.507	-8.39
1079.928	6.01
1080.348	-5.59
1080.769	-8.59
1081.189	-0.29
1081.61	-7.59
1082.03	-6.89
1082.451	-9.89
1082.871	-3.09
1083.291	-11.29
1083.711	-3.59
1084.132	-3.99
1084.552	-4.99
1084.972	-5.09
1085.392	-8.79
1085.813	-13.49
1086.233	-6.59
1086.653	-5.19
1087.073	-3.89
1087.493	-4.79
1087.913	-4.59
1088.333	-7.19
1088.753	-3.49
1089.173	4.71
1089.593	-5.29
1090.013	4.41
1090.433	5.91
1090.852	-4.89
1091.272	-2.89
1091.692	-5.29
1092.112	-0.49
1092.531	-4.69
1092.951	-10.99
1093.371	-7.89
1093.79	-1.59
1094.21	-5.99
1094.63	-1.49
1095.049	-2.09
1095.469	2.31
1095.888	-3.19
1096.308	1.81
1096.727	4.41
1097.146	-7.19
1097.566	0.31
1097.985	-1.49
1098.405	-1.49
1098.824	-3.49
1099.243	-10.59
1099.662	-9.29
1100.082	-2.69
1100.501	1.11
1100.92	0.51
1101.339	-4.49
1101.758	-9.59
