Data from 20171114-ORNL-Ar_H_NY_Subt18_08-07-48-086.txt Node
Date: Tue Nov 14 08:07:48 EST 2017
User: Ender
Spectrometer: HR+D1039
Trigger mode: 0
Integration Time (sec): 2.730000E-2
Scans to average: 10
Electric dark correction enabled: true
Nonlinearity correction enabled: false
Boxcar width: 0
XAxis mode: Wavelengths
Number of Pixels in Spectrum: 2048
>>>>>Begin Spectral Data<<<<<
187.836	-4.79
188.309	-4.79
188.782	-4.79
189.255	0.01
189.728	-8.39
190.201	9.01
190.674	2.61
191.147	3.01
191.619	-11.19
192.092	-1.49
192.565	9.11
193.038	1.51
193.511	-0.99
193.984	4.91
194.456	-3.59
194.929	4.11
195.402	-2.29
195.874	-1.49
196.347	-2.99
196.82	-6.19
197.292	3.51
197.765	-2.09
198.237	-12.09
198.71	2.61
199.182	0.51
199.655	3.01
200.127	1.71
200.6	-2.49
201.072	-3.09
201.544	-6.59
202.017	-2.49
202.489	6.31
202.961	-0.79
203.433	-11.29
203.906	-4.79
204.378	-6.39
204.85	-8.09
205.322	-12.59
205.794	0.41
206.266	0.81
206.739	-11.89
207.211	4.71
207.683	-10.39
208.155	-5.19
208.627	-5.89
209.099	-2.69
209.57	-6.29
210.042	-4.99
210.514	-1.49
210.986	-2.49
211.458	-6.29
211.93	-3.19
212.402	4.21
212.873	-8.79
213.345	-2.49
213.817	-12.99
214.288	0.21
214.76	-11.49
215.232	-2.69
215.703	0.91
216.175	-6.49
216.646	-2.09
217.118	-9.49
217.589	-4.49
218.061	-5.59
218.532	-7.59
219.004	-3.99
219.475	-4.59
219.946	-0.59
220.418	-5.69
220.889	2.21
221.36	-0.29
221.832	-8.29
222.303	-12.29
222.774	-0.29
223.245	-8.89
223.717	-8.29
224.188	-8.89
224.659	-7.29
225.13	-5.89
225.601	-2.39
226.072	2.21
226.543	-1.09
227.014	-2.99
227.485	-7.99
227.956	-9.19
228.427	-5.09
228.898	0.71
229.369	-4.79
229.839	-0.39
230.31	-11.69
230.781	0.61
231.252	1.91
231.722	-4.09
232.193	-4.89
232.664	-0.09
233.135	2.71
233.605	-0.69
234.076	-10.99
234.546	-3.79
235.017	1.71
235.487	-0.89
235.958	2.81
236.428	-1.59
236.899	2.61
237.369	2.41
237.84	-3.29
238.31	7.41
238.78	-1.79
239.251	0.41
239.721	3.51
240.191	-2.59
240.662	4.61
241.132	0.61
241.602	-4.49
242.072	3.11
242.542	6.71
243.013	-3.29
243.483	2.91
243.953	1.31
244.423	2.31
244.893	-5.49
245.363	0.61
245.833	2.61
246.303	-1.99
246.773	1.21
247.243	3.31
247.712	0.11
248.182	-0.19
248.652	8.11
249.122	-1.79
249.592	6.11
250.061	19.61
250.531	31.91
251.001	18.71
251.471	15.51
251.94	12.71
252.41	4.51
252.879	2.51
253.349	7.91
253.818	7.61
254.288	-1.89
254.757	7.61
255.227	2.41
255.696	-0.39
256.166	4.11
256.635	9.21
257.105	6.81
257.574	7.51
258.043	4.21
258.513	9.41
258.982	16.91
259.451	1.61
259.92	11.21
260.389	9.61
260.859	16.51
261.328	7.41
261.797	16.81
262.266	6.41
262.735	11.71
263.204	-3.39
263.673	3.21
264.142	2.31
264.611	-6.19
265.08	-2.49
265.549	3.61
266.018	3.01
266.487	-1.59
266.955	-4.79
267.424	-2.09
267.893	3.61
268.362	4.31
268.83	2.51
269.299	10.41
269.768	0.21
270.236	5.01
270.705	6.01
271.174	8.61
271.642	9.81
272.111	8.81
272.579	12.51
273.048	20.81
273.516	25.11
273.985	21.91
274.453	23.31
274.922	20.51
275.39	6.51
275.858	-4.29
276.327	5.21
276.795	15.51
277.263	3.91
277.731	23.21
278.2	48.81
278.668	45.91
279.136	41.51
279.604	22.21
280.072	11.71
280.54	14.01
281.008	9.31
281.477	10.61
281.945	11.61
282.413	11.81
282.881	16.11
283.348	3.81
283.816	12.11
284.284	10.01
284.752	18.51
285.22	10.01
285.688	12.11
286.156	18.61
286.623	36.21
287.091	46.61
287.559	27.61
288.026	14.01
288.494	13.51
288.962	-1.49
289.429	13.51
289.897	14.31
290.364	8.71
290.832	12.91
291.3	14.91
291.767	19.81
292.234	16.81
292.702	8.91
293.169	14.51
293.637	19.21
294.104	16.71
294.571	9.41
295.039	8.51
295.506	10.71
295.973	15.11
296.44	14.31
296.908	16.61
297.375	19.61
297.842	20.41
298.309	17.61
298.776	12.31
299.243	20.41
299.71	8.41
300.177	15.81
300.644	19.11
301.111	13.11
301.578	23.81
302.045	14.91
302.512	17.71
302.979	23.71
303.446	18.21
303.913	15.91
304.379	19.81
304.846	23.61
305.313	18.41
305.78	15.91
306.246	19.81
306.713	22.81
307.18	21.31
307.646	25.51
308.113	23.51
308.579	16.71
309.046	21.41
309.512	19.61
309.979	10.71
310.445	20.71
310.912	26.41
311.378	28.51
311.845	22.11
312.311	26.11
312.777	26.61
313.244	31.11
313.71	37.81
314.176	20.51
314.642	27.21
315.109	31.31
315.575	30.91
316.041	35.31
316.507	28.61
316.973	37.21
317.439	30.51
317.905	28.31
318.371	36.51
318.837	26.81
319.303	28.71
319.769	32.91
320.235	27.41
320.701	29.71
321.167	31.41
321.633	29.91
322.099	35.51
322.564	44.31
323.03	35.91
323.496	35.01
323.962	37.31
324.427	32.91
324.893	41.51
325.359	35.11
325.824	36.11
326.29	31.91
326.755	37.51
327.221	36.11
327.686	34.01
328.152	38.81
328.617	35.01
329.083	43.71
329.548	42.21
330.014	41.61
330.479	34.61
330.944	36.81
331.41	37.71
331.875	40.81
332.34	44.51
332.805	40.71
333.271	39.01
333.736	42.71
334.201	48.51
334.666	40.61
335.131	50.71
335.596	49.51
336.061	50.91
336.526	37.91
336.991	47.71
337.456	50.31
337.921	52.81
338.386	37.91
338.851	32.31
339.316	46.81
339.781	41.21
340.246	44.81
340.711	41.31
341.175	41.71
341.64	38.61
342.105	48.61
342.569	51.21
343.034	48.81
343.499	50.81
343.963	45.81
344.428	57.01
344.893	51.41
345.357	51.51
345.822	55.81
346.286	62.51
346.751	62.71
347.215	60.41
347.679	65.91
348.144	91.81
348.608	79.11
349.073	63.41
349.537	68.51
350.001	73.71
350.465	87.31
350.93	69.51
351.394	74.71
351.858	66.11
352.322	87.01
352.786	72.11
353.25	95.91
353.715	103.21
354.179	86.51
354.643	105.11
355.107	113.51
355.571	97.91
356.035	99.71
356.498	112.91
356.962	116.41
357.426	123.11
357.89	110.91
358.354	85.71
358.818	74.01
359.281	71.61
359.745	65.71
360.209	77.01
360.673	65.11
361.136	73.51
361.6	79.91
362.064	78.11
362.527	80.91
362.991	79.71
363.454	71.21
363.918	66.91
364.381	73.91
364.845	78.81
365.308	79.41
365.772	74.81
366.235	79.91
366.698	81.71
367.162	84.21
367.625	77.51
368.088	82.61
368.552	82.31
369.015	89.11
369.478	95.31
369.941	89.01
370.404	85.51
370.867	102.11
371.331	96.21
371.794	105.41
372.257	105.51
372.72	109.51
373.183	97.51
373.646	93.01
374.109	99.41
374.572	108.31
375.035	104.71
375.497	110.41
375.96	99.01
376.423	97.81
376.886	105.31
377.349	101.21
377.811	93.71
378.274	96.11
378.737	92.01
379.199	102.11
379.662	98.11
380.125	113.91
380.587	114.01
381.05	112.41
381.512	121.31
381.975	131.41
382.437	120.41
382.9	121.61
383.362	124.71
383.825	143.71
384.287	139.71
384.75	132.71
385.212	135.71
385.674	127.51
386.136	128.11
386.599	120.41
387.061	119.91
387.523	126.51
387.985	126.61
388.447	138.71
388.91	145.61
389.372	157.01
389.834	145.91
390.296	138.01
390.758	147.51
391.22	158.31
391.682	200.21
392.144	288.01
392.606	216.71
393.068	161.91
393.529	163.91
393.991	151.91
394.453	148.71
394.915	143.01
395.377	183.01
395.838	206.81
396.3	151.91
396.762	136.11
397.224	129.81
397.685	125.51
398.147	121.81
398.608	122.41
399.07	120.31
399.531	127.41
399.993	130.01
400.454	148.71
400.916	137.21
401.377	140.41
401.839	144.31
402.3	148.61
402.762	162.91
403.223	177.01
403.684	162.01
404.145	156.81
404.607	146.61
405.068	154.31
405.529	156.91
405.99	180.21
406.451	169.51
406.913	170.61
407.374	158.61
407.835	157.01
408.296	167.11
408.757	160.01
409.218	173.41
409.679	171.01
410.14	164.81
410.601	170.21
411.062	173.81
411.522	181.91
411.983	186.21
412.444	163.81
412.905	173.81
413.366	168.71
413.826	185.51
414.287	204.31
414.748	252.41
415.208	239.81
415.669	201.01
416.13	199.91
416.59	195.11
417.051	201.11
417.511	207.91
417.972	226.51
418.432	236.81
418.893	274.01
419.353	237.31
419.814	187.81
420.274	174.91
420.734	176.01
421.195	186.51
421.655	186.71
422.115	184.91
422.576	185.61
423.036	186.91
423.496	197.31
423.956	205.21
424.416	215.01
424.876	253.71
425.336	245.11
425.797	246.61
426.257	244.21
426.717	226.51
427.177	226.41
427.637	217.01
428.097	225.21
428.556	230.71
429.016	251.51
429.476	252.51
429.936	266.41
430.396	269.11
430.856	286.21
431.315	309.81
431.775	337.41
432.235	375.41
432.694	337.41
433.154	356.01
433.614	385.31
434.073	330.11
434.533	271.31
434.993	258.31
435.452	273.71
435.912	281.81
436.371	271.71
436.83	269.01
437.29	257.21
437.749	239.81
438.209	234.91
438.668	269.31
439.127	274.11
439.587	249.51
440.046	238.41
440.505	260.11
440.964	266.21
441.424	310.11
441.883	300.61
442.342	249.51
442.801	220.41
443.26	213.21
443.719	211.31
444.178	211.11
444.637	212.41
445.096	213.51
445.555	211.91
446.014	214.41
446.473	214.91
446.932	222.21
447.391	227.61
447.849	222.71
448.308	207.11
448.767	211.71
449.226	225.01
449.685	228.51
450.143	238.11
450.602	232.81
451.061	221.71
451.519	229.91
451.978	221.21
452.436	224.11
452.895	226.71
453.353	242.71
453.812	229.81
454.27	236.01
454.729	228.51
455.187	232.71
455.646	233.21
456.104	241.41
456.562	251.31
457.021	260.71
457.479	250.01
457.937	256.91
458.395	250.11
458.854	238.71
459.312	247.51
459.77	264.81
460.228	252.41
460.686	234.01
461.144	239.61
461.602	234.41
462.06	236.01
462.518	249.01
462.976	245.21
463.434	247.21
463.892	246.41
464.35	269.41
464.808	273.81
465.266	248.71
465.724	261.61
466.181	266.91
466.639	259.31
467.097	287.51
467.555	291.51
468.012	288.51
468.47	302.11
468.928	316.21
469.385	325.11
469.843	336.21
470.3	338.21
470.758	357.01
471.215	378.01
471.673	389.61
472.13	393.61
472.588	409.21
473.045	363.11
473.503	364.41
473.96	381.71
474.417	386.51
474.875	418.71
475.332	456.51
475.789	444.41
476.246	447.51
476.704	470.91
477.161	490.21
477.618	504.51
478.075	543.81
478.532	602.11
478.989	673.61
479.446	779.81
479.903	744.81
480.36	778.61
480.817	832.01
481.274	928.01
481.731	1035.91
482.188	1116.61
482.645	1254.01
483.102	1365.71
483.558	1489.31
484.015	1535.31
484.472	1526.31
484.929	1468.41
485.385	1414.41
485.842	1393.01
486.299	1320.11
486.755	1248.71
487.212	1059.61
487.668	890.01
488.125	828.21
488.582	749.81
489.038	725.91
489.494	685.91
489.951	661.91
490.407	647.21
490.864	620.01
491.32	622.51
491.776	617.31
492.233	622.71
492.689	583.91
493.145	585.51
493.602	575.71
494.058	599.31
494.514	588.01
494.97	615.51
495.426	631.71
495.882	600.31
496.338	597.31
496.794	594.01
497.251	591.21
497.707	607.51
498.163	613.81
498.618	612.21
499.074	621.01
499.53	652.11
499.986	651.21
500.442	626.21
500.898	605.91
501.354	606.61
501.809	613.41
502.265	622.51
502.721	648.11
503.177	651.11
503.632	641.81
504.088	657.41
504.543	689.71
504.999	682.21
505.455	626.41
505.91	607.61
506.366	613.61
506.821	603.31
507.277	600.91
507.732	608.01
508.187	604.71
508.643	618.51
509.098	613.01
509.553	625.41
510.009	644.91
510.464	651.11
510.919	662.61
511.375	673.51
511.83	689.31
512.285	693.31
512.74	728.41
513.195	750.01
513.65	745.01
514.105	744.01
514.56	748.51
515.015	763.91
515.47	779.71
515.925	747.61
516.38	761.21
516.835	771.81
517.29	756.71
517.745	747.51
518.2	738.61
518.655	722.01
519.109	716.11
519.564	723.21
520.019	703.01
520.474	702.31
520.928	706.21
521.383	686.11
521.838	681.41
522.292	687.11
522.747	683.21
523.201	690.01
523.656	669.11
524.11	677.41
524.565	678.41
525.019	667.81
525.474	677.81
525.928	683.61
526.382	672.11
526.837	673.91
527.291	681.01
527.745	672.41
528.2	673.61
528.654	667.21
529.108	665.31
529.562	663.41
530.016	663.71
530.47	667.71
530.925	678.51
531.379	676.51
531.833	680.81
532.287	676.51
532.741	684.81
533.195	683.41
533.649	685.61
534.103	697.81
534.556	696.61
535.01	685.21
535.464	686.71
535.918	696.01
536.372	690.91
536.826	698.11
537.279	688.61
537.733	690.71
538.187	684.51
538.64	684.71
539.094	702.41
539.548	711.11
540.001	694.31
540.455	700.01
540.908	712.31
541.362	718.41
541.815	723.91
542.269	727.11
542.722	735.51
543.175	742.31
543.629	740.21
544.082	766.81
544.536	766.51
544.989	756.91
545.442	761.31
545.895	770.21
546.349	764.91
546.802	775.11
547.255	769.11
547.708	774.21
548.161	785.21
548.614	787.51
549.067	807.71
549.52	797.81
549.973	777.11
550.426	786.51
550.879	768.81
551.332	777.51
551.785	778.11
552.238	780.31
552.691	793.01
553.144	797.01
553.596	819.81
554.049	837.21
554.502	875.81
554.955	892.91
555.407	880.91
555.86	877.51
556.313	860.41
556.765	850.61
557.218	858.31
557.67	859.41
558.123	850.41
558.576	846.91
559.028	844.01
559.48	850.81
559.933	845.41
560.385	809.91
560.838	787.11
561.29	767.21
561.742	752.21
562.195	743.21
562.647	750.31
563.099	754.71
563.551	747.41
564.004	766.11
564.456	740.11
564.908	737.81
565.36	730.81
565.812	706.91
566.264	699.61
566.716	712.81
567.168	693.01
567.62	705.11
568.072	684.91
568.524	683.01
568.976	675.81
569.428	663.41
569.88	657.61
570.332	659.61
570.784	663.01
571.235	671.31
571.687	679.51
572.139	686.81
572.59	701.81
573.042	701.71
573.494	684.11
573.945	675.31
574.397	667.31
574.849	672.31
575.3	672.91
575.752	661.21
576.203	667.61
576.655	664.01
577.106	646.81
577.557	644.11
578.009	658.81
578.46	648.01
578.912	647.91
579.363	645.01
579.814	654.41
580.265	643.01
580.717	660.91
581.168	655.91
581.619	669.21
582.07	662.71
582.521	652.91
582.972	652.51
583.423	662.81
583.875	670.01
584.326	684.31
584.777	729.01
585.227	802.11
585.678	893.51
586.129	981.21
586.58	1059.21
587.031	1133.21
587.482	1284.71
587.933	1463.21
588.384	1265.71
588.834	936.51
589.285	792.81
589.736	773.41
590.186	762.21
590.637	742.51
591.088	731.01
591.538	721.81
591.989	704.61
592.439	707.41
592.89	702.11
593.34	687.81
593.791	694.61
594.241	687.51
594.692	691.61
595.142	684.81
595.593	689.41
596.043	690.11
596.493	695.11
596.943	697.91
597.394	703.31
597.844	692.11
598.294	705.11
598.744	739.91
599.195	755.71
599.645	792.41
600.095	831.91
600.545	889.41
600.995	944.21
601.445	1005.61
601.895	1063.21
602.345	1104.71
602.795	1080.91
603.245	1043.71
603.695	977.61
604.145	925.81
604.594	891.61
605.044	837.61
605.494	774.41
605.944	736.21
606.393	725.11
606.843	708.51
607.293	712.91
607.743	707.81
608.192	723.41
608.642	746.01
609.091	746.61
609.541	751.41
609.99	740.91
610.44	750.71
610.889	709.81
611.339	689.71
611.788	673.41
612.238	687.61
612.687	701.51
613.136	701.31
613.586	728.61
614.035	715.31
614.484	735.61
614.933	749.71
615.383	737.71
615.832	724.61
616.281	709.41
616.73	673.01
617.179	647.31
617.628	628.31
618.077	623.11
618.526	615.31
618.975	606.21
619.424	597.61
619.873	612.31
620.322	614.01
620.771	596.81
621.22	580.91
621.669	576.81
622.118	575.01
622.567	569.31
623.015	559.81
623.464	563.11
623.913	553.51
624.361	551.21
624.81	542.71
625.259	537.51
625.707	542.21
626.156	544.21
626.604	546.51
627.053	551.91
627.501	554.71
627.95	556.71
628.398	568.51
628.847	559.51
629.295	563.81
629.744	560.11
630.192	551.51
630.64	554.81
631.089	551.01
631.537	568.11
631.985	581.61
632.433	592.81
632.881	593.41
633.33	641.81
633.778	624.11
634.226	552.91
634.674	560.11
635.122	569.71
635.57	579.61
636.018	611.41
636.466	564.61
636.914	552.01
637.362	560.31
637.81	562.91
638.258	568.41
638.705	571.81
639.153	591.21
639.601	606.31
640.049	629.21
640.497	664.61
640.944	672.91
641.392	621.91
641.84	593.21
642.287	572.81
642.735	559.31
643.182	558.01
643.63	557.01
644.078	557.51
644.525	580.61
644.973	579.91
645.42	602.21
645.867	617.11
646.315	635.61
646.762	653.31
647.21	683.91
647.657	694.61
648.104	737.41
648.551	752.81
648.999	823.11
649.446	892.61
649.893	989.81
650.34	1151.71
650.787	1374.51
651.234	1717.31
651.682	2234.81
652.129	3073.11
652.576	4457.71
653.023	6564.01
653.47	8951.51
653.917	11129.01
654.363	12800.71
654.81	14120.71
655.257	13416.01
655.704	8749.01
656.151	5170.91
656.598	3352.21
657.044	2376.71
657.491	1820.61
657.938	1459.51
658.385	1216.21
658.831	1049.71
659.278	938.81
659.724	840.91
660.171	768.41
660.618	699.71
661.064	675.91
661.511	656.21
661.957	647.31
662.404	629.91
662.85	634.41
663.296	616.21
663.743	546.31
664.189	525.41
664.635	512.11
665.082	513.01
665.528	515.31
665.974	508.01
666.42	502.11
666.867	491.11
667.313	480.81
667.759	472.91
668.205	462.01
668.651	480.41
669.097	476.81
669.543	488.11
669.989	457.61
670.435	442.21
670.881	437.41
671.327	448.11
671.773	457.41
672.219	475.11
672.665	530.91
673.11	570.01
673.556	611.61
674.002	651.31
674.448	644.61
674.893	531.81
675.339	460.41
675.785	435.31
676.23	400.91
676.676	386.71
677.122	369.51
677.567	370.41
678.013	358.41
678.458	348.21
678.904	351.01
679.349	336.71
679.794	344.41
680.24	348.61
680.685	344.71
681.131	345.31
681.576	346.31
682.021	351.11
682.466	347.01
682.912	339.91
683.357	338.71
683.802	373.31
684.247	400.31
684.692	451.51
685.137	479.91
685.583	527.71
686.028	541.21
686.473	499.11
686.918	438.91
687.363	407.51
687.807	381.61
688.252	353.71
688.697	348.31
689.142	337.81
689.587	314.51
690.032	318.71
690.477	333.91
690.921	345.81
691.366	383.91
691.811	398.71
692.255	426.01
692.7	448.61
693.145	493.71
693.589	687.81
694.034	1119.81
694.478	1510.91
694.923	1693.51
695.367	2185.31
695.812	1153.61
696.256	487.91
696.701	363.61
697.145	343.81
697.59	325.41
698.034	313.31
698.478	321.11
698.922	316.41
699.367	317.31
699.811	336.21
700.255	354.11
700.699	381.01
701.143	421.01
701.588	462.31
702.032	501.21
702.476	495.91
702.92	477.31
703.364	479.31
703.808	634.41
704.252	1030.71
704.696	1433.21
705.14	1616.21
705.584	2062.31
706.027	1028.71
706.471	507.01
706.915	388.41
707.359	347.21
707.803	310.31
708.246	305.71
708.69	295.31
709.134	315.51
709.577	304.21
710.021	301.41
710.465	302.01
710.908	295.31
711.352	295.61
711.795	307.01
712.239	354.71
712.682	386.01
713.126	400.11
713.569	461.71
714.012	357.21
714.456	317.11
714.899	288.11
715.342	270.11
715.786	261.41
716.229	260.61
716.672	251.61
717.115	246.31
717.558	246.11
718.002	246.11
718.445	259.91
718.888	287.71
719.331	290.41
719.774	306.41
720.217	305.11
720.66	275.41
721.103	257.61
721.546	252.71
721.989	242.71
722.432	221.41
722.874	231.51
723.317	222.71
723.76	230.71
724.203	256.21
724.645	322.31
725.088	438.31
725.531	565.31
725.974	633.81
726.416	526.31
726.859	301.41
727.301	240.11
727.744	231.71
728.187	225.21
728.629	232.51
729.071	240.61
729.514	253.31
729.956	272.71
730.399	288.51
730.841	280.01
731.283	269.91
731.726	262.41
732.168	253.61
732.61	262.71
733.053	279.51
733.495	311.71
733.937	348.01
734.379	388.51
734.821	433.91
735.263	530.81
735.705	829.71
736.148	1579.41
736.59	2518.71
737.032	2957.71
737.474	2394.51
737.916	790.11
738.357	416.21
738.799	322.51
739.241	289.01
739.683	281.11
740.125	284.51
740.567	298.01
741.008	310.31
741.45	310.21
741.892	316.51
742.334	336.11
742.775	352.81
743.217	332.71
743.658	264.71
744.1	251.31
744.542	256.21
744.983	307.21
745.425	334.11
745.866	329.11
746.307	281.51
746.749	280.21
747.19	321.51
747.632	450.01
748.073	880.31
748.514	1845.11
748.956	2790.61
749.397	3490.21
749.838	2913.91
750.279	2859.21
750.72	1432.41
751.162	536.41
751.603	319.11
752.044	243.21
752.485	217.61
752.926	213.01
753.367	198.01
753.808	191.41
754.249	189.41
754.69	186.11
755.131	174.01
755.572	176.71
756.013	176.91
756.453	184.01
756.894	182.21
757.335	187.81
757.776	187.41
758.216	190.91
758.657	193.91
759.098	196.11
759.538	226.01
759.979	267.61
760.42	370.01
760.86	703.31
761.301	1838.71
761.741	4371.21
762.182	6187.81
762.622	4334.81
763.063	1271.21
763.503	531.61
763.943	336.91
764.384	327.61
764.824	395.51
765.264	431.61
765.705	295.81
766.145	199.21
766.585	182.31
767.025	182.81
767.465	186.81
767.906	237.71
768.346	316.31
768.786	331.81
769.226	264.01
769.666	311.81
770.106	629.91
770.546	1565.31
770.986	2576.41
771.426	2278.51
771.866	773.01
772.306	321.41
772.745	202.71
773.185	173.31
773.625	168.91
774.065	163.41
774.505	189.91
774.944	310.21
775.384	688.01
775.824	1207.71
776.263	1163.61
776.703	497.21
777.142	225.51
777.582	152.71
778.021	139.11
778.461	144.31
778.9	137.21
779.34	132.81
779.779	112.71
780.219	103.61
780.658	104.31
781.097	105.01
781.537	109.91
781.976	105.11
782.415	103.41
782.855	107.61
783.294	102.81
783.733	108.11
784.172	102.71
784.611	107.71
785.05	110.91
785.489	113.01
785.928	121.11
786.367	128.31
786.806	113.61
787.245	129.51
787.684	132.81
788.123	145.91
788.562	137.51
789.001	124.41
789.44	120.51
789.879	118.41
790.317	116.61
790.756	126.01
791.195	123.51
791.634	147.51
792.072	205.81
792.511	361.11
792.95	1008.71
793.388	2093.71
793.827	1862.81
794.265	663.91
794.704	277.11
795.142	179.81
795.581	143.31
796.019	140.91
796.458	123.51
796.896	120.31
797.334	129.81
797.773	152.31
798.211	217.91
798.649	433.01
799.087	1011.21
799.526	1573.71
799.964	1971.31
800.402	1950.31
800.84	734.71
801.278	293.01
801.716	183.21
802.154	149.51
802.592	146.81
803.03	136.71
803.468	130.81
803.906	147.31
804.344	151.71
804.782	138.11
805.22	134.41
805.658	127.01
806.096	138.31
806.533	153.61
806.971	171.01
807.409	213.91
807.847	321.41
808.284	670.21
808.722	1856.11
809.16	3202.41
809.597	3088.11
810.035	5323.91
810.472	5540.11
810.91	2023.31
811.347	774.01
811.785	388.21
812.222	241.71
812.66	196.01
813.097	164.61
813.535	140.21
813.972	125.01
814.409	115.11
814.846	109.61
815.284	107.61
815.721	103.41
816.158	102.11
816.595	119.81
817.032	170.51
817.47	194.51
817.907	160.11
818.344	146.91
818.781	113.21
819.218	98.71
819.655	113.81
820.092	181.71
820.529	204.41
820.966	164.71
821.403	131.21
821.839	109.71
822.276	102.01
822.713	120.01
823.15	126.21
823.587	109.11
824.023	147.41
824.46	295.81
824.897	883.81
825.333	1303.21
825.77	558.41
826.206	222.01
826.643	137.31
827.08	97.21
827.516	82.41
827.953	73.81
828.389	80.71
828.825	69.31
829.262	66.41
829.698	57.61
830.135	59.31
830.571	63.31
831.007	60.61
831.443	65.71
831.88	61.01
832.316	64.71
832.752	65.71
833.188	65.91
833.624	61.41
834.06	57.21
834.497	74.81
834.933	64.31
835.369	76.11
835.805	70.01
836.241	76.81
836.677	77.61
837.112	88.21
837.548	107.41
837.984	130.51
838.42	195.01
838.856	499.21
839.292	1501.71
839.727	2229.41
840.163	1041.01
840.599	920.41
841.034	2001.11
841.47	2043.61
841.906	754.81
842.341	335.51
842.777	223.71
843.212	317.81
843.648	298.01
844.083	147.51
844.519	94.71
844.954	75.31
845.39	59.91
845.825	53.81
846.261	61.11
846.696	53.61
847.131	55.01
847.566	62.31
848.002	45.71
848.437	52.31
848.872	57.81
849.307	61.81
849.742	84.11
850.177	179.61
850.613	548.61
851.048	852.71
851.483	364.91
851.918	153.41
852.353	85.31
852.788	61.21
853.223	58.11
853.657	55.21
854.092	39.91
854.527	43.81
854.962	40.91
855.397	40.91
855.832	47.01
856.266	42.31
856.701	40.21
857.136	43.81
857.57	42.91
858.005	43.31
858.44	54.31
858.874	48.71
859.309	54.21
859.743	40.21
860.178	37.41
860.612	37.01
861.047	44.61
861.481	70.51
861.915	67.01
862.35	43.31
862.784	36.81
863.218	37.41
863.653	33.41
864.087	48.11
864.521	55.11
864.955	71.91
865.39	158.61
865.824	169.61
866.258	108.51
866.692	155.81
867.126	166.31
867.56	97.21
867.994	55.21
868.428	35.01
868.862	47.31
869.296	54.51
869.73	51.41
870.164	44.61
870.598	46.81
871.031	34.21
871.465	32.61
871.899	31.61
872.333	24.91
872.766	26.91
873.2	22.61
873.634	32.81
874.067	22.91
874.501	27.21
874.935	35.31
875.368	31.31
875.802	23.91
876.235	25.21
876.669	24.91
877.102	24.31
877.535	24.21
877.969	21.91
878.402	21.31
878.836	13.41
879.269	25.51
879.702	28.61
880.135	21.81
880.569	19.11
881.002	26.91
881.435	19.31
881.868	11.21
882.301	16.41
882.734	14.91
883.167	22.61
883.601	15.41
884.034	15.31
884.467	12.31
884.899	23.61
885.332	16.31
885.765	8.81
886.198	16.81
886.631	13.81
887.064	20.51
887.497	20.01
887.929	22.71
888.362	13.81
888.795	10.01
889.228	19.41
889.66	21.81
890.093	19.11
890.526	22.91
890.958	15.91
891.391	20.51
891.823	18.61
892.256	18.31
892.688	10.31
893.121	20.41
893.553	10.31
893.985	16.81
894.418	17.81
894.85	13.51
895.282	19.71
895.715	17.01
896.147	14.01
896.579	15.31
897.011	15.21
897.444	21.51
897.876	18.01
898.308	18.31
898.74	13.21
899.172	8.11
899.604	23.81
900.036	18.81
900.468	23.61
900.9	11.71
901.332	18.21
901.764	11.61
902.196	18.31
902.628	18.11
903.06	16.81
903.491	27.71
903.923	22.41
904.355	19.91
904.787	18.41
905.218	23.91
905.65	17.91
906.082	11.91
906.513	7.81
906.945	13.61
907.376	15.01
907.808	15.71
908.239	21.91
908.671	17.41
909.102	19.31
909.534	24.01
909.965	38.41
910.397	92.01
910.828	311.01
911.259	460.71
911.691	210.11
912.122	105.31
912.553	50.71
912.984	33.01
913.415	21.41
913.847	24.21
914.278	16.01
914.709	16.91
915.14	18.21
915.571	16.41
916.002	13.71
916.433	17.01
916.864	11.61
917.295	13.31
917.726	19.21
918.157	16.91
918.587	28.01
919.018	27.41
919.449	21.61
919.88	22.81
920.311	30.81
920.741	42.71
921.172	161.81
921.603	147.51
922.033	75.51
922.464	51.21
922.895	23.31
923.325	20.41
923.756	22.61
924.186	15.01
924.617	24.81
925.047	43.51
925.478	53.91
925.908	47.11
926.338	27.61
926.769	21.31
927.199	20.91
927.629	11.91
928.06	14.01
928.49	19.31
928.92	14.51
929.35	12.31
929.78	11.81
930.21	3.91
930.641	10.31
931.071	7.51
931.501	4.81
931.931	10.71
932.361	7.71
932.791	6.11
933.221	4.61
933.651	6.91
934.08	14.21
934.51	29.71
934.94	13.41
935.37	7.51
935.8	9.51
936.229	7.61
936.659	7.31
937.089	2.21
937.519	9.91
937.948	19.71
938.378	19.81
938.807	7.11
939.237	4.51
939.666	7.71
940.096	-8.39
940.525	-1.49
940.955	3.81
941.384	6.31
941.814	-10.09
942.243	-2.39
942.672	7.91
943.102	1.91
943.531	-2.39
943.96	7.21
944.39	5.51
944.819	3.31
945.248	1.81
945.677	-4.49
946.106	7.21
946.535	0.71
946.964	-0.09
947.393	2.71
947.822	4.01
948.251	-1.79
948.68	3.81
949.109	1.11
949.538	4.91
949.967	-1.29
950.396	-1.59
950.825	5.71
951.254	3.71
951.682	-4.89
952.111	3.11
952.54	6.81
952.969	-1.79
953.397	-4.59
953.826	-0.79
954.254	-8.19
954.683	2.01
955.112	-3.89
955.54	3.71
955.969	1.81
956.397	0.51
956.826	-4.99
957.254	3.91
957.682	4.61
958.111	1.81
958.539	-4.99
958.967	3.51
959.396	-1.79
959.824	-2.79
960.252	3.41
960.68	-3.39
961.109	0.01
961.537	-9.99
961.965	-1.49
962.393	-2.49
962.821	-3.89
963.249	2.01
963.677	6.01
964.105	8.31
964.533	44.51
964.961	34.21
965.389	12.21
965.817	10.41
966.245	-1.39
966.672	0.51
967.1	-4.89
967.528	-1.09
967.956	-0.99
968.383	2.41
968.811	-3.19
969.239	-0.99
969.666	-4.59
970.094	-0.19
970.522	-0.79
970.949	0.41
971.377	-7.89
971.804	-4.49
972.232	-9.09
972.659	5.61
973.087	-4.19
973.514	-5.69
973.941	-9.09
974.369	0.91
974.796	1.51
975.223	0.41
975.651	0.91
976.078	-1.69
976.505	-6.79
976.932	3.21
977.359	17.81
977.786	12.71
978.214	4.71
978.641	-4.29
979.068	1.01
979.495	-3.79
979.922	-3.59
980.349	-8.19
980.776	2.51
981.202	-0.79
981.629	5.31
982.056	4.31
982.483	-2.79
982.91	-0.69
983.337	-0.19
983.763	0.21
984.19	-6.09
984.617	-1.89
985.043	-9.49
985.47	1.51
985.897	-3.99
986.323	-9.09
986.75	7.21
987.176	-5.79
987.603	-0.69
988.029	1.21
988.456	-3.99
988.882	3.21
989.308	-6.09
989.735	-4.49
990.161	0.21
990.587	-9.19
991.014	-2.19
991.44	6.31
991.866	-0.69
992.292	-2.99
992.719	-4.09
993.145	7.11
993.571	-6.49
993.997	-4.79
994.423	-3.99
994.849	-5.99
995.275	1.61
995.701	-5.19
996.127	-1.89
996.553	0.71
996.979	-7.29
997.405	-1.39
997.83	-7.69
998.256	-2.99
998.682	-9.49
999.108	-10.89
999.534	1.61
999.959	0.81
1000.385	-10.39
1000.811	-6.79
1001.236	-12.19
1001.662	-3.79
1002.087	-7.79
1002.513	-1.69
1002.938	-5.09
1003.364	-6.39
1003.789	-1.39
1004.215	-2.09
1004.64	2.01
1005.066	1.21
1005.491	0.51
1005.916	-3.29
1006.342	-2.29
1006.767	-0.69
1007.192	5.31
1007.617	-2.29
1008.042	-3.99
1008.468	-10.19
1008.893	-5.29
1009.318	-5.79
1009.743	-2.59
1010.168	2.11
1010.593	-6.39
1011.018	-5.49
1011.443	0.41
1011.868	-0.59
1012.293	-5.49
1012.718	-8.09
1013.143	-0.69
1013.567	4.51
1013.992	-3.79
1014.417	-9.79
1014.842	1.91
1015.267	0.11
1015.691	-0.99
1016.116	8.41
1016.541	0.11
1016.965	1.01
1017.39	0.31
1017.814	-0.39
1018.239	-4.49
1018.663	-7.39
1019.088	-13.59
1019.512	-7.59
1019.937	-0.39
1020.361	-7.49
1020.785	-9.59
1021.21	-3.09
1021.634	-3.69
1022.058	-3.09
1022.483	2.91
1022.907	-8.49
1023.331	-4.89
1023.755	1.71
1024.179	-6.69
1024.604	-7.39
1025.028	-4.39
1025.452	-8.49
1025.876	-0.29
1026.3	1.51
1026.724	-9.99
1027.148	-2.19
1027.572	-5.89
1027.996	0.31
1028.42	-3.99
1028.843	-7.29
1029.267	-2.29
1029.691	-5.89
1030.115	-10.39
1030.539	-8.69
1030.962	-0.79
1031.386	-13.19
1031.81	5.71
1032.233	-3.69
1032.657	-3.79
1033.08	-4.19
1033.504	-2.29
1033.927	0.91
1034.351	-0.49
1034.774	-8.39
1035.198	-2.79
1035.621	-7.29
1036.045	-4.69
1036.468	-1.09
1036.891	-5.79
1037.315	-5.29
1037.738	-11.49
1038.161	3.41
1038.584	-3.39
1039.008	-6.49
1039.431	-4.49
1039.854	-1.29
1040.277	-5.29
1040.7	-10.39
1041.123	-1.49
1041.546	-7.59
1041.969	-2.89
1042.392	-9.89
1042.815	-3.29
1043.238	1.91
1043.661	-2.79
1044.084	-7.69
1044.507	-6.39
1044.93	-7.39
1045.352	-6.29
1045.775	-4.39
1046.198	-5.89
1046.621	-0.19
1047.043	-2.29
1047.466	0.31
1047.889	-5.89
1048.311	-4.19
1048.734	1.61
1049.156	0.81
1049.579	-4.19
1050.001	-0.49
1050.424	5.51
1050.846	-5.09
1051.269	-8.99
1051.691	-5.69
1052.113	-6.69
1052.536	-5.29
1052.958	-5.79
1053.38	-6.89
1053.802	-9.69
1054.225	-3.79
1054.647	-9.49
1055.069	-6.09
1055.491	3.01
1055.913	-0.09
1056.335	0.61
1056.757	-0.69
1057.179	-5.09
1057.601	-4.79
1058.023	-4.69
1058.445	-5.89
1058.867	-5.09
1059.289	-5.69
1059.711	-10.29
1060.133	-9.29
1060.555	-3.59
1060.976	-8.69
1061.398	-0.49
1061.82	-9.99
1062.241	-10.59
1062.663	-5.79
1063.085	0.41
1063.506	-1.19
1063.928	-2.59
1064.35	3.01
1064.771	-10.99
1065.193	-2.09
1065.614	-10.89
1066.035	-1.69
1066.457	-5.69
1066.878	-1.99
1067.3	-10.59
1067.721	-6.29
1068.142	-9.19
1068.564	-4.49
1068.985	-3.29
1069.406	-6.49
1069.827	-5.39
1070.248	-1.49
1070.67	-8.59
1071.091	-6.99
1071.512	-3.09
1071.933	-12.19
1072.354	-7.79
1072.775	-10.19
1073.196	-13.19
1073.617	-2.49
1074.038	-4.09
1074.459	-3.59
1074.88	-10.69
1075.3	1.41
1075.721	-3.79
1076.142	-1.49
1076.563	-2.49
1076.983	-12.39
1077.404	-4.39
1077.825	-9.19
1078.246	-3.59
1078.666	-9.99
1079.087	-1.29
1079.507	-3.79
1079.928	3.11
1080.348	1.01
1080.769	-8.49
1081.189	0.11
1081.61	-7.39
1082.03	-6.99
1082.451	-5.19
1082.871	-6.39
1083.291	-12.89
1083.711	-8.99
1084.132	-3.29
1084.552	-9.49
1084.972	0.11
1085.392	-14.39
1085.813	-10.89
1086.233	-11.19
1086.653	-3.39
1087.073	-8.09
1087.493	-7.79
1087.913	-8.99
1088.333	-3.79
1088.753	-1.99
1089.173	-3.49
1089.593	-5.19
1090.013	-1.09
1090.433	-2.89
1090.852	-2.29
1091.272	-5.79
1091.692	-0.49
1092.112	0.61
1092.531	-12.79
1092.951	-15.49
1093.371	-4.69
1093.79	2.71
1094.21	-4.29
1094.63	-4.69
1095.049	-3.99
1095.469	1.21
1095.888	-5.99
1096.308	3.51
1096.727	6.41
1097.146	-9.29
1097.566	-4.39
1097.985	-4.29
1098.405	0.21
1098.824	-5.19
1099.243	-6.29
1099.662	-10.49
1100.082	-4.49
1100.501	-1.09
1100.92	-9.79
1101.339	-1.99
1101.758	-8.49
