Data from 20171114-ORNL-Ar_H_NY_Subt18_08-04-35-365.txt Node
Date: Tue Nov 14 08:04:35 EST 2017
User: Ender
Spectrometer: HR+D1039
Trigger mode: 0
Integration Time (sec): 2.730000E-2
Scans to average: 10
Electric dark correction enabled: true
Nonlinearity correction enabled: false
Boxcar width: 0
XAxis mode: Wavelengths
Number of Pixels in Spectrum: 2048
>>>>>Begin Spectral Data<<<<<
187.836	-7.61
188.309	-7.61
188.782	-7.61
189.255	0.59
189.728	5.89
190.201	5.19
190.674	1.69
191.147	2.79
191.619	-8.21
192.092	-1.91
192.565	5.19
193.038	-0.41
193.511	5.49
193.984	3.89
194.456	0.99
194.929	-1.61
195.402	-7.41
195.874	-4.61
196.347	0.89
196.82	-7.21
197.292	3.59
197.765	-1.71
198.237	-5.41
198.71	3.79
199.182	-1.21
199.655	4.49
200.127	5.49
200.6	-1.21
201.072	-3.41
201.544	-3.41
202.017	-2.51
202.489	4.69
202.961	-0.91
203.433	-1.11
203.906	-7.31
204.378	-5.11
204.85	-7.11
205.322	-7.81
205.794	-2.11
206.266	2.19
206.739	-5.31
207.211	-0.41
207.683	-6.91
208.155	-7.21
208.627	-10.41
209.099	-2.71
209.57	-8.61
210.042	-4.41
210.514	-3.51
210.986	-4.91
211.458	-3.91
211.93	-1.41
212.402	5.89
212.873	-8.61
213.345	-10.21
213.817	-9.01
214.288	-7.01
214.76	-10.81
215.232	-8.11
215.703	-3.81
216.175	-4.41
216.646	-4.91
217.118	1.99
217.589	0.79
218.061	-4.61
218.532	-4.51
219.004	-4.01
219.475	-0.21
219.946	-1.21
220.418	-7.01
220.889	2.89
221.36	4.39
221.832	-3.91
222.303	-5.31
222.774	2.89
223.245	-9.61
223.717	-2.41
224.188	0.19
224.659	-6.11
225.13	-2.61
225.601	-3.11
226.072	4.29
226.543	-1.51
227.014	-2.41
227.485	-0.31
227.956	-4.21
228.427	-2.01
228.898	-1.21
229.369	5.19
229.839	-4.81
230.31	-4.21
230.781	0.39
231.252	0.49
231.722	-5.01
232.193	-1.61
232.664	-3.01
233.135	1.59
233.605	0.49
234.076	0.09
234.546	-0.41
235.017	7.99
235.487	7.89
235.958	0.59
236.428	3.29
236.899	2.69
237.369	5.99
237.84	-0.61
238.31	7.29
238.78	2.39
239.251	1.99
239.721	3.19
240.191	-4.21
240.662	0.49
241.132	5.79
241.602	3.29
242.072	-1.01
242.542	5.79
243.013	-2.81
243.483	8.29
243.953	0.79
244.423	0.99
244.893	-4.81
245.363	3.29
245.833	0.19
246.303	1.79
246.773	7.29
247.243	8.39
247.712	-0.01
248.182	7.89
248.652	6.19
249.122	2.79
249.592	14.99
250.061	22.99
250.531	33.39
251.001	17.99
251.471	27.69
251.94	20.99
252.41	8.99
252.879	2.79
253.349	10.79
253.818	8.99
254.288	7.59
254.757	5.19
255.227	6.69
255.696	6.29
256.166	3.79
256.635	13.49
257.105	9.89
257.574	8.49
258.043	18.29
258.513	17.59
258.982	19.09
259.451	8.79
259.92	18.89
260.389	13.29
260.859	19.29
261.328	13.99
261.797	15.99
262.266	7.29
262.735	15.59
263.204	8.29
263.673	2.29
264.142	12.89
264.611	4.89
265.08	4.79
265.549	0.19
266.018	6.39
266.487	0.59
266.955	-2.91
267.424	4.09
267.893	12.69
268.362	10.09
268.83	8.19
269.299	11.29
269.768	6.69
270.236	6.79
270.705	2.79
271.174	11.29
271.642	14.49
272.111	9.99
272.579	14.19
273.048	27.39
273.516	31.89
273.985	28.49
274.453	19.29
274.922	24.79
275.39	12.49
275.858	4.09
276.327	16.09
276.795	18.69
277.263	9.19
277.731	36.09
278.2	57.19
278.668	60.49
279.136	51.29
279.604	21.89
280.072	17.39
280.54	15.19
281.008	18.09
281.477	16.89
281.945	11.29
282.413	14.09
282.881	11.69
283.348	15.49
283.816	18.99
284.284	19.19
284.752	22.09
285.22	10.99
285.688	17.19
286.156	21.29
286.623	44.59
287.091	48.89
287.559	29.79
288.026	18.59
288.494	17.99
288.962	5.29
289.429	8.69
289.897	24.29
290.364	14.99
290.832	17.29
291.3	18.49
291.767	13.59
292.234	25.69
292.702	20.19
293.169	20.69
293.637	26.09
294.104	18.29
294.571	7.89
295.039	17.59
295.506	10.69
295.973	21.69
296.44	17.89
296.908	12.99
297.375	15.69
297.842	23.09
298.309	19.49
298.776	18.79
299.243	23.29
299.71	18.99
300.177	19.49
300.644	24.89
301.111	25.39
301.578	24.29
302.045	18.99
302.512	22.19
302.979	21.59
303.446	16.99
303.913	21.39
304.379	18.69
304.846	27.49
305.313	26.59
305.78	25.89
306.246	24.89
306.713	26.49
307.18	25.09
307.646	26.69
308.113	32.39
308.579	21.09
309.046	30.79
309.512	25.89
309.979	24.29
310.445	29.79
310.912	32.19
311.378	28.49
311.845	29.39
312.311	35.79
312.777	30.59
313.244	33.19
313.71	39.69
314.176	41.39
314.642	38.79
315.109	36.29
315.575	38.69
316.041	39.49
316.507	36.09
316.973	39.39
317.439	32.99
317.905	33.39
318.371	36.79
318.837	39.29
319.303	36.59
319.769	35.99
320.235	39.79
320.701	33.89
321.167	45.59
321.633	33.79
322.099	44.79
322.564	45.39
323.03	33.49
323.496	37.39
323.962	46.29
324.427	38.69
324.893	46.99
325.359	38.29
325.824	41.59
326.29	37.99
326.755	40.59
327.221	41.89
327.686	47.89
328.152	46.69
328.617	41.99
329.083	47.69
329.548	55.89
330.014	51.89
330.479	35.89
330.944	50.49
331.41	43.69
331.875	48.29
332.34	40.79
332.805	41.89
333.271	48.49
333.736	47.29
334.201	55.79
334.666	61.29
335.131	54.79
335.596	61.59
336.061	58.29
336.526	44.79
336.991	47.19
337.456	58.69
337.921	45.69
338.386	49.69
338.851	50.19
339.316	46.19
339.781	47.49
340.246	51.19
340.711	49.29
341.175	56.19
341.64	42.49
342.105	45.99
342.569	53.39
343.034	62.29
343.499	58.89
343.963	59.69
344.428	59.09
344.893	61.59
345.357	62.79
345.822	65.29
346.286	73.89
346.751	73.09
347.215	69.89
347.679	77.39
348.144	103.69
348.608	88.39
349.073	70.29
349.537	78.39
350.001	85.09
350.465	85.99
350.93	74.09
351.394	79.59
351.858	71.69
352.322	93.39
352.786	87.29
353.25	105.39
353.715	102.29
354.179	98.39
354.643	124.59
355.107	124.59
355.571	110.69
356.035	100.69
356.498	117.79
356.962	123.19
357.426	133.79
357.89	115.89
358.354	87.79
358.818	81.09
359.281	82.99
359.745	72.59
360.209	77.69
360.673	76.09
361.136	86.99
361.6	80.09
362.064	86.99
362.527	84.99
362.991	83.99
363.454	76.29
363.918	78.29
364.381	81.09
364.845	82.39
365.308	88.69
365.772	82.39
366.235	78.39
366.698	74.09
367.162	86.69
367.625	82.59
368.088	87.59
368.552	93.59
369.015	91.59
369.478	94.69
369.941	104.49
370.404	96.19
370.867	106.19
371.331	107.89
371.794	114.99
372.257	109.79
372.72	114.49
373.183	103.79
373.646	103.29
374.109	98.39
374.572	107.29
375.035	105.39
375.497	113.69
375.96	106.09
376.423	105.09
376.886	107.29
377.349	107.69
377.811	105.09
378.274	103.19
378.737	102.49
379.199	116.19
379.662	106.79
380.125	116.19
380.587	115.79
381.05	116.89
381.512	120.59
381.975	129.19
382.437	123.99
382.9	123.49
383.362	128.09
383.825	139.59
384.287	140.39
384.75	135.59
385.212	130.19
385.674	135.39
386.136	134.39
386.599	116.29
387.061	126.29
387.523	123.99
387.985	131.09
388.447	140.39
388.91	144.49
389.372	150.69
389.834	152.39
390.296	135.19
390.758	145.29
391.22	161.29
391.682	196.09
392.144	272.19
392.606	223.69
393.068	159.19
393.529	167.29
393.991	146.19
394.453	149.29
394.915	152.79
395.377	185.99
395.838	196.69
396.3	145.49
396.762	134.79
397.224	131.79
397.685	117.49
398.147	127.29
398.608	125.39
399.07	120.19
399.531	134.89
399.993	139.69
400.454	149.29
400.916	141.99
401.377	135.89
401.839	141.69
402.3	143.69
402.762	156.49
403.223	176.59
403.684	168.99
404.145	159.19
404.607	160.19
405.068	156.39
405.529	162.59
405.99	180.09
406.451	171.59
406.913	164.59
407.374	160.29
407.835	154.09
408.296	163.89
408.757	167.29
409.218	179.99
409.679	168.69
410.14	169.09
410.601	174.69
411.062	173.89
411.522	183.49
411.983	180.59
412.444	172.59
412.905	173.89
413.366	172.79
413.826	191.29
414.287	210.99
414.748	254.19
415.208	238.99
415.669	208.59
416.13	203.49
416.59	187.79
417.051	210.59
417.511	208.89
417.972	226.59
418.432	239.89
418.893	277.19
419.353	249.99
419.814	192.79
420.274	176.49
420.734	172.09
421.195	193.49
421.655	190.89
422.115	179.99
422.576	187.19
423.036	185.39
423.496	198.09
423.956	210.99
424.416	225.99
424.876	253.89
425.336	251.69
425.797	251.69
426.257	239.89
426.717	227.59
427.177	219.09
427.637	210.69
428.097	223.99
428.556	238.29
429.016	266.39
429.476	249.69
429.936	253.19
430.396	260.59
430.856	275.79
431.315	299.09
431.775	330.99
432.235	362.09
432.694	332.59
433.154	345.49
433.614	366.49
434.073	323.09
434.533	269.29
434.993	255.59
435.452	252.49
435.912	272.49
436.371	276.99
436.83	264.29
437.29	258.09
437.749	235.69
438.209	237.19
438.668	255.39
439.127	270.69
439.587	250.89
440.046	236.89
440.505	247.49
440.964	265.49
441.424	300.49
441.883	288.19
442.342	244.59
442.801	210.49
443.26	214.49
443.719	216.19
444.178	206.19
444.637	204.39
445.096	209.99
445.555	217.59
446.014	207.09
446.473	215.89
446.932	220.89
447.391	212.29
447.849	211.89
448.308	204.39
448.767	212.39
449.226	230.19
449.685	224.89
450.143	243.19
450.602	226.69
451.061	211.69
451.519	224.29
451.978	217.09
452.436	221.89
452.895	229.39
453.353	237.89
453.812	229.29
454.27	227.19
454.729	227.29
455.187	224.59
455.646	238.19
456.104	238.69
456.562	242.59
457.021	251.39
457.479	239.19
457.937	263.79
458.395	246.09
458.854	234.99
459.312	247.99
459.77	254.99
460.228	240.69
460.686	230.79
461.144	235.79
461.602	230.99
462.06	229.99
462.518	241.89
462.976	238.99
463.434	240.69
463.892	253.19
464.35	269.19
464.808	271.79
465.266	250.59
465.724	252.29
466.181	256.69
466.639	258.59
467.097	276.09
467.555	280.29
468.012	281.49
468.47	295.99
468.928	311.69
469.385	323.29
469.843	326.19
470.3	332.79
470.758	340.99
471.215	356.59
471.673	378.79
472.13	386.09
472.588	391.99
473.045	350.99
473.503	356.29
473.96	368.49
474.417	382.29
474.875	412.69
475.332	450.79
475.789	440.29
476.246	449.09
476.704	462.39
477.161	484.89
477.618	491.99
478.075	529.29
478.532	578.49
478.989	651.79
479.446	748.59
479.903	728.49
480.36	760.19
480.817	811.49
481.274	915.79
481.731	1014.49
482.188	1087.79
482.645	1235.09
483.102	1329.19
483.558	1446.79
484.015	1500.59
484.472	1480.99
484.929	1435.59
485.385	1382.19
485.842	1352.49
486.299	1284.59
486.755	1220.79
487.212	1037.99
487.668	883.29
488.125	804.39
488.582	739.19
489.038	714.89
489.494	673.59
489.951	651.79
490.407	634.59
490.864	614.79
491.32	604.39
491.776	608.19
492.233	613.89
492.689	580.29
493.145	576.99
493.602	571.39
494.058	579.69
494.514	578.69
494.97	597.89
495.426	611.79
495.882	594.69
496.338	578.89
496.794	586.89
497.251	585.59
497.707	613.29
498.163	605.59
498.618	612.69
499.074	614.69
499.53	636.49
499.986	636.79
500.442	619.99
500.898	593.79
501.354	588.69
501.809	604.09
502.265	603.69
502.721	627.29
503.177	636.39
503.632	632.79
504.088	631.19
504.543	667.49
504.999	675.09
505.455	626.99
505.91	593.89
506.366	601.49
506.821	598.09
507.277	587.19
507.732	582.59
508.187	585.59
508.643	592.69
509.098	595.39
509.553	623.19
510.009	637.49
510.464	635.69
510.919	654.79
511.375	654.89
511.83	663.39
512.285	688.69
512.74	710.19
513.195	733.39
513.65	724.39
514.105	723.49
514.56	723.29
515.015	750.59
515.47	768.69
515.925	748.59
516.38	747.59
516.835	761.09
517.29	739.99
517.745	734.59
518.2	714.59
518.655	711.89
519.109	703.89
519.564	706.89
520.019	695.39
520.474	680.89
520.928	690.39
521.383	685.29
521.838	669.09
522.292	675.29
522.747	665.99
523.201	660.29
523.656	653.59
524.11	648.89
524.565	661.59
525.019	655.29
525.474	664.69
525.928	665.29
526.382	652.29
526.837	653.59
527.291	653.19
527.745	660.29
528.2	649.09
528.654	641.59
529.108	639.29
529.562	649.89
530.016	646.89
530.47	643.39
530.925	656.79
531.379	655.99
531.833	666.49
532.287	655.29
532.741	659.89
533.195	659.39
533.649	668.79
534.103	676.59
534.556	668.99
535.01	668.49
535.464	662.59
535.918	679.79
536.372	678.19
536.826	675.09
537.279	659.49
537.733	668.49
538.187	670.89
538.64	669.79
539.094	671.09
539.548	683.39
540.001	678.19
540.455	677.69
540.908	674.29
541.362	679.69
541.815	682.19
542.269	702.29
542.722	698.79
543.175	719.99
543.629	723.19
544.082	739.99
544.536	731.19
544.989	725.29
545.442	741.29
545.895	728.59
546.349	728.69
546.802	736.89
547.255	744.39
547.708	745.89
548.161	760.09
548.614	762.09
549.067	772.99
549.52	752.19
549.973	743.39
550.426	749.29
550.879	732.49
551.332	739.59
551.785	742.99
552.238	738.09
552.691	751.99
553.144	767.89
553.596	778.59
554.049	796.49
554.502	824.99
554.955	842.79
555.407	837.69
555.86	833.59
556.313	824.49
556.765	812.79
557.218	814.99
557.67	812.49
558.123	812.39
558.576	810.19
559.028	816.49
559.48	811.39
559.933	807.59
560.385	773.89
560.838	752.59
561.29	731.89
561.742	711.79
562.195	706.29
562.647	703.39
563.099	712.19
563.551	712.09
564.004	725.09
564.456	716.09
564.908	700.99
565.36	678.49
565.812	673.49
566.264	675.49
566.716	673.39
567.168	649.29
567.62	659.89
568.072	641.39
568.524	631.49
568.976	635.59
569.428	620.59
569.88	602.89
570.332	620.09
570.784	625.59
571.235	629.89
571.687	634.29
572.139	636.59
572.59	649.59
573.042	653.69
573.494	649.39
573.945	643.99
574.397	622.19
574.849	620.59
575.3	634.59
575.752	613.19
576.203	612.59
576.655	623.49
577.106	616.19
577.557	617.19
578.009	611.09
578.46	599.19
578.912	599.39
579.363	603.09
579.814	610.19
580.265	597.39
580.717	606.59
581.168	615.49
581.619	623.69
582.07	614.59
582.521	621.79
582.972	609.99
583.423	613.29
583.875	612.49
584.326	629.79
584.777	661.99
585.227	743.39
585.678	813.59
586.129	893.49
586.58	962.39
587.031	1030.49
587.482	1177.69
587.933	1326.39
588.384	1157.99
588.834	866.49
589.285	724.69
589.736	703.29
590.186	701.49
590.637	686.89
591.088	668.59
591.538	661.79
591.989	656.89
592.439	656.39
592.89	646.09
593.34	636.09
593.791	637.29
594.241	626.69
594.692	633.49
595.142	626.09
595.593	623.89
596.043	637.39
596.493	642.39
596.943	635.79
597.394	642.39
597.844	635.59
598.294	654.09
598.744	673.49
599.195	699.49
599.645	722.89
600.095	751.69
600.545	816.39
600.995	869.79
601.445	916.29
601.895	972.89
602.345	1016.39
602.795	994.99
603.245	956.29
603.695	909.89
604.145	849.49
604.594	812.59
605.044	768.99
605.494	717.19
605.944	670.49
606.393	662.99
606.843	646.69
607.293	649.59
607.743	651.19
608.192	655.49
608.642	663.29
609.091	680.99
609.541	685.69
609.99	689.79
610.44	671.89
610.889	630.79
611.339	621.29
611.788	609.59
612.238	617.49
612.687	636.19
613.136	639.59
613.586	648.89
614.035	632.69
614.484	665.39
614.933	662.89
615.383	672.09
615.832	648.69
616.281	633.39
616.73	612.19
617.179	584.29
617.628	581.49
618.077	555.39
618.526	538.89
618.975	545.59
619.424	539.79
619.873	539.99
620.322	542.29
620.771	542.39
621.22	535.29
621.669	526.39
622.118	519.09
622.567	511.89
623.015	503.39
623.464	501.79
623.913	494.89
624.361	485.09
624.81	490.09
625.259	490.89
625.707	491.79
626.156	487.19
626.604	492.89
627.053	488.69
627.501	489.29
627.95	498.89
628.398	505.19
628.847	503.89
629.295	498.69
629.744	501.39
630.192	497.79
630.64	492.69
631.089	490.39
631.537	493.99
631.985	513.19
632.433	518.49
632.881	529.19
633.33	566.79
633.778	548.39
634.226	496.19
634.674	498.99
635.122	507.69
635.57	522.09
636.018	548.19
636.466	500.29
636.914	485.29
637.362	487.89
637.81	498.59
638.258	504.39
638.705	502.49
639.153	522.29
639.601	534.99
640.049	548.49
640.497	589.39
640.944	606.69
641.392	556.19
641.84	530.09
642.287	505.59
642.735	491.39
643.182	496.29
643.63	497.69
644.078	492.19
644.525	502.89
644.973	510.89
645.42	520.29
645.867	539.19
646.315	548.49
646.762	564.39
647.21	591.79
647.657	604.19
648.104	649.29
648.551	663.69
648.999	716.49
649.446	781.39
649.893	863.99
650.34	999.59
650.787	1186.59
651.234	1467.59
651.682	1889.19
652.129	2578.49
652.576	3706.49
653.023	5493.39
653.47	7550.39
653.917	9530.09
654.363	11170.99
654.81	12556.89
655.257	11950.69
655.704	7737.59
656.151	4581.49
656.598	2948.19
657.044	2091.39
657.491	1604.89
657.938	1283.19
658.385	1065.99
658.831	931.19
659.278	830.19
659.724	740.89
660.171	681.99
660.618	627.09
661.064	587.09
661.511	570.69
661.957	556.99
662.404	538.59
662.85	556.99
663.296	541.59
663.743	482.49
664.189	476.99
664.635	462.59
665.082	459.39
665.528	453.19
665.974	445.09
666.42	437.79
666.867	428.99
667.313	419.99
667.759	412.29
668.205	415.99
668.651	421.09
669.097	412.39
669.543	434.99
669.989	408.29
670.435	386.39
670.881	377.29
671.327	390.19
671.773	404.79
672.219	419.79
672.665	453.29
673.11	484.89
673.556	537.89
674.002	573.59
674.448	568.89
674.893	471.89
675.339	413.19
675.785	380.99
676.23	359.89
676.676	331.99
677.122	325.59
677.567	316.69
678.013	316.79
678.458	306.89
678.904	306.39
679.349	296.29
679.794	304.39
680.24	290.79
680.685	301.29
681.131	294.39
681.576	292.39
682.021	296.99
682.466	292.79
682.912	291.89
683.357	292.19
683.802	324.89
684.247	348.69
684.692	391.99
685.137	410.79
685.583	462.59
686.028	477.39
686.473	446.69
686.918	375.29
687.363	352.79
687.807	327.29
688.252	308.39
688.697	302.09
689.142	293.29
689.587	282.19
690.032	271.69
690.477	288.89
690.921	290.09
691.366	320.09
691.811	339.79
692.255	364.59
692.7	389.29
693.145	420.29
693.589	571.49
694.034	917.99
694.478	1311.99
694.923	1510.19
695.367	1982.79
695.812	1032.79
696.256	430.09
696.701	314.89
697.145	294.39
697.59	276.19
698.034	270.69
698.478	280.49
698.922	272.59
699.367	277.89
699.811	286.89
700.255	300.49
700.699	326.89
701.143	359.39
701.588	410.29
702.032	443.89
702.476	435.89
702.92	413.69
703.364	413.09
703.808	532.09
704.252	851.69
704.696	1212.59
705.14	1439.09
705.584	1857.19
706.027	916.59
706.471	447.99
706.915	334.59
707.359	294.59
707.803	271.39
708.246	258.19
708.69	261.59
709.134	260.49
709.577	258.39
710.021	268.49
710.465	260.49
710.908	255.29
711.352	247.19
711.795	263.09
712.239	294.99
712.682	323.19
713.126	355.59
713.569	396.19
714.012	313.79
714.456	272.49
714.899	246.89
715.342	226.39
715.786	222.19
716.229	219.89
716.672	210.29
717.115	211.99
717.558	211.49
718.002	202.49
718.445	220.69
718.888	242.89
719.331	244.89
719.774	265.89
720.217	266.69
720.66	238.39
721.103	227.39
721.546	212.79
721.989	210.09
722.432	196.09
722.874	199.69
723.317	192.59
723.76	199.09
724.203	211.19
724.645	264.59
725.088	364.09
725.531	474.59
725.974	558.59
726.416	462.59
726.859	255.09
727.301	205.29
727.744	203.99
728.187	189.69
728.629	205.99
729.071	202.19
729.514	216.29
729.956	221.59
730.399	237.59
730.841	244.59
731.283	232.39
731.726	219.59
732.168	228.49
732.61	223.79
733.053	243.49
733.495	266.59
733.937	304.79
734.379	337.89
734.821	358.99
735.263	448.59
735.705	682.39
736.148	1277.99
736.59	2159.29
737.032	2654.29
737.474	2163.79
737.916	686.99
738.357	356.39
738.799	278.29
739.241	250.29
739.683	236.99
740.125	249.69
740.567	253.89
741.008	269.79
741.45	271.09
741.892	266.59
742.334	288.79
742.775	301.09
743.217	294.59
743.658	225.99
744.1	212.29
744.542	214.19
744.983	262.09
745.425	300.39
745.866	291.99
746.307	239.89
746.749	233.39
747.19	265.09
747.632	372.09
748.073	701.99
748.514	1527.89
748.956	2409.39
749.397	3024.39
749.838	2517.49
750.279	2566.19
750.72	1287.69
751.162	466.19
751.603	262.69
752.044	207.79
752.485	176.79
752.926	171.79
753.367	174.59
753.808	152.39
754.249	162.29
754.69	152.59
755.131	156.69
755.572	154.79
756.013	151.99
756.453	150.89
756.894	157.39
757.335	161.19
757.776	166.49
758.216	161.49
758.657	159.49
759.098	163.89
759.538	190.99
759.979	224.89
760.42	306.89
760.86	564.79
761.301	1462.89
761.741	3686.19
762.182	5655.39
762.622	3975.49
763.063	1114.29
763.503	462.09
763.943	298.59
764.384	279.79
764.824	332.49
765.264	370.29
765.705	257.49
766.145	179.49
766.585	158.69
767.025	150.99
767.465	151.59
767.906	202.79
768.346	270.39
768.786	284.39
769.226	218.49
769.666	260.29
770.106	495.29
770.546	1274.89
770.986	2272.89
771.426	2063.99
771.866	684.19
772.306	274.39
772.745	176.89
773.185	142.39
773.625	142.49
774.065	133.49
774.505	154.79
774.944	247.29
775.384	530.29
775.824	1016.49
776.263	1010.49
776.703	422.99
777.142	183.49
777.582	125.19
778.021	119.09
778.461	123.89
778.9	113.29
779.34	105.39
779.779	103.79
780.219	95.49
780.658	98.19
781.097	92.49
781.537	96.59
781.976	92.79
782.415	90.79
782.855	90.99
783.294	84.99
783.733	86.89
784.172	86.29
784.611	83.59
785.05	89.59
785.489	97.19
785.928	96.19
786.367	100.59
786.806	100.09
787.245	109.29
787.684	117.39
788.123	125.49
788.562	112.79
789.001	105.19
789.44	102.39
789.879	100.19
790.317	98.39
790.756	110.49
791.195	108.69
791.634	124.79
792.072	171.39
792.511	291.99
792.95	802.19
793.388	1829.49
793.827	1696.49
794.265	574.49
794.704	235.99
795.142	152.19
795.581	132.39
796.019	114.79
796.458	107.89
796.896	100.29
797.334	103.19
797.773	129.59
798.211	181.99
798.649	348.59
799.087	855.09
799.526	1339.69
799.964	1701.79
800.402	1758.79
800.84	659.29
801.278	251.09
801.716	159.19
802.154	124.59
802.592	124.09
803.03	116.29
803.468	111.89
803.906	116.69
804.344	126.39
804.782	114.39
805.22	107.89
805.658	110.89
806.096	119.99
806.533	136.59
806.971	145.09
807.409	182.09
807.847	264.99
808.284	536.59
808.722	1542.09
809.16	2824.59
809.597	2595.59
810.035	4598.19
810.472	5144.49
810.91	1824.89
811.347	681.29
811.785	337.29
812.222	214.09
812.66	168.39
813.097	140.59
813.535	114.69
813.972	107.79
814.409	96.79
814.846	86.89
815.284	89.09
815.721	81.79
816.158	93.19
816.595	102.59
817.032	151.69
817.47	168.59
817.907	154.59
818.344	123.99
818.781	98.09
819.218	83.39
819.655	106.59
820.092	157.09
820.529	192.69
820.966	155.99
821.403	108.09
821.839	87.39
822.276	80.39
822.713	106.39
823.15	117.09
823.587	100.69
824.023	116.99
824.46	243.09
824.897	747.09
825.333	1178.99
825.77	509.69
826.206	193.69
826.643	115.69
827.08	82.49
827.516	68.09
827.953	62.39
828.389	71.49
828.825	57.59
829.262	57.99
829.698	51.69
830.135	53.69
830.571	47.79
831.007	55.59
831.443	54.09
831.88	56.39
832.316	53.39
832.752	53.09
833.188	53.89
833.624	46.79
834.06	53.79
834.497	55.69
834.933	62.39
835.369	61.09
835.805	56.39
836.241	62.69
836.677	65.49
837.112	74.49
837.548	81.89
837.984	103.99
838.42	167.39
838.856	403.99
839.292	1268.09
839.727	2007.69
840.163	929.59
840.599	761.89
841.034	1723.99
841.47	1879.79
841.906	679.79
842.341	286.79
842.777	192.49
843.212	264.99
843.648	266.29
844.083	128.79
844.519	85.69
844.954	62.69
845.39	51.99
845.825	53.59
846.261	43.99
846.696	43.99
847.131	46.09
847.566	47.59
848.002	41.99
848.437	43.59
848.872	57.19
849.307	48.59
849.742	62.39
850.177	145.99
850.613	455.59
851.048	762.99
851.483	333.99
851.918	130.09
852.353	76.79
852.788	48.29
853.223	44.69
853.657	43.49
854.092	38.09
854.527	32.19
854.962	35.19
855.397	38.29
855.832	48.19
856.266	35.39
856.701	36.69
857.136	29.29
857.57	35.99
858.005	41.69
858.44	51.79
858.874	42.39
859.309	41.49
859.743	31.09
860.178	39.79
860.612	32.09
861.047	42.19
861.481	55.89
861.915	55.09
862.35	41.79
862.784	25.79
863.218	36.09
863.653	26.89
864.087	38.29
864.521	49.19
864.955	60.09
865.39	125.29
865.824	148.69
866.258	94.69
866.692	139.29
867.126	158.09
867.56	92.19
867.994	45.49
868.428	30.89
868.862	38.69
869.296	47.89
869.73	52.49
870.164	46.49
870.598	39.99
871.031	30.99
871.465	28.69
871.899	31.99
872.333	19.49
872.766	22.19
873.2	18.59
873.634	28.99
874.067	21.39
874.501	25.19
874.935	29.59
875.368	28.59
875.802	24.59
876.235	21.19
876.669	21.59
877.102	14.19
877.535	24.39
877.969	19.89
878.402	19.59
878.836	14.19
879.269	20.69
879.702	16.69
880.135	15.19
880.569	20.19
881.002	27.09
881.435	25.19
881.868	19.49
882.301	17.29
882.734	12.99
883.167	20.39
883.601	19.09
884.034	17.19
884.467	16.99
884.899	12.89
885.332	16.69
885.765	13.39
886.198	12.29
886.631	15.19
887.064	15.29
887.497	14.89
887.929	18.09
888.362	14.09
888.795	12.29
889.228	15.99
889.66	22.29
890.093	11.49
890.526	18.99
890.958	13.99
891.391	17.09
891.823	18.89
892.256	12.99
892.688	3.39
893.121	14.39
893.553	12.29
893.985	24.59
894.418	14.19
894.85	7.89
895.282	13.99
895.715	14.69
896.147	14.39
896.579	11.69
897.011	9.59
897.444	13.99
897.876	11.59
898.308	11.19
898.74	13.89
899.172	5.59
899.604	23.09
900.036	19.79
900.468	14.09
900.9	12.79
901.332	18.99
901.764	9.29
902.196	11.99
902.628	9.69
903.06	15.19
903.491	21.79
903.923	22.89
904.355	19.59
904.787	22.39
905.218	20.09
905.65	15.89
906.082	10.29
906.513	11.39
906.945	12.09
907.376	13.39
907.808	12.59
908.239	20.19
908.671	17.49
909.102	16.09
909.534	21.19
909.965	37.09
910.397	73.19
910.828	272.09
911.259	413.29
911.691	184.79
912.122	88.99
912.553	42.59
912.984	31.59
913.415	19.49
913.847	21.39
914.278	17.09
914.709	11.49
915.14	17.69
915.571	18.49
916.002	11.29
916.433	15.29
916.864	13.79
917.295	10.69
917.726	22.49
918.157	13.79
918.587	22.59
919.018	21.99
919.449	18.09
919.88	23.89
920.311	25.19
920.741	41.29
921.172	140.69
921.603	131.79
922.033	63.29
922.464	39.89
922.895	13.89
923.325	20.99
923.756	12.59
924.186	12.19
924.617	23.19
925.047	33.29
925.478	41.49
925.908	37.09
926.338	23.99
926.769	12.29
927.199	13.99
927.629	11.69
928.06	14.99
928.49	12.39
928.92	14.79
929.35	5.59
929.78	12.39
930.21	7.89
930.641	6.59
931.071	8.79
931.501	6.29
931.931	9.19
932.361	10.79
932.791	3.29
933.221	4.69
933.651	-0.51
934.08	13.09
934.51	25.49
934.94	3.69
935.37	11.09
935.8	13.19
936.229	11.89
936.659	5.29
937.089	1.19
937.519	14.29
937.948	19.39
938.378	16.69
938.807	6.69
939.237	7.19
939.666	2.49
940.096	-2.51
940.525	-0.81
940.955	4.99
941.384	5.89
941.814	-4.51
942.243	0.69
942.672	3.39
943.102	-2.71
943.531	0.69
943.96	2.59
944.39	-0.11
944.819	-1.21
945.248	3.69
945.677	-0.61
946.106	1.39
946.535	6.69
946.964	-2.71
947.393	5.59
947.822	10.29
948.251	-4.81
948.68	0.49
949.109	8.29
949.538	3.69
949.967	0.99
950.396	-0.41
950.825	0.69
951.254	-7.71
951.682	-12.51
952.111	2.59
952.54	3.59
952.969	-3.21
953.397	1.49
953.826	-0.41
954.254	-2.41
954.683	-1.91
955.112	-5.31
955.54	0.99
955.969	-0.21
956.397	-2.11
956.826	-6.71
957.254	1.09
957.682	-4.31
958.111	5.99
958.539	-5.11
958.967	1.99
959.396	-6.21
959.824	-3.41
960.252	8.09
960.68	-7.71
961.109	-8.81
961.537	-3.01
961.965	1.99
962.393	-1.51
962.821	1.29
963.249	6.29
963.677	-0.01
964.105	1.09
964.533	35.29
964.961	39.19
965.389	18.79
965.817	7.99
966.245	4.09
966.672	5.49
967.1	-4.51
967.528	0.09
967.956	-6.71
968.383	-1.11
968.811	-6.21
969.239	0.99
969.666	-6.41
970.094	2.59
970.522	-0.31
970.949	-2.41
971.377	-3.81
971.804	-2.01
972.232	6.29
972.659	-1.41
973.087	-3.41
973.514	-0.41
973.941	-4.51
974.369	6.29
974.796	-1.11
975.223	-2.91
975.651	-3.71
976.078	0.49
976.505	-11.31
976.932	4.79
977.359	15.39
977.786	15.69
978.214	-4.21
978.641	-5.81
979.068	-3.01
979.495	2.89
979.922	1.39
980.349	-4.41
980.776	5.29
981.202	4.19
981.629	8.39
982.056	0.59
982.483	-4.41
982.91	5.39
983.337	-6.81
983.763	-0.51
984.19	-2.41
984.617	-3.71
985.043	-8.01
985.47	5.59
985.897	-6.71
986.323	-10.11
986.75	0.89
987.176	-5.81
987.603	-4.81
988.029	-0.91
988.456	3.89
988.882	2.59
989.308	-0.61
989.735	-3.61
990.161	-1.11
990.587	-5.11
991.014	0.59
991.44	7.69
991.866	0.79
992.292	-0.11
992.719	-5.31
993.145	5.79
993.571	-8.71
993.997	1.29
994.423	-1.61
994.849	-4.61
995.275	-4.81
995.701	-2.61
996.127	-1.31
996.553	2.09
996.979	-2.81
997.405	-6.21
997.83	-7.31
998.256	-4.31
998.682	-1.61
999.108	-10.11
999.534	-2.21
999.959	2.39
1000.385	-0.11
1000.811	-4.21
1001.236	-4.51
1001.662	-3.51
1002.087	-8.21
1002.513	-1.21
1002.938	5.09
1003.364	0.29
1003.789	2.79
1004.215	3.29
1004.64	0.79
1005.066	2.39
1005.491	6.49
1005.916	2.09
1006.342	0.19
1006.767	-6.01
1007.192	5.79
1007.617	-4.41
1008.042	-5.71
1008.468	-3.91
1008.893	-4.01
1009.318	-3.61
1009.743	-4.61
1010.168	5.79
1010.593	2.79
1011.018	-4.81
1011.443	-3.21
1011.868	-0.71
1012.293	0.89
1012.718	-3.61
1013.143	-5.11
1013.567	1.29
1013.992	0.69
1014.417	-15.11
1014.842	0.79
1015.267	-0.31
1015.691	-4.21
1016.116	5.99
1016.541	1.89
1016.965	2.79
1017.39	2.19
1017.814	-2.01
1018.239	-3.31
1018.663	-6.21
1019.088	-6.51
1019.512	-2.21
1019.937	-3.21
1020.361	-1.61
1020.785	-5.41
1021.21	-1.61
1021.634	-0.21
1022.058	3.29
1022.483	3.79
1022.907	-1.71
1023.331	-6.91
1023.755	-5.91
1024.179	-4.71
1024.604	-3.21
1025.028	-8.51
1025.452	-3.71
1025.876	0.89
1026.3	-1.41
1026.724	-13.31
1027.148	-1.21
1027.572	-10.51
1027.996	-0.21
1028.42	-3.31
1028.843	-2.41
1029.267	-3.01
1029.691	-0.11
1030.115	-5.11
1030.539	-6.71
1030.962	-5.51
1031.386	-11.61
1031.81	-0.51
1032.233	0.49
1032.657	-5.71
1033.08	-2.31
1033.504	-0.71
1033.927	-2.71
1034.351	3.09
1034.774	-5.51
1035.198	0.39
1035.621	-5.71
1036.045	-7.11
1036.468	3.69
1036.891	-4.71
1037.315	-7.31
1037.738	-4.61
1038.161	-3.81
1038.584	-5.11
1039.008	-8.61
1039.431	-8.61
1039.854	-2.71
1040.277	-9.21
1040.7	-12.31
1041.123	-9.11
1041.546	-7.41
1041.969	-1.41
1042.392	-5.11
1042.815	-1.51
1043.238	2.89
1043.661	1.89
1044.084	-7.61
1044.507	-3.31
1044.93	-11.41
1045.352	-7.81
1045.775	-3.91
1046.198	-5.61
1046.621	1.59
1047.043	4.09
1047.466	7.49
1047.889	0.59
1048.311	-1.91
1048.734	-1.81
1049.156	-3.01
1049.579	-1.01
1050.001	-0.91
1050.424	-1.21
1050.846	-4.51
1051.269	-4.11
1051.691	-4.81
1052.113	-4.51
1052.536	-1.91
1052.958	5.09
1053.38	-7.41
1053.802	-11.01
1054.225	-1.81
1054.647	-11.01
1055.069	-8.01
1055.491	3.99
1055.913	-2.81
1056.335	4.59
1056.757	2.49
1057.179	-3.01
1057.601	-4.41
1058.023	-5.41
1058.445	-3.21
1058.867	-1.41
1059.289	-6.91
1059.711	-3.31
1060.133	-1.11
1060.555	-4.21
1060.976	-6.41
1061.398	-6.61
1061.82	-7.81
1062.241	-2.11
1062.663	-6.91
1063.085	-8.81
1063.506	-8.01
1063.928	-8.11
1064.35	-3.01
1064.771	-17.11
1065.193	-6.51
1065.614	-7.71
1066.035	-6.61
1066.457	-2.21
1066.878	-2.41
1067.3	-11.01
1067.721	-6.51
1068.142	-2.71
1068.564	-4.41
1068.985	-6.71
1069.406	-1.51
1069.827	-0.41
1070.248	-5.61
1070.67	-6.81
1071.091	-5.91
1071.512	-3.41
1071.933	-3.31
1072.354	-8.91
1072.775	-8.21
1073.196	-5.61
1073.617	1.19
1074.038	-6.71
1074.459	-4.61
1074.88	-3.81
1075.3	1.29
1075.721	-4.31
1076.142	-3.21
1076.563	-4.01
1076.983	-18.41
1077.404	-7.81
1077.825	-12.31
1078.246	-6.41
1078.666	-7.71
1079.087	-7.31
1079.507	-9.51
1079.928	-0.31
1080.348	0.09
1080.769	-5.31
1081.189	1.49
1081.61	-4.61
1082.03	-8.11
1082.451	-3.11
1082.871	-4.91
1083.291	-7.51
1083.711	-9.81
1084.132	-1.71
1084.552	-0.81
1084.972	-3.21
1085.392	-12.41
1085.813	-9.41
1086.233	-6.91
1086.653	-7.01
1087.073	-1.61
1087.493	-5.61
1087.913	-2.91
1088.333	-5.51
1088.753	-2.71
1089.173	4.89
1089.593	-1.51
1090.013	-2.71
1090.433	1.99
1090.852	-4.21
1091.272	1.79
1091.692	0.19
1092.112	-8.61
1092.531	-8.51
1092.951	-12.71
1093.371	-0.01
1093.79	-1.21
1094.21	1.89
1094.63	-5.81
1095.049	0.79
1095.469	-2.11
1095.888	-1.41
1096.308	6.79
1096.727	6.99
1097.146	-6.81
1097.566	-0.81
1097.985	-2.01
1098.405	-0.81
1098.824	-8.81
1099.243	-2.71
1099.662	-13.21
1100.082	-4.21
1100.501	-9.41
1100.92	-5.11
1101.339	-0.81
1101.758	-8.11
