Data from 20171114-ORNL-Ar_H_NY_Subt18_08-06-27-831.txt Node
Date: Tue Nov 14 08:06:27 EST 2017
User: Ender
Spectrometer: HR+D1039
Trigger mode: 0
Integration Time (sec): 2.730000E-2
Scans to average: 10
Electric dark correction enabled: true
Nonlinearity correction enabled: false
Boxcar width: 0
XAxis mode: Wavelengths
Number of Pixels in Spectrum: 2048
>>>>>Begin Spectral Data<<<<<
187.836	1.1
188.309	1.1
188.782	1.1
189.255	-1.3
189.728	0.2
190.201	6.5
190.674	-0.5
191.147	2.7
191.619	-6.8
192.092	2
192.565	3.6
193.038	-3.4
193.511	-1.1
193.984	-4.4
194.456	-3.4
194.929	-1.9
195.402	1.6
195.874	5.1
196.347	-2.2
196.82	-3.9
197.292	12.5
197.765	1.5
198.237	-12
198.71	1.9
199.182	-8.3
199.655	-0.7
200.127	1.9
200.6	-3.4
201.072	-5.7
201.544	-10.6
202.017	-6.6
202.489	4.7
202.961	0.1
203.433	-9.3
203.906	-5.7
204.378	-12.1
204.85	-10.2
205.322	-4.5
205.794	-3.3
206.266	-5.8
206.739	-11.1
207.211	3
207.683	-11.9
208.155	-7.7
208.627	-5.5
209.099	-7.1
209.57	-9
210.042	-3.5
210.514	-4.8
210.986	-0.4
211.458	-6.5
211.93	-5.2
212.402	1.5
212.873	-5.4
213.345	-8.9
213.817	-6.4
214.288	-3.3
214.76	-13.6
215.232	-1.8
215.703	-1.9
216.175	-4.8
216.646	-4.9
217.118	-5.5
217.589	-7.2
218.061	2.2
218.532	-6.8
219.004	-3.3
219.475	-3.2
219.946	-4.9
220.418	-8.9
220.889	3.7
221.36	-0.2
221.832	-3.4
222.303	-7.3
222.774	1.6
223.245	-9.9
223.717	-8.4
224.188	-4.5
224.659	-9.4
225.13	-5.5
225.601	-0.2
226.072	1.2
226.543	0.9
227.014	0.4
227.485	1
227.956	-8.9
228.427	-0.2
228.898	-3
229.369	5
229.839	-3.7
230.31	-9.3
230.781	4.1
231.252	-3.2
231.722	0.4
232.193	-0.7
232.664	-1
233.135	2.9
233.605	4.6
234.076	-6.1
234.546	-5.3
235.017	1.6
235.487	-1.5
235.958	-2.1
236.428	1.8
236.899	6.4
237.369	1.3
237.84	-2.6
238.31	6.6
238.78	5
239.251	3.8
239.721	-2.1
240.191	-1.4
240.662	-3.3
241.132	1.3
241.602	0.3
242.072	0.3
242.542	7.9
243.013	2.6
243.483	8.6
243.953	2.6
244.423	-0.7
244.893	-4.8
245.363	2
245.833	3.9
246.303	-5.2
246.773	4.8
247.243	-3.7
247.712	4.1
248.182	8
248.652	9
249.122	-3.4
249.592	10.8
250.061	20.2
250.531	26.9
251.001	14.9
251.471	16.8
251.94	20.9
252.41	10.4
252.879	1.3
253.349	11.8
253.818	12.5
254.288	2.1
254.757	3.8
255.227	4.8
255.696	5.5
256.166	8.8
256.635	4.6
257.105	14.8
257.574	6
258.043	13.9
258.513	4.7
258.982	15.9
259.451	8.1
259.92	9.2
260.389	12.2
260.859	14.7
261.328	11.9
261.797	14.7
262.266	5.5
262.735	11.3
263.204	2.9
263.673	5.5
264.142	8.2
264.611	-3.1
265.08	-1.5
265.549	2.4
266.018	6.1
266.487	-3.5
266.955	-3.2
267.424	-0.4
267.893	5.3
268.362	4.2
268.83	1.1
269.299	9.9
269.768	2.1
270.236	8.9
270.705	1
271.174	9.1
271.642	11.7
272.111	10.3
272.579	14.8
273.048	26.9
273.516	25.2
273.985	24.3
274.453	19.1
274.922	18.4
275.39	11.1
275.858	2.3
276.327	10.6
276.795	14.1
277.263	9
277.731	25.7
278.2	45.9
278.668	57.9
279.136	44.6
279.604	21.8
280.072	16.3
280.54	12
281.008	15
281.477	11.6
281.945	13.8
282.413	13
282.881	15.4
283.348	6.8
283.816	8.4
284.284	8.6
284.752	13.3
285.22	18.3
285.688	15.8
286.156	16
286.623	47.3
287.091	44.2
287.559	25.4
288.026	13.5
288.494	13.7
288.962	6.2
289.429	8.8
289.897	16.4
290.364	9.8
290.832	17.5
291.3	16.9
291.767	20.8
292.234	14.5
292.702	18.4
293.169	16.8
293.637	20.9
294.104	21.4
294.571	11.9
295.039	11.3
295.506	18
295.973	15.4
296.44	14.5
296.908	18.2
297.375	13
297.842	22.4
298.309	15.5
298.776	13.4
299.243	24.3
299.71	10.9
300.177	22.1
300.644	21.4
301.111	19.8
301.578	25.2
302.045	22.7
302.512	23.1
302.979	28.5
303.446	25.2
303.913	15.1
304.379	18.7
304.846	29.6
305.313	23.6
305.78	19.8
306.246	23.2
306.713	28.6
307.18	27.7
307.646	24.4
308.113	31
308.579	22
309.046	28.6
309.512	29.1
309.979	14.9
310.445	26.9
310.912	30
311.378	29.6
311.845	28.8
312.311	28.6
312.777	33.3
313.244	29.8
313.71	42.5
314.176	32.5
314.642	38.4
315.109	30.8
315.575	37.7
316.041	34.5
316.507	28.9
316.973	40.2
317.439	34.8
317.905	37.5
318.371	40.7
318.837	35.8
319.303	35.1
319.769	33.6
320.235	29.7
320.701	30.2
321.167	36.3
321.633	39.3
322.099	47.5
322.564	43.1
323.03	37
323.496	36.5
323.962	35.3
324.427	34.2
324.893	39
325.359	35
325.824	32.8
326.29	31.9
326.755	36.7
327.221	43.3
327.686	38.7
328.152	44.1
328.617	44.1
329.083	47.8
329.548	52.4
330.014	42.7
330.479	37.3
330.944	45.6
331.41	47.4
331.875	46.1
332.34	40.7
332.805	43.8
333.271	46.1
333.736	40.1
334.201	50.9
334.666	51.7
335.131	56.3
335.596	51.9
336.061	54.4
336.526	43.6
336.991	47.4
337.456	53.9
337.921	51.1
338.386	49.3
338.851	45.9
339.316	46.9
339.781	51.6
340.246	54
340.711	50.9
341.175	50.9
341.64	41.6
342.105	51.8
342.569	59
343.034	61.1
343.499	52.3
343.963	55.8
344.428	62.9
344.893	60.3
345.357	62.1
345.822	65.8
346.286	70.3
346.751	73.9
347.215	65.3
347.679	80.8
348.144	99.2
348.608	80.3
349.073	67.5
349.537	72.3
350.001	76.4
350.465	89.4
350.93	80.2
351.394	78.9
351.858	75.9
352.322	87.1
352.786	89.4
353.25	102.8
353.715	116
354.179	100.6
354.643	124.2
355.107	124.9
355.571	113.7
356.035	105.4
356.498	120.6
356.962	124.9
357.426	134.1
357.89	120.6
358.354	98.7
358.818	80.9
359.281	76.9
359.745	82.9
360.209	76.2
360.673	79.3
361.136	75.6
361.6	83.7
362.064	87.4
362.527	91.2
362.991	97.2
363.454	85.3
363.918	77.6
364.381	74.2
364.845	81.3
365.308	88.3
365.772	84.1
366.235	80.9
366.698	75.2
367.162	92.7
367.625	93.3
368.088	89.7
368.552	87.8
369.015	96.6
369.478	101.2
369.941	102.5
370.404	97.1
370.867	108.1
371.331	113.2
371.794	112.1
372.257	108.3
372.72	120.6
373.183	114
373.646	104.4
374.109	103.3
374.572	108.1
375.035	110.4
375.497	112.7
375.96	104.7
376.423	104
376.886	118.7
377.349	122.5
377.811	108.1
378.274	108.6
378.737	111.2
379.199	114.4
379.662	113
380.125	127.2
380.587	119.1
381.05	123.2
381.512	128.7
381.975	142.1
382.437	129.7
382.9	128.8
383.362	130.4
383.825	148.4
384.287	149.5
384.75	144
385.212	146.8
385.674	142.4
386.136	134.1
386.599	132.6
387.061	132.6
387.523	135.8
387.985	136.4
388.447	149.2
388.91	142
389.372	162.6
389.834	153.8
390.296	148.6
390.758	158.3
391.22	178.4
391.682	216.3
392.144	299.2
392.606	228.9
393.068	174.9
393.529	170.9
393.991	158.5
394.453	152.9
394.915	166
395.377	203
395.838	215.7
396.3	162
396.762	154
397.224	134.5
397.685	139.6
398.147	134.1
398.608	134.5
399.07	128.6
399.531	143
399.993	145.5
400.454	156
400.916	151.7
401.377	146.5
401.839	152.7
402.3	154.7
402.762	168.6
403.223	184.6
403.684	172.8
404.145	158.7
404.607	167.3
405.068	165.6
405.529	175.7
405.99	191.9
406.451	186.5
406.913	178.7
407.374	161.9
407.835	165.2
408.296	170.9
408.757	177.4
409.218	198.5
409.679	184.6
410.14	175.6
410.601	184.4
411.062	185.1
411.522	191.2
411.983	185.6
412.444	182.4
412.905	184.1
413.366	192
413.826	196.1
414.287	220
414.748	269.4
415.208	253.5
415.669	219
416.13	210.8
416.59	214.5
417.051	213.3
417.511	225.9
417.972	244.2
418.432	240.2
418.893	291.8
419.353	258.7
419.814	200.9
420.274	187.3
420.734	181.9
421.195	201.7
421.655	201.9
422.115	201.5
422.576	197.9
423.036	206.2
423.496	215
423.956	219.1
424.416	244.5
424.876	277.3
425.336	266.3
425.797	276.5
426.257	265.6
426.717	250.7
427.177	244.7
427.637	230.6
428.097	239.9
428.556	244.8
429.016	274.2
429.476	264
429.936	280.9
430.396	288.3
430.856	303
431.315	320.1
431.775	355.9
432.235	401.3
432.694	370.1
433.154	372.8
433.614	405.2
434.073	342.6
434.533	284.5
434.993	281.2
435.452	288.7
435.912	300.7
436.371	300.8
436.83	291.9
437.29	279.7
437.749	251.5
438.209	249.6
438.668	281.9
439.127	298.7
439.587	270.8
440.046	257.2
440.505	268.5
440.964	286.5
441.424	337.1
441.883	314.8
442.342	271.6
442.801	229.3
443.26	227.2
443.719	229.7
444.178	231
444.637	214
445.096	224.5
445.555	230.2
446.014	230.8
446.473	230.8
446.932	241.5
447.391	234.3
447.849	231.9
448.308	225.9
448.767	228.6
449.226	243.7
449.685	244
450.143	260.3
450.602	251
451.061	232.4
451.519	242.1
451.978	241.1
452.436	236.3
452.895	240.9
453.353	253.4
453.812	247.9
454.27	251
454.729	243.1
455.187	249.9
455.646	249.1
456.104	258.4
456.562	270.5
457.021	273.8
457.479	268
457.937	272.2
458.395	270
458.854	258.2
459.312	259.7
459.77	284
460.228	262.7
460.686	253.2
461.144	257.9
461.602	251.4
462.06	259.8
462.518	267.7
462.976	266.2
463.434	272.7
463.892	272.4
464.35	282.7
464.808	296.9
465.266	275
465.724	282.5
466.181	287.6
466.639	277.1
467.097	298.1
467.555	308.1
468.012	309.2
468.47	318.3
468.928	333.9
469.385	347
469.843	355.7
470.3	360.6
470.758	378.9
471.215	404
471.673	424
472.13	416.6
472.588	431.9
473.045	383.1
473.503	394.6
473.96	408.7
474.417	411.8
474.875	440.4
475.332	484.9
475.789	470.8
476.246	472.9
476.704	500.7
477.161	523.7
477.618	541.1
478.075	574.4
478.532	636.2
478.989	715.3
479.446	837.4
479.903	791.5
480.36	833.8
480.817	899
481.274	985.3
481.731	1101.6
482.188	1199.7
482.645	1336.5
483.102	1446.8
483.558	1571.7
484.015	1645.3
484.472	1626.2
484.929	1564.5
485.385	1523
485.842	1474.6
486.299	1399.9
486.755	1324.7
487.212	1136.6
487.668	957.7
488.125	867
488.582	797.7
489.038	770.1
489.494	738.5
489.951	710.2
490.407	689.2
490.864	668.4
491.32	669.5
491.776	654.3
492.233	666.1
492.689	633.6
493.145	623.3
493.602	612.2
494.058	631.3
494.514	630.9
494.97	659.9
495.426	663.2
495.882	642.1
496.338	633.3
496.794	641.6
497.251	633.8
497.707	653.7
498.163	661.1
498.618	654.9
499.074	670.2
499.53	700.1
499.986	689.7
500.442	673.7
500.898	654.8
501.354	637.2
501.809	657.6
502.265	665.3
502.721	683.9
503.177	696.7
503.632	694.7
504.088	696.4
504.543	731
504.999	731.1
505.455	669.2
505.91	645
506.366	654.6
506.821	645
507.277	638.4
507.732	641.7
508.187	641.9
508.643	661
509.098	645.2
509.553	672.7
510.009	679.6
510.464	692
510.919	718.5
511.375	709.7
511.83	727.3
512.285	746
512.74	776
513.195	812.8
513.65	795.1
514.105	789.3
514.56	788.1
515.015	813.6
515.47	830.6
515.925	816.2
516.38	809.3
516.835	811.5
517.29	805.6
517.745	791.7
518.2	782.2
518.655	770.2
519.109	766.6
519.564	760.1
520.019	749.7
520.474	744.9
520.928	749.5
521.383	732.7
521.838	721.5
522.292	739.1
522.747	721.9
523.201	721.2
523.656	716.3
524.11	710.7
524.565	709.5
525.019	710.5
525.474	718.8
525.928	729.8
526.382	700.5
526.837	717.9
527.291	720.8
527.745	714.8
528.2	712
528.654	711.6
529.108	713.7
529.562	704
530.016	710.3
530.47	705
530.925	719.9
531.379	713.4
531.833	721.5
532.287	717.5
532.741	722.2
533.195	721
533.649	727
534.103	740.9
534.556	727.6
535.01	728.8
535.464	729.2
535.918	738.5
536.372	731.9
536.826	739.2
537.279	731.2
537.733	725.2
538.187	730.8
538.64	739.3
539.094	743.6
539.548	751.2
540.001	750.4
540.455	750.5
540.908	749.7
541.362	764.4
541.815	772.6
542.269	776.7
542.722	781.9
543.175	784.2
543.629	796.7
544.082	807
544.536	808.8
544.989	806.9
545.442	802.9
545.895	804.4
546.349	807.6
546.802	807.1
547.255	817.6
547.708	829
548.161	838.1
548.614	847
549.067	850.4
549.52	847.6
549.973	833.1
550.426	826.7
550.879	823.6
551.332	822.9
551.785	823.5
552.238	827.4
552.691	839.7
553.144	858.1
553.596	869.9
554.049	879.6
554.502	917.9
554.955	939.7
555.407	932.6
555.86	915.8
556.313	913.4
556.765	914.6
557.218	905.8
557.67	903.5
558.123	905.4
558.576	902.5
559.028	905.2
559.48	908.5
559.933	894.9
560.385	856.3
560.838	836.2
561.29	802.6
561.742	820.6
562.195	792.8
562.647	790.5
563.099	799.2
563.551	795.4
564.004	799.5
564.456	791.7
564.908	797.1
565.36	766.9
565.812	754.1
566.264	744.2
566.716	755.5
567.168	733.3
567.62	742.6
568.072	723.9
568.524	714.3
568.976	705.4
569.428	707.8
569.88	694.5
570.332	701.8
570.784	698.2
571.235	704
571.687	708.4
572.139	722
572.59	729.8
573.042	728.3
573.494	730.5
573.945	722.5
574.397	700
574.849	706
575.3	699
575.752	696.7
576.203	692.9
576.655	705.3
577.106	694.4
577.557	685.8
578.009	683.9
578.46	687.4
578.912	678.7
579.363	678.6
579.814	689.3
580.265	679.1
580.717	682.2
581.168	691.7
581.619	702.8
582.07	699.2
582.521	693.7
582.972	687.2
583.423	696.6
583.875	709.5
584.326	729.9
584.777	771.7
585.227	850.5
585.678	930.8
586.129	1013.5
586.58	1085.8
587.031	1171.7
587.482	1320.8
587.933	1507.3
588.384	1308.5
588.834	981.3
589.285	828.6
589.736	803.3
590.186	796.7
590.637	786.3
591.088	764.3
591.538	760.4
591.989	750.6
592.439	746.7
592.89	733.6
593.34	724
593.791	732.7
594.241	727
594.692	722
595.142	725.9
595.593	719.8
596.043	733.2
596.493	741.3
596.943	739.4
597.394	738.8
597.844	734
598.294	737.8
598.744	768.7
599.195	795.7
599.645	830.6
600.095	867.3
600.545	942.8
600.995	988.1
601.445	1050.1
601.895	1113.7
602.345	1158.6
602.795	1140.2
603.245	1099.6
603.695	1028.8
604.145	977
604.594	933.2
605.044	881.6
605.494	819.6
605.944	779.4
606.393	759.6
606.843	753.2
607.293	757.6
607.743	747.3
608.192	761.9
608.642	781.9
609.091	784.6
609.541	783.4
609.99	783.6
610.44	778.1
610.889	740.2
611.339	722.4
611.788	699.6
612.238	719.5
612.687	738.9
613.136	737.3
613.586	752.4
614.035	745.1
614.484	766.9
614.933	767.2
615.383	776.6
615.832	756.7
616.281	738.8
616.73	700.6
617.179	672.4
617.628	670.9
618.077	646.3
618.526	637.8
618.975	627.2
619.424	631
619.873	617.2
620.322	628.9
620.771	620.5
621.22	621.8
621.669	615.1
622.118	607.6
622.567	588.1
623.015	580.1
623.464	580.3
623.913	570
624.361	560.4
624.81	561.4
625.259	569.7
625.707	568
626.156	577
626.604	576.7
627.053	583.8
627.501	573.4
627.95	575.3
628.398	585.8
628.847	570.6
629.295	582.4
629.744	587.4
630.192	575.8
630.64	583.7
631.089	585.2
631.537	591.4
631.985	586.5
632.433	613.8
632.881	617.2
633.33	669.9
633.778	648
634.226	581.2
634.674	573
635.122	589.6
635.57	603.9
636.018	632.4
636.466	588.3
636.914	563.7
637.362	580.4
637.81	586.4
638.258	599
638.705	589.1
639.153	618.6
639.601	625.1
640.049	650.3
640.497	689
640.944	703.3
641.392	663.4
641.84	623.2
642.287	595.9
642.735	586.6
643.182	593.1
643.63	592.4
644.078	590.9
644.525	595
644.973	611.4
645.42	619.4
645.867	633.3
646.315	659.1
646.762	672.5
647.21	699.6
647.657	725.8
648.104	764
648.551	788.8
648.999	852.2
649.446	938.9
649.893	1027
650.34	1187.5
650.787	1430
651.234	1780.4
651.682	2298.7
652.129	3165.6
652.576	4549.2
653.023	6716.8
653.47	9227.1
653.917	11494.5
654.363	13294.5
654.81	14631.2
655.257	13941.5
655.704	9114.8
656.151	5401.5
656.598	3500.1
657.044	2478.5
657.491	1910.3
657.938	1523.4
658.385	1270.9
658.831	1090.9
659.278	985.6
659.724	872.4
660.171	805.7
660.618	735.9
661.064	706.2
661.511	682
661.957	671.9
662.404	653.8
662.85	662.2
663.296	645.1
663.743	566.3
664.189	547.4
664.635	538.7
665.082	535.6
665.528	543.3
665.974	524.9
666.42	513.1
666.867	516.8
667.313	497.7
667.759	489.1
668.205	489.6
668.651	489.9
669.097	484.4
669.543	506.9
669.989	481.4
670.435	457.7
670.881	454.8
671.327	454.5
671.773	470.4
672.219	496.7
672.665	552.8
673.11	590.6
673.556	642.2
674.002	682.1
674.448	658.1
674.893	550
675.339	485.3
675.785	440
676.23	423.6
676.676	398.3
677.122	392.3
677.567	379.9
678.013	369.9
678.458	367.2
678.904	365.5
679.349	350.9
679.794	366.1
680.24	355.5
680.685	354.2
681.131	354
681.576	363.1
682.021	350.9
682.466	350.9
682.912	355.8
683.357	360.8
683.802	386.9
684.247	415.5
684.692	459.6
685.137	498.1
685.583	541.3
686.028	570.6
686.473	529.6
686.918	449.6
687.363	421.3
687.807	393.7
688.252	367.6
688.697	359.7
689.142	345.3
689.587	339
690.032	328.3
690.477	355.2
690.921	358.5
691.366	388.1
691.811	405.8
692.255	442.1
692.7	458
693.145	511
693.589	707.2
694.034	1142.3
694.478	1549.4
694.923	1765
695.367	2281
695.812	1210.7
696.256	506.4
696.701	380.2
697.145	349.4
697.59	337.4
698.034	319.4
698.478	332.1
698.922	325.8
699.367	335.5
699.811	331.5
700.255	361.7
700.699	394.8
701.143	434
701.588	481
702.032	522.9
702.476	524.5
702.92	496.9
703.364	489.3
703.808	641.3
704.252	1050.5
704.696	1461.6
705.14	1684.7
705.584	2160.1
706.027	1072.6
706.471	527.1
706.915	407.4
707.359	365
707.803	326.4
708.246	317.9
708.69	311
709.134	310.5
709.577	317.5
710.021	318.8
710.465	314.8
710.908	299.2
711.352	302.5
711.795	313
712.239	356
712.682	386.6
713.126	416.5
713.569	477.9
714.012	378.6
714.456	326.8
714.899	303.6
715.342	281.5
715.786	270.5
716.229	266.9
716.672	268.9
717.115	256
717.558	253.7
718.002	254.5
718.445	263.7
718.888	289.3
719.331	299.7
719.774	305.8
720.217	312.2
720.66	290
721.103	272.8
721.546	256.8
721.989	252.1
722.432	237.4
722.874	247.3
723.317	232.2
723.76	237.7
724.203	258.8
724.645	330.7
725.088	447
725.531	574.8
725.974	639.4
726.416	548.8
726.859	306.9
727.301	253.3
727.744	247.8
728.187	236.2
728.629	247
729.071	250.2
729.514	269
729.956	278.4
730.399	283.7
730.841	288.9
731.283	277.6
731.726	254.8
732.168	259
732.61	273.6
733.053	290.1
733.495	324.1
733.937	360.9
734.379	400
734.821	440
735.263	547.7
735.705	840.1
736.148	1600.5
736.59	2573.3
737.032	3083.8
737.474	2510
737.916	824.3
738.357	427.9
738.799	327.3
739.241	303.1
739.683	283.6
740.125	296.3
740.567	300.3
741.008	314.9
741.45	315.8
741.892	324.6
742.334	355.4
742.775	362.2
743.217	352.9
743.658	272.1
744.1	258.9
744.542	259.8
744.983	315.4
745.425	343.6
745.866	346.6
746.307	289.1
746.749	284.8
747.19	329.5
747.632	459.2
748.073	890.2
748.514	1870.5
748.956	2863.2
749.397	3574.8
749.838	2983.1
750.279	2980.3
750.72	1501
751.162	552.2
751.603	320
752.044	257.4
752.485	218.6
752.926	214.4
753.367	200.9
753.808	195
754.249	203.1
754.69	188.4
755.131	180.8
755.572	191.7
756.013	183.8
756.453	180.7
756.894	193.1
757.335	189.9
757.776	201.3
758.216	195.6
758.657	204.3
759.098	198.1
759.538	229
759.979	271.1
760.42	381.7
760.86	702.9
761.301	1824.4
761.741	4430.4
762.182	6484.9
762.622	4556.1
763.063	1305.8
763.503	537.2
763.943	356.3
764.384	344.3
764.824	395.4
765.264	438
765.705	300
766.145	211.9
766.585	194.4
767.025	180.6
767.465	195.4
767.906	247.1
768.346	314.7
768.786	339.5
769.226	266.2
769.666	322.6
770.106	619.9
770.546	1566.2
770.986	2679.1
771.426	2386.2
771.866	791.7
772.306	328.4
772.745	211.5
773.185	171.7
773.625	173.3
774.065	167.1
774.505	197.8
774.944	310.6
775.384	680.8
775.824	1225.9
776.263	1195.7
776.703	508
777.142	219.6
777.582	165.4
778.021	139.8
778.461	145
778.9	139.5
779.34	134.7
779.779	122.4
780.219	115.3
780.658	111.6
781.097	118.2
781.537	120
781.976	110.7
782.415	109.2
782.855	101.1
783.294	105.4
783.733	102.9
784.172	106.1
784.611	110
785.05	114.3
785.489	116
785.928	116.1
786.367	123.4
786.806	118.6
787.245	129.9
787.684	133.9
788.123	148.2
788.562	134.9
789.001	129.1
789.44	125.3
789.879	121.1
790.317	113.4
790.756	129.2
791.195	126
791.634	150.8
792.072	204
792.511	365.8
792.95	1004.3
793.388	2135.8
793.827	1955.9
794.265	683.5
794.704	280.7
795.142	189.2
795.581	151.7
796.019	132.5
796.458	125.2
796.896	121.6
797.334	133.5
797.773	152.3
798.211	216.1
798.649	449.1
799.087	1027.3
799.526	1591.3
799.964	2011.6
800.402	2022.2
800.84	754.7
801.278	303.1
801.716	189.2
802.154	156
802.592	143.9
803.03	140.9
803.468	137.5
803.906	146.7
804.344	152.1
804.782	134.2
805.22	136.2
805.658	134.5
806.096	153.5
806.533	159.6
806.971	178.5
807.409	214.6
807.847	318.6
808.284	662.5
808.722	1881.4
809.16	3309.6
809.597	3128.5
810.035	5431.4
810.472	5794.9
810.91	2088.3
811.347	798.6
811.785	401.5
812.222	258.9
812.66	201.1
813.097	163.5
813.535	140.7
813.972	135.3
814.409	119.2
814.846	110.3
815.284	110.4
815.721	102.4
816.158	103.3
816.595	118.1
817.032	172.6
817.47	202.4
817.907	166.5
818.344	150.4
818.781	116.6
819.218	99.9
819.655	122.8
820.092	189
820.529	207.8
820.966	178.5
821.403	135.6
821.839	112
822.276	96.5
822.713	127.7
823.15	135.2
823.587	113.5
824.023	144.8
824.46	298.7
824.897	904.1
825.333	1369.6
825.77	577.5
826.206	230.6
826.643	131.8
827.08	102.4
827.516	88.1
827.953	77.6
828.389	81.9
828.825	71.4
829.262	69.9
829.698	66.2
830.135	57.6
830.571	63.9
831.007	64
831.443	64.1
831.88	62.1
832.316	64.6
832.752	67.2
833.188	67.9
833.624	68.8
834.06	71
834.497	66.3
834.933	67.3
835.369	74.8
835.805	64.5
836.241	79.1
836.677	79.2
837.112	89.4
837.548	102.1
837.984	132.3
838.42	200.3
838.856	484.6
839.292	1520.7
839.727	2312.3
840.163	1071.6
840.599	920.9
841.034	2024
841.47	2137.2
841.906	773.1
842.341	331.1
842.777	228.3
843.212	314.9
843.648	311.8
844.083	145.8
844.519	102.3
844.954	81
845.39	62
845.825	57
846.261	57.3
846.696	56.9
847.131	50.7
847.566	58.6
848.002	55.5
848.437	56.1
848.872	59.2
849.307	68.6
849.742	83.9
850.177	182.5
850.613	552.2
851.048	889.8
851.483	383.7
851.918	154.9
852.353	85.2
852.788	65
853.223	56.4
853.657	52.7
854.092	48.7
854.527	39
854.962	41
855.397	42.7
855.832	53.9
856.266	40
856.701	37.9
857.136	38.5
857.57	45.9
858.005	53.4
858.44	57.8
858.874	43.4
859.309	55.6
859.743	46.8
860.178	45.5
860.612	36.8
861.047	56.6
861.481	62.4
861.915	64.6
862.35	46.5
862.784	41
863.218	36.4
863.653	38.9
864.087	47.9
864.521	49.1
864.955	73.5
865.39	149.1
865.824	170
866.258	115.2
866.692	160.2
867.126	180.3
867.56	106
867.994	53.1
868.428	38.9
868.862	46.7
869.296	52
869.73	58.6
870.164	49.3
870.598	48.7
871.031	35.1
871.465	34.2
871.899	37.2
872.333	28.2
872.766	25.8
873.2	21.5
873.634	33.8
874.067	28.5
874.501	25.7
874.935	34.1
875.368	30.2
875.802	24.8
876.235	26.9
876.669	28.2
877.102	25.6
877.535	29.3
877.969	24.7
878.402	28.8
878.836	18.4
879.269	23.1
879.702	28.5
880.135	19.3
880.569	25.6
881.002	27
881.435	19.5
881.868	17.7
882.301	21.9
882.734	14
883.167	21.3
883.601	16.5
884.034	25.1
884.467	18.1
884.899	18.4
885.332	16.9
885.765	14.5
886.198	20.6
886.631	18.7
887.064	20.8
887.497	21.4
887.929	23.5
888.362	16.8
888.795	18.2
889.228	15.5
889.66	19.2
890.093	19.1
890.526	20.1
890.958	14.1
891.391	19.1
891.823	25.4
892.256	13.9
892.688	16.6
893.121	14.8
893.553	13.3
893.985	24.4
894.418	19.6
894.85	10.5
895.282	11
895.715	11.5
896.147	7.7
896.579	15.1
897.011	11.5
897.444	16
897.876	9.4
898.308	14
898.74	17.5
899.172	17.9
899.604	21.5
900.036	17.5
900.468	20
900.9	16.9
901.332	13.8
901.764	7.9
902.196	15.9
902.628	14
903.06	16.5
903.491	28.6
903.923	26
904.355	22.1
904.787	24.2
905.218	24.6
905.65	21.1
906.082	13.9
906.513	16.4
906.945	18
907.376	18.9
907.808	18.1
908.239	25.3
908.671	19.7
909.102	20.1
909.534	24.6
909.965	47.4
910.397	88.5
910.828	319
911.259	469.8
911.691	211.7
912.122	101.8
912.553	49.4
912.984	41
913.415	29.3
913.847	26.7
914.278	17.3
914.709	17.3
915.14	15.9
915.571	16.6
916.002	10.4
916.433	16
916.864	12.6
917.295	11.3
917.726	21.8
918.157	13.1
918.587	30.5
919.018	20
919.449	22.8
919.88	23.6
920.311	26.8
920.741	43.2
921.172	167.6
921.603	152.3
922.033	82.1
922.464	42.6
922.895	29
923.325	21.3
923.756	16.2
924.186	14.4
924.617	28.7
925.047	43
925.478	54.6
925.908	46
926.338	30
926.769	21.3
927.199	18.5
927.629	9.1
928.06	21.5
928.49	18.5
928.92	18.7
929.35	5
929.78	10.6
930.21	4.6
930.641	2.8
931.071	7.5
931.501	0.1
931.931	6.2
932.361	1.6
932.791	4.5
933.221	5.4
933.651	6
934.08	17.5
934.51	31.7
934.94	9.9
935.37	10.8
935.8	16.1
936.229	9.1
936.659	11.1
937.089	-3.5
937.519	15.7
937.948	23.9
938.378	13.4
938.807	5.3
939.237	9
939.666	12.7
940.096	-5.9
940.525	4.5
940.955	-0.5
941.384	1.9
941.814	-4
942.243	-0.8
942.672	1.9
943.102	-5
943.531	0.2
943.96	7
944.39	6.8
944.819	0.7
945.248	-0.1
945.677	-0.8
946.106	8.4
946.535	4.8
946.964	-4.7
947.393	3.5
947.822	6.4
948.251	-1.9
948.68	6.4
949.109	10.1
949.538	8.9
949.967	4
950.396	4.9
950.825	-2.7
951.254	7.2
951.682	-6.9
952.111	3.2
952.54	8.3
952.969	-7.6
953.397	-13.2
953.826	0
954.254	-7.4
954.683	0.3
955.112	-3.4
955.54	2.2
955.969	2.6
956.397	-0.6
956.826	-2
957.254	-0.3
957.682	3.7
958.111	4
958.539	4.5
958.967	0.8
959.396	-1.9
959.824	-2.8
960.252	4.2
960.68	0.3
961.109	-2.2
961.537	-5.9
961.965	-0.3
962.393	2.4
962.821	-1
963.249	-3.5
963.677	-1
964.105	1.9
964.533	45.5
964.961	41.2
965.389	20
965.817	11.8
966.245	-0.6
966.672	-3
967.1	-5.4
967.528	0.1
967.956	1.5
968.383	-1.4
968.811	-0.8
969.239	-2.8
969.666	-6
970.094	2.7
970.522	0.5
970.949	3.4
971.377	-2.2
971.804	0.9
972.232	-6.7
972.659	-4.9
973.087	-4.6
973.514	-3.9
973.941	-6.4
974.369	5.5
974.796	-1.7
975.223	0.6
975.651	1.1
976.078	1.1
976.505	-2.5
976.932	7
977.359	15.2
977.786	14.2
978.214	1.3
978.641	0.4
979.068	-3.5
979.495	-7.9
979.922	-3.9
980.349	-1.4
980.776	9
981.202	-8.1
981.629	5.8
982.056	-0.4
982.483	-0.1
982.91	6.1
983.337	-10.2
983.763	-0.5
984.19	-3.7
984.617	-11.4
985.043	-7.5
985.47	-5
985.897	-0.7
986.323	-6.3
986.75	-2.8
987.176	-5.4
987.603	0.2
988.029	2.4
988.456	-0.9
988.882	6.4
989.308	-5.9
989.735	0.4
990.161	2.3
990.587	-8
991.014	1.3
991.44	1.1
991.866	-2.9
992.292	-4.6
992.719	-2.9
993.145	2.1
993.571	-10.3
993.997	-4.5
994.423	-1.2
994.849	3.1
995.275	1
995.701	-0.2
996.127	-4.1
996.553	1.6
996.979	-3.2
997.405	4.2
997.83	-2.5
998.256	-6.3
998.682	-1.5
999.108	-10.1
999.534	4.4
999.959	-2.1
1000.385	-7.7
1000.811	6.4
1001.236	-10.8
1001.662	-2.1
1002.087	-9.7
1002.513	-1.1
1002.938	5.2
1003.364	-1.9
1003.789	-1.7
1004.215	3.6
1004.64	0.3
1005.066	4
1005.491	1
1005.916	-3.1
1006.342	-5.7
1006.767	-8.3
1007.192	7.1
1007.617	-3.8
1008.042	-6
1008.468	-7.1
1008.893	-9.1
1009.318	-0.3
1009.743	-2.5
1010.168	3.7
1010.593	1.8
1011.018	-6.7
1011.443	-2.6
1011.868	-2.3
1012.293	-3.5
1012.718	-14.8
1013.143	-2.1
1013.567	0.5
1013.992	-4.9
1014.417	-14.3
1014.842	0.2
1015.267	-9.1
1015.691	-1.3
1016.116	6.5
1016.541	-2
1016.965	5.7
1017.39	3.3
1017.814	-0.6
1018.239	-2.9
1018.663	-9.2
1019.088	-12.1
1019.512	3.3
1019.937	-3.4
1020.361	-3.3
1020.785	-7.6
1021.21	-3.9
1021.634	-2.7
1022.058	-1.7
1022.483	4.8
1022.907	-3.4
1023.331	-2.4
1023.755	3
1024.179	-1.4
1024.604	-5.6
1025.028	-9
1025.452	-7.9
1025.876	-3.8
1026.3	2.3
1026.724	-12.2
1027.148	-6.8
1027.572	-9.4
1027.996	-4.4
1028.42	-3.8
1028.843	-1.3
1029.267	-2.9
1029.691	-2.7
1030.115	-6.1
1030.539	-5.6
1030.962	-2.9
1031.386	-7
1031.81	-0.2
1032.233	0.8
1032.657	0.8
1033.08	4.7
1033.504	-6.3
1033.927	-3.4
1034.351	-1
1034.774	-5.3
1035.198	-4.2
1035.621	-9.6
1036.045	-9.9
1036.468	2.3
1036.891	-9.9
1037.315	-10.9
1037.738	-9.6
1038.161	-6.4
1038.584	-8.4
1039.008	-7.4
1039.431	-4.6
1039.854	-5
1040.277	-6.7
1040.7	-9.5
1041.123	-2
1041.546	-6.6
1041.969	-7.7
1042.392	-3.1
1042.815	-5.3
1043.238	3.6
1043.661	-2
1044.084	-6.6
1044.507	-3.4
1044.93	-10
1045.352	-2.8
1045.775	-7.2
1046.198	1.3
1046.621	-1
1047.043	-4.1
1047.466	0.9
1047.889	-7.5
1048.311	-4.9
1048.734	2.6
1049.156	-4.5
1049.579	1.3
1050.001	-3.5
1050.424	1.8
1050.846	0.7
1051.269	-4
1051.691	-4.9
1052.113	-8.6
1052.536	-3.4
1052.958	-1
1053.38	-7.5
1053.802	-14.8
1054.225	-1.5
1054.647	-10.7
1055.069	-5.9
1055.491	2.6
1055.913	-8.4
1056.335	-0.6
1056.757	-3.5
1057.179	-8
1057.601	-5.5
1058.023	-5.6
1058.445	-4.2
1058.867	-8.2
1059.289	-1.7
1059.711	-1.7
1060.133	-3.1
1060.555	-4.2
1060.976	-7.9
1061.398	-7.7
1061.82	-10.4
1062.241	-1
1062.663	-6.2
1063.085	-10.2
1063.506	-5.7
1063.928	-3.8
1064.35	-4.2
1064.771	-9.7
1065.193	-2.9
1065.614	-6.8
1066.035	-5.4
1066.457	0.4
1066.878	2.9
1067.3	-8.2
1067.721	-3.7
1068.142	-4.6
1068.564	-0.2
1068.985	-6.3
1069.406	-5.2
1069.827	-5.4
1070.248	1.7
1070.67	-8.1
1071.091	-9
1071.512	-6.5
1071.933	-5.3
1072.354	-5.3
1072.775	-4.3
1073.196	-8.3
1073.617	-0.5
1074.038	-8.3
1074.459	-3.3
1074.88	-3.7
1075.3	5.9
1075.721	-7.2
1076.142	4.8
1076.563	0.2
1076.983	-10.4
1077.404	-6.4
1077.825	-10.7
1078.246	-2.4
1078.666	-2.6
1079.087	-2.8
1079.507	-7.6
1079.928	-1
1080.348	-2.3
1080.769	-7.1
1081.189	-0.1
1081.61	-1
1082.03	-5.4
1082.451	-9.9
1082.871	-4.7
1083.291	-8.2
1083.711	-6.7
1084.132	-2.1
1084.552	-6.9
1084.972	-1.1
1085.392	-10.8
1085.813	-10.4
1086.233	-7.2
1086.653	-7.7
1087.073	-4.2
1087.493	-4.7
1087.913	-8.6
1088.333	-9.8
1088.753	-2.8
1089.173	2.4
1089.593	-4.4
1090.013	-0.6
1090.433	0.2
1090.852	-3.9
1091.272	0.3
1091.692	4.4
1092.112	-2.4
1092.531	-12.8
1092.951	-13.3
1093.371	-2.9
1093.79	3.9
1094.21	-7.2
1094.63	-7.4
1095.049	-1.6
1095.469	-1
1095.888	-4.3
1096.308	-0.8
1096.727	6
1097.146	-10.3
1097.566	0.2
1097.985	-6.9
1098.405	-3.2
1098.824	-10.1
1099.243	-7.9
1099.662	-8.7
1100.082	-11.6
1100.501	-6.7
1100.92	-9.3
1101.339	-6.6
1101.758	-6.1
