Data from 20171114-ORNL-Ar_H_NY_Subt18_08-08-09-651.txt Node
Date: Tue Nov 14 08:08:09 EST 2017
User: Ender
Spectrometer: HR+D1039
Trigger mode: 0
Integration Time (sec): 2.730000E-2
Scans to average: 10
Electric dark correction enabled: true
Nonlinearity correction enabled: false
Boxcar width: 0
XAxis mode: Wavelengths
Number of Pixels in Spectrum: 2048
>>>>>Begin Spectral Data<<<<<
187.836	-5.38
188.309	-5.38
188.782	-5.38
189.255	-0.38
189.728	-1.88
190.201	7.52
190.674	0.92
191.147	2.52
191.619	-9.78
192.092	4.92
192.565	5.42
193.038	-0.68
193.511	5.72
193.984	0.92
194.456	-0.28
194.929	-1.38
195.402	-8.38
195.874	0.22
196.347	-2.28
196.82	-7.58
197.292	3.32
197.765	-2.88
198.237	-8.28
198.71	-1.98
199.182	-4.98
199.655	-5.08
200.127	4.42
200.6	-3.68
201.072	-2.88
201.544	-5.78
202.017	-6.68
202.489	2.52
202.961	-1.58
203.433	-3.58
203.906	-4.28
204.378	-6.68
204.85	-2.68
205.322	-5.78
205.794	-5.18
206.266	-4.68
206.739	-7.98
207.211	0.62
207.683	-10.38
208.155	-9.88
208.627	-2.48
209.099	-4.68
209.57	-5.08
210.042	-1.98
210.514	-1.18
210.986	-3.58
211.458	-8.78
211.93	0.42
212.402	2.12
212.873	-7.08
213.345	-8.08
213.817	-13.48
214.288	-6.28
214.76	-13.98
215.232	-4.78
215.703	-1.78
216.175	-3.98
216.646	-4.48
217.118	-3.08
217.589	-3.88
218.061	-4.08
218.532	-11.18
219.004	-2.48
219.475	-3.88
219.946	-2.98
220.418	-5.68
220.889	0.62
221.36	1.12
221.832	-5.28
222.303	-7.68
222.774	0.22
223.245	-12.18
223.717	-8.48
224.188	-4.78
224.659	-6.08
225.13	-10.38
225.601	-3.18
226.072	0.22
226.543	-3.88
227.014	4.82
227.485	2.02
227.956	-2.78
228.427	1.12
228.898	3.82
229.369	-1.48
229.839	-1.98
230.31	-4.68
230.781	4.82
231.252	-4.28
231.722	-10.18
232.193	-5.68
232.664	2.22
233.135	4.52
233.605	-2.38
234.076	-6.98
234.546	0.52
235.017	4.62
235.487	1.42
235.958	-4.28
236.428	-3.08
236.899	2.92
237.369	3.12
237.84	1.72
238.31	0.22
238.78	1.82
239.251	3.42
239.721	3.32
240.191	1.52
240.662	-5.28
241.132	-1.08
241.602	-2.38
242.072	1.82
242.542	3.22
243.013	-2.18
243.483	1.92
243.953	0.92
244.423	0.82
244.893	-0.98
245.363	3.02
245.833	5.42
246.303	-3.48
246.773	6.02
247.243	4.72
247.712	6.12
248.182	10.92
248.652	7.22
249.122	-1.78
249.592	14.62
250.061	22.02
250.531	28.82
251.001	13.62
251.471	15.12
251.94	18.22
252.41	-3.28
252.879	3.62
253.349	8.12
253.818	9.02
254.288	2.92
254.757	3.72
255.227	0.02
255.696	6.92
256.166	7.22
256.635	6.72
257.105	5.92
257.574	2.42
258.043	7.92
258.513	12.12
258.982	13.32
259.451	8.22
259.92	8.92
260.389	8.22
260.859	17.72
261.328	12.52
261.797	14.32
262.266	11.32
262.735	6.92
263.204	5.12
263.673	-0.18
264.142	1.22
264.611	-2.58
265.08	1.12
265.549	0.72
266.018	4.02
266.487	0.72
266.955	-6.68
267.424	1.62
267.893	6.92
268.362	-1.78
268.83	3.42
269.299	6.62
269.768	4.32
270.236	11.12
270.705	4.62
271.174	2.72
271.642	9.82
272.111	6.42
272.579	16.12
273.048	21.52
273.516	25.42
273.985	24.42
274.453	20.92
274.922	21.12
275.39	10.22
275.858	5.22
276.327	12.52
276.795	15.02
277.263	6.92
277.731	26.82
278.2	53.82
278.668	55.42
279.136	46.02
279.604	19.82
280.072	13.42
280.54	13.32
281.008	11.32
281.477	9.22
281.945	8.62
282.413	17.32
282.881	12.62
283.348	8.52
283.816	18.22
284.284	13.72
284.752	17.92
285.22	13.22
285.688	19.52
286.156	17.42
286.623	42.82
287.091	48.92
287.559	30.82
288.026	16.52
288.494	16.62
288.962	7.92
289.429	11.12
289.897	11.62
290.364	8.92
290.832	15.52
291.3	11.22
291.767	15.22
292.234	16.02
292.702	14.12
293.169	14.32
293.637	21.02
294.104	15.62
294.571	13.22
295.039	10.42
295.506	16.52
295.973	15.92
296.44	11.92
296.908	16.12
297.375	19.32
297.842	18.02
298.309	19.82
298.776	4.42
299.243	17.52
299.71	11.42
300.177	21.22
300.644	15.02
301.111	15.92
301.578	20.42
302.045	15.42
302.512	26.02
302.979	24.32
303.446	20.12
303.913	16.82
304.379	16.82
304.846	20.12
305.313	25.52
305.78	22.42
306.246	28.22
306.713	24.02
307.18	21.92
307.646	26.92
308.113	26.92
308.579	21.92
309.046	18.32
309.512	23.12
309.979	12.62
310.445	27.72
310.912	25.12
311.378	28.42
311.845	25.72
312.311	34.92
312.777	29.72
313.244	26.92
313.71	36.82
314.176	31.82
314.642	29.62
315.109	26.02
315.575	33.02
316.041	31.52
316.507	26.02
316.973	37.22
317.439	31.52
317.905	32.72
318.371	26.12
318.837	33.92
319.303	30.52
319.769	32.72
320.235	28.82
320.701	37.62
321.167	36.42
321.633	30.62
322.099	39.12
322.564	40.92
323.03	37.52
323.496	36.42
323.962	35.12
324.427	42.32
324.893	41.22
325.359	39.02
325.824	35.62
326.29	32.52
326.755	30.52
327.221	41.72
327.686	32.32
328.152	45.52
328.617	40.72
329.083	46.22
329.548	49.82
330.014	35.72
330.479	41.62
330.944	48.62
331.41	37.32
331.875	42.02
332.34	43.52
332.805	40.72
333.271	43.82
333.736	46.72
334.201	47.32
334.666	53.72
335.131	55.32
335.596	50.92
336.061	48.02
336.526	38.52
336.991	46.22
337.456	49.42
337.921	48.62
338.386	35.42
338.851	40.72
339.316	47.02
339.781	41.62
340.246	46.92
340.711	42.42
341.175	47.22
341.64	39.42
342.105	49.92
342.569	48.82
343.034	63.22
343.499	55.22
343.963	47.52
344.428	63.72
344.893	56.22
345.357	58.52
345.822	62.12
346.286	68.22
346.751	71.42
347.215	69.12
347.679	72.42
348.144	93.52
348.608	80.92
349.073	68.12
349.537	78.32
350.001	74.42
350.465	84.42
350.93	76.12
351.394	87.62
351.858	77.52
352.322	82.72
352.786	79.22
353.25	99.92
353.715	115.32
354.179	99.82
354.643	125.22
355.107	125.42
355.571	106.72
356.035	103.22
356.498	117.32
356.962	123.22
357.426	129.62
357.89	114.62
358.354	84.72
358.818	81.72
359.281	78.02
359.745	69.82
360.209	71.82
360.673	77.42
361.136	74.82
361.6	81.22
362.064	79.12
362.527	76.82
362.991	93.22
363.454	77.22
363.918	78.32
364.381	78.82
364.845	84.12
365.308	82.32
365.772	87.02
366.235	82.82
366.698	81.22
367.162	85.72
367.625	82.32
368.088	84.72
368.552	91.12
369.015	84.22
369.478	101.32
369.941	100.22
370.404	94.82
370.867	105.22
371.331	109.42
371.794	109.32
372.257	114.22
372.72	121.92
373.183	115.92
373.646	98.82
374.109	98.62
374.572	100.52
375.035	110.82
375.497	105.42
375.96	105.62
376.423	107.52
376.886	110.32
377.349	116.92
377.811	105.12
378.274	111.62
378.737	109.72
379.199	107.82
379.662	110.42
380.125	114.02
380.587	119.62
381.05	121.12
381.512	133.22
381.975	135.52
382.437	136.52
382.9	129.02
383.362	130.42
383.825	140.52
384.287	149.62
384.75	141.22
385.212	149.72
385.674	138.72
386.136	142.62
386.599	128.32
387.061	130.62
387.523	139.32
387.985	130.32
388.447	143.72
388.91	143.92
389.372	160.32
389.834	154.12
390.296	151.32
390.758	158.52
391.22	173.02
391.682	217.82
392.144	320.22
392.606	235.52
393.068	171.82
393.529	168.02
393.991	151.32
394.453	145.22
394.915	161.52
395.377	195.92
395.838	223.82
396.3	160.62
396.762	142.52
397.224	136.12
397.685	128.02
398.147	133.02
398.608	131.72
399.07	135.62
399.531	129.52
399.993	146.02
400.454	153.42
400.916	142.42
401.377	146.82
401.839	147.72
402.3	156.42
402.762	166.52
403.223	177.02
403.684	175.32
404.145	164.32
404.607	163.92
405.068	169.92
405.529	169.02
405.99	175.42
406.451	173.42
406.913	175.82
407.374	168.92
407.835	164.42
408.296	172.72
408.757	174.72
409.218	189.22
409.679	190.52
410.14	177.82
410.601	183.12
411.062	181.72
411.522	193.82
411.983	183.32
412.444	175.72
412.905	176.52
413.366	181.72
413.826	190.12
414.287	221.32
414.748	262.22
415.208	243.02
415.669	210.52
416.13	206.32
416.59	206.62
417.051	211.12
417.511	217.42
417.972	237.42
418.432	241.42
418.893	289.12
419.353	251.52
419.814	204.42
420.274	185.52
420.734	185.52
421.195	197.82
421.655	205.02
422.115	198.52
422.576	197.22
423.036	196.12
423.496	212.52
423.956	222.32
424.416	225.92
424.876	266.72
425.336	264.42
425.797	260.92
426.257	256.22
426.717	239.32
427.177	235.12
427.637	222.82
428.097	237.52
428.556	242.22
429.016	272.62
429.476	270.82
429.936	283.32
430.396	283.42
430.856	300.42
431.315	320.82
431.775	355.22
432.235	388.92
432.694	364.52
433.154	376.82
433.614	400.22
434.073	344.12
434.533	289.02
434.993	271.22
435.452	286.92
435.912	296.32
436.371	293.32
436.83	290.32
437.29	273.92
437.749	255.82
438.209	250.02
438.668	280.02
439.127	287.42
439.587	268.82
440.046	246.72
440.505	262.92
440.964	280.52
441.424	331.82
441.883	315.82
442.342	263.42
442.801	225.52
443.26	221.52
443.719	217.82
444.178	214.72
444.637	214.42
445.096	218.32
445.555	223.62
446.014	220.52
446.473	229.42
446.932	235.82
447.391	232.72
447.849	225.92
448.308	211.42
448.767	215.92
449.226	238.12
449.685	236.32
450.143	242.52
450.602	238.72
451.061	221.82
451.519	231.32
451.978	231.32
452.436	237.52
452.895	240.02
453.353	246.32
453.812	237.72
454.27	239.52
454.729	247.22
455.187	235.12
455.646	242.72
456.104	258.02
456.562	259.32
457.021	272.42
457.479	267.62
457.937	274.42
458.395	261.72
458.854	251.42
459.312	254.32
459.77	273.72
460.228	259.92
460.686	241.02
461.144	247.22
461.602	237.32
462.06	243.12
462.518	252.72
462.976	255.52
463.434	252.02
463.892	263.22
464.35	276.72
464.808	283.32
465.266	255.72
465.724	262.82
466.181	266.02
466.639	263.12
467.097	289.82
467.555	296.02
468.012	304.32
468.47	299.62
468.928	326.62
469.385	342.62
469.843	344.62
470.3	350.02
470.758	353.92
471.215	380.62
471.673	410.82
472.13	415.42
472.588	425.52
473.045	371.42
473.503	380.72
473.96	388.82
474.417	411.72
474.875	430.82
475.332	482.42
475.789	456.42
476.246	457.82
476.704	478.42
477.161	510.92
477.618	519.62
478.075	553.52
478.532	618.82
478.989	698.02
479.446	818.92
479.903	770.62
480.36	815.12
480.817	869.12
481.274	970.12
481.731	1069.92
482.188	1163.12
482.645	1297.52
483.102	1412.32
483.558	1557.12
484.015	1606.72
484.472	1578.72
484.929	1532.22
485.385	1476.32
485.842	1436.82
486.299	1368.72
486.755	1318.22
487.212	1085.12
487.668	932.62
488.125	850.82
488.582	776.12
489.038	745.52
489.494	697.72
489.951	680.82
490.407	665.02
490.864	646.82
491.32	629.62
491.776	635.52
492.233	639.92
492.689	613.42
493.145	599.82
493.602	588.82
494.058	600.02
494.514	611.62
494.97	637.22
495.426	644.72
495.882	623.02
496.338	607.32
496.794	614.12
497.251	610.52
497.707	624.02
498.163	629.32
498.618	632.32
499.074	646.92
499.53	666.92
499.986	672.62
500.442	635.72
500.898	621.12
501.354	617.32
501.809	640.72
502.265	637.02
502.721	657.52
503.177	668.52
503.632	672.22
504.088	668.32
504.543	705.82
504.999	700.42
505.455	650.82
505.91	624.72
506.366	630.22
506.821	612.02
507.277	607.72
507.732	624.52
508.187	615.22
508.643	636.72
509.098	630.12
509.553	641.52
510.009	663.12
510.464	665.92
510.919	676.42
511.375	683.22
511.83	693.92
512.285	712.62
512.74	747.42
513.195	770.02
513.65	756.72
514.105	756.22
514.56	756.82
515.015	776.82
515.47	800.42
515.925	787.02
516.38	779.52
516.835	773.32
517.29	769.42
517.745	764.72
518.2	756.22
518.655	745.02
519.109	720.92
519.564	732.22
520.019	710.52
520.474	711.82
520.928	722.32
521.383	713.32
521.838	700.22
522.292	695.82
522.747	698.72
523.201	684.82
523.656	681.32
524.11	691.42
524.565	688.22
525.019	678.52
525.474	692.92
525.928	693.82
526.382	684.62
526.837	682.22
527.291	688.32
527.745	685.72
528.2	688.12
528.654	680.92
529.108	670.92
529.562	679.82
530.016	680.82
530.47	686.52
530.925	684.22
531.379	686.52
531.833	692.52
532.287	682.92
532.741	690.92
533.195	694.52
533.649	696.92
534.103	708.42
534.556	700.02
535.01	701.22
535.464	697.42
535.918	704.62
536.372	703.42
536.826	705.42
537.279	688.02
537.733	694.92
538.187	695.72
538.64	698.52
539.094	709.22
539.548	715.92
540.001	716.62
540.455	722.12
540.908	716.22
541.362	729.32
541.815	723.92
542.269	743.22
542.722	748.82
543.175	756.72
543.629	742.52
544.082	771.92
544.536	779.32
544.989	769.72
545.442	779.92
545.895	779.52
546.349	777.72
546.802	777.32
547.255	780.72
547.708	796.92
548.161	807.82
548.614	815.32
549.067	821.12
549.52	814.12
549.973	794.82
550.426	796.62
550.879	786.02
551.332	782.92
551.785	787.42
552.238	799.72
552.691	794.12
553.144	821.62
553.596	833.82
554.049	841.42
554.502	882.32
554.955	893.12
555.407	889.22
555.86	877.82
556.313	888.22
556.765	870.52
557.218	871.22
557.67	867.02
558.123	856.82
558.576	860.62
559.028	874.62
559.48	867.02
559.933	857.92
560.385	826.32
560.838	803.32
561.29	772.52
561.742	775.02
562.195	752.22
562.647	756.92
563.099	757.02
563.551	763.62
564.004	776.32
564.456	776.42
564.908	754.02
565.36	736.92
565.812	730.02
566.264	711.22
566.716	717.92
567.168	711.22
567.62	717.02
568.072	696.92
568.524	687.52
568.976	683.02
569.428	660.32
569.88	671.12
570.332	678.92
570.784	675.32
571.235	675.62
571.687	691.52
572.139	691.72
572.59	692.42
573.042	704.32
573.494	706.82
573.945	692.92
574.397	678.42
574.849	678.82
575.3	689.32
575.752	677.32
576.203	669.12
576.655	678.02
577.106	663.42
577.557	653.62
578.009	670.42
578.46	665.82
578.912	661.62
579.363	671.22
579.814	654.22
580.265	654.32
580.717	641.12
581.168	653.92
581.619	658.22
582.07	669.72
582.521	667.32
582.972	670.32
583.423	678.52
583.875	672.22
584.326	700.02
584.777	750.22
585.227	826.62
585.678	937.82
586.129	1026.12
586.58	1112.42
587.031	1201.92
587.482	1368.82
587.933	1570.02
588.384	1341.92
588.834	989.52
589.285	800.22
589.736	779.22
590.186	770.62
590.637	760.52
591.088	740.12
591.538	724.22
591.989	722.32
592.439	716.62
592.89	713.82
593.34	707.02
593.791	706.02
594.241	682.62
594.692	699.22
595.142	693.42
595.593	692.42
596.043	696.12
596.493	708.22
596.943	705.62
597.394	706.62
597.844	698.52
598.294	718.02
598.744	749.92
599.195	776.72
599.645	810.32
600.095	858.22
600.545	914.72
600.995	966.32
601.445	1025.02
601.895	1082.32
602.345	1123.22
602.795	1102.12
603.245	1060.72
603.695	992.22
604.145	937.82
604.594	905.22
605.044	854.92
605.494	791.72
605.944	740.72
606.393	733.32
606.843	715.12
607.293	727.02
607.743	719.92
608.192	741.72
608.642	757.12
609.091	760.12
609.541	766.12
609.99	761.22
610.44	765.92
610.889	715.52
611.339	702.22
611.788	679.12
612.238	691.22
612.687	715.72
613.136	723.22
613.586	743.22
614.035	746.12
614.484	757.92
614.933	768.02
615.383	755.42
615.832	745.12
616.281	713.82
616.73	686.82
617.179	665.52
617.628	643.92
618.077	625.12
618.526	621.52
618.975	615.72
619.424	603.82
619.873	602.52
620.322	612.62
620.771	594.72
621.22	602.22
621.669	583.92
622.118	579.52
622.567	575.32
623.015	566.02
623.464	572.52
623.913	557.42
624.361	541.12
624.81	546.72
625.259	541.42
625.707	545.22
626.156	546.22
626.604	563.22
627.053	556.02
627.501	555.52
627.95	573.32
628.398	574.62
628.847	566.42
629.295	565.12
629.744	572.72
630.192	558.82
630.64	575.72
631.089	562.92
631.537	579.52
631.985	585.72
632.433	602.52
632.881	609.62
633.33	660.42
633.778	642.42
634.226	574.02
634.674	571.02
635.122	583.82
635.57	602.72
636.018	629.12
636.466	585.72
636.914	561.32
637.362	573.02
637.81	575.62
638.258	574.42
638.705	578.32
639.153	599.52
639.601	608.62
640.049	640.22
640.497	666.22
640.944	691.72
641.392	640.02
641.84	616.62
642.287	583.42
642.735	563.32
643.182	568.82
643.63	569.72
644.078	577.22
644.525	591.42
644.973	602.62
645.42	604.42
645.867	622.52
646.315	645.12
646.762	667.32
647.21	696.42
647.657	713.82
648.104	755.62
648.551	774.02
648.999	845.62
649.446	919.62
649.893	1020.42
650.34	1162.12
650.787	1421.82
651.234	1760.42
651.682	2304.42
652.129	3193.02
652.576	4607.52
653.023	6819.52
653.47	9318.32
653.917	11555.12
654.363	13210.42
654.81	14522.42
655.257	13842.72
655.704	9033.82
656.151	5317.22
656.598	3430.62
657.044	2421.52
657.491	1870.62
657.938	1493.22
658.385	1257.42
658.831	1084.72
659.278	970.02
659.724	856.92
660.171	798.12
660.618	728.02
661.064	694.22
661.511	667.02
661.957	653.82
662.404	646.82
662.85	645.02
663.296	619.12
663.743	561.02
664.189	529.52
664.635	530.62
665.082	536.82
665.528	523.02
665.974	515.12
666.42	514.02
666.867	499.72
667.313	488.62
667.759	477.02
668.205	476.92
668.651	487.52
669.097	501.72
669.543	509.62
669.989	475.42
670.435	447.42
670.881	444.62
671.327	453.82
671.773	472.62
672.219	489.62
672.665	538.62
673.11	586.62
673.556	628.02
674.002	661.92
674.448	654.22
674.893	541.62
675.339	468.32
675.785	433.12
676.23	415.12
676.676	388.42
677.122	388.32
677.567	370.92
678.013	365.02
678.458	354.52
678.904	364.42
679.349	350.02
679.794	361.62
680.24	348.32
680.685	339.12
681.131	346.42
681.576	344.92
682.021	357.72
682.466	344.32
682.912	349.02
683.357	352.92
683.802	382.82
684.247	412.32
684.692	455.02
685.137	493.02
685.583	533.62
686.028	555.32
686.473	515.42
686.918	442.12
687.363	408.02
687.807	398.42
688.252	363.22
688.697	349.52
689.142	336.02
689.587	329.42
690.032	322.72
690.477	332.72
690.921	345.02
691.366	384.52
691.811	404.92
692.255	423.82
692.7	454.22
693.145	510.02
693.589	701.92
694.034	1136.12
694.478	1536.52
694.923	1706.72
695.367	2215.12
695.812	1170.82
696.256	494.62
696.701	370.52
697.145	341.62
697.59	326.12
698.034	326.02
698.478	321.62
698.922	329.82
699.367	326.12
699.811	336.72
700.255	365.92
700.699	385.92
701.143	428.02
701.588	473.52
702.032	513.52
702.476	509.22
702.92	491.82
703.364	493.82
703.808	638.92
704.252	1052.02
704.696	1461.22
705.14	1648.32
705.584	2084.12
706.027	1048.52
706.471	516.62
706.915	393.22
707.359	346.52
707.803	314.92
708.246	294.12
708.69	307.12
709.134	308.42
709.577	304.62
710.021	313.92
710.465	316.22
710.908	293.42
711.352	295.42
711.795	309.52
712.239	348.22
712.682	378.52
713.126	410.02
713.569	460.22
714.012	370.92
714.456	325.32
714.899	301.02
715.342	274.32
715.786	263.22
716.229	257.02
716.672	255.12
717.115	255.32
717.558	246.52
718.002	246.32
718.445	255.82
718.888	282.62
719.331	288.12
719.774	303.92
720.217	292.82
720.66	283.72
721.103	263.92
721.546	259.62
721.989	247.52
722.432	233.82
722.874	242.22
723.317	226.42
723.76	239.42
724.203	254.32
724.645	330.12
725.088	446.72
725.531	569.32
725.974	636.22
726.416	538.12
726.859	307.02
727.301	244.12
727.744	234.22
728.187	229.02
728.629	234.22
729.071	246.72
729.514	246.82
729.956	272.02
730.399	279.92
730.841	289.22
731.283	265.92
731.726	259.22
732.168	253.92
732.61	265.42
733.053	281.82
733.495	313.82
733.937	359.72
734.379	394.92
734.821	442.52
735.263	551.02
735.705	852.92
736.148	1596.72
736.59	2584.22
737.032	2971.72
737.474	2422.02
737.916	793.02
738.357	430.72
738.799	330.42
739.241	289.52
739.683	290.82
740.125	284.82
740.567	298.32
741.008	306.02
741.45	306.42
741.892	316.52
742.334	345.82
742.775	352.32
743.217	333.22
743.658	274.12
744.1	243.82
744.542	265.42
744.983	310.12
745.425	339.32
745.866	334.72
746.307	279.42
746.749	283.52
747.19	324.12
747.632	468.72
748.073	905.02
748.514	1900.32
748.956	2810.02
749.397	3537.52
749.838	2920.22
750.279	2871.82
750.72	1471.02
751.162	541.62
751.603	309.52
752.044	248.72
752.485	221.52
752.926	202.72
753.367	197.32
753.808	191.72
754.249	187.02
754.69	186.02
755.131	188.72
755.572	183.82
756.013	181.72
756.453	180.92
756.894	184.92
757.335	186.22
757.776	199.92
758.216	197.12
758.657	194.22
759.098	199.52
759.538	224.72
759.979	268.12
760.42	372.02
760.86	715.82
761.301	1875.92
761.741	4454.82
762.182	6234.82
762.622	4380.72
763.063	1276.82
763.503	536.92
763.943	348.42
764.384	360.52
764.824	430.22
765.264	466.22
765.705	317.72
766.145	217.12
766.585	186.22
767.025	177.82
767.465	186.92
767.906	246.42
768.346	335.22
768.786	358.92
769.226	276.32
769.666	329.02
770.106	640.02
770.546	1596.42
770.986	2586.52
771.426	2291.52
771.866	777.22
772.306	322.82
772.745	209.42
773.185	174.82
773.625	169.92
774.065	171.32
774.505	201.32
774.944	328.72
775.384	745.62
775.824	1302.92
776.263	1258.22
776.703	533.62
777.142	233.62
777.582	159.22
778.021	141.22
778.461	144.92
778.9	143.62
779.34	132.72
779.779	117.72
780.219	118.02
780.658	110.72
781.097	109.62
781.537	113.42
781.976	103.72
782.415	107.92
782.855	100.62
783.294	100.12
783.733	108.72
784.172	110.02
784.611	102.62
785.05	109.22
785.489	110.52
785.928	115.42
786.367	117.32
786.806	112.92
787.245	130.82
787.684	133.12
788.123	144.82
788.562	125.02
789.001	120.62
789.44	121.82
789.879	119.02
790.317	122.02
790.756	125.22
791.195	130.92
791.634	141.62
792.072	209.72
792.511	371.62
792.95	1038.82
793.388	2127.42
793.827	1887.42
794.265	671.52
794.704	280.12
795.142	181.22
795.581	150.92
796.019	136.12
796.458	124.52
796.896	120.02
797.334	131.62
797.773	162.32
798.211	216.12
798.649	444.92
799.087	1030.12
799.526	1601.52
799.964	1990.12
800.402	1943.22
800.84	739.52
801.278	298.32
801.716	190.52
802.154	150.72
802.592	146.62
803.03	142.62
803.468	129.62
803.906	141.82
804.344	151.32
804.782	138.92
805.22	132.22
805.658	132.22
806.096	148.82
806.533	153.62
806.971	178.42
807.409	219.82
807.847	315.02
808.284	681.62
808.722	1888.02
809.16	3231.92
809.597	3114.42
810.035	5389.12
810.472	5573.02
810.91	2034.72
811.347	775.72
811.785	393.02
812.222	252.42
812.66	192.12
813.097	160.32
813.535	138.82
813.972	128.12
814.409	119.72
814.846	113.42
815.284	105.32
815.721	103.92
816.158	103.62
816.595	124.22
817.032	181.02
817.47	194.82
817.907	162.22
818.344	164.62
818.781	122.22
819.218	102.32
819.655	127.62
820.092	175.32
820.529	207.52
820.966	176.42
821.403	134.32
821.839	107.52
822.276	100.92
822.713	128.92
823.15	131.02
823.587	111.82
824.023	153.72
824.46	305.12
824.897	906.02
825.333	1319.82
825.77	568.22
826.206	227.82
826.643	135.12
827.08	105.02
827.516	84.72
827.953	76.52
828.389	75.42
828.825	71.62
829.262	68.92
829.698	55.42
830.135	67.42
830.571	65.92
831.007	61.42
831.443	64.22
831.88	54.02
832.316	62.52
832.752	62.32
833.188	56.72
833.624	57.72
834.06	62.32
834.497	66.62
834.933	71.92
835.369	72.32
835.805	65.82
836.241	82.62
836.677	73.32
837.112	88.12
837.548	101.52
837.984	134.12
838.42	200.22
838.856	506.22
839.292	1528.32
839.727	2225.12
840.163	1053.22
840.599	934.02
841.034	2022.92
841.47	2067.02
841.906	759.72
842.341	328.72
842.777	238.72
843.212	331.82
843.648	319.82
844.083	157.12
844.519	101.02
844.954	75.52
845.39	59.32
845.825	56.12
846.261	51.42
846.696	50.92
847.131	55.72
847.566	53.22
848.002	52.62
848.437	53.42
848.872	63.92
849.307	65.42
849.742	87.42
850.177	182.82
850.613	555.22
851.048	856.22
851.483	367.42
851.918	150.72
852.353	78.62
852.788	58.22
853.223	54.22
853.657	57.62
854.092	50.12
854.527	41.32
854.962	38.32
855.397	43.82
855.832	52.52
856.266	36.82
856.701	41.22
857.136	40.02
857.57	39.52
858.005	53.22
858.44	60.62
858.874	47.12
859.309	51.02
859.743	39.12
860.178	45.82
860.612	40.82
861.047	40.62
861.481	68.22
861.915	70.12
862.35	48.72
862.784	35.82
863.218	33.72
863.653	37.42
864.087	47.22
864.521	55.62
864.955	64.42
865.39	152.22
865.824	171.82
866.258	120.62
866.692	164.82
867.126	170.52
867.56	97.42
867.994	49.02
868.428	39.42
868.862	49.62
869.296	54.12
869.73	54.22
870.164	49.72
870.598	43.12
871.031	34.82
871.465	33.32
871.899	27.72
872.333	24.12
872.766	29.92
873.2	25.72
873.634	26.72
874.067	23.62
874.501	23.92
874.935	33.32
875.368	30.82
875.802	20.02
876.235	24.62
876.669	23.42
877.102	22.92
877.535	27.92
877.969	28.72
878.402	22.02
878.836	14.32
879.269	24.02
879.702	20.12
880.135	22.92
880.569	24.62
881.002	33.12
881.435	21.22
881.868	20.02
882.301	21.02
882.734	16.42
883.167	22.22
883.601	16.02
884.034	23.92
884.467	17.22
884.899	17.52
885.332	11.72
885.765	16.12
886.198	15.82
886.631	15.12
887.064	18.92
887.497	20.32
887.929	24.02
888.362	17.12
888.795	12.22
889.228	16.12
889.66	15.22
890.093	15.52
890.526	15.32
890.958	15.32
891.391	17.72
891.823	26.32
892.256	16.42
892.688	11.82
893.121	12.52
893.553	17.42
893.985	24.02
894.418	18.42
894.85	11.42
895.282	9.32
895.715	16.02
896.147	19.92
896.579	16.52
897.011	13.02
897.444	13.22
897.876	17.12
898.308	15.92
898.74	11.32
899.172	9.42
899.604	20.22
900.036	19.52
900.468	13.92
900.9	9.12
901.332	16.42
901.764	6.82
902.196	14.62
902.628	14.62
903.06	13.12
903.491	27.82
903.923	24.02
904.355	16.12
904.787	21.92
905.218	23.02
905.65	19.92
906.082	15.12
906.513	10.22
906.945	15.32
907.376	13.42
907.808	21.12
908.239	27.42
908.671	23.92
909.102	28.22
909.534	31.12
909.965	47.52
910.397	90.72
910.828	308.12
911.259	462.12
911.691	214.42
912.122	105.32
912.553	51.02
912.984	36.92
913.415	24.42
913.847	22.92
914.278	15.92
914.709	12.32
915.14	19.92
915.571	21.62
916.002	14.72
916.433	16.52
916.864	13.92
917.295	8.62
917.726	23.72
918.157	20.02
918.587	30.32
919.018	16.62
919.449	21.12
919.88	23.72
920.311	31.82
920.741	52.12
921.172	165.82
921.603	152.42
922.033	73.52
922.464	41.42
922.895	21.62
923.325	23.22
923.756	15.12
924.186	9.22
924.617	26.22
925.047	38.62
925.478	60.72
925.908	46.62
926.338	23.32
926.769	26.02
927.199	22.62
927.629	9.12
928.06	12.22
928.49	11.62
928.92	7.52
929.35	10.62
929.78	12.82
930.21	10.52
930.641	5.92
931.071	14.12
931.501	2.12
931.931	8.32
932.361	11.12
932.791	0.22
933.221	7.82
933.651	4.12
934.08	20.12
934.51	31.62
934.94	4.62
935.37	8.62
935.8	9.72
936.229	7.42
936.659	6.92
937.089	4.42
937.519	8.02
937.948	22.22
938.378	18.72
938.807	2.22
939.237	6.52
939.666	3.92
940.096	-5.88
940.525	4.72
940.955	5.42
941.384	8.62
941.814	-5.28
942.243	-2.68
942.672	-2.28
943.102	-7.48
943.531	0.72
943.96	7.42
944.39	2.72
944.819	-0.28
945.248	0.82
945.677	1.42
946.106	9.12
946.535	8.42
946.964	-0.28
947.393	4.32
947.822	1.52
948.251	-5.48
948.68	6.72
949.109	6.52
949.538	8.72
949.967	0.52
950.396	6.52
950.825	-0.68
951.254	0.02
951.682	-11.98
952.111	0.02
952.54	9.32
952.969	-4.98
953.397	-2.58
953.826	-1.48
954.254	-8.28
954.683	3.42
955.112	1.62
955.54	4.62
955.969	3.22
956.397	7.72
956.826	0.62
957.254	-4.28
957.682	3.32
958.111	2.52
958.539	-2.08
958.967	-2.38
959.396	-3.38
959.824	-0.28
960.252	5.02
960.68	1.42
961.109	2.52
961.537	-4.38
961.965	-0.78
962.393	-1.48
962.821	-6.08
963.249	1.02
963.677	0.62
964.105	9.02
964.533	45.22
964.961	44.02
965.389	17.62
965.817	4.92
966.245	2.02
966.672	-1.58
967.1	-6.98
967.528	-0.18
967.956	0.02
968.383	2.92
968.811	-1.28
969.239	-4.68
969.666	-6.38
970.094	0.32
970.522	-6.78
970.949	-2.08
971.377	-5.88
971.804	-4.88
972.232	-2.68
972.659	-3.68
973.087	-2.38
973.514	-0.98
973.941	-3.48
974.369	3.92
974.796	1.42
975.223	-2.28
975.651	-3.68
976.078	2.82
976.505	1.42
976.932	4.72
977.359	9.92
977.786	4.62
978.214	-1.78
978.641	-3.98
979.068	-0.68
979.495	-3.08
979.922	-0.78
980.349	-1.98
980.776	1.92
981.202	-0.38
981.629	5.32
982.056	5.72
982.483	-1.38
982.91	0.42
983.337	-10.48
983.763	-0.78
984.19	-4.58
984.617	-5.28
985.043	-5.78
985.47	-2.38
985.897	-6.88
986.323	-3.38
986.75	4.82
987.176	-2.88
987.603	-3.98
988.029	3.62
988.456	0.02
988.882	7.12
989.308	-9.08
989.735	-4.78
990.161	-0.88
990.587	-7.58
991.014	-0.78
991.44	7.12
991.866	-0.78
992.292	-4.48
992.719	-9.08
993.145	-1.78
993.571	-11.08
993.997	-2.58
994.423	-0.68
994.849	-3.38
995.275	-1.38
995.701	2.82
996.127	-3.58
996.553	0.82
996.979	-0.68
997.405	-4.58
997.83	-3.08
998.256	-6.18
998.682	-6.48
999.108	-12.78
999.534	5.52
999.959	3.02
1000.385	-9.38
1000.811	-1.68
1001.236	-12.48
1001.662	-2.98
1002.087	-6.08
1002.513	1.22
1002.938	6.22
1003.364	2.42
1003.789	-3.08
1004.215	4.22
1004.64	1.62
1005.066	-0.28
1005.491	3.82
1005.916	-3.48
1006.342	-2.18
1006.767	-8.18
1007.192	5.92
1007.617	-7.28
1008.042	-5.18
1008.468	-7.68
1008.893	-2.68
1009.318	-3.28
1009.743	0.02
1010.168	6.62
1010.593	2.42
1011.018	-8.08
1011.443	-2.68
1011.868	1.92
1012.293	-3.28
1012.718	-9.98
1013.143	-3.78
1013.567	-4.18
1013.992	-5.08
1014.417	-13.18
1014.842	6.02
1015.267	-6.38
1015.691	-6.78
1016.116	-0.18
1016.541	-5.88
1016.965	2.42
1017.39	7.22
1017.814	1.62
1018.239	-4.48
1018.663	-5.68
1019.088	-15.58
1019.512	3.02
1019.937	-2.58
1020.361	-5.78
1020.785	-10.78
1021.21	-1.08
1021.634	-7.28
1022.058	-4.28
1022.483	1.12
1022.907	0.82
1023.331	-5.28
1023.755	-9.98
1024.179	-3.48
1024.604	-4.78
1025.028	-9.68
1025.452	-4.08
1025.876	-6.48
1026.3	-5.38
1026.724	-10.88
1027.148	-6.88
1027.572	-12.28
1027.996	-7.78
1028.42	-2.98
1028.843	-4.38
1029.267	1.42
1029.691	-0.48
1030.115	-9.58
1030.539	-3.88
1030.962	-5.28
1031.386	-6.08
1031.81	-3.68
1032.233	2.72
1032.657	-2.28
1033.08	-2.68
1033.504	-1.98
1033.927	-1.68
1034.351	-0.48
1034.774	-4.48
1035.198	-3.18
1035.621	-9.58
1036.045	-7.88
1036.468	-1.18
1036.891	-10.88
1037.315	-5.28
1037.738	-6.28
1038.161	-2.58
1038.584	-7.18
1039.008	-8.18
1039.431	1.82
1039.854	-2.08
1040.277	-9.88
1040.7	-11.18
1041.123	-2.68
1041.546	-7.98
1041.969	-8.38
1042.392	-3.88
1042.815	1.82
1043.238	-1.58
1043.661	-3.68
1044.084	-8.68
1044.507	-6.78
1044.93	-8.48
1045.352	-3.78
1045.775	-4.58
1046.198	-5.38
1046.621	2.22
1047.043	3.32
1047.466	7.42
1047.889	-3.08
1048.311	-7.18
1048.734	-2.08
1049.156	-4.58
1049.579	-0.58
1050.001	-2.08
1050.424	1.22
1050.846	-1.78
1051.269	-4.98
1051.691	-3.88
1052.113	-3.08
1052.536	-3.98
1052.958	-5.88
1053.38	-12.48
1053.802	-14.38
1054.225	-1.28
1054.647	-8.48
1055.069	-3.68
1055.491	6.02
1055.913	-2.58
1056.335	2.52
1056.757	-6.08
1057.179	-7.18
1057.601	-0.98
1058.023	-6.68
1058.445	-0.88
1058.867	-9.98
1059.289	-3.48
1059.711	-2.38
1060.133	-0.58
1060.555	-5.48
1060.976	-8.68
1061.398	-4.68
1061.82	-5.08
1062.241	-5.38
1062.663	-3.28
1063.085	-2.38
1063.506	-8.58
1063.928	-6.08
1064.35	3.62
1064.771	-11.58
1065.193	-2.08
1065.614	-10.78
1066.035	2.12
1066.457	1.92
1066.878	-6.78
1067.3	-6.48
1067.721	-5.68
1068.142	-3.08
1068.564	-1.68
1068.985	-1.98
1069.406	-13.38
1069.827	2.02
1070.248	-2.18
1070.67	-7.58
1071.091	-7.98
1071.512	-5.48
1071.933	-0.18
1072.354	-9.48
1072.775	-9.88
1073.196	-6.18
1073.617	-4.58
1074.038	-9.88
1074.459	-1.48
1074.88	-8.88
1075.3	-2.28
1075.721	-14.08
1076.142	-4.28
1076.563	-0.48
1076.983	-13.28
1077.404	-8.18
1077.825	-12.98
1078.246	-6.98
1078.666	-12.88
1079.087	-10.38
1079.507	-6.58
1079.928	-4.68
1080.348	-1.18
1080.769	-3.68
1081.189	-3.68
1081.61	-7.18
1082.03	-8.08
1082.451	-6.08
1082.871	-5.08
1083.291	-7.58
1083.711	-7.98
1084.132	-5.58
1084.552	-10.08
1084.972	-1.98
1085.392	-12.98
1085.813	-8.58
1086.233	-8.38
1086.653	-6.48
1087.073	-2.38
1087.493	-3.58
1087.913	-9.08
1088.333	-11.08
1088.753	-3.28
1089.173	-3.68
1089.593	-2.98
1090.013	2.12
1090.433	2.62
1090.852	-0.38
1091.272	-0.58
1091.692	-2.78
1092.112	-11.18
1092.531	-13.28
1092.951	-17.28
1093.371	5.22
1093.79	2.02
1094.21	-2.98
1094.63	-3.78
1095.049	-10.78
1095.469	-1.88
1095.888	-6.28
1096.308	3.72
1096.727	-3.88
1097.146	-7.38
1097.566	1.62
1097.985	-10.68
1098.405	-8.28
1098.824	-9.68
1099.243	-4.88
1099.662	-11.38
1100.082	-6.68
1100.501	-9.08
1100.92	-7.48
1101.339	-8.58
1101.758	-5.78
