Data from 20171114-ORNL-Ar_H_NY_Subt18_08-04-59-114.txt Node
Date: Tue Nov 14 08:04:59 EST 2017
User: Ender
Spectrometer: HR+D1039
Trigger mode: 0
Integration Time (sec): 2.730000E-2
Scans to average: 10
Electric dark correction enabled: true
Nonlinearity correction enabled: false
Boxcar width: 0
XAxis mode: Wavelengths
Number of Pixels in Spectrum: 2048
>>>>>Begin Spectral Data<<<<<
187.836	-2.13
188.309	-2.13
188.782	-2.13
189.255	0.27
189.728	-3.93
190.201	6.57
190.674	6.57
191.147	6.77
191.619	-7.43
192.092	2.97
192.565	4.87
193.038	-1.73
193.511	-0.13
193.984	-1.43
194.456	-0.73
194.929	-6.23
195.402	-1.73
195.874	-2.63
196.347	1.27
196.82	-2.13
197.292	7.17
197.765	-1.73
198.237	-8.93
198.71	2.07
199.182	-2.53
199.655	4.87
200.127	5.07
200.6	1.77
201.072	-1.63
201.544	-6.83
202.017	-4.43
202.489	7.17
202.961	-5.23
203.433	-3.33
203.906	0.47
204.378	-0.73
204.85	-0.63
205.322	-9.83
205.794	0.27
206.266	-4.33
206.739	-5.53
207.211	1.37
207.683	-11.13
208.155	-2.93
208.627	-2.13
209.099	-2.53
209.57	-9.93
210.042	-2.33
210.514	-5.63
210.986	4.57
211.458	-7.33
211.93	-3.33
212.402	0.27
212.873	3.87
213.345	-5.53
213.817	-6.83
214.288	-1.83
214.76	-12.23
215.232	-6.63
215.703	-2.93
216.175	-7.03
216.646	-5.23
217.118	-11.33
217.589	-1.53
218.061	1.57
218.532	-3.63
219.004	1.37
219.475	-2.23
219.946	2.97
220.418	-1.13
220.889	4.97
221.36	-0.23
221.832	-2.13
222.303	-7.23
222.774	-3.03
223.245	-6.73
223.717	-8.63
224.188	2.37
224.659	-6.43
225.13	-3.23
225.601	0.97
226.072	1.67
226.543	1.57
227.014	3.27
227.485	-3.43
227.956	-5.53
228.427	-4.33
228.898	6.27
229.369	7.67
229.839	-1.63
230.31	-6.73
230.781	2.37
231.252	2.17
231.722	-1.43
232.193	-0.13
232.664	-4.23
233.135	5.17
233.605	-0.43
234.076	-2.43
234.546	-1.73
235.017	4.97
235.487	3.37
235.958	3.37
236.428	-4.63
236.899	2.37
237.369	2.67
237.84	4.07
238.31	5.77
238.78	5.27
239.251	5.47
239.721	1.57
240.191	5.87
240.662	1.07
241.132	1.57
241.602	1.07
242.072	2.47
242.542	6.57
243.013	0.57
243.483	7.77
243.953	9.27
244.423	0.77
244.893	-0.33
245.363	1.37
245.833	4.87
246.303	3.07
246.773	11.47
247.243	4.57
247.712	6.97
248.182	16.37
248.652	8.27
249.122	3.37
249.592	12.77
250.061	22.67
250.531	41.97
251.001	20.67
251.471	23.77
251.94	22.77
252.41	11.07
252.879	3.67
253.349	4.67
253.818	15.57
254.288	4.07
254.757	10.97
255.227	0.47
255.696	6.27
256.166	9.97
256.635	6.87
257.105	11.17
257.574	13.27
258.043	16.37
258.513	12.77
258.982	24.07
259.451	10.07
259.92	18.67
260.389	16.87
260.859	17.17
261.328	11.47
261.797	20.87
262.266	12.67
262.735	15.47
263.204	9.07
263.673	-3.43
264.142	10.07
264.611	-1.13
265.08	2.97
265.549	2.97
266.018	8.37
266.487	-0.73
266.955	-0.03
267.424	7.97
267.893	7.77
268.362	5.37
268.83	2.57
269.299	17.57
269.768	13.57
270.236	8.27
270.705	6.17
271.174	9.47
271.642	13.27
272.111	8.37
272.579	20.67
273.048	21.17
273.516	28.77
273.985	28.77
274.453	28.37
274.922	20.27
275.39	18.77
275.858	10.17
276.327	11.57
276.795	15.47
277.263	18.67
277.731	34.57
278.2	66.67
278.668	65.17
279.136	52.37
279.604	22.97
280.072	22.47
280.54	16.17
281.008	8.47
281.477	13.67
281.945	18.57
282.413	18.27
282.881	21.17
283.348	14.47
283.816	13.97
284.284	18.07
284.752	17.57
285.22	15.47
285.688	23.27
286.156	25.17
286.623	45.27
287.091	55.57
287.559	36.47
288.026	20.07
288.494	23.97
288.962	9.67
289.429	10.77
289.897	22.07
290.364	15.97
290.832	17.67
291.3	15.77
291.767	20.77
292.234	19.27
292.702	18.47
293.169	20.77
293.637	24.87
294.104	25.27
294.571	10.87
295.039	21.47
295.506	16.57
295.973	20.57
296.44	20.57
296.908	18.07
297.375	20.97
297.842	25.87
298.309	19.17
298.776	11.27
299.243	19.67
299.71	17.37
300.177	26.97
300.644	25.37
301.111	23.47
301.578	34.67
302.045	17.07
302.512	26.67
302.979	31.87
303.446	23.57
303.913	27.37
304.379	29.07
304.846	34.87
305.313	28.87
305.78	20.17
306.246	33.17
306.713	33.87
307.18	30.47
307.646	33.07
308.113	32.17
308.579	25.97
309.046	28.77
309.512	27.67
309.979	19.47
310.445	34.07
310.912	27.77
311.378	36.67
311.845	28.27
312.311	38.47
312.777	31.07
313.244	29.37
313.71	44.37
314.176	34.17
314.642	37.37
315.109	38.07
315.575	44.67
316.041	46.47
316.507	43.07
316.973	42.07
317.439	35.37
317.905	34.37
318.371	37.97
318.837	38.57
319.303	39.07
319.769	37.77
320.235	33.77
320.701	39.07
321.167	45.27
321.633	40.17
322.099	48.47
322.564	53.67
323.03	49.67
323.496	41.27
323.962	50.97
324.427	41.57
324.893	48.77
325.359	44.57
325.824	39.87
326.29	36.97
326.755	36.17
327.221	43.17
327.686	41.57
328.152	50.77
328.617	42.37
329.083	48.47
329.548	59.97
330.014	47.77
330.479	41.77
330.944	49.17
331.41	50.77
331.875	47.97
332.34	51.27
332.805	46.27
333.271	52.27
333.736	43.47
334.201	57.97
334.666	51.47
335.131	59.07
335.596	50.57
336.061	52.57
336.526	45.77
336.991	49.87
337.456	57.47
337.921	54.37
338.386	49.47
338.851	48.17
339.316	52.37
339.781	46.57
340.246	52.87
340.711	49.67
341.175	51.67
341.64	48.37
342.105	54.87
342.569	58.07
343.034	59.17
343.499	57.97
343.963	58.37
344.428	70.47
344.893	64.57
345.357	58.47
345.822	66.97
346.286	70.37
346.751	76.77
347.215	69.77
347.679	79.27
348.144	104.37
348.608	88.17
349.073	76.57
349.537	74.47
350.001	83.87
350.465	87.47
350.93	87.67
351.394	83.97
351.858	78.37
352.322	86.07
352.786	86.27
353.25	106.77
353.715	111.77
354.179	106.87
354.643	122.67
355.107	133.37
355.571	109.97
356.035	103.17
356.498	121.77
356.962	129.37
357.426	138.17
357.89	124.57
358.354	98.27
358.818	90.17
359.281	89.27
359.745	80.17
360.209	81.47
360.673	82.77
361.136	82.17
361.6	89.47
362.064	86.87
362.527	84.87
362.991	97.37
363.454	82.17
363.918	79.47
364.381	81.87
364.845	84.77
365.308	89.27
365.772	91.57
366.235	93.27
366.698	86.77
367.162	91.17
367.625	91.57
368.088	91.87
368.552	95.67
369.015	101.37
369.478	101.57
369.941	102.67
370.404	97.27
370.867	110.57
371.331	107.87
371.794	118.17
372.257	111.37
372.72	124.27
373.183	111.07
373.646	111.27
374.109	107.87
374.572	108.47
375.035	106.57
375.497	102.77
375.96	111.37
376.423	106.47
376.886	115.07
377.349	109.57
377.811	102.57
378.274	111.17
378.737	109.77
379.199	110.07
379.662	115.97
380.125	116.67
380.587	119.27
381.05	121.87
381.512	134.07
381.975	139.97
382.437	130.77
382.9	132.67
383.362	134.17
383.825	139.77
384.287	152.47
384.75	138.87
385.212	148.77
385.674	137.27
386.136	138.57
386.599	125.07
387.061	129.37
387.523	134.77
387.985	136.67
388.447	144.77
388.91	148.77
389.372	162.07
389.834	159.07
390.296	151.87
390.758	155.37
391.22	166.67
391.682	205.97
392.144	292.37
392.606	224.77
393.068	167.77
393.529	169.77
393.991	152.67
394.453	149.57
394.915	161.27
395.377	190.77
395.838	211.07
396.3	154.17
396.762	141.87
397.224	127.97
397.685	130.47
398.147	127.27
398.608	136.77
399.07	131.87
399.531	134.87
399.993	140.27
400.454	152.57
400.916	144.27
401.377	146.97
401.839	149.47
402.3	154.67
402.762	169.37
403.223	184.57
403.684	173.27
404.145	160.97
404.607	166.07
405.068	172.27
405.529	175.27
405.99	191.37
406.451	177.57
406.913	176.57
407.374	171.47
407.835	171.27
408.296	169.27
408.757	180.77
409.218	197.67
409.679	180.17
410.14	181.77
410.601	178.67
411.062	187.47
411.522	188.07
411.983	189.07
412.444	177.37
412.905	182.57
413.366	184.67
413.826	194.07
414.287	215.57
414.748	258.67
415.208	251.37
415.669	207.87
416.13	209.47
416.59	210.77
417.051	217.67
417.511	220.77
417.972	244.27
418.432	248.77
418.893	285.07
419.353	255.38
419.814	200.97
420.274	182.87
420.734	189.27
421.195	200.57
421.655	196.67
422.115	199.17
422.576	192.87
423.036	197.67
423.496	205.67
423.956	216.47
424.416	226.77
424.876	265.77
425.336	264.17
425.797	265.07
426.257	257.47
426.717	242.77
427.177	234.27
427.637	218.67
428.097	223.57
428.556	243.37
429.016	270.77
429.476	264.27
429.936	280.17
430.396	283.07
430.856	285.77
431.315	308.87
431.775	341.47
432.235	373.67
432.694	348.77
433.154	359.77
433.614	390.17
434.073	333.57
434.533	281.67
434.993	271.47
435.452	281.57
435.912	290.47
436.371	296.97
436.83	286.47
437.29	270.67
437.749	252.37
438.209	243.87
438.668	273.47
439.127	287.67
439.587	264.07
440.046	245.87
440.505	260.77
440.964	279.27
441.424	320.47
441.883	313.27
442.342	258.77
442.801	226.17
443.26	220.37
443.719	224.87
444.178	215.57
444.637	202.17
445.096	223.87
445.555	216.77
446.014	221.07
446.473	229.67
446.932	238.17
447.391	223.57
447.849	230.17
448.308	222.27
448.767	219.57
449.226	240.57
449.685	235.67
450.143	248.97
450.602	233.37
451.061	223.37
451.519	232.67
451.978	239.07
452.436	239.37
452.895	242.57
453.353	253.87
453.812	234.97
454.27	238.07
454.729	234.77
455.187	238.97
455.646	251.67
456.104	244.87
456.562	261.07
457.021	266.37
457.479	252.47
457.937	268.37
458.395	264.67
458.854	244.77
459.312	256.37
459.77	274.87
460.228	256.67
460.686	241.37
461.144	246.57
461.602	242.37
462.06	236.07
462.518	254.27
462.976	248.47
463.434	262.47
463.892	256.47
464.35	269.37
464.808	284.97
465.266	263.27
465.724	268.47
466.181	266.97
466.639	278.87
467.097	287.77
467.555	300.47
468.012	308.97
468.47	295.17
468.928	334.67
469.385	340.97
469.843	343.37
470.3	340.97
470.758	356.37
471.215	382.37
471.673	402.27
472.13	400.47
472.588	410.27
473.045	370.17
473.503	365.67
473.96	390.57
474.417	399.27
474.875	438.67
475.332	470.27
475.789	463.07
476.246	466.27
476.704	489.77
477.161	503.57
477.618	518.97
478.075	555.38
478.532	610.37
478.989	684.57
479.446	793.67
479.903	771.27
480.36	800.17
480.817	853.27
481.274	962.37
481.731	1055.87
482.188	1157.17
482.645	1282.67
483.102	1395.17
483.558	1523.17
484.015	1586.27
484.472	1557.87
484.929	1509.37
485.385	1463.17
485.842	1419.78
486.299	1358.57
486.755	1285.77
487.212	1078.67
487.668	922.07
488.125	839.47
488.582	781.17
489.038	748.87
489.494	705.97
489.951	680.67
490.407	659.88
490.864	643.97
491.32	643.67
491.776	641.07
492.233	628.97
492.689	608.67
493.145	602.67
493.602	588.17
494.058	603.37
494.514	619.47
494.97	634.07
495.426	648.47
495.882	614.47
496.338	609.07
496.794	623.37
497.251	620.17
497.707	634.97
498.163	638.57
498.618	638.67
499.074	627.87
499.53	667.07
499.986	672.47
500.442	651.47
500.898	627.07
501.354	617.97
501.809	629.07
502.265	640.07
502.721	654.87
503.177	663.17
503.632	647.17
504.088	665.67
504.543	704.07
504.999	698.07
505.455	657.77
505.91	635.87
506.366	618.77
506.821	620.57
507.277	621.87
507.732	621.47
508.187	622.37
508.643	622.97
509.098	630.07
509.553	639.57
510.009	646.37
510.464	654.37
510.919	680.17
511.375	688.07
511.83	691.87
512.285	721.67
512.74	753.67
513.195	778.77
513.65	754.67
514.105	763.77
514.56	764.27
515.015	775.67
515.47	795.67
515.925	777.88
516.38	786.07
516.835	789.47
517.29	776.07
517.745	773.97
518.2	752.27
518.655	746.87
519.109	740.17
519.564	728.67
520.019	718.07
520.474	716.17
520.928	717.87
521.383	706.57
521.838	699.57
522.292	708.97
522.747	699.67
523.201	687.47
523.656	683.47
524.11	673.27
524.565	680.47
525.019	676.07
525.474	694.57
525.928	691.57
526.382	688.17
526.837	686.87
527.291	692.67
527.745	691.17
528.2	687.57
528.654	678.47
529.108	670.87
529.562	676.47
530.016	680.88
530.47	678.57
530.925	678.87
531.379	682.87
531.833	694.57
532.287	680.47
532.741	691.77
533.195	697.97
533.649	699.57
534.103	706.07
534.556	701.67
535.01	706.17
535.464	697.67
535.918	701.17
536.372	708.57
536.826	712.07
537.279	697.07
537.733	693.97
538.187	702.67
538.64	705.57
539.094	713.67
539.548	725.27
540.001	710.87
540.455	713.77
540.908	714.37
541.362	718.67
541.815	724.47
542.269	736.77
542.722	744.37
543.175	759.87
543.629	749.27
544.082	765.87
544.536	770.37
544.989	765.88
545.442	775.47
545.895	774.47
546.349	775.38
546.802	777.47
547.255	782.47
547.708	784.27
548.161	800.07
548.614	799.17
549.067	806.87
549.52	798.97
549.973	788.27
550.426	789.97
550.879	775.47
551.332	781.97
551.785	778.77
552.238	785.07
552.691	794.77
553.144	813.27
553.596	815.07
554.049	842.87
554.502	862.87
554.955	888.67
555.407	880.97
555.86	880.97
556.313	874.67
556.765	854.77
557.218	862.87
557.67	856.57
558.123	848.57
558.576	849.87
559.028	859.57
559.48	856.37
559.933	851.47
560.385	812.77
560.838	784.77
561.29	759.27
561.742	754.47
562.195	737.97
562.647	740.38
563.099	749.77
563.551	748.67
564.004	755.67
564.456	752.87
564.908	735.17
565.36	732.77
565.812	705.67
566.264	706.27
566.716	693.17
567.168	682.37
567.62	701.97
568.072	681.47
568.524	671.77
568.976	662.07
569.428	650.67
569.88	641.67
570.332	653.77
570.784	650.57
571.235	653.37
571.687	672.07
572.139	669.37
572.59	689.97
573.042	688.27
573.494	692.67
573.945	683.37
574.397	660.87
574.849	658.77
575.3	665.47
575.752	650.97
576.203	642.37
576.655	652.87
577.106	638.47
577.557	644.38
578.009	637.07
578.46	639.17
578.912	636.07
579.363	635.57
579.814	641.77
580.265	641.47
580.717	637.27
581.168	636.87
581.619	652.17
582.07	659.38
582.521	647.57
582.972	634.57
583.423	647.77
583.875	653.97
584.326	666.57
584.777	717.07
585.227	780.17
585.678	858.67
586.129	952.57
586.58	1034.47
587.031	1103.67
587.482	1252.07
587.933	1432.18
588.384	1246.47
588.834	938.07
589.285	759.27
589.736	746.67
590.186	738.07
590.637	727.77
591.088	701.07
591.538	708.97
591.989	696.77
592.439	693.57
592.89	698.07
593.34	682.87
593.791	683.17
594.241	671.47
594.692	674.37
595.142	661.67
595.593	664.77
596.043	663.57
596.493	670.87
596.943	680.38
597.394	683.47
597.844	676.77
598.294	693.47
598.744	718.07
599.195	726.97
599.645	774.37
600.095	808.77
600.545	858.87
600.995	916.37
601.445	970.37
601.895	1019.77
602.345	1057.28
602.795	1057.67
603.245	1011.87
603.695	959.07
604.145	913.57
604.594	865.27
605.044	819.07
605.494	760.37
605.944	711.07
606.393	693.47
606.843	692.77
607.293	688.07
607.743	691.47
608.192	701.67
608.642	713.27
609.091	728.57
609.541	727.67
609.99	732.67
610.44	721.17
610.889	682.67
611.339	663.27
611.788	650.27
612.238	662.57
612.687	673.37
613.136	674.47
613.586	686.37
614.035	696.88
614.484	712.47
614.933	718.67
615.383	696.17
615.832	685.17
616.281	682.67
616.73	651.07
617.179	629.27
617.628	606.97
618.077	593.47
618.526	590.67
618.975	581.77
619.424	579.27
619.873	573.47
620.322	578.07
620.771	564.87
621.22	564.17
621.669	546.88
622.118	551.07
622.567	542.77
623.015	540.47
623.464	538.87
623.913	524.57
624.361	519.87
624.81	518.17
625.259	525.57
625.707	523.27
626.156	515.57
626.604	523.37
627.053	526.97
627.501	522.17
627.95	532.77
628.398	544.67
628.847	536.57
629.295	528.27
629.744	539.67
630.192	536.47
630.64	533.87
631.089	522.87
631.537	529.07
631.985	536.97
632.433	553.37
632.881	565.07
633.33	608.47
633.778	585.07
634.226	526.57
634.674	520.97
635.122	539.57
635.57	554.57
636.018	574.17
636.466	537.47
636.914	520.77
637.362	537.07
637.81	533.87
638.258	543.27
638.705	537.17
639.153	570.77
639.601	559.77
640.049	589.57
640.497	618.97
640.944	645.47
641.392	596.37
641.84	563.27
642.287	542.97
642.735	528.87
643.182	535.77
643.63	529.57
644.078	524.27
644.525	539.47
644.973	555.47
645.42	554.37
645.867	580.07
646.315	591.07
646.762	603.17
647.21	644.38
647.657	662.67
648.104	693.87
648.551	706.07
648.999	768.17
649.446	840.97
649.893	923.17
650.34	1071.97
650.787	1270.47
651.234	1579.67
651.682	2044.07
652.129	2775.77
652.576	4020.07
653.023	5959.07
653.47	8166.87
653.917	10296.67
654.363	11968.77
654.81	13422.67
655.257	12757.88
655.704	8309.37
656.151	4897.57
656.598	3176.48
657.044	2253.57
657.491	1720.67
657.938	1390.08
658.385	1152.88
658.831	1007.47
659.278	878.47
659.724	785.27
660.171	732.07
660.618	666.67
661.064	636.97
661.511	606.47
661.957	601.57
662.404	582.97
662.85	598.07
663.296	578.77
663.743	518.67
664.189	495.87
664.635	493.17
665.082	482.97
665.528	485.77
665.974	475.67
666.42	473.47
666.867	472.07
667.313	451.07
667.759	447.77
668.205	442.07
668.651	446.17
669.097	451.27
669.543	459.47
669.989	434.87
670.435	414.38
670.881	403.67
671.327	407.17
671.773	425.37
672.219	456.07
672.665	494.87
673.11	543.07
673.556	581.47
674.002	621.87
674.448	597.87
674.893	496.67
675.339	435.87
675.785	408.67
676.23	383.77
676.676	361.17
677.122	349.57
677.567	338.07
678.013	339.97
678.458	330.17
678.904	330.77
679.349	313.87
679.794	317.17
680.24	317.37
680.685	322.37
681.131	318.57
681.576	317.07
682.021	320.77
682.466	320.97
682.912	318.37
683.357	316.17
683.802	345.57
684.247	375.27
684.692	414.97
685.137	455.27
685.583	489.47
686.028	510.07
686.473	470.37
686.918	407.57
687.363	381.17
687.807	359.07
688.252	339.27
688.697	323.47
689.142	309.57
689.587	302.27
690.032	295.67
690.477	304.47
690.921	318.07
691.366	349.97
691.811	366.67
692.255	394.97
692.7	414.37
693.145	449.38
693.589	623.27
694.034	995.97
694.478	1390.38
694.923	1567.57
695.367	2095.77
695.812	1081.17
696.256	453.77
696.701	342.57
697.145	317.37
697.59	297.17
698.034	299.27
698.478	299.47
698.922	295.38
699.367	300.67
699.811	312.67
700.255	322.07
700.699	341.57
701.143	386.88
701.588	432.97
702.032	469.67
702.476	465.17
702.92	440.27
703.364	436.47
703.808	564.67
704.252	913.47
704.696	1296.17
705.14	1540.38
705.584	1967.98
706.027	969.17
706.471	468.77
706.915	366.97
707.359	318.17
707.803	294.37
708.246	287.67
708.69	294.27
709.134	286.67
709.577	282.57
710.021	292.47
710.465	280.77
710.908	268.87
711.352	270.57
711.795	278.27
712.239	314.77
712.682	358.77
713.126	376.47
713.569	420.17
714.012	335.57
714.456	289.88
714.899	269.67
715.342	246.57
715.786	241.47
716.229	233.27
716.672	231.87
717.115	231.37
717.558	231.67
718.002	222.47
718.445	228.47
718.888	259.87
719.331	265.67
719.774	280.87
720.217	266.87
720.66	258.07
721.103	244.07
721.546	226.38
721.989	221.47
722.432	207.57
722.874	223.97
723.317	207.77
723.76	213.17
724.203	231.77
724.645	284.87
725.088	395.17
725.531	505.47
725.974	593.17
726.416	494.77
726.859	277.17
727.301	221.17
727.744	214.67
728.187	209.77
728.629	218.97
729.071	222.17
729.514	231.97
729.956	238.47
730.399	259.37
730.841	260.77
731.283	251.57
731.726	242.77
732.168	231.47
732.61	240.17
733.053	257.97
733.495	280.17
733.937	319.97
734.379	356.47
734.821	391.27
735.263	486.17
735.705	731.87
736.148	1373.87
736.59	2296.88
737.032	2785.47
737.474	2273.17
737.916	738.07
738.357	384.77
738.799	295.87
739.241	269.77
739.683	260.17
740.125	261.97
740.567	267.17
741.008	286.87
741.45	285.47
741.892	286.77
742.334	312.67
742.775	325.37
743.217	309.17
743.658	244.17
744.1	225.07
744.542	241.77
744.983	272.87
745.425	313.87
745.866	316.07
746.307	261.27
746.749	252.17
747.19	290.97
747.632	401.67
748.073	763.57
748.514	1645.38
748.956	2561.67
749.397	3210.97
749.838	2673.28
750.279	2728.58
750.72	1378.88
751.162	494.07
751.603	286.97
752.044	223.77
752.485	191.67
752.926	191.57
753.367	182.87
753.808	175.77
754.249	162.37
754.69	166.97
755.131	168.67
755.572	165.47
756.013	168.77
756.453	167.47
756.894	167.57
757.335	167.27
757.776	176.27
758.216	170.67
758.657	174.57
759.098	182.77
759.538	205.67
759.979	244.47
760.42	335.57
760.86	613.17
761.301	1586.88
761.741	3924.48
762.182	5953.08
762.622	4178.07
763.063	1196.57
763.503	485.67
763.943	306.87
764.384	304.57
764.824	354.17
765.264	398.57
765.705	273.57
766.145	192.07
766.585	174.37
767.025	160.77
767.465	171.17
767.906	216.67
768.346	291.17
768.786	306.17
769.226	237.97
769.666	285.47
770.106	534.37
770.546	1365.37
770.986	2409.88
771.426	2183.68
771.866	719.77
772.306	299.87
772.745	187.97
773.185	154.27
773.625	156.27
774.065	147.37
774.505	177.07
774.944	265.07
775.384	575.97
775.824	1076.57
776.263	1077.28
776.703	452.87
777.142	193.87
777.582	139.77
778.021	123.37
778.461	124.27
778.9	130.47
779.34	118.87
779.779	104.77
780.219	102.77
780.658	96.47
781.097	98.87
781.537	96.67
781.976	99.97
782.415	98.87
782.855	95.57
783.294	87.67
783.733	93.87
784.172	99.87
784.611	94.17
785.05	99.77
785.489	106.47
785.928	107.57
786.367	109.27
786.806	113.57
787.245	123.67
787.684	121.07
788.123	136.87
788.562	123.37
789.001	109.47
789.44	100.77
789.879	102.67
790.317	111.47
790.756	117.87
791.195	119.17
791.634	131.57
792.072	178.47
792.511	324.97
792.95	882.57
793.388	1932.07
793.827	1797.47
794.265	610.97
794.704	251.67
795.142	164.17
795.581	129.47
796.019	122.97
796.458	118.17
796.896	102.37
797.334	119.07
797.773	139.27
798.211	199.97
798.649	377.57
799.087	908.88
799.526	1425.67
799.964	1795.47
800.402	1854.27
800.84	688.77
801.278	269.97
801.716	164.37
802.154	137.77
802.592	136.17
803.03	126.57
803.468	126.87
803.906	131.27
804.344	133.97
804.782	123.67
805.22	116.77
805.658	117.17
806.096	130.27
806.533	139.07
806.971	157.97
807.409	198.87
807.847	272.57
808.284	575.37
808.722	1640.27
809.16	2995.68
809.597	2776.48
810.035	4878.68
810.472	5392.68
810.91	1929.07
811.347	721.77
811.785	370.88
812.222	236.97
812.66	175.27
813.097	150.77
813.535	129.87
813.972	111.47
814.409	113.07
814.846	100.27
815.284	99.17
815.721	86.87
816.158	97.17
816.595	107.17
817.032	155.17
817.47	183.77
817.907	134.47
818.344	135.17
818.781	103.77
819.218	86.87
819.655	115.67
820.092	167.17
820.529	200.27
820.966	165.17
821.403	125.97
821.839	96.47
822.276	86.27
822.713	107.07
823.15	126.87
823.587	104.47
824.023	133.67
824.46	255.38
824.897	788.27
825.333	1245.77
825.77	535.07
826.206	206.07
826.643	119.87
827.08	91.67
827.516	76.87
827.953	70.07
828.389	76.77
828.825	65.57
829.262	67.27
829.698	59.67
830.135	58.77
830.571	60.27
831.007	58.97
831.443	61.07
831.88	58.07
832.316	53.47
832.752	55.17
833.188	56.17
833.624	56.27
834.06	67.07
834.497	57.17
834.933	61.47
835.369	69.27
835.805	61.87
836.241	70.17
836.677	65.07
837.112	79.77
837.548	86.47
837.984	123.87
838.42	172.37
838.856	430.77
839.292	1343.77
839.727	2127.38
840.163	970.47
840.599	802.97
841.034	1816.27
841.47	1954.37
841.906	710.27
842.341	309.87
842.777	209.47
843.212	277.47
843.648	275.87
844.083	139.67
844.519	84.57
844.954	65.07
845.39	61.47
845.825	56.07
846.261	50.37
846.696	53.77
847.131	49.47
847.566	58.07
848.002	52.27
848.437	52.97
848.872	52.57
849.307	58.07
849.742	77.87
850.177	166.27
850.613	494.27
851.048	796.87
851.483	342.77
851.918	144.17
852.353	79.57
852.788	51.37
853.223	44.87
853.657	54.67
854.092	40.67
854.527	40.97
854.962	40.07
855.397	42.77
855.832	40.77
856.266	37.87
856.701	37.57
857.136	32.87
857.57	38.87
858.005	45.67
858.44	53.67
858.874	40.57
859.309	53.47
859.743	42.77
860.178	40.07
860.612	40.57
861.047	42.17
861.481	56.37
861.915	71.17
862.35	46.67
862.784	31.27
863.218	33.87
863.653	31.67
864.087	41.27
864.521	48.97
864.955	63.37
865.39	143.57
865.824	156.27
866.258	108.97
866.692	151.57
867.126	166.17
867.56	95.87
867.994	50.47
868.428	33.27
868.862	45.37
869.296	54.27
869.73	51.07
870.164	45.37
870.598	44.07
871.031	31.77
871.465	31.97
871.899	29.67
872.333	24.47
872.766	25.47
873.2	22.07
873.634	27.47
874.067	29.77
874.501	19.47
874.935	35.17
875.368	33.77
875.802	29.47
876.235	24.17
876.669	27.67
877.102	24.27
877.535	18.27
877.969	23.57
878.402	21.87
878.836	22.97
879.269	21.67
879.702	29.27
880.135	19.37
880.569	23.27
881.002	29.67
881.435	28.47
881.868	22.37
882.301	18.47
882.734	16.67
883.167	25.97
883.601	14.87
884.034	16.77
884.467	15.27
884.899	19.97
885.332	12.77
885.765	15.67
886.198	11.87
886.631	16.87
887.064	16.57
887.497	17.17
887.929	20.27
888.362	16.77
888.795	11.77
889.228	14.97
889.66	23.87
890.093	17.77
890.526	15.07
890.958	19.97
891.391	17.17
891.823	19.97
892.256	15.27
892.688	13.17
893.121	18.97
893.553	15.17
893.985	14.97
894.418	18.27
894.85	13.07
895.282	14.67
895.715	19.27
896.147	18.07
896.579	16.67
897.011	11.17
897.444	17.57
897.876	7.87
898.308	16.37
898.74	11.17
899.172	10.47
899.604	22.07
900.036	18.17
900.468	14.17
900.9	17.17
901.332	15.87
901.764	10.47
902.196	16.77
902.628	16.97
903.06	14.57
903.491	24.77
903.923	26.97
904.355	21.57
904.787	27.37
905.218	19.17
905.65	22.07
906.082	10.47
906.513	17.97
906.945	13.47
907.376	11.97
907.808	19.07
908.239	20.27
908.671	19.27
909.102	18.57
909.534	24.97
909.965	47.37
910.397	87.47
910.828	281.67
911.259	430.67
911.691	196.47
912.122	94.17
912.553	40.27
912.984	28.07
913.415	20.97
913.847	22.77
914.278	20.97
914.709	14.57
915.14	20.37
915.571	17.57
916.002	10.97
916.433	21.47
916.864	17.27
917.295	9.77
917.726	16.07
918.157	14.17
918.587	32.57
919.018	16.57
919.449	19.67
919.88	18.37
920.311	31.77
920.741	42.87
921.172	148.07
921.603	134.97
922.033	62.27
922.464	40.17
922.895	20.87
923.325	16.07
923.756	14.77
924.186	19.17
924.617	23.87
925.047	35.47
925.478	41.37
925.908	42.07
926.338	29.17
926.769	19.77
927.199	25.97
927.629	13.87
928.06	14.87
928.49	10.67
928.92	10.87
929.35	8.27
929.78	7.77
930.21	11.27
930.641	4.97
931.071	9.57
931.501	3.17
931.931	9.97
932.361	7.27
932.791	7.17
933.221	6.27
933.651	5.77
934.08	14.37
934.51	26.07
934.94	10.77
935.37	4.67
935.8	7.17
936.229	5.37
936.659	12.17
937.089	2.67
937.519	16.17
937.948	21.27
938.378	15.97
938.807	5.77
939.237	4.97
939.666	7.97
940.096	-3.33
940.525	1.37
940.955	3.97
941.384	6.77
941.814	-3.33
942.243	-1.13
942.672	0.27
943.102	0.67
943.531	-1.93
943.96	1.17
944.39	3.57
944.819	2.97
945.248	1.67
945.677	6.07
946.106	3.07
946.535	11.57
946.964	-2.23
947.393	9.57
947.822	8.47
948.251	-3.33
948.68	5.17
949.109	4.77
949.538	3.77
949.967	-0.03
950.396	0.57
950.825	-2.83
951.254	2.77
951.682	-8.63
952.111	12.07
952.54	11.47
952.969	-3.33
953.397	-1.53
953.826	3.27
954.254	-2.63
954.683	2.77
955.112	-8.43
955.54	-1.93
955.969	4.47
956.397	2.77
956.826	5.17
957.254	0.67
957.682	-0.03
958.111	8.57
958.539	3.97
958.967	4.07
959.396	-3.43
959.824	1.27
960.252	0.67
960.68	-5.73
961.109	-1.23
961.537	-2.63
961.965	1.37
962.393	-4.93
962.821	-2.03
963.249	1.07
963.677	5.47
964.105	9.67
964.533	34.27
964.961	36.97
965.389	20.27
965.817	7.87
966.245	-1.53
966.672	7.27
967.1	-5.83
967.528	3.47
967.956	-2.33
968.383	-3.43
968.811	-4.23
969.239	3.07
969.666	0.47
970.094	-1.93
970.522	3.47
970.949	-0.83
971.377	-4.13
971.804	-5.63
972.232	-0.33
972.659	-0.93
973.087	2.57
973.514	1.77
973.941	-8.73
974.369	5.67
974.796	3.77
975.223	1.07
975.651	-4.83
976.078	9.27
976.505	1.17
976.932	5.97
977.359	17.37
977.786	15.07
978.214	5.07
978.641	-2.33
979.068	-4.93
979.495	-1.83
979.922	-0.23
980.349	-3.53
980.776	1.57
981.202	0.07
981.629	5.97
982.056	11.47
982.483	-0.33
982.91	4.77
983.337	-7.73
983.763	6.17
984.19	-1.23
984.617	-1.83
985.043	-6.73
985.47	-2.33
985.897	1.07
986.323	-7.13
986.75	5.37
987.176	0.27
987.603	-1.53
988.029	-0.83
988.456	-2.83
988.882	7.07
989.308	-0.83
989.735	-2.63
990.161	2.07
990.587	-4.63
991.014	-1.43
991.44	10.77
991.866	-2.03
992.292	-2.23
992.719	0.07
993.145	-3.83
993.571	-4.13
993.997	-3.43
994.423	-2.23
994.849	-5.73
995.275	1.27
995.701	2.07
996.127	-3.73
996.553	5.37
996.979	-0.13
997.405	-1.43
997.83	-12.13
998.256	-1.33
998.682	-9.13
999.108	-6.53
999.534	-2.13
999.959	-3.23
1000.385	-6.83
1000.811	5.67
1001.236	-8.73
1001.662	-7.93
1002.087	-10.03
1002.513	0.87
1002.938	4.87
1003.364	-2.73
1003.789	1.97
1004.215	3.67
1004.64	-2.33
1005.066	4.37
1005.491	-2.43
1005.916	1.07
1006.342	-3.93
1006.767	-5.73
1007.192	2.17
1007.617	-5.03
1008.042	-2.63
1008.468	-6.83
1008.893	-1.73
1009.318	-2.73
1009.743	-0.63
1010.168	1.57
1010.593	4.07
1011.018	-5.43
1011.443	-0.13
1011.868	-3.43
1012.293	-0.63
1012.718	-9.93
1013.143	5.47
1013.567	2.37
1013.992	-5.83
1014.417	-16.23
1014.842	-6.13
1015.267	-2.23
1015.691	-2.83
1016.116	6.67
1016.541	-1.03
1016.965	5.37
1017.39	1.97
1017.814	2.77
1018.239	-1.83
1018.663	-8.13
1019.088	-8.53
1019.512	-1.83
1019.937	3.47
1020.361	-5.83
1020.785	-4.43
1021.21	-1.93
1021.634	-4.73
1022.058	0.77
1022.483	6.07
1022.907	-5.83
1023.331	-5.63
1023.755	-1.43
1024.179	2.87
1024.604	-9.43
1025.028	-7.63
1025.452	-4.83
1025.876	5.57
1026.3	1.87
1026.724	-11.13
1027.148	-4.73
1027.572	-11.73
1027.996	-7.93
1028.42	-2.23
1028.843	-3.13
1029.267	-5.23
1029.691	-0.53
1030.115	-10.43
1030.539	-1.03
1030.962	-4.93
1031.386	-14.43
1031.81	-0.33
1032.233	3.07
1032.657	2.87
1033.08	-4.33
1033.504	0.47
1033.927	-5.93
1034.351	1.87
1034.774	-7.83
1035.198	0.77
1035.621	-7.73
1036.045	-6.73
1036.468	-3.53
1036.891	-6.43
1037.315	-9.23
1037.738	-5.63
1038.161	1.97
1038.584	-4.73
1039.008	-1.83
1039.431	2.47
1039.854	-2.63
1040.277	-3.93
1040.7	-5.73
1041.123	-4.03
1041.546	-9.73
1041.969	-4.43
1042.392	-2.43
1042.815	-2.13
1043.238	3.27
1043.661	0.67
1044.084	-2.93
1044.507	-5.43
1044.93	-2.13
1045.352	-7.23
1045.775	-1.33
1046.198	-2.53
1046.621	1.67
1047.043	3.47
1047.466	11.47
1047.889	-5.83
1048.311	-7.43
1048.734	-0.83
1049.156	1.77
1049.579	-6.73
1050.001	-4.33
1050.424	0.37
1050.846	-6.73
1051.269	1.87
1051.691	-2.73
1052.113	-2.23
1052.536	-9.13
1052.958	-6.23
1053.38	-1.83
1053.802	-9.43
1054.225	5.47
1054.647	-7.03
1055.069	-9.13
1055.491	-0.43
1055.913	-1.43
1056.335	5.57
1056.757	-2.43
1057.179	-0.93
1057.601	-7.13
1058.023	-4.23
1058.445	-7.03
1058.867	-5.63
1059.289	-0.53
1059.711	-3.43
1060.133	-3.23
1060.555	-2.73
1060.976	-1.43
1061.398	-6.03
1061.82	-2.53
1062.241	-2.23
1062.663	-3.93
1063.085	-5.63
1063.506	1.67
1063.928	-8.73
1064.35	-2.63
1064.771	-8.03
1065.193	-4.43
1065.614	-7.93
1066.035	-0.83
1066.457	-5.23
1066.878	3.77
1067.3	3.97
1067.721	-3.03
1068.142	-2.23
1068.564	0.57
1068.985	-3.03
1069.406	-3.73
1069.827	-5.63
1070.248	-1.13
1070.67	-4.73
1071.091	-3.43
1071.512	-2.83
1071.933	3.07
1072.354	-12.03
1072.775	-9.13
1073.196	-4.73
1073.617	-3.13
1074.038	-3.23
1074.459	-1.63
1074.88	-4.43
1075.3	0.07
1075.721	-9.83
1076.142	-4.73
1076.563	1.47
1076.983	-7.83
1077.404	-6.23
1077.825	-6.83
1078.246	-7.63
1078.666	-7.73
1079.087	-8.33
1079.507	-4.03
1079.928	-2.93
1080.348	-2.83
1080.769	-2.63
1081.189	-2.73
1081.61	0.77
1082.03	-7.83
1082.451	-7.43
1082.871	-0.93
1083.291	-7.23
1083.711	-6.43
1084.132	-3.63
1084.552	-3.73
1084.972	0.17
1085.392	-2.53
1085.813	-9.63
1086.233	-7.53
1086.653	-6.63
1087.073	2.97
1087.493	-2.73
1087.913	-3.13
1088.333	-7.83
1088.753	-8.83
1089.173	10.27
1089.593	-5.63
1090.013	2.37
1090.433	0.07
1090.852	-7.03
1091.272	0.87
1091.692	1.37
1092.112	-3.43
1092.531	-6.23
1092.951	-8.23
1093.371	0.17
1093.79	2.67
1094.21	-0.63
1094.63	-1.43
1095.049	2.77
1095.469	-7.83
1095.888	-2.53
1096.308	-0.43
1096.727	-0.83
1097.146	-6.53
1097.566	1.87
1097.985	1.17
1098.405	2.17
1098.824	-10.53
1099.243	-3.03
1099.662	-4.23
1100.082	-3.73
1100.501	-1.73
1100.92	1.77
1101.339	-0.23
1101.758	-0.03
