Data from 20171114-ORNL-Ar_H_NY_Subt18_08-06-49-397.txt Node
Date: Tue Nov 14 08:06:49 EST 2017
User: Ender
Spectrometer: HR+D1039
Trigger mode: 0
Integration Time (sec): 2.730000E-2
Scans to average: 10
Electric dark correction enabled: true
Nonlinearity correction enabled: false
Boxcar width: 0
XAxis mode: Wavelengths
Number of Pixels in Spectrum: 2048
>>>>>Begin Spectral Data<<<<<
187.836	-3.79
188.309	-3.79
188.782	-3.79
189.255	-6.49
189.728	-2.49
190.201	5.01
190.674	3.11
191.147	7.61
191.619	-4.59
192.092	4.11
192.565	5.51
193.038	-1.79
193.511	-0.09
193.984	-1.99
194.456	-2.09
194.929	-1.49
195.402	-3.99
195.874	3.51
196.347	-3.89
196.82	-6.09
197.292	5.21
197.765	-1.99
198.237	-8.99
198.71	1.01
199.182	-6.19
199.655	2.21
200.127	1.41
200.6	-2.89
201.072	-5.29
201.544	-3.99
202.017	-3.89
202.489	1.31
202.961	-1.19
203.433	0.81
203.906	-8.49
204.378	-2.19
204.85	-0.69
205.322	-10.19
205.794	-1.59
206.266	-4.09
206.739	-12.99
207.211	5.41
207.683	-4.99
208.155	-4.79
208.627	-2.59
209.099	-1.49
209.57	-6.09
210.042	-5.69
210.514	-5.19
210.986	-3.89
211.458	-11.59
211.93	-0.59
212.402	0.01
212.873	-2.59
213.345	-9.19
213.817	-4.59
214.288	-2.29
214.76	-10.69
215.232	-2.99
215.703	-5.39
216.175	-3.29
216.646	-3.39
217.118	-8.39
217.589	-4.79
218.061	-1.49
218.532	-9.39
219.004	-2.49
219.475	-5.49
219.946	-3.49
220.418	-9.69
220.889	0.11
221.36	2.01
221.832	-3.39
222.303	-8.99
222.774	0.61
223.245	-8.29
223.717	-8.79
224.188	-7.99
224.659	-5.59
225.13	-1.59
225.601	-1.29
226.072	-1.79
226.543	3.51
227.014	2.51
227.485	-5.49
227.956	-4.69
228.427	-2.79
228.898	1.51
229.369	0.31
229.839	-3.79
230.31	-7.39
230.781	2.91
231.252	-1.49
231.722	-4.09
232.193	-4.49
232.664	2.31
233.135	-1.19
233.605	-6.49
234.076	-6.39
234.546	-2.39
235.017	1.21
235.487	-2.79
235.958	-0.89
236.428	-3.69
236.899	-0.79
237.369	0.51
237.84	-4.39
238.31	6.01
238.78	3.81
239.251	-2.09
239.721	-2.09
240.191	-1.99
240.662	-0.49
241.132	0.21
241.602	-2.19
242.072	-3.99
242.542	2.11
243.013	0.31
243.483	3.61
243.953	3.61
244.423	0.21
244.893	-4.49
245.363	-2.19
245.833	1.91
246.303	-2.79
246.773	7.41
247.243	-3.89
247.712	-1.29
248.182	2.81
248.652	6.51
249.122	-3.39
249.592	11.21
250.061	15.31
250.531	15.91
251.001	7.11
251.471	13.51
251.94	9.91
252.41	4.31
252.879	-4.89
253.349	8.11
253.818	4.91
254.288	6.71
254.757	3.61
255.227	1.91
255.696	2.21
256.166	2.61
256.635	6.51
257.105	6.91
257.574	3.71
258.043	8.61
258.513	3.21
258.982	8.01
259.451	5.91
259.92	6.31
260.389	6.21
260.859	14.71
261.328	6.61
261.797	12.51
262.266	2.81
262.735	6.41
263.204	1.51
263.673	-0.89
264.142	3.81
264.611	-6.79
265.08	-1.69
265.549	3.81
266.018	2.31
266.487	1.01
266.955	-5.59
267.424	-1.99
267.893	3.31
268.362	-0.79
268.83	1.91
269.299	6.01
269.768	0.81
270.236	9.01
270.705	4.61
271.174	-2.49
271.642	8.51
272.111	8.61
272.579	10.91
273.048	13.81
273.516	19.21
273.985	21.91
274.453	15.51
274.922	17.91
275.39	2.81
275.858	5.51
276.327	9.81
276.795	12.91
277.263	7.31
277.731	20.91
278.2	34.01
278.668	40.51
279.136	38.71
279.604	7.41
280.072	15.41
280.54	13.91
281.008	4.81
281.477	13.91
281.945	9.11
282.413	14.61
282.881	15.11
283.348	5.71
283.816	3.61
284.284	6.91
284.752	14.31
285.22	10.11
285.688	11.31
286.156	10.81
286.623	34.71
287.091	33.91
287.559	24.81
288.026	13.31
288.494	16.31
288.962	-0.89
289.429	7.51
289.897	15.41
290.364	13.01
290.832	14.31
291.3	14.31
291.767	16.71
292.234	16.51
292.702	10.01
293.169	14.81
293.637	15.91
294.104	17.81
294.571	9.41
295.039	11.51
295.506	10.51
295.973	14.61
296.44	9.71
296.908	12.01
297.375	13.71
297.842	13.91
298.309	16.11
298.776	9.41
299.243	24.41
299.71	9.21
300.177	19.51
300.644	11.61
301.111	14.41
301.578	18.71
302.045	17.11
302.512	16.21
302.979	20.91
303.446	17.21
303.913	18.21
304.379	17.11
304.846	26.71
305.313	20.01
305.78	16.61
306.246	19.71
306.713	24.91
307.18	23.11
307.646	24.41
308.113	28.51
308.579	19.01
309.046	21.51
309.512	22.81
309.979	18.11
310.445	25.81
310.912	29.61
311.378	29.51
311.845	29.41
312.311	24.61
312.777	30.71
313.244	28.01
313.71	36.11
314.176	27.81
314.642	26.71
315.109	29.11
315.575	36.71
316.041	33.01
316.507	28.61
316.973	35.31
317.439	37.51
317.905	34.61
318.371	34.31
318.837	32.91
319.303	32.51
319.769	33.71
320.235	30.31
320.701	30.01
321.167	28.41
321.633	27.91
322.099	30.11
322.564	38.31
323.03	38.21
323.496	29.01
323.962	41.01
324.427	29.21
324.893	40.01
325.359	33.61
325.824	31.41
326.29	36.81
326.755	36.31
327.221	34.31
327.686	37.61
328.152	40.11
328.617	38.01
329.083	41.51
329.548	46.71
330.014	50.01
330.479	39.61
330.944	33.71
331.41	35.71
331.875	41.41
332.34	38.01
332.805	38.81
333.271	46.81
333.736	40.71
334.201	44.31
334.666	47.01
335.131	49.71
335.596	48.51
336.061	46.21
336.526	32.41
336.991	45.51
337.456	53.11
337.921	45.91
338.386	42.71
338.851	46.71
339.316	43.21
339.781	48.31
340.246	36.71
340.711	43.41
341.175	40.31
341.64	38.01
342.105	44.91
342.569	47.81
343.034	56.81
343.499	53.81
343.963	53.41
344.428	59.91
344.893	54.41
345.357	57.01
345.822	58.21
346.286	65.71
346.751	67.91
347.215	68.21
347.679	66.61
348.144	88.31
348.608	81.91
349.073	68.51
349.537	70.31
350.001	77.41
350.465	86.31
350.93	72.71
351.394	74.71
351.858	63.71
352.322	82.31
352.786	69.81
353.25	89.31
353.715	97.81
354.179	95.81
354.643	114.21
355.107	116.61
355.571	100.11
356.035	98.21
356.498	112.71
356.962	107.31
357.426	117.31
357.89	104.71
358.354	77.51
358.818	79.51
359.281	74.21
359.745	80.91
360.209	74.11
360.673	74.71
361.136	73.41
361.6	76.01
362.064	75.21
362.527	82.11
362.991	87.21
363.454	71.71
363.918	69.81
364.381	76.71
364.845	78.61
365.308	87.61
365.772	85.71
366.235	90.71
366.698	82.21
367.162	79.81
367.625	83.01
368.088	84.21
368.552	80.11
369.015	90.21
369.478	96.51
369.941	97.61
370.404	93.41
370.867	101.31
371.331	110.51
371.794	112.21
372.257	102.41
372.72	109.41
373.183	105.61
373.646	94.71
374.109	102.21
374.572	102.41
375.035	105.31
375.497	93.91
375.96	101.61
376.423	100.51
376.886	113.31
377.349	105.71
377.811	94.41
378.274	98.31
378.737	103.01
379.199	111.31
379.662	106.61
380.125	111.71
380.587	108.91
381.05	115.41
381.512	122.21
381.975	125.81
382.437	123.61
382.9	122.91
383.362	120.01
383.825	139.61
384.287	140.41
384.75	129.61
385.212	130.21
385.674	137.31
386.136	130.91
386.599	126.61
387.061	126.21
387.523	126.31
387.985	128.61
388.447	141.81
388.91	136.31
389.372	144.51
389.834	150.11
390.296	138.71
390.758	152.81
391.22	164.11
391.682	194.91
392.144	262.01
392.606	209.71
393.068	158.41
393.529	158.81
393.991	148.81
394.453	138.21
394.915	153.21
395.377	183.01
395.838	198.71
396.3	145.01
396.762	146.61
397.224	134.91
397.685	125.11
398.147	125.81
398.608	129.71
399.07	128.51
399.531	133.91
399.993	141.51
400.454	152.01
400.916	149.51
401.377	135.31
401.839	150.41
402.3	155.01
402.762	159.91
403.223	174.51
403.684	177.21
404.145	161.31
404.607	163.41
405.068	165.01
405.529	170.21
405.99	186.51
406.451	175.41
406.913	172.61
407.374	161.41
407.835	153.51
408.296	165.31
408.757	178.91
409.218	183.71
409.679	173.51
410.14	169.71
410.601	177.11
411.062	185.51
411.522	188.51
411.983	189.51
412.444	174.41
412.905	175.31
413.366	184.81
413.826	195.51
414.287	218.51
414.748	262.21
415.208	248.41
415.669	214.21
416.13	207.41
416.59	208.91
417.051	209.01
417.511	227.01
417.972	241.21
418.432	246.31
418.893	293.91
419.353	257.51
419.814	195.51
420.274	187.31
420.734	189.31
421.195	199.11
421.655	199.11
422.115	198.01
422.576	191.81
423.036	202.01
423.496	208.31
423.956	222.11
424.416	231.71
424.876	268.01
425.336	263.31
425.797	260.61
426.257	259.51
426.717	244.41
427.177	227.11
427.637	228.71
428.097	235.21
428.556	252.51
429.016	277.71
429.476	262.21
429.936	277.21
430.396	276.81
430.856	299.31
431.315	319.41
431.775	349.51
432.235	379.71
432.694	352.61
433.154	360.91
433.614	385.51
434.073	334.31
434.533	285.71
434.993	267.51
435.452	278.61
435.912	294.61
436.371	297.01
436.83	286.61
437.29	267.41
437.749	244.31
438.209	247.11
438.668	274.01
439.127	285.41
439.587	270.01
440.046	250.41
440.505	258.91
440.964	286.91
441.424	326.31
441.883	311.81
442.342	269.11
442.801	235.51
443.26	227.91
443.719	224.81
444.178	220.31
444.637	214.31
445.096	220.71
445.555	226.11
446.014	222.41
446.473	228.41
446.932	240.31
447.391	231.61
447.849	229.91
448.308	227.91
448.767	222.21
449.226	239.31
449.685	244.61
450.143	251.71
450.602	244.41
451.061	226.91
451.519	233.61
451.978	230.71
452.436	241.21
452.895	248.71
453.353	252.41
453.812	242.31
454.27	245.61
454.729	247.31
455.187	245.41
455.646	243.41
456.104	246.91
456.562	266.71
457.021	269.11
457.479	259.61
457.937	271.21
458.395	268.41
458.854	247.11
459.312	260.81
459.77	274.31
460.228	260.51
460.686	240.31
461.144	255.11
461.602	249.11
462.06	246.21
462.518	256.71
462.976	258.11
463.434	257.51
463.892	275.31
464.35	280.41
464.808	288.31
465.266	268.21
465.724	284.91
466.181	280.21
466.639	274.91
467.097	297.71
467.555	308.81
468.012	307.21
468.47	315.31
468.928	332.11
469.385	343.81
469.843	347.71
470.3	357.91
470.758	371.01
471.215	395.21
471.673	401.51
472.13	408.01
472.588	423.61
473.045	379.91
473.503	394.61
473.96	406.11
474.417	412.21
474.875	435.51
475.332	479.91
475.789	466.71
476.246	476.51
476.704	496.71
477.161	510.81
477.618	521.11
478.075	568.81
478.532	608.71
478.989	701.31
479.446	815.91
479.903	776.81
480.36	814.21
480.817	869.11
481.274	967.41
481.731	1071.01
482.188	1163.21
482.645	1297.61
483.102	1397.91
483.558	1523.21
484.015	1576.91
484.472	1556.61
484.929	1502.91
485.385	1459.71
485.842	1408.81
486.299	1359.01
486.755	1297.31
487.212	1091.21
487.668	929.61
488.125	858.41
488.582	793.41
489.038	742.31
489.494	719.21
489.951	696.31
490.407	682.51
490.864	648.51
491.32	646.41
491.776	650.61
492.233	656.01
492.689	613.21
493.145	620.41
493.602	614.31
494.058	631.61
494.514	632.51
494.97	646.11
495.426	657.91
495.882	629.11
496.338	630.71
496.794	634.01
497.251	631.71
497.707	645.61
498.163	641.81
498.618	645.01
499.074	648.51
499.53	688.71
499.986	687.51
500.442	658.91
500.898	640.11
501.354	636.91
501.809	638.41
502.265	642.61
502.721	658.01
503.177	675.01
503.632	671.31
504.088	683.81
504.543	716.81
504.999	710.41
505.455	665.51
505.91	646.41
506.366	651.71
506.821	638.71
507.277	634.51
507.732	632.01
508.187	642.81
508.643	654.21
509.098	648.01
509.553	666.31
510.009	679.01
510.464	683.51
510.919	703.61
511.375	709.91
511.83	727.51
512.285	741.01
512.74	771.51
513.195	794.31
513.65	786.41
514.105	781.21
514.56	783.41
515.015	810.81
515.47	813.11
515.925	799.51
516.38	797.41
516.835	800.41
517.29	785.71
517.745	795.41
518.2	780.31
518.655	754.81
519.109	762.21
519.564	751.81
520.019	741.11
520.474	736.81
520.928	740.51
521.383	735.21
521.838	723.41
522.292	726.81
522.747	723.51
523.201	723.11
523.656	710.71
524.11	713.71
524.565	713.11
525.019	712.61
525.474	711.51
525.928	706.31
526.382	700.61
526.837	712.41
527.291	722.21
527.745	713.91
528.2	710.11
528.654	708.51
529.108	702.81
529.562	705.91
530.016	705.41
530.47	703.51
530.925	714.51
531.379	701.61
531.833	713.31
532.287	711.11
532.741	708.81
533.195	714.61
533.649	716.21
534.103	731.61
534.556	730.21
535.01	721.61
535.464	717.01
535.918	730.71
536.372	724.91
536.826	733.51
537.279	714.21
537.733	724.21
538.187	727.11
538.64	720.41
539.094	736.81
539.548	737.11
540.001	727.61
540.455	735.11
540.908	745.01
541.362	761.91
541.815	754.31
542.269	770.11
542.722	774.21
543.175	791.01
543.629	782.21
544.082	805.71
544.536	807.51
544.989	800.61
545.442	804.51
545.895	811.51
546.349	812.71
546.802	808.21
547.255	816.21
547.708	824.41
548.161	826.21
548.614	835.21
549.067	842.51
549.52	835.11
549.973	826.41
550.426	824.61
550.879	807.61
551.332	812.81
551.785	821.61
552.238	824.51
552.691	833.81
553.144	844.61
553.596	872.51
554.049	878.41
554.502	905.51
554.955	923.41
555.407	917.71
555.86	909.91
556.313	905.31
556.765	904.91
557.218	902.91
557.67	900.71
558.123	892.81
558.576	891.91
559.028	893.91
559.48	901.61
559.933	878.91
560.385	859.61
560.838	827.71
561.29	802.51
561.742	793.71
562.195	795.21
562.647	783.81
563.099	794.51
563.551	795.81
564.004	791.81
564.456	796.41
564.908	772.61
565.36	757.31
565.812	739.61
566.264	737.21
566.716	740.81
567.168	717.31
567.62	725.81
568.072	714.21
568.524	706.51
568.976	694.81
569.428	690.51
569.88	678.81
570.332	698.61
570.784	692.51
571.235	694.51
571.687	709.41
572.139	714.91
572.59	728.51
573.042	731.61
573.494	715.81
573.945	714.41
574.397	698.11
574.849	697.41
575.3	696.11
575.752	691.61
576.203	685.71
576.655	690.01
577.106	677.01
577.557	676.61
578.009	680.21
578.46	677.51
578.912	671.31
579.363	674.71
579.814	675.71
580.265	672.91
580.717	678.91
581.168	675.61
581.619	686.01
582.07	688.31
582.521	685.71
582.972	675.31
583.423	689.81
583.875	694.01
584.326	705.21
584.777	743.01
585.227	813.51
585.678	888.31
586.129	950.41
586.58	1007.91
587.031	1070.21
587.482	1197.71
587.933	1345.01
588.384	1199.31
588.834	936.61
589.285	811.21
589.736	794.11
590.186	783.01
590.637	779.21
591.088	755.41
591.538	741.51
591.989	729.41
592.439	732.51
592.89	725.91
593.34	722.91
593.791	716.91
594.241	710.21
594.692	720.21
595.142	711.31
595.593	698.71
596.043	719.21
596.493	725.51
596.943	721.81
597.394	736.81
597.844	714.31
598.294	744.81
598.744	757.41
599.195	791.11
599.645	835.91
600.095	873.31
600.545	937.21
600.995	980.11
601.445	1041.01
601.895	1092.51
602.345	1147.71
602.795	1124.41
603.245	1086.21
603.695	1019.81
604.145	973.11
604.594	925.51
605.044	881.91
605.494	818.11
605.944	763.01
606.393	755.31
606.843	743.61
607.293	735.61
607.743	732.61
608.192	747.11
608.642	757.81
609.091	778.11
609.541	779.31
609.99	773.91
610.44	773.51
610.889	735.31
611.339	714.21
611.788	689.41
612.238	697.61
612.687	720.81
613.136	724.11
613.586	739.01
614.035	736.11
614.484	756.21
614.933	749.81
615.383	738.41
615.832	740.21
616.281	727.41
616.73	685.41
617.179	676.91
617.628	649.31
618.077	643.41
618.526	637.11
618.975	618.41
619.424	619.91
619.873	615.81
620.322	618.51
620.771	622.51
621.22	605.71
621.669	590.21
622.118	590.91
622.567	582.11
623.015	581.01
623.464	574.21
623.913	561.31
624.361	560.51
624.81	555.61
625.259	565.71
625.707	565.01
626.156	567.21
626.604	569.11
627.053	564.91
627.501	563.51
627.95	568.21
628.398	593.01
628.847	570.71
629.295	573.01
629.744	578.61
630.192	580.31
630.64	572.91
631.089	565.01
631.537	572.11
631.985	574.81
632.433	585.41
632.881	590.41
633.33	619.71
633.778	619.01
634.226	553.81
634.674	560.41
635.122	568.91
635.57	579.91
636.018	603.61
636.466	578.11
636.914	564.71
637.362	575.41
637.81	581.81
638.258	583.31
638.705	589.71
639.153	604.91
639.601	615.41
640.049	649.01
640.497	677.51
640.944	696.61
641.392	646.21
641.84	610.91
642.287	588.81
642.735	576.21
643.182	566.91
643.63	581.91
644.078	570.81
644.525	591.41
644.973	593.71
645.42	603.31
645.867	628.31
646.315	639.91
646.762	663.11
647.21	694.01
647.657	715.91
648.104	748.81
648.551	774.31
648.999	845.11
649.446	923.11
649.893	1001.51
650.34	1151.01
650.787	1382.51
651.234	1720.71
651.682	2221.41
652.129	3047.01
652.576	4373.91
653.023	6460.71
653.47	8808.71
653.917	10990.61
654.363	12649.71
654.81	13990.31
655.257	13285.21
655.704	8701.81
656.151	5174.11
656.598	3369.81
657.044	2396.41
657.491	1825.01
657.938	1474.91
658.385	1224.41
658.831	1072.21
659.278	953.71
659.724	854.71
660.171	788.61
660.618	721.21
661.064	687.01
661.511	661.61
661.957	647.71
662.404	647.31
662.85	646.71
663.296	623.71
663.743	568.11
664.189	534.81
664.635	537.21
665.082	536.41
665.528	535.51
665.974	520.41
666.42	515.71
666.867	504.61
667.313	494.21
667.759	475.71
668.205	471.21
668.651	481.71
669.097	475.31
669.543	490.41
669.989	456.51
670.435	448.51
670.881	445.41
671.327	454.71
671.773	470.31
672.219	496.91
672.665	545.41
673.11	591.31
673.556	642.01
674.002	668.51
674.448	658.31
674.893	552.11
675.339	485.31
675.785	439.41
676.23	417.41
676.676	390.31
677.122	385.21
677.567	379.81
678.013	366.41
678.458	362.41
678.904	358.41
679.349	357.01
679.794	357.71
680.24	353.41
680.685	351.21
681.131	347.11
681.576	351.51
682.021	354.31
682.466	355.01
682.912	347.11
683.357	354.31
683.802	381.31
684.247	414.41
684.692	457.21
685.137	501.21
685.583	541.51
686.028	560.51
686.473	522.01
686.918	444.51
687.363	416.91
687.807	390.91
688.252	364.91
688.697	355.91
689.142	332.71
689.587	335.81
690.032	327.41
690.477	351.91
690.921	345.31
691.366	386.81
691.811	402.51
692.255	428.91
692.7	460.51
693.145	505.21
693.589	713.91
694.034	1140.51
694.478	1561.71
694.923	1746.71
695.367	2277.01
695.812	1192.51
696.256	499.71
696.701	364.81
697.145	333.61
697.59	331.21
698.034	322.11
698.478	329.01
698.922	324.01
699.367	330.01
699.811	343.61
700.255	350.91
700.699	389.01
701.143	425.11
701.588	476.31
702.032	507.71
702.476	511.71
702.92	487.11
703.364	493.91
703.808	642.31
704.252	1044.01
704.696	1473.21
705.14	1690.41
705.584	2149.21
706.027	1065.71
706.471	523.51
706.915	408.51
707.359	347.91
707.803	322.71
708.246	312.71
708.69	314.11
709.134	325.31
709.577	316.21
710.021	313.41
710.465	312.61
710.908	301.11
711.352	296.51
711.795	306.81
712.239	353.71
712.682	385.31
713.126	417.41
713.569	463.81
714.012	370.51
714.456	326.51
714.899	294.91
715.342	271.61
715.786	262.91
716.229	257.91
716.672	258.11
717.115	244.01
717.558	252.51
718.002	258.81
718.445	265.91
718.888	290.01
719.331	298.51
719.774	310.51
720.217	306.11
720.66	289.11
721.103	264.21
721.546	255.91
721.989	247.31
722.432	235.61
722.874	231.51
723.317	231.11
723.76	230.81
724.203	260.31
724.645	318.61
725.088	451.01
725.531	569.41
725.974	651.51
726.416	546.71
726.859	299.81
727.301	255.01
727.744	239.71
728.187	231.71
728.629	240.91
729.071	251.61
729.514	263.91
729.956	277.51
730.399	280.61
730.841	286.51
731.283	275.61
731.726	266.21
732.168	259.31
732.61	267.81
733.053	292.11
733.495	312.11
733.937	349.81
734.379	404.41
734.821	439.21
735.263	541.01
735.705	837.81
736.148	1597.31
736.59	2605.11
737.032	3103.11
737.474	2497.31
737.916	819.21
738.357	430.41
738.799	323.81
739.241	297.51
739.683	288.51
740.125	295.21
740.567	296.31
741.008	312.51
741.45	307.01
741.892	318.51
742.334	354.71
742.775	360.91
743.217	346.01
743.658	275.31
744.1	261.51
744.542	264.31
744.983	318.41
745.425	344.11
745.866	341.41
746.307	286.01
746.749	278.21
747.19	332.11
747.632	463.21
748.073	904.61
748.514	1883.61
748.956	2895.51
749.397	3617.61
749.838	2995.71
750.279	2968.11
750.72	1500.21
751.162	549.21
751.603	328.71
752.044	252.61
752.485	225.81
752.926	214.01
753.367	206.91
753.808	193.01
754.249	187.01
754.69	186.01
755.131	181.51
755.572	181.91
756.013	183.71
756.453	186.21
756.894	193.21
757.335	189.31
757.776	192.21
758.216	196.91
758.657	199.81
759.098	202.81
759.538	226.71
759.979	273.81
760.42	379.81
760.86	718.71
761.301	1854.01
761.741	4463.91
762.182	6484.01
762.622	4550.81
763.063	1316.01
763.503	539.71
763.943	351.01
764.384	317.41
764.824	364.21
765.264	381.21
765.705	271.51
766.145	204.21
766.585	187.21
767.025	177.11
767.465	180.21
767.906	225.11
768.346	278.61
768.786	302.31
769.226	242.91
769.666	321.61
770.106	632.11
770.546	1569.91
770.986	2657.61
771.426	2366.11
771.866	793.01
772.306	332.21
772.745	215.11
773.185	173.41
773.625	166.71
774.065	167.71
774.505	190.31
774.944	287.61
775.384	591.91
775.824	1057.31
776.263	1025.01
776.703	450.81
777.142	202.51
777.582	150.71
778.021	135.61
778.461	137.81
778.9	132.21
779.34	130.51
779.779	124.01
780.219	113.61
780.658	103.01
781.097	107.51
781.537	112.01
781.976	112.61
782.415	109.11
782.855	104.91
783.294	103.01
783.733	109.91
784.172	100.51
784.611	105.11
785.05	101.01
785.489	115.61
785.928	121.31
786.367	121.01
786.806	112.11
787.245	133.41
787.684	136.11
788.123	149.51
788.562	133.51
789.001	123.41
789.44	119.01
789.879	126.31
790.317	119.61
790.756	123.31
791.195	125.61
791.634	143.61
792.072	200.01
792.511	363.31
792.95	1006.61
793.388	2143.41
793.827	1949.41
794.265	674.41
794.704	281.41
795.142	183.41
795.581	147.91
796.019	131.51
796.458	134.41
796.896	122.91
797.334	139.61
797.773	162.71
798.211	227.31
798.649	437.51
799.087	1022.61
799.526	1600.01
799.964	2020.31
800.402	2011.71
800.84	759.31
801.278	301.61
801.716	186.51
802.154	154.41
802.592	149.11
803.03	135.21
803.468	136.21
803.906	141.11
804.344	149.51
804.782	140.61
805.22	133.51
805.658	129.71
806.096	141.31
806.533	156.11
806.971	176.81
807.409	223.11
807.847	312.81
808.284	672.81
808.722	1891.31
809.16	3307.41
809.597	3136.11
810.035	5466.41
810.472	5819.01
810.91	2091.31
811.347	792.81
811.785	406.01
812.222	260.31
812.66	196.81
813.097	164.11
813.535	138.81
813.972	128.11
814.409	121.11
814.846	102.41
815.284	118.41
815.721	101.01
816.158	109.01
816.595	114.71
817.032	171.01
817.47	193.51
817.907	165.91
818.344	131.31
818.781	111.51
819.218	96.61
819.655	119.21
820.092	195.81
820.529	215.11
820.966	175.91
821.403	131.71
821.839	111.51
822.276	105.31
822.713	122.61
823.15	136.21
823.587	118.21
824.023	150.81
824.46	302.71
824.897	900.31
825.333	1356.21
825.77	586.51
826.206	233.31
826.643	135.51
827.08	103.01
827.516	86.21
827.953	79.81
828.389	80.81
828.825	76.11
829.262	69.21
829.698	63.31
830.135	67.71
830.571	57.81
831.007	60.51
831.443	59.51
831.88	57.31
832.316	55.61
832.752	58.71
833.188	66.81
833.624	67.71
834.06	64.81
834.497	72.81
834.933	77.21
835.369	72.61
835.805	71.91
836.241	70.31
836.677	78.51
837.112	88.61
837.548	103.51
837.984	125.01
838.42	201.31
838.856	504.11
839.292	1523.31
839.727	2319.71
840.163	1076.11
840.599	932.21
841.034	2049.51
841.47	2135.01
841.906	774.41
842.341	336.51
842.777	220.91
843.212	283.31
843.648	279.51
844.083	140.81
844.519	93.21
844.954	75.31
845.39	55.91
845.825	53.51
846.261	59.41
846.696	53.01
847.131	53.71
847.566	61.01
848.002	52.41
848.437	55.81
848.872	55.81
849.307	62.01
849.742	83.51
850.177	176.91
850.613	559.11
851.048	883.61
851.483	386.01
851.918	148.21
852.353	83.91
852.788	57.11
853.223	57.61
853.657	52.41
854.092	53.61
854.527	43.21
854.962	43.41
855.397	50.01
855.832	51.51
856.266	41.11
856.701	37.11
857.136	36.11
857.57	32.11
858.005	52.61
858.44	60.21
858.874	37.91
859.309	55.11
859.743	41.41
860.178	45.31
860.612	42.71
861.047	55.21
861.481	66.81
861.915	76.61
862.35	48.41
862.784	31.51
863.218	33.21
863.653	32.71
864.087	46.41
864.521	55.51
864.955	74.41
865.39	158.41
865.824	169.21
866.258	115.91
866.692	164.01
867.126	174.81
867.56	107.51
867.994	54.51
868.428	40.81
868.862	50.71
869.296	58.31
869.73	53.71
870.164	51.61
870.598	49.31
871.031	31.01
871.465	33.91
871.899	31.91
872.333	28.11
872.766	27.51
873.2	23.11
873.634	30.41
874.067	24.11
874.501	25.61
874.935	36.91
875.368	32.41
875.802	29.51
876.235	28.31
876.669	27.41
877.102	17.11
877.535	25.61
877.969	19.51
878.402	26.41
878.836	21.51
879.269	25.71
879.702	23.01
880.135	23.31
880.569	25.01
881.002	23.61
881.435	22.01
881.868	19.71
882.301	29.11
882.734	17.41
883.167	24.01
883.601	20.11
884.034	26.91
884.467	12.21
884.899	21.01
885.332	14.51
885.765	18.71
886.198	15.21
886.631	20.21
887.064	17.51
887.497	20.71
887.929	24.81
888.362	11.81
888.795	14.81
889.228	21.61
889.66	20.31
890.093	17.21
890.526	18.71
890.958	15.21
891.391	17.51
891.823	22.81
892.256	21.81
892.688	16.61
893.121	16.81
893.553	16.41
893.985	25.11
894.418	19.21
894.85	13.21
895.282	18.21
895.715	14.01
896.147	21.21
896.579	17.11
897.011	16.51
897.444	18.51
897.876	19.61
898.308	19.71
898.74	16.91
899.172	17.01
899.604	23.81
900.036	23.51
900.468	13.51
900.9	15.01
901.332	20.51
901.764	11.81
902.196	16.71
902.628	20.61
903.06	16.91
903.491	25.01
903.923	24.71
904.355	22.61
904.787	22.01
905.218	22.51
905.65	18.51
906.082	13.31
906.513	8.41
906.945	12.51
907.376	12.41
907.808	21.71
908.239	22.71
908.671	19.61
909.102	21.61
909.534	18.51
909.965	46.71
910.397	90.61
910.828	316.41
911.259	475.61
911.691	212.81
912.122	101.21
912.553	54.01
912.984	32.21
913.415	25.91
913.847	23.81
914.278	15.71
914.709	13.91
915.14	21.61
915.571	16.71
916.002	9.41
916.433	18.21
916.864	20.01
917.295	15.11
917.726	18.61
918.157	17.31
918.587	27.11
919.018	21.11
919.449	17.61
919.88	28.91
920.311	32.11
920.741	52.61
921.172	170.81
921.603	153.81
922.033	73.91
922.464	48.41
922.895	24.31
923.325	22.31
923.756	13.01
924.186	15.51
924.617	25.71
925.047	40.01
925.478	47.11
925.908	42.81
926.338	21.31
926.769	14.11
927.199	13.71
927.629	9.51
928.06	18.21
928.49	7.91
928.92	17.81
929.35	4.31
929.78	5.71
930.21	0.61
930.641	6.51
931.071	3.51
931.501	4.11
931.931	11.51
932.361	9.61
932.791	3.91
933.221	4.61
933.651	10.21
934.08	19.21
934.51	31.01
934.94	7.61
935.37	3.61
935.8	6.91
936.229	6.01
936.659	7.41
937.089	3.01
937.519	15.41
937.948	25.21
938.378	21.51
938.807	11.21
939.237	5.31
939.666	7.81
940.096	0.01
940.525	2.91
940.955	3.41
941.384	2.81
941.814	-9.09
942.243	-4.09
942.672	5.01
943.102	3.41
943.531	0.81
943.96	8.51
944.39	4.61
944.819	-3.09
945.248	4.71
945.677	2.71
946.106	5.31
946.535	10.31
946.964	-0.79
947.393	-1.49
947.822	2.71
948.251	-8.79
948.68	4.51
949.109	4.51
949.538	7.61
949.967	0.81
950.396	-1.19
950.825	-6.79
951.254	-0.59
951.682	-5.69
952.111	0.11
952.54	3.41
952.969	1.21
953.397	-7.79
953.826	-0.89
954.254	-8.69
954.683	-1.49
955.112	0.21
955.54	1.81
955.969	1.71
956.397	1.91
956.826	-9.99
957.254	3.01
957.682	7.01
958.111	2.01
958.539	0.81
958.967	5.71
959.396	-0.99
959.824	1.61
960.252	-0.79
960.68	1.01
961.109	-2.09
961.537	-3.09
961.965	-2.69
962.393	0.11
962.821	-2.99
963.249	5.01
963.677	6.31
964.105	6.31
964.533	44.51
964.961	38.51
965.389	27.01
965.817	6.31
966.245	2.81
966.672	-3.69
967.1	-11.69
967.528	1.71
967.956	0.21
968.383	-1.29
968.811	-3.99
969.239	-4.49
969.666	-6.59
970.094	1.71
970.522	1.91
970.949	4.61
971.377	-5.99
971.804	-6.49
972.232	-3.49
972.659	-6.69
973.087	2.61
973.514	0.21
973.941	-3.59
974.369	0.71
974.796	4.31
975.223	-0.89
975.651	-0.89
976.078	8.21
976.505	3.51
976.932	5.11
977.359	14.41
977.786	19.71
978.214	2.61
978.641	-8.39
979.068	-1.99
979.495	-6.29
979.922	3.91
980.349	-1.29
980.776	2.01
981.202	-6.09
981.629	6.61
982.056	9.61
982.483	-1.99
982.91	2.91
983.337	-5.89
983.763	3.61
984.19	-5.89
984.617	-3.99
985.043	-3.89
985.47	-1.29
985.897	-1.59
986.323	-7.29
986.75	-0.49
987.176	0.91
987.603	-0.69
988.029	-1.09
988.456	-3.29
988.882	4.01
989.308	-4.59
989.735	-5.69
990.161	1.91
990.587	-7.09
991.014	2.31
991.44	8.21
991.866	-6.69
992.292	-7.09
992.719	-1.59
993.145	4.21
993.571	-13.59
993.997	-4.29
994.423	-2.39
994.849	-5.39
995.275	-0.39
995.701	0.61
996.127	3.31
996.553	2.71
996.979	0.71
997.405	-0.09
997.83	-2.29
998.256	-4.09
998.682	-5.09
999.108	-6.89
999.534	1.11
999.959	-1.39
1000.385	-1.19
1000.811	-2.39
1001.236	-6.59
1001.662	-8.69
1002.087	-12.39
1002.513	-0.69
1002.938	3.61
1003.364	0.61
1003.789	6.11
1004.215	2.61
1004.64	-3.99
1005.066	3.91
1005.491	0.71
1005.916	-3.19
1006.342	-1.49
1006.767	-3.29
1007.192	5.01
1007.617	-7.09
1008.042	-0.69
1008.468	-2.29
1008.893	-6.39
1009.318	-2.29
1009.743	0.21
1010.168	5.71
1010.593	7.61
1011.018	-7.19
1011.443	-2.49
1011.868	1.81
1012.293	-0.89
1012.718	-5.89
1013.143	-1.59
1013.567	5.71
1013.992	-0.99
1014.417	-9.99
1014.842	3.01
1015.267	-4.49
1015.691	-3.99
1016.116	3.11
1016.541	-3.29
1016.965	0.31
1017.39	1.41
1017.814	0.81
1018.239	-3.69
1018.663	-9.69
1019.088	-9.79
1019.512	-8.39
1019.937	-1.99
1020.361	-1.49
1020.785	-5.69
1021.21	-4.09
1021.634	-4.49
1022.058	-2.09
1022.483	0.81
1022.907	-2.99
1023.331	-2.99
1023.755	0.71
1024.179	-2.49
1024.604	-4.59
1025.028	-6.29
1025.452	-5.59
1025.876	-1.09
1026.3	4.51
1026.724	-10.89
1027.148	-5.69
1027.572	-8.69
1027.996	-5.79
1028.42	-3.59
1028.843	-3.59
1029.267	1.71
1029.691	-5.19
1030.115	-5.39
1030.539	-5.29
1030.962	-5.39
1031.386	-13.39
1031.81	1.11
1032.233	-2.29
1032.657	2.11
1033.08	-2.99
1033.504	-4.89
1033.927	-5.09
1034.351	-1.89
1034.774	-8.69
1035.198	0.01
1035.621	-1.59
1036.045	1.41
1036.468	-2.89
1036.891	-7.09
1037.315	-7.09
1037.738	-5.49
1038.161	2.61
1038.584	-9.69
1039.008	-4.59
1039.431	-3.19
1039.854	0.61
1040.277	-5.49
1040.7	-7.59
1041.123	-1.29
1041.546	-9.49
1041.969	-3.79
1042.392	-2.99
1042.815	-10.39
1043.238	-5.69
1043.661	2.41
1044.084	-11.79
1044.507	0.41
1044.93	-4.39
1045.352	-8.49
1045.775	-5.09
1046.198	-0.39
1046.621	0.31
1047.043	-0.89
1047.466	5.81
1047.889	-2.89
1048.311	-1.39
1048.734	-8.69
1049.156	-2.89
1049.579	-1.99
1050.001	-4.89
1050.424	-2.09
1050.846	-6.39
1051.269	-0.69
1051.691	-6.19
1052.113	-10.19
1052.536	-1.39
1052.958	-2.59
1053.38	-13.39
1053.802	-10.89
1054.225	1.81
1054.647	-7.59
1055.069	-1.09
1055.491	-1.09
1055.913	-6.99
1056.335	-2.39
1056.757	0.51
1057.179	-6.79
1057.601	-3.69
1058.023	-4.89
1058.445	-0.79
1058.867	-5.39
1059.289	-1.69
1059.711	-7.79
1060.133	-3.79
1060.555	-3.19
1060.976	-5.89
1061.398	-7.69
1061.82	-5.49
1062.241	-2.49
1062.663	-9.99
1063.085	-2.19
1063.506	1.61
1063.928	-1.49
1064.35	-0.39
1064.771	-5.29
1065.193	-3.39
1065.614	-9.49
1066.035	-4.19
1066.457	-3.69
1066.878	-4.19
1067.3	-6.39
1067.721	-6.99
1068.142	-8.49
1068.564	-5.99
1068.985	-6.29
1069.406	-3.39
1069.827	-9.79
1070.248	-0.99
1070.67	-2.89
1071.091	-3.99
1071.512	-2.49
1071.933	-9.09
1072.354	-9.09
1072.775	-6.79
1073.196	-7.99
1073.617	-4.19
1074.038	-12.59
1074.459	-2.79
1074.88	-10.49
1075.3	0.71
1075.721	-3.59
1076.142	-2.49
1076.563	-0.69
1076.983	-6.49
1077.404	-8.09
1077.825	-13.59
1078.246	-2.59
1078.666	-14.99
1079.087	-6.49
1079.507	-4.69
1079.928	2.71
1080.348	-0.09
1080.769	-4.99
1081.189	-3.89
1081.61	-3.69
1082.03	-7.19
1082.451	-10.39
1082.871	-8.89
1083.291	-7.79
1083.711	-7.59
1084.132	-0.09
1084.552	-5.79
1084.972	-0.29
1085.392	-7.79
1085.813	-5.89
1086.233	-10.39
1086.653	-4.19
1087.073	-2.49
1087.493	-6.49
1087.913	-5.39
1088.333	-12.89
1088.753	-8.89
1089.173	2.01
1089.593	-0.99
1090.013	4.81
1090.433	-3.19
1090.852	-2.19
1091.272	-6.59
1091.692	-4.79
1092.112	-5.69
1092.531	-4.39
1092.951	-11.39
1093.371	-1.69
1093.79	1.51
1094.21	-8.89
1094.63	-6.99
1095.049	-6.39
1095.469	-1.19
1095.888	-8.69
1096.308	-2.09
1096.727	-2.49
1097.146	-7.79
1097.566	-7.69
1097.985	-10.19
1098.405	3.41
1098.824	-5.59
1099.243	-6.89
1099.662	-10.29
1100.082	-4.39
1100.501	1.11
1100.92	-2.19
1101.339	-1.29
1101.758	-4.89
