Data from 20171114-ORNL-Ar_H_NY_Subt18_08-06-17-731.txt Node
Date: Tue Nov 14 08:06:17 EST 2017
User: Ender
Spectrometer: HR+D1039
Trigger mode: 0
Integration Time (sec): 2.730000E-2
Scans to average: 10
Electric dark correction enabled: true
Nonlinearity correction enabled: false
Boxcar width: 0
XAxis mode: Wavelengths
Number of Pixels in Spectrum: 2048
>>>>>Begin Spectral Data<<<<<
187.836	-5.68
188.309	-5.68
188.782	-5.68
189.255	-2.38
189.728	3.62
190.201	5.12
190.674	6.72
191.147	1.22
191.619	-7.48
192.092	4.02
192.565	2.72
193.038	-0.78
193.511	0.32
193.984	1.62
194.456	-0.78
194.929	2.02
195.402	-4.98
195.874	-5.38
196.347	1.02
196.82	-5.58
197.292	6.72
197.765	-5.68
198.237	-8.98
198.71	5.22
199.182	-1.08
199.655	1.82
200.127	-1.28
200.6	-4.98
201.072	-2.08
201.544	-7.88
202.017	-3.18
202.489	-2.28
202.961	-5.28
203.433	-5.58
203.906	-4.18
204.378	-5.78
204.85	-2.28
205.322	-10.58
205.794	-4.98
206.266	1.22
206.739	-11.78
207.211	1.72
207.683	-3.58
208.155	-4.08
208.627	-1.08
209.099	-1.88
209.57	-5.28
210.042	0.12
210.514	-4.38
210.986	-0.48
211.458	-8.18
211.93	-3.58
212.402	2.12
212.873	-4.08
213.345	-8.08
213.817	-6.48
214.288	-6.68
214.76	-12.38
215.232	-5.58
215.703	-4.38
216.175	-4.08
216.646	-0.68
217.118	-12.28
217.589	-5.18
218.061	-4.78
218.532	-3.78
219.004	1.42
219.475	-2.28
219.946	-5.38
220.418	-2.18
220.889	0.42
221.36	-6.78
221.832	-2.98
222.303	-5.98
222.774	2.52
223.245	-10.78
223.717	-3.08
224.188	-4.88
224.659	-5.78
225.13	-9.98
225.601	-3.08
226.072	-0.88
226.543	0.42
227.014	-1.78
227.485	-6.68
227.956	-7.68
228.427	-4.28
228.898	3.62
229.369	2.12
229.839	-2.18
230.31	-5.58
230.781	-4.38
231.252	-6.28
231.722	-4.18
232.193	-5.78
232.664	2.52
233.135	0.62
233.605	-1.38
234.076	-2.48
234.546	-3.38
235.017	4.42
235.487	0.42
235.958	-3.48
236.428	-0.98
236.899	3.62
237.369	2.42
237.84	0.82
238.31	6.22
238.78	1.32
239.251	1.82
239.721	6.22
240.191	2.02
240.662	-4.88
241.132	1.12
241.602	-5.08
242.072	-2.38
242.542	3.82
243.013	-0.88
243.483	5.92
243.953	-4.78
244.423	-6.98
244.893	-2.88
245.363	6.72
245.833	1.52
246.303	1.42
246.773	4.32
247.243	-1.38
247.712	3.52
248.182	6.22
248.652	13.02
249.122	-3.08
249.592	9.52
250.061	21.52
250.531	32.62
251.001	18.82
251.471	20.12
251.94	16.32
252.41	6.62
252.879	-0.88
253.349	12.52
253.818	3.82
254.288	3.12
254.757	2.62
255.227	0.02
255.696	-0.68
256.166	4.22
256.635	0.02
257.105	7.52
257.574	3.32
258.043	9.02
258.513	10.62
258.982	13.32
259.451	8.22
259.92	9.92
260.389	10.32
260.859	12.02
261.328	9.72
261.797	14.92
262.266	6.12
262.735	10.12
263.204	4.72
263.673	2.22
264.142	2.02
264.611	0.52
265.08	2.52
265.549	1.02
266.018	4.72
266.487	0.22
266.955	0.62
267.424	1.92
267.893	8.22
268.362	1.12
268.83	1.22
269.299	12.62
269.768	7.52
270.236	7.02
270.705	0.92
271.174	5.02
271.642	2.32
272.111	11.42
272.579	14.32
273.048	21.42
273.516	30.42
273.985	26.42
274.453	23.42
274.922	18.72
275.39	15.42
275.858	4.32
276.327	13.32
276.795	14.52
277.263	11.12
277.731	31.02
278.2	53.72
278.668	54.52
279.136	47.72
279.604	15.72
280.072	13.32
280.54	13.52
281.008	4.92
281.477	19.12
281.945	5.82
282.413	12.22
282.881	16.52
283.348	5.02
283.816	15.42
284.284	12.92
284.752	17.82
285.22	11.12
285.688	12.92
286.156	17.52
286.623	43.62
287.091	46.92
287.559	28.52
288.026	15.42
288.494	15.82
288.962	6.32
289.429	4.42
289.897	16.82
290.364	11.92
290.832	16.62
291.3	14.22
291.767	15.12
292.234	16.42
292.702	16.72
293.169	22.62
293.637	17.72
294.104	22.02
294.571	7.22
295.039	9.52
295.506	14.02
295.973	17.32
296.44	18.02
296.908	17.72
297.375	26.52
297.842	16.82
298.309	21.02
298.776	12.12
299.243	18.12
299.71	6.62
300.177	19.12
300.644	20.92
301.111	22.32
301.578	24.92
302.045	10.02
302.512	22.72
302.979	20.52
303.446	26.52
303.913	19.82
304.379	19.32
304.846	26.02
305.313	21.02
305.78	20.32
306.246	20.92
306.713	28.42
307.18	25.72
307.646	25.12
308.113	27.22
308.579	22.42
309.046	25.62
309.512	26.72
309.979	15.22
310.445	30.72
310.912	24.92
311.378	32.82
311.845	28.12
312.311	26.32
312.777	32.42
313.244	26.92
313.71	35.12
314.176	33.42
314.642	27.72
315.109	26.62
315.575	40.02
316.041	39.82
316.507	32.82
316.973	40.42
317.439	30.82
317.905	34.32
318.371	33.12
318.837	34.42
319.303	31.82
319.769	33.92
320.235	33.62
320.701	34.62
321.167	36.62
321.633	35.62
322.099	39.82
322.564	46.52
323.03	37.52
323.496	34.22
323.962	36.92
324.427	34.92
324.893	38.42
325.359	40.22
325.824	42.42
326.29	33.22
326.755	39.52
327.221	38.82
327.686	37.92
328.152	44.42
328.617	41.42
329.083	44.72
329.548	49.32
330.014	50.12
330.479	30.72
330.944	41.22
331.41	35.62
331.875	46.92
332.34	43.82
332.805	43.62
333.271	47.82
333.736	45.82
334.201	50.02
334.666	48.02
335.131	53.22
335.596	45.42
336.061	50.22
336.526	39.42
336.991	47.52
337.456	56.92
337.921	46.82
338.386	43.22
338.851	45.02
339.316	46.22
339.781	49.12
340.246	48.62
340.711	40.92
341.175	49.72
341.64	41.22
342.105	52.52
342.569	56.82
343.034	53.52
343.499	57.02
343.963	50.32
344.428	64.42
344.893	56.52
345.357	60.92
345.822	54.62
346.286	62.42
346.751	71.22
347.215	68.72
347.679	72.32
348.144	99.62
348.608	87.52
349.073	69.52
349.537	77.72
350.001	77.32
350.465	89.22
350.93	76.92
351.394	78.12
351.858	70.12
352.322	85.32
352.786	83.02
353.25	97.62
353.715	107.12
354.179	105.82
354.643	122.52
355.107	126.32
355.571	110.52
356.035	93.32
356.498	115.82
356.962	128.72
357.426	128.12
357.89	123.72
358.354	90.62
358.818	88.12
359.281	82.12
359.745	81.42
360.209	69.92
360.673	73.52
361.136	76.32
361.6	88.82
362.064	87.82
362.527	85.72
362.991	94.92
363.454	84.32
363.918	80.02
364.381	86.52
364.845	82.62
365.308	82.22
365.772	90.22
366.235	85.92
366.698	79.72
367.162	91.32
367.625	82.82
368.088	89.52
368.552	91.62
369.015	89.32
369.478	95.92
369.941	99.42
370.404	96.22
370.867	108.72
371.331	110.12
371.794	117.42
372.257	116.02
372.72	116.12
373.183	105.12
373.646	103.12
374.109	106.02
374.572	109.72
375.035	110.22
375.497	115.62
375.96	102.42
376.423	106.92
376.886	115.12
377.349	105.12
377.811	98.62
378.274	109.32
378.737	109.32
379.199	109.72
379.662	110.12
380.125	115.52
380.587	120.42
381.05	128.52
381.512	129.82
381.975	132.82
382.437	126.82
382.9	132.02
383.362	132.12
383.825	143.72
384.287	152.62
384.75	141.92
385.212	141.62
385.674	143.42
386.136	138.12
386.599	129.22
387.061	125.12
387.523	131.42
387.985	137.62
388.447	144.02
388.91	146.52
389.372	163.22
389.834	163.12
390.296	149.52
390.758	159.02
391.22	178.02
391.682	209.92
392.144	297.62
392.606	233.72
393.068	168.12
393.529	171.42
393.991	159.42
394.453	154.02
394.915	161.92
395.377	200.92
395.838	218.52
396.3	159.62
396.762	142.72
397.224	140.62
397.685	136.42
398.147	133.52
398.608	129.82
399.07	127.32
399.531	130.22
399.993	139.62
400.454	153.22
400.916	146.32
401.377	147.72
401.839	151.92
402.3	147.92
402.762	170.32
403.223	176.92
403.684	170.22
404.145	165.32
404.607	161.22
405.068	165.82
405.529	175.72
405.99	191.42
406.451	183.02
406.913	178.12
407.374	166.22
407.835	159.02
408.296	176.12
408.757	175.62
409.218	190.12
409.679	180.82
410.14	180.02
410.601	180.52
411.062	189.12
411.522	193.02
411.983	186.62
412.444	181.72
412.905	181.22
413.366	184.92
413.826	197.22
414.287	220.72
414.748	264.72
415.208	246.92
415.669	206.92
416.13	202.82
416.59	201.62
417.051	217.02
417.511	222.22
417.972	235.02
418.432	243.42
418.893	286.22
419.353	252.73
419.814	205.72
420.274	186.92
420.734	184.72
421.195	201.52
421.655	198.23
422.115	196.02
422.576	192.22
423.036	199.12
423.496	206.12
423.956	220.73
424.416	230.82
424.876	264.32
425.336	261.42
425.797	259.92
426.257	248.12
426.717	253.52
427.177	229.02
427.637	223.22
428.097	242.02
428.556	249.32
429.016	272.52
429.476	267.92
429.936	279.32
430.396	281.32
430.856	292.02
431.315	320.92
431.775	356.12
432.235	392.92
432.694	363.42
433.154	371.72
433.614	402.12
434.073	343.62
434.533	288.52
434.993	275.32
435.452	287.52
435.912	303.12
436.371	294.73
436.83	298.62
437.29	277.82
437.749	253.12
438.209	252.52
438.668	276.32
439.127	300.12
439.587	269.73
440.046	247.52
440.505	256.92
440.964	280.42
441.424	326.52
441.883	315.92
442.342	264.73
442.801	227.82
443.26	224.32
443.719	218.32
444.178	214.32
444.637	211.12
445.096	221.42
445.555	226.02
446.014	223.42
446.473	229.72
446.932	235.62
447.391	227.52
447.849	225.72
448.308	213.42
448.767	221.22
449.226	240.42
449.685	237.92
450.143	249.72
450.602	237.12
451.061	230.52
451.519	232.52
451.978	236.32
452.436	235.02
452.895	245.23
453.353	246.92
453.812	245.62
454.27	234.42
454.729	234.62
455.187	237.72
455.646	244.82
456.104	240.82
456.562	261.22
457.021	272.02
457.479	262.02
457.937	274.62
458.395	266.02
458.854	250.62
459.312	255.32
459.77	276.92
460.228	254.32
460.686	241.62
461.144	249.72
461.602	238.92
462.06	244.72
462.518	251.82
462.976	250.22
463.434	256.22
463.892	266.22
464.35	281.12
464.808	282.72
465.266	262.02
465.724	270.23
466.181	270.92
466.639	272.32
467.097	288.22
467.555	299.22
468.012	294.92
468.47	306.12
468.928	324.52
469.385	352.92
469.843	351.12
470.3	358.32
470.758	369.82
471.215	384.42
471.673	415.72
472.13	408.12
472.588	424.12
473.045	370.52
473.503	381.62
473.96	389.52
474.417	404.62
474.875	426.12
475.332	477.52
475.789	464.82
476.246	469.22
476.704	489.02
477.161	516.02
477.618	530.32
478.075	565.92
478.532	628.62
478.989	703.62
479.446	825.42
479.903	790.32
480.36	821.82
480.817	881.92
481.274	983.82
481.731	1088.32
482.188	1197.02
482.645	1331.03
483.102	1433.22
483.558	1574.22
484.015	1629.33
484.472	1603.93
484.929	1556.53
485.385	1507.83
485.842	1463.53
486.299	1401.83
486.755	1320.42
487.212	1109.22
487.668	938.72
488.125	872.92
488.582	782.12
489.038	752.12
489.494	720.62
489.951	686.42
490.407	672.42
490.864	659.32
491.32	644.32
491.776	642.02
492.233	648.72
492.689	622.82
493.145	611.92
493.602	606.92
494.058	611.62
494.514	616.73
494.97	650.92
495.426	659.92
495.882	621.32
496.338	617.02
496.794	633.72
497.251	624.52
497.707	638.23
498.163	635.82
498.618	646.02
499.074	647.62
499.53	675.82
499.986	682.62
500.442	668.42
500.898	637.52
501.354	632.02
501.809	630.12
502.265	651.12
502.721	665.32
503.177	669.82
503.632	659.32
504.088	683.12
504.543	715.52
504.999	720.42
505.455	664.52
505.91	631.12
506.366	631.82
506.821	630.82
507.277	630.62
507.732	630.22
508.187	629.52
508.643	639.62
509.098	637.42
509.553	657.92
510.009	670.62
510.464	671.42
510.919	684.62
511.375	706.42
511.83	715.22
512.285	726.42
512.74	768.42
513.195	796.12
513.65	781.32
514.105	769.82
514.56	767.62
515.015	799.42
515.47	815.52
515.925	793.52
516.38	789.22
516.835	792.02
517.29	780.12
517.745	766.23
518.2	759.42
518.655	748.32
519.109	744.62
519.564	739.62
520.019	746.22
520.474	730.73
520.928	725.12
521.383	720.22
521.838	716.72
522.292	711.32
522.747	713.92
523.201	702.02
523.656	694.22
524.11	701.52
524.565	696.72
525.019	690.42
525.474	700.52
525.928	702.23
526.382	699.62
526.837	700.22
527.291	700.72
527.745	705.22
528.2	691.82
528.654	691.12
529.108	685.92
529.562	681.02
530.016	697.32
530.47	702.02
530.925	703.42
531.379	699.52
531.833	714.42
532.287	707.22
532.741	708.62
533.195	709.92
533.649	715.52
534.103	721.02
534.556	714.52
535.01	710.62
535.464	715.82
535.918	718.62
536.372	719.82
536.826	713.12
537.279	707.62
537.733	708.82
538.187	709.12
538.64	705.92
539.094	723.92
539.548	733.42
540.001	718.02
540.455	727.92
540.908	731.82
541.362	735.22
541.815	749.92
542.269	763.22
542.722	761.22
543.175	772.12
543.629	772.92
544.082	782.62
544.536	790.32
544.989	790.12
545.442	796.72
545.895	801.02
546.349	781.23
546.802	794.42
547.255	794.52
547.708	807.42
548.161	803.82
548.614	810.42
549.067	823.12
549.52	825.52
549.973	808.82
550.426	799.02
550.879	789.82
551.332	792.12
551.785	800.72
552.238	803.72
552.691	826.42
553.144	838.22
553.596	842.52
554.049	860.52
554.502	888.12
554.955	906.22
555.407	893.82
555.86	896.72
556.313	885.52
556.765	879.12
557.218	880.52
557.67	884.12
558.123	874.82
558.576	867.22
559.028	878.82
559.48	883.42
559.933	873.62
560.385	841.02
560.838	803.32
561.29	790.42
561.742	789.92
562.195	760.12
562.647	771.12
563.099	771.52
563.551	773.32
564.004	785.62
564.456	774.62
564.908	769.32
565.36	747.02
565.812	741.12
566.264	733.23
566.716	729.12
567.168	718.42
567.62	729.62
568.072	712.72
568.524	695.82
568.976	689.92
569.428	678.82
569.88	669.62
570.332	672.62
570.784	681.02
571.235	683.42
571.687	685.62
572.139	693.32
572.59	709.92
573.042	710.72
573.494	713.32
573.945	697.32
574.397	692.22
574.849	689.62
575.3	691.02
575.752	673.52
576.203	682.12
576.655	688.42
577.106	663.02
577.557	661.12
578.009	666.62
578.46	662.02
578.912	658.02
579.363	662.32
579.814	657.72
580.265	668.02
580.717	661.02
581.168	673.02
581.619	679.92
582.07	683.02
582.521	668.12
582.972	673.82
583.423	677.72
583.875	675.72
584.326	703.02
584.777	749.52
585.227	831.82
585.678	929.52
586.129	1020.42
586.58	1094.23
587.031	1187.02
587.482	1329.02
587.933	1508.12
588.384	1309.12
588.834	978.63
589.285	811.32
589.736	795.52
590.186	770.22
590.637	766.32
591.088	734.82
591.538	735.62
591.989	723.12
592.439	723.02
592.89	721.22
593.34	707.62
593.791	706.32
594.241	704.72
594.692	701.42
595.142	697.72
595.593	697.32
596.043	700.22
596.493	705.22
596.943	712.32
597.394	718.62
597.844	714.92
598.294	719.23
598.744	743.32
599.195	772.12
599.645	814.42
600.095	851.32
600.545	905.32
600.995	958.32
601.445	1008.12
601.895	1081.02
602.345	1134.92
602.795	1114.12
603.245	1065.53
603.695	1005.82
604.145	947.13
604.594	901.23
605.044	853.92
605.494	790.42
605.944	739.92
606.393	741.82
606.843	726.82
607.293	723.92
607.743	726.52
608.192	729.62
608.642	759.02
609.091	763.62
609.541	769.22
609.99	773.82
610.44	758.73
610.889	719.92
611.339	699.82
611.788	682.52
612.238	690.42
612.687	713.32
613.136	709.32
613.586	727.72
614.035	729.92
614.484	759.22
614.933	754.42
615.383	749.52
615.832	737.12
616.281	716.32
616.73	682.62
617.179	650.42
617.628	647.92
618.077	630.82
618.526	619.72
618.975	611.92
619.424	609.12
619.873	611.62
620.322	604.22
620.771	609.32
621.22	597.62
621.669	584.32
622.118	586.82
622.567	575.92
623.015	563.82
623.464	567.82
623.913	555.22
624.361	541.12
624.81	549.52
625.259	543.92
625.707	558.73
626.156	541.72
626.604	563.02
627.053	561.22
627.501	559.02
627.95	568.23
628.398	577.22
628.847	562.42
629.295	558.72
629.744	567.82
630.192	562.92
630.64	561.72
631.089	560.42
631.537	580.52
631.985	584.02
632.433	599.42
632.881	606.62
633.33	656.22
633.778	634.42
634.226	561.82
634.674	572.23
635.122	569.42
635.57	598.82
636.018	621.22
636.466	575.62
636.914	544.02
637.362	566.12
637.81	560.02
638.258	570.82
638.705	577.92
639.153	599.72
639.601	608.72
640.049	638.92
640.497	663.12
640.944	678.72
641.392	638.92
641.84	597.32
642.287	584.92
642.735	568.52
643.182	572.82
643.63	568.42
644.078	577.23
644.525	597.22
644.973	594.52
645.42	594.22
645.867	612.32
646.315	633.73
646.762	657.73
647.21	699.42
647.657	708.92
648.104	742.42
648.551	765.72
648.999	831.32
649.446	908.82
649.893	1006.12
650.34	1151.12
650.787	1378.22
651.234	1735.72
651.682	2248.53
652.129	3096.32
652.576	4461.42
653.023	6567.72
653.47	9027.12
653.917	11284.72
654.363	13053.23
654.81	14463.33
655.257	13731.83
655.704	8981.52
656.151	5287.82
656.598	3410.83
657.044	2424.82
657.491	1857.62
657.938	1483.53
658.385	1241.83
658.831	1071.23
659.278	948.43
659.724	851.32
660.171	774.42
660.618	716.32
661.064	686.62
661.511	668.72
661.957	652.62
662.404	640.82
662.85	655.12
663.296	621.82
663.743	556.82
664.189	534.52
664.635	529.82
665.082	524.22
665.528	522.22
665.974	509.22
666.42	505.52
666.867	499.82
667.313	482.52
667.759	476.32
668.205	478.82
668.651	473.32
669.097	484.42
669.543	493.32
669.989	460.92
670.435	435.52
670.881	437.62
671.327	446.02
671.773	461.92
672.219	478.42
672.665	531.82
673.11	573.92
673.556	617.82
674.002	657.92
674.448	644.32
674.893	527.52
675.339	463.72
675.785	434.92
676.23	406.72
676.676	384.42
677.122	380.92
677.567	373.72
678.013	363.52
678.458	354.12
678.904	355.23
679.349	341.22
679.794	353.42
680.24	340.42
680.685	342.22
681.131	338.22
681.576	340.22
682.021	346.32
682.466	347.72
682.912	340.82
683.357	339.92
683.802	379.02
684.247	397.22
684.692	446.32
685.137	480.22
685.583	520.52
686.028	543.72
686.473	503.42
686.918	432.12
687.363	409.92
687.807	387.12
688.252	357.62
688.697	343.22
689.142	327.62
689.587	329.42
690.032	315.42
690.477	327.62
690.921	341.52
691.366	381.92
691.811	397.62
692.255	424.32
692.7	455.52
693.145	494.62
693.589	670.32
694.034	1104.53
694.478	1495.02
694.923	1684.83
695.367	2223.62
695.812	1174.22
696.256	485.42
696.701	367.22
697.145	330.52
697.59	325.32
698.034	321.22
698.478	337.62
698.922	324.73
699.367	320.72
699.811	336.42
700.255	355.62
700.699	362.82
701.143	411.42
701.588	467.22
702.032	504.92
702.476	496.52
702.92	474.52
703.364	480.72
703.808	619.42
704.252	1014.02
704.696	1417.02
705.14	1637.32
705.584	2080.62
706.027	1033.92
706.471	508.72
706.915	383.52
707.359	338.32
707.803	310.62
708.246	302.12
708.69	308.62
709.134	308.42
709.577	311.02
710.021	307.22
710.465	294.92
710.908	298.12
711.352	296.42
711.795	296.42
712.239	346.32
712.682	377.72
713.126	408.82
713.569	456.82
714.012	371.72
714.456	317.52
714.899	296.52
715.342	275.62
715.786	264.02
716.229	259.52
716.672	258.42
717.115	239.02
717.558	236.12
718.002	241.02
718.445	263.22
718.888	278.52
719.331	286.32
719.774	299.62
720.217	295.62
720.66	274.42
721.103	257.32
721.546	249.62
721.989	243.32
722.432	226.12
722.874	229.22
723.317	235.32
723.76	226.12
724.203	251.92
724.645	308.02
725.088	433.82
725.531	558.22
725.974	622.82
726.416	532.32
726.859	302.32
727.301	245.92
727.744	233.12
728.187	226.62
728.629	236.82
729.071	230.22
729.514	254.92
729.956	261.02
730.399	274.32
730.841	283.32
731.283	265.42
731.726	251.02
732.168	254.62
732.61	256.52
733.053	273.62
733.495	305.23
733.937	335.62
734.379	391.72
734.821	428.82
735.263	526.52
735.705	813.92
736.148	1520.22
736.59	2501.73
737.032	2976.32
737.474	2409.52
737.916	782.32
738.357	418.02
738.799	323.62
739.241	293.02
739.683	283.82
740.125	280.12
740.567	289.72
741.008	310.02
741.45	305.82
741.892	302.12
742.334	341.12
742.775	345.92
743.217	333.72
743.658	253.72
744.1	248.12
744.542	253.42
744.983	298.12
745.425	334.22
745.866	337.42
746.307	271.82
746.749	277.12
747.19	317.82
747.632	439.92
748.073	849.12
748.514	1788.73
748.956	2775.62
749.397	3455.73
749.838	2884.43
750.279	2884.43
750.72	1448.02
751.162	526.82
751.603	318.72
752.044	245.82
752.485	212.92
752.926	199.92
753.367	195.62
753.808	186.82
754.249	183.42
754.69	180.22
755.131	178.92
755.572	174.72
756.013	174.42
756.453	176.72
756.894	178.92
757.335	183.82
757.776	190.02
758.216	187.72
758.657	191.82
759.098	197.92
759.538	216.02
759.979	261.22
760.42	357.32
760.86	682.62
761.301	1757.92
761.741	4273.02
762.182	6269.23
762.622	4387.92
763.063	1269.22
763.503	514.92
763.943	342.02
764.384	337.72
764.824	401.12
765.264	436.22
765.705	309.62
766.145	207.12
766.585	180.12
767.025	181.02
767.465	184.22
767.906	238.92
768.346	317.62
768.786	344.12
769.226	256.12
769.666	306.32
770.106	600.52
770.546	1499.72
770.986	2575.02
771.426	2286.82
771.866	762.12
772.306	314.82
772.745	200.12
773.185	164.12
773.625	166.62
774.065	167.22
774.505	191.42
774.944	302.92
775.384	670.22
775.824	1241.33
776.263	1215.82
776.703	513.62
777.142	219.42
777.582	154.62
778.021	139.82
778.461	141.02
778.9	149.92
779.34	132.22
779.779	113.82
780.219	112.22
780.658	109.22
781.097	111.52
781.537	115.62
781.976	107.92
782.415	106.02
782.855	102.22
783.294	104.42
783.733	106.22
784.172	104.52
784.611	100.12
785.05	103.82
785.489	107.62
785.928	111.62
786.367	115.92
786.806	120.52
787.245	129.72
787.684	134.42
788.123	149.42
788.562	129.02
789.001	123.92
789.44	113.72
789.879	120.32
790.317	116.12
790.756	126.82
791.195	124.42
791.634	143.32
792.072	204.12
792.511	355.12
792.95	963.42
793.388	2068.03
793.827	1882.32
794.265	660.52
794.704	277.42
795.142	174.72
795.581	151.02
796.019	131.32
796.458	123.52
796.896	122.82
797.334	123.92
797.773	157.12
798.211	212.12
798.649	422.52
799.087	993.62
799.526	1543.33
799.964	1963.22
800.402	1956.03
800.84	729.92
801.278	291.42
801.716	181.82
802.154	140.72
802.592	143.42
803.03	137.22
803.468	122.92
803.906	139.02
804.344	147.92
804.782	138.22
805.22	126.72
805.658	125.72
806.096	144.02
806.533	155.02
806.971	166.02
807.409	213.52
807.847	302.32
808.284	637.02
808.722	1779.23
809.16	3194.93
809.597	3002.52
810.035	5220.82
810.472	5612.22
810.91	2011.93
811.347	764.92
811.785	387.02
812.222	249.22
812.66	189.62
813.097	158.92
813.535	141.62
813.972	120.82
814.409	113.72
814.846	104.22
815.284	104.02
815.721	96.42
816.158	100.32
816.595	115.92
817.032	173.22
817.47	195.92
817.907	175.52
818.344	152.02
818.781	112.62
819.218	101.32
819.655	118.92
820.092	186.52
820.529	200.92
820.966	167.12
821.403	125.22
821.839	106.52
822.276	94.12
822.713	121.92
823.15	131.12
823.587	113.12
824.023	136.82
824.46	285.82
824.897	860.12
825.333	1319.93
825.77	567.42
826.206	226.12
826.643	136.22
827.08	91.82
827.516	78.72
827.953	75.42
828.389	77.42
828.825	73.12
829.262	68.02
829.698	59.12
830.135	65.42
830.571	54.52
831.007	65.02
831.443	63.12
831.88	62.32
832.316	58.12
832.752	68.92
833.188	64.72
833.624	63.52
834.06	70.52
834.497	62.42
834.933	74.82
835.369	73.02
835.805	67.92
836.241	76.02
836.677	79.02
837.112	82.32
837.548	96.32
837.984	131.62
838.42	192.02
838.856	477.52
839.292	1461.12
839.727	2230.12
840.163	1032.32
840.599	884.42
841.034	1960.53
841.47	2079.53
841.906	752.42
842.341	323.82
842.777	224.12
843.212	315.42
843.648	316.12
844.083	150.62
844.519	93.02
844.954	68.42
845.39	56.22
845.825	61.02
846.261	57.72
846.696	53.72
847.131	54.12
847.566	58.12
848.002	54.52
848.437	54.72
848.872	55.12
849.307	61.32
849.742	77.92
850.177	173.32
850.613	539.32
851.048	857.92
851.483	369.62
851.918	147.22
852.353	83.92
852.788	54.92
853.223	54.12
853.657	46.42
854.092	43.02
854.527	36.22
854.962	35.62
855.397	40.12
855.832	47.12
856.266	47.12
856.701	32.52
857.136	42.12
857.57	40.32
858.005	45.82
858.44	58.82
858.874	39.92
859.309	49.72
859.743	36.42
860.178	43.92
860.612	39.52
861.047	53.32
861.481	62.92
861.915	71.72
862.35	48.12
862.784	32.82
863.218	36.72
863.653	32.02
864.087	38.52
864.521	50.92
864.955	68.82
865.39	143.52
865.824	167.42
866.258	106.52
866.692	159.02
867.126	168.32
867.56	102.92
867.994	51.22
868.428	35.62
868.862	43.42
869.296	49.72
869.73	57.22
870.164	51.72
870.598	48.52
871.031	35.92
871.465	30.92
871.899	28.92
872.333	24.12
872.766	27.82
873.2	22.72
873.634	27.72
874.067	25.42
874.501	19.02
874.935	35.62
875.368	28.32
875.802	26.42
876.235	12.02
876.669	22.02
877.102	18.52
877.535	24.72
877.969	25.82
878.402	26.62
878.836	10.42
879.269	25.72
879.702	19.12
880.135	17.12
880.569	25.12
881.002	24.92
881.435	23.62
881.868	17.12
882.301	21.52
882.734	17.72
883.167	18.12
883.601	15.82
884.034	21.12
884.467	14.52
884.899	18.52
885.332	18.02
885.765	16.32
886.198	10.92
886.631	19.52
887.064	18.92
887.497	22.42
887.929	19.32
888.362	11.12
888.795	9.92
889.228	11.42
889.66	16.62
890.093	16.82
890.526	16.32
890.958	17.02
891.391	17.42
891.823	18.12
892.256	15.92
892.688	8.52
893.121	17.92
893.553	14.72
893.985	19.22
894.418	16.52
894.85	10.02
895.282	16.12
895.715	14.82
896.147	12.92
896.579	15.72
897.011	14.22
897.444	18.52
897.876	10.72
898.308	20.02
898.74	13.62
899.172	9.72
899.604	20.62
900.036	19.12
900.468	10.02
900.9	13.72
901.332	19.72
901.764	11.22
902.196	20.12
902.628	17.82
903.06	11.02
903.491	21.82
903.923	16.72
904.355	17.42
904.787	25.62
905.218	24.92
905.65	25.62
906.082	14.12
906.513	11.92
906.945	13.02
907.376	13.02
907.808	18.72
908.239	14.82
908.671	21.32
909.102	15.72
909.534	22.12
909.965	36.42
910.397	89.12
910.828	300.62
911.259	453.92
911.691	201.32
912.122	99.52
912.553	47.82
912.984	31.82
913.415	24.02
913.847	18.12
914.278	12.82
914.709	9.52
915.14	20.32
915.571	13.52
916.002	14.12
916.433	21.92
916.864	18.62
917.295	14.82
917.726	16.82
918.157	8.52
918.587	21.82
919.018	21.92
919.449	21.82
919.88	24.02
920.311	28.12
920.741	48.92
921.172	155.22
921.603	142.32
922.033	67.02
922.464	46.92
922.895	25.42
923.325	22.02
923.756	11.12
924.186	16.32
924.617	25.62
925.047	45.42
925.478	50.72
925.908	45.92
926.338	26.52
926.769	14.52
927.199	15.12
927.629	7.82
928.06	14.82
928.49	12.72
928.92	12.82
929.35	4.32
929.78	7.12
930.21	6.42
930.641	8.32
931.071	7.52
931.501	2.82
931.931	5.02
932.361	8.42
932.791	6.72
933.221	7.92
933.651	4.52
934.08	13.92
934.51	21.42
934.94	10.32
935.37	7.52
935.8	12.82
936.229	3.92
936.659	11.12
937.089	-1.08
937.519	9.52
937.948	22.12
938.378	20.02
938.807	3.12
939.237	-2.18
939.666	5.82
940.096	-6.08
940.525	-4.28
940.955	-2.28
941.384	0.62
941.814	-3.78
942.243	-4.88
942.672	-1.78
943.102	-3.28
943.531	1.72
943.96	-1.48
944.39	4.42
944.819	3.42
945.248	5.42
945.677	-0.28
946.106	4.02
946.535	-0.68
946.964	0.22
947.393	7.32
947.822	-1.98
948.251	-5.98
948.68	-3.28
949.109	3.22
949.538	0.72
949.967	-0.98
950.396	0.82
950.825	-3.88
951.254	1.62
951.682	-7.78
952.111	0.82
952.54	-1.58
952.969	-1.68
953.397	-3.08
953.826	1.72
954.254	-6.18
954.683	-0.68
955.112	-2.68
955.54	3.52
955.969	0.52
956.397	-1.58
956.826	-0.48
957.254	2.52
957.682	3.62
958.111	3.52
958.539	-4.98
958.967	3.42
959.396	1.82
959.824	4.02
960.252	5.32
960.68	0.32
961.109	-3.38
961.537	-8.28
961.965	-5.98
962.393	1.62
962.821	-4.68
963.249	-2.08
963.677	5.02
964.105	6.52
964.533	41.82
964.961	33.62
965.389	23.12
965.817	9.12
966.245	3.72
966.672	1.12
967.1	-7.38
967.528	-2.28
967.956	-3.68
968.383	-1.18
968.811	-3.48
969.239	2.02
969.666	-10.48
970.094	-0.68
970.522	-5.18
970.949	-6.58
971.377	-7.48
971.804	-5.88
972.232	-2.98
972.659	-1.88
973.087	-5.98
973.514	-7.88
973.941	-5.08
974.369	5.32
974.796	-0.28
975.223	-0.58
975.651	1.62
976.078	-1.58
976.505	-4.88
976.932	1.92
977.359	15.12
977.786	13.12
978.214	-1.08
978.641	-0.58
979.068	-5.68
979.495	-2.78
979.922	-3.68
980.349	-2.78
980.776	4.62
981.202	-3.48
981.629	3.62
982.056	7.72
982.483	-1.08
982.91	4.02
983.337	-4.18
983.763	1.12
984.19	-4.28
984.617	-6.38
985.043	-9.38
985.47	0.02
985.897	-2.38
986.323	-6.08
986.75	-1.58
987.176	-3.48
987.603	-2.48
988.029	1.02
988.456	2.02
988.882	0.22
989.308	-9.58
989.735	-6.28
990.161	-2.78
990.587	-4.88
991.014	-2.58
991.44	9.12
991.866	0.22
992.292	-3.28
992.719	-4.18
993.145	-4.48
993.571	-3.28
993.997	-3.08
994.423	-2.08
994.849	-1.48
995.275	-5.18
995.701	-9.48
996.127	-4.08
996.553	5.12
996.979	0.72
997.405	-7.88
997.83	-1.38
998.256	-9.38
998.682	-5.18
999.108	-11.18
999.534	-3.98
999.959	-5.98
1000.385	1.72
1000.811	2.62
1001.236	-10.28
1001.662	-8.48
1002.087	-11.48
1002.513	-0.28
1002.938	5.42
1003.364	0.82
1003.789	-9.18
1004.215	0.02
1004.64	-2.78
1005.066	1.32
1005.491	1.72
1005.916	-0.78
1006.342	-3.38
1006.767	-12.38
1007.192	1.72
1007.617	-5.88
1008.042	-8.38
1008.468	-6.98
1008.893	-4.28
1009.318	-4.88
1009.743	1.12
1010.168	-0.58
1010.593	-6.48
1011.018	-9.68
1011.443	-4.58
1011.868	0.52
1012.293	-3.08
1012.718	-6.68
1013.143	0.22
1013.567	2.22
1013.992	-0.48
1014.417	-15.38
1014.842	1.32
1015.267	-7.28
1015.691	-4.48
1016.116	9.92
1016.541	-1.38
1016.965	-0.98
1017.39	1.32
1017.814	-1.98
1018.239	-1.88
1018.663	-8.68
1019.088	-7.18
1019.512	-5.78
1019.937	3.42
1020.361	-7.48
1020.785	-11.58
1021.21	-6.28
1021.634	-3.58
1022.058	-1.58
1022.483	1.42
1022.907	-10.58
1023.331	-4.58
1023.755	-6.48
1024.179	-6.08
1024.604	-3.98
1025.028	-5.18
1025.452	-4.28
1025.876	-8.48
1026.3	-0.18
1026.724	-9.08
1027.148	-3.68
1027.572	-6.28
1027.996	-3.08
1028.42	-1.58
1028.843	1.22
1029.267	-1.18
1029.691	-1.68
1030.115	-8.58
1030.539	-6.78
1030.962	-2.08
1031.386	-13.18
1031.81	-3.68
1032.233	1.42
1032.657	-3.38
1033.08	-2.88
1033.504	-4.58
1033.927	-4.98
1034.351	-4.98
1034.774	-10.58
1035.198	-4.38
1035.621	-6.68
1036.045	-6.18
1036.468	-0.78
1036.891	-13.88
1037.315	-10.48
1037.738	-5.38
1038.161	0.82
1038.584	-1.28
1039.008	-6.98
1039.431	-8.18
1039.854	0.52
1040.277	-9.18
1040.7	-4.58
1041.123	3.92
1041.546	-5.88
1041.969	-5.38
1042.392	-1.48
1042.815	-1.38
1043.238	0.42
1043.661	1.32
1044.084	-6.18
1044.507	-1.38
1044.93	-5.48
1045.352	-9.78
1045.775	-10.38
1046.198	0.52
1046.621	-1.68
1047.043	-5.48
1047.466	3.12
1047.889	-4.58
1048.311	-4.18
1048.734	-4.48
1049.156	-8.28
1049.579	-1.78
1050.001	-9.08
1050.424	-5.28
1050.846	-4.08
1051.269	-4.08
1051.691	-5.98
1052.113	-2.88
1052.536	-8.58
1052.958	-8.78
1053.38	-5.38
1053.802	-5.68
1054.225	1.12
1054.647	-15.78
1055.069	-9.38
1055.491	-1.48
1055.913	-11.08
1056.335	0.42
1056.757	-2.48
1057.179	-5.68
1057.601	-3.28
1058.023	-6.88
1058.445	-7.28
1058.867	-0.08
1059.289	-11.68
1059.711	-0.18
1060.133	-5.58
1060.555	-7.78
1060.976	-3.28
1061.398	-4.78
1061.82	-9.38
1062.241	-6.58
1062.663	-11.48
1063.085	-7.98
1063.506	1.62
1063.928	-3.58
1064.35	-8.88
1064.771	-13.28
1065.193	-1.78
1065.614	-16.38
1066.035	-6.78
1066.457	-3.08
1066.878	-2.68
1067.3	-10.38
1067.721	-4.48
1068.142	-9.88
1068.564	-8.18
1068.985	-2.58
1069.406	-12.28
1069.827	-6.28
1070.248	-3.28
1070.67	-9.48
1071.091	-8.68
1071.512	-5.48
1071.933	-7.58
1072.354	-7.38
1072.775	-6.88
1073.196	-4.48
1073.617	-3.18
1074.038	-6.38
1074.459	-6.08
1074.88	-5.78
1075.3	4.42
1075.721	-3.48
1076.142	-3.28
1076.563	-2.18
1076.983	-10.38
1077.404	-5.88
1077.825	-15.48
1078.246	-3.38
1078.666	-11.18
1079.087	-9.78
1079.507	-5.88
1079.928	0.62
1080.348	1.92
1080.769	-4.98
1081.189	-0.38
1081.61	-1.48
1082.03	-10.68
1082.451	-8.98
1082.871	-8.08
1083.291	-15.08
1083.711	-13.48
1084.132	-3.88
1084.552	-6.08
1084.972	-0.98
1085.392	-11.78
1085.813	-12.98
1086.233	-9.98
1086.653	-12.08
1087.073	-5.98
1087.493	-14.58
1087.913	-3.68
1088.333	-5.98
1088.753	-3.88
1089.173	-0.38
1089.593	-5.28
1090.013	-0.98
1090.433	-3.18
1090.852	-1.78
1091.272	0.92
1091.692	-1.08
1092.112	-5.38
1092.531	-16.28
1092.951	-16.18
1093.371	-1.58
1093.79	1.22
1094.21	-4.38
1094.63	-3.38
1095.049	-7.28
1095.469	-7.18
1095.888	-6.48
1096.308	1.32
1096.727	4.22
1097.146	-7.18
1097.566	-1.88
1097.985	-8.68
1098.405	-0.58
1098.824	-7.78
1099.243	-5.28
1099.662	-6.38
1100.082	-6.08
1100.501	-6.68
1100.92	-8.88
1101.339	-2.18
1101.758	-8.68
