Data from 20171114-ORNL-Ar_H_NY_Subt18_08-07-51-635.txt Node
Date: Tue Nov 14 08:07:51 EST 2017
User: Ender
Spectrometer: HR+D1039
Trigger mode: 0
Integration Time (sec): 2.730000E-2
Scans to average: 10
Electric dark correction enabled: true
Nonlinearity correction enabled: false
Boxcar width: 0
XAxis mode: Wavelengths
Number of Pixels in Spectrum: 2048
>>>>>Begin Spectral Data<<<<<
187.836	-8.38
188.309	-8.38
188.782	-8.38
189.255	-0.18
189.728	-5.28
190.201	5.02
190.674	-2.58
191.147	4.82
191.619	-8.28
192.092	8.22
192.565	-3.08
193.038	3.92
193.511	2.82
193.984	0.72
194.456	-2.98
194.929	4.32
195.402	2.22
195.874	-1.28
196.347	-0.28
196.82	-6.68
197.292	7.52
197.765	-3.58
198.237	-6.88
198.71	3.02
199.182	2.02
199.655	4.82
200.127	3.92
200.6	-0.58
201.072	-3.48
201.544	-6.98
202.017	1.62
202.489	8.02
202.961	2.92
203.433	-3.48
203.906	-2.68
204.378	-6.48
204.85	-7.58
205.322	-11.08
205.794	-0.68
206.266	-4.58
206.739	-3.78
207.211	4.02
207.683	-4.28
208.155	-6.28
208.627	-7.08
209.099	-2.48
209.57	-8.88
210.042	-5.18
210.514	-4.08
210.986	-1.48
211.458	-7.48
211.93	0.62
212.402	7.42
212.873	-8.28
213.345	-8.38
213.817	-11.58
214.288	-3.78
214.76	-4.18
215.232	-3.08
215.703	-8.58
216.175	-1.88
216.646	-1.58
217.118	-6.98
217.589	-3.88
218.061	-2.88
218.532	-4.28
219.004	-0.98
219.475	-5.68
219.946	-4.88
220.418	-5.78
220.889	-1.58
221.36	-0.78
221.832	-2.38
222.303	-6.18
222.774	0.62
223.245	-11.98
223.717	-0.18
224.188	-2.78
224.659	-10.08
225.13	-8.18
225.601	-5.28
226.072	3.42
226.543	1.22
227.014	1.52
227.485	3.32
227.956	-4.08
228.427	-4.08
228.898	-1.48
229.369	-0.58
229.839	-4.28
230.31	-1.88
230.781	1.72
231.252	-7.98
231.722	-8.78
232.193	-5.58
232.664	0.82
233.135	4.52
233.605	-4.48
234.076	-8.98
234.546	1.32
235.017	2.52
235.487	-1.18
235.958	3.02
236.428	1.62
236.899	4.62
237.369	4.52
237.84	-0.28
238.31	2.22
238.78	1.72
239.251	-2.18
239.721	4.72
240.191	2.22
240.662	3.62
241.132	1.72
241.602	1.52
242.072	-2.68
242.542	6.92
243.013	-1.28
243.483	3.52
243.953	-2.68
244.423	0.22
244.893	-3.18
245.363	2.22
245.833	-0.68
246.303	-2.58
246.773	7.42
247.243	3.72
247.712	-3.88
248.182	6.12
248.652	3.02
249.122	-2.28
249.592	11.82
250.061	18.72
250.531	30.52
251.001	10.02
251.471	18.32
251.94	13.72
252.41	3.12
252.879	0.82
253.349	11.12
253.818	4.92
254.288	9.22
254.757	3.62
255.227	1.32
255.696	3.22
256.166	2.92
256.635	11.62
257.105	8.92
257.574	8.22
258.043	3.62
258.513	11.02
258.982	16.42
259.451	6.12
259.92	9.52
260.389	9.22
260.859	12.92
261.328	11.62
261.797	18.02
262.266	8.72
262.735	12.72
263.204	2.52
263.673	0.82
264.142	8.52
264.611	-4.58
265.08	4.82
265.549	0.62
266.018	4.02
266.487	-0.18
266.955	-6.78
267.424	-2.88
267.893	8.72
268.362	-0.38
268.83	4.92
269.299	16.52
269.768	10.02
270.236	7.82
270.705	3.32
271.174	11.52
271.642	4.52
272.111	5.42
272.579	20.12
273.048	24.32
273.516	23.22
273.985	26.62
274.453	27.62
274.922	21.62
275.39	12.22
275.858	-3.78
276.327	7.42
276.795	14.42
277.263	8.32
277.731	27.42
278.2	50.72
278.668	59.12
279.136	41.92
279.604	18.42
280.072	13.02
280.54	11.62
281.008	10.32
281.477	13.32
281.945	11.52
282.413	10.32
282.881	7.32
283.348	9.22
283.816	10.22
284.284	15.22
284.752	20.72
285.22	14.52
285.688	10.92
286.156	21.62
286.623	39.62
287.091	55.12
287.559	30.52
288.026	15.82
288.494	10.72
288.962	3.12
289.429	7.02
289.897	16.12
290.364	14.52
290.832	16.02
291.3	10.02
291.767	13.92
292.234	11.52
292.702	9.02
293.169	15.72
293.637	18.92
294.104	15.62
294.571	9.62
295.039	8.22
295.506	18.62
295.973	16.92
296.44	16.02
296.908	16.32
297.375	17.62
297.842	19.52
298.309	19.12
298.776	13.02
299.243	16.42
299.71	13.52
300.177	24.72
300.644	20.72
301.111	18.82
301.578	22.22
302.045	20.32
302.512	22.72
302.979	22.72
303.446	17.02
303.913	16.52
304.379	23.62
304.846	26.92
305.313	20.32
305.78	20.62
306.246	17.72
306.713	26.82
307.18	19.32
307.646	26.42
308.113	27.82
308.579	25.82
309.046	25.22
309.512	23.42
309.979	18.92
310.445	24.32
310.912	33.02
311.378	29.32
311.845	26.12
312.311	25.22
312.777	29.82
313.244	34.02
313.71	32.82
314.176	29.62
314.642	31.82
315.109	32.32
315.575	33.52
316.041	36.82
316.507	36.12
316.973	31.62
317.439	31.52
317.905	28.02
318.371	35.12
318.837	29.62
319.303	33.52
319.769	28.02
320.235	29.32
320.701	30.32
321.167	33.32
321.633	28.32
322.099	38.02
322.564	47.32
323.03	37.42
323.496	35.42
323.962	31.02
324.427	36.22
324.893	37.02
325.359	30.82
325.824	35.02
326.29	36.42
326.755	38.52
327.221	39.32
327.686	38.92
328.152	40.32
328.617	39.62
329.083	46.12
329.548	47.62
330.014	50.32
330.479	34.42
330.944	39.52
331.41	41.22
331.875	43.82
332.34	38.52
332.805	40.22
333.271	50.02
333.736	37.72
334.201	49.82
334.666	46.02
335.131	51.12
335.596	47.22
336.061	45.22
336.526	38.82
336.991	45.92
337.456	56.92
337.921	45.52
338.386	38.72
338.851	41.52
339.316	45.62
339.781	40.72
340.246	49.42
340.711	38.62
341.175	52.02
341.64	46.22
342.105	43.62
342.569	54.22
343.034	55.42
343.499	52.42
343.963	49.12
344.428	60.42
344.893	56.72
345.357	58.52
345.822	56.72
346.286	63.52
346.751	70.02
347.215	62.22
347.679	64.42
348.144	87.62
348.608	77.52
349.073	66.32
349.537	67.22
350.001	68.42
350.465	82.22
350.93	74.12
351.394	75.02
351.858	69.92
352.322	82.32
352.786	81.72
353.25	92.82
353.715	106.82
354.179	88.52
354.643	110.02
355.107	112.92
355.571	99.92
356.035	99.12
356.498	110.02
356.962	112.92
357.426	120.52
357.89	110.22
358.354	83.32
358.818	77.72
359.281	74.32
359.745	72.02
360.209	74.82
360.673	69.82
361.136	77.72
361.6	77.92
362.064	77.42
362.527	81.42
362.991	87.42
363.454	71.82
363.918	70.52
364.381	75.42
364.845	78.02
365.308	77.92
365.772	85.42
366.235	82.22
366.698	75.12
367.162	84.32
367.625	84.32
368.088	86.22
368.552	88.22
369.015	81.72
369.478	89.42
369.941	89.52
370.404	91.12
370.867	98.72
371.331	107.72
371.794	115.02
372.257	102.02
372.72	108.72
373.183	104.42
373.646	105.62
374.109	94.42
374.572	108.22
375.035	101.02
375.497	104.22
375.96	103.72
376.423	99.82
376.886	106.12
377.349	110.02
377.811	97.62
378.274	100.32
378.737	100.72
379.199	113.82
379.662	102.12
380.125	110.42
380.587	113.42
381.05	110.62
381.512	125.12
381.975	129.22
382.437	120.12
382.9	123.12
383.362	124.52
383.825	143.62
384.287	147.92
384.75	142.52
385.212	137.12
385.674	134.92
386.136	135.42
386.599	120.32
387.061	128.72
387.523	125.62
387.985	133.22
388.447	143.12
388.91	138.12
389.372	154.92
389.834	149.12
390.296	145.92
390.758	153.02
391.22	166.92
391.682	206.92
392.144	304.22
392.606	228.22
393.068	162.52
393.529	166.62
393.991	150.62
394.453	151.12
394.915	154.12
395.377	188.62
395.838	212.42
396.3	154.02
396.762	134.52
397.224	130.42
397.685	122.12
398.147	128.52
398.608	130.22
399.07	125.82
399.531	129.72
399.993	140.82
400.454	152.42
400.916	140.62
401.377	138.52
401.839	143.62
402.3	148.22
402.762	162.12
403.223	174.42
403.684	165.72
404.145	154.62
404.607	154.32
405.068	166.02
405.529	161.82
405.99	175.92
406.451	169.52
406.913	167.22
407.374	165.82
407.835	159.52
408.296	162.02
408.757	174.42
409.218	182.32
409.679	172.32
410.14	178.32
410.601	174.62
411.062	181.82
411.522	189.12
411.983	189.02
412.444	167.82
412.905	176.22
413.366	170.52
413.826	183.42
414.287	218.22
414.748	251.42
415.208	236.52
415.669	206.12
416.13	204.62
416.59	195.02
417.051	207.32
417.511	216.22
417.972	228.12
418.432	234.12
418.893	277.32
419.353	245.62
419.814	195.02
420.274	173.12
420.734	170.92
421.195	202.02
421.655	198.02
422.115	188.52
422.576	188.72
423.036	187.02
423.496	195.52
423.956	209.12
424.416	220.22
424.876	259.72
425.336	257.92
425.797	258.02
426.257	248.12
426.717	234.82
427.177	233.52
427.637	215.22
428.097	234.22
428.556	238.52
429.016	258.22
429.476	262.22
429.936	272.02
430.396	268.32
430.856	290.22
431.315	314.22
431.775	341.32
432.235	368.12
432.694	348.22
433.154	359.52
433.614	391.02
434.073	324.22
434.533	282.52
434.993	259.72
435.452	271.52
435.912	284.12
436.371	285.22
436.83	280.82
437.29	268.22
437.749	246.22
438.209	246.72
438.668	268.82
439.127	282.72
439.587	260.92
440.046	244.92
440.505	255.92
440.964	264.22
441.424	320.72
441.883	305.92
442.342	249.72
442.801	215.82
443.26	211.12
443.719	219.42
444.178	219.22
444.637	209.32
445.096	213.82
445.555	217.72
446.014	227.32
446.473	222.22
446.932	234.22
447.391	223.52
447.849	219.52
448.308	217.02
448.767	217.42
449.226	232.32
449.685	229.62
450.143	239.72
450.602	232.02
451.061	224.92
451.519	228.82
451.978	232.02
452.436	227.52
452.895	234.22
453.353	250.12
453.812	239.22
454.27	231.12
454.729	234.02
455.187	228.32
455.646	232.12
456.104	242.62
456.562	250.02
457.021	267.72
457.479	258.92
457.937	268.52
458.395	252.22
458.854	245.32
459.312	256.22
459.77	268.92
460.228	257.62
460.686	235.22
461.144	241.82
461.602	250.82
462.06	238.62
462.518	251.32
462.976	244.92
463.434	250.52
463.892	255.82
464.35	269.72
464.808	289.02
465.266	250.62
465.724	265.42
466.181	263.22
466.639	270.72
467.097	276.92
467.555	304.62
468.012	298.62
468.47	309.02
468.928	319.32
469.385	336.72
469.843	347.42
470.3	344.72
470.758	359.92
471.215	373.62
471.673	406.62
472.13	392.92
472.588	410.52
473.045	367.72
473.503	369.32
473.96	382.42
474.417	393.62
474.875	420.92
475.332	464.82
475.789	454.12
476.246	465.22
476.704	476.82
477.161	498.02
477.618	523.62
478.075	559.02
478.532	610.52
478.989	679.12
479.446	792.82
479.903	758.92
480.36	798.42
480.817	853.82
481.274	946.02
481.731	1046.72
482.188	1139.62
482.645	1288.62
483.102	1394.52
483.558	1523.52
484.015	1556.12
484.472	1546.92
484.929	1499.12
485.385	1452.32
485.842	1402.82
486.299	1334.32
486.755	1271.82
487.212	1086.32
487.668	912.42
488.125	834.22
488.582	762.62
489.038	737.92
489.494	682.32
489.951	672.22
490.407	658.42
490.864	639.82
491.32	636.42
491.776	622.02
492.233	646.52
492.689	603.82
493.145	593.92
493.602	583.52
494.058	600.92
494.514	596.02
494.97	627.32
495.426	631.32
495.882	607.82
496.338	600.52
496.794	606.32
497.251	603.62
497.707	622.92
498.163	621.62
498.618	639.32
499.074	638.92
499.53	672.02
499.986	663.72
500.442	644.62
500.898	621.32
501.354	615.72
501.809	619.02
502.265	648.72
502.721	641.72
503.177	664.42
503.632	652.12
504.088	668.82
504.543	703.52
504.999	699.82
505.455	644.52
505.91	612.42
506.366	622.72
506.821	614.92
507.277	610.32
507.732	617.22
508.187	613.12
508.643	624.82
509.098	622.02
509.553	645.02
510.009	648.82
510.464	655.32
510.919	691.62
511.375	686.12
511.83	690.32
512.285	711.92
512.74	742.52
513.195	772.12
513.65	761.02
514.105	753.92
514.56	771.72
515.015	774.82
515.47	792.22
515.925	777.02
516.38	760.52
516.835	777.02
517.29	765.12
517.745	772.02
518.2	762.52
518.655	735.32
519.109	726.72
519.564	716.92
520.019	723.82
520.474	710.82
520.928	703.92
521.383	714.12
521.838	702.62
522.292	701.02
522.747	695.02
523.201	694.22
523.656	683.62
524.11	686.42
524.565	679.82
525.019	680.22
525.474	698.62
525.928	687.62
526.382	672.92
526.837	687.52
527.291	684.62
527.745	681.92
528.2	687.92
528.654	684.62
529.108	671.22
529.562	681.02
530.016	678.62
530.47	687.02
530.925	689.12
531.379	687.82
531.833	689.02
532.287	691.02
532.741	680.62
533.195	693.82
533.649	696.12
534.103	705.22
534.556	690.92
535.01	698.72
535.464	699.92
535.918	712.42
536.372	707.22
536.826	696.52
537.279	694.22
537.733	699.12
538.187	701.12
538.64	702.12
539.094	717.22
539.548	720.12
540.001	713.32
540.455	718.42
540.908	716.92
541.362	726.82
541.815	745.92
542.269	751.22
542.722	751.22
543.175	761.22
543.629	755.62
544.082	775.72
544.536	781.42
544.989	771.42
545.442	783.22
545.895	775.22
546.349	792.02
546.802	775.02
547.255	789.72
547.708	786.32
548.161	806.92
548.614	815.42
549.067	818.52
549.52	816.52
549.973	806.02
550.426	805.02
550.879	779.92
551.332	785.22
551.785	790.82
552.238	791.02
552.691	812.62
553.144	823.82
553.596	839.22
554.049	847.92
554.502	881.42
554.955	896.72
555.407	895.62
555.86	893.62
556.313	880.82
556.765	872.22
557.218	866.32
557.67	868.62
558.123	863.92
558.576	867.42
559.028	868.02
559.48	870.12
559.933	862.72
560.385	827.72
560.838	807.42
561.29	780.62
561.742	775.52
562.195	756.42
562.647	754.92
563.099	763.72
563.551	759.42
564.004	773.62
564.456	756.72
564.908	750.32
565.36	739.42
565.812	734.32
566.264	715.72
566.716	718.52
567.168	722.72
567.62	724.02
568.072	691.02
568.524	696.92
568.976	685.42
569.428	677.22
569.88	673.42
570.332	669.42
570.784	674.12
571.235	684.22
571.687	697.32
572.139	696.92
572.59	693.22
573.042	700.22
573.494	697.52
573.945	695.62
574.397	678.32
574.849	686.02
575.3	689.92
575.752	684.52
576.203	667.12
576.655	677.02
577.106	673.22
577.557	657.52
578.009	657.52
578.46	650.52
578.912	653.72
579.363	662.82
579.814	667.52
580.265	656.32
580.717	658.72
581.168	655.22
581.619	673.32
582.07	671.02
582.521	674.42
582.972	667.22
583.423	658.92
583.875	669.52
584.326	700.22
584.777	737.72
585.227	825.62
585.678	917.72
586.129	1005.42
586.58	1076.72
587.031	1164.72
587.482	1323.52
587.933	1513.22
588.384	1308.32
588.834	973.92
589.285	796.82
589.736	774.92
590.186	778.52
590.637	761.62
591.088	744.82
591.538	731.42
591.989	727.72
592.439	725.32
592.89	722.02
593.34	703.32
593.791	709.02
594.241	697.92
594.692	706.12
595.142	693.02
595.593	690.82
596.043	701.72
596.493	706.32
596.943	709.22
597.394	714.62
597.844	708.12
598.294	727.62
598.744	750.22
599.195	766.92
599.645	820.42
600.095	850.62
600.545	914.02
600.995	964.52
601.445	1022.32
601.895	1088.22
602.345	1135.42
602.795	1104.22
603.245	1055.72
603.695	1001.82
604.145	963.82
604.594	895.72
605.044	852.82
605.494	794.52
605.944	749.32
606.393	731.82
606.843	728.32
607.293	731.22
607.743	733.52
608.192	742.52
608.642	754.92
609.091	762.22
609.541	763.22
609.99	758.62
610.44	765.42
610.889	723.42
611.339	699.82
611.788	682.02
612.238	696.62
612.687	718.82
613.136	715.52
613.586	741.12
614.035	736.02
614.484	749.62
614.933	750.62
615.383	746.32
615.832	733.62
616.281	719.72
616.73	688.52
617.179	671.42
617.628	652.52
618.077	632.12
618.526	621.42
618.975	616.92
619.424	604.72
619.873	606.82
620.322	618.62
620.771	597.22
621.22	600.02
621.669	590.42
622.118	584.22
622.567	574.72
623.015	575.72
623.464	570.82
623.913	562.92
624.361	551.22
624.81	539.32
625.259	554.22
625.707	554.52
626.156	550.32
626.604	568.32
627.053	561.42
627.501	559.12
627.95	559.22
628.398	576.32
628.847	571.42
629.295	577.22
629.744	575.42
630.192	569.22
630.64	566.82
631.089	567.62
631.537	584.62
631.985	588.62
632.433	595.82
632.881	608.72
633.33	663.62
633.778	641.32
634.226	576.02
634.674	567.42
635.122	582.72
635.57	594.52
636.018	633.52
636.466	578.62
636.914	553.42
637.362	565.52
637.81	578.22
638.258	576.82
638.705	579.02
639.153	617.52
639.601	616.32
640.049	634.22
640.497	671.62
640.944	689.12
641.392	635.92
641.84	603.32
642.287	582.62
642.735	571.02
643.182	573.82
643.63	566.92
644.078	583.62
644.525	581.12
644.973	599.02
645.42	604.02
645.867	620.52
646.315	640.52
646.762	663.12
647.21	688.62
647.657	705.92
648.104	744.62
648.551	776.72
648.999	836.32
649.446	910.02
649.893	1009.62
650.34	1170.72
650.787	1408.32
651.234	1747.52
651.682	2271.42
652.129	3136.32
652.576	4514.02
653.023	6699.22
653.47	9126.92
653.917	11331.92
654.363	13018.92
654.81	14334.62
655.257	13595.92
655.704	8883.82
656.151	5245.42
656.598	3386.42
657.044	2419.92
657.491	1864.62
657.938	1485.72
658.385	1250.72
658.831	1073.52
659.278	957.02
659.724	848.72
660.171	788.62
660.618	713.72
661.064	691.12
661.511	660.02
661.957	650.42
662.404	640.42
662.85	645.52
663.296	628.02
663.743	564.32
664.189	541.82
664.635	532.32
665.082	533.02
665.528	531.62
665.974	519.52
666.42	503.52
666.867	498.82
667.313	495.92
667.759	477.52
668.205	481.22
668.651	488.72
669.097	488.02
669.543	498.02
669.989	476.42
670.435	442.92
670.881	447.12
671.327	446.52
671.773	466.02
672.219	485.22
672.665	548.62
673.11	585.02
673.556	625.92
674.002	659.32
674.448	647.72
674.893	542.62
675.339	473.22
675.785	432.72
676.23	415.52
676.676	377.12
677.122	377.52
677.567	372.82
678.013	366.12
678.458	351.82
678.904	356.92
679.349	350.12
679.794	354.02
680.24	355.62
680.685	348.52
681.131	353.12
681.576	348.02
682.021	347.72
682.466	345.82
682.912	339.92
683.357	346.22
683.802	379.62
684.247	415.32
684.692	456.62
685.137	486.62
685.583	537.42
686.028	557.02
686.473	510.32
686.918	444.42
687.363	421.52
687.807	388.32
688.252	362.72
688.697	356.22
689.142	340.22
689.587	336.42
690.032	325.62
690.477	340.22
690.921	351.02
691.366	387.12
691.811	398.12
692.255	422.62
692.7	454.42
693.145	510.22
693.589	711.32
694.034	1143.42
694.478	1539.32
694.923	1709.72
695.367	2221.32
695.812	1182.22
696.256	490.92
696.701	366.72
697.145	341.32
697.59	326.72
698.034	318.12
698.478	329.82
698.922	323.02
699.367	333.22
699.811	341.72
700.255	363.12
700.699	386.82
701.143	427.42
701.588	478.32
702.032	523.82
702.476	518.52
702.92	480.82
703.364	495.02
703.808	651.02
704.252	1053.22
704.696	1455.62
705.14	1650.02
705.584	2102.22
706.027	1056.72
706.471	518.02
706.915	398.52
707.359	354.02
707.803	326.92
708.246	313.32
708.69	310.62
709.134	313.02
709.577	316.02
710.021	317.82
710.465	304.52
710.908	300.12
711.352	305.92
711.795	313.92
712.239	355.62
712.682	379.32
713.126	415.92
713.569	459.02
714.012	374.12
714.456	323.62
714.899	292.82
715.342	271.22
715.786	262.92
716.229	261.82
716.672	262.92
717.115	246.32
717.558	244.02
718.002	251.32
718.445	258.62
718.888	284.62
719.331	292.92
719.774	306.62
720.217	307.42
720.66	288.52
721.103	264.02
721.546	250.72
721.989	251.62
722.432	230.02
722.874	237.12
723.317	233.32
723.76	242.52
724.203	261.82
724.645	319.82
725.088	457.12
725.531	570.42
725.974	636.22
726.416	543.32
726.859	300.52
727.301	245.92
727.744	238.62
728.187	236.32
728.629	239.32
729.071	245.52
729.514	260.92
729.956	270.62
730.399	284.72
730.841	285.72
731.283	271.92
731.726	273.22
732.168	255.82
732.61	265.82
733.053	290.32
733.495	316.92
733.937	362.22
734.379	394.72
734.821	435.32
735.263	537.62
735.705	839.82
736.148	1610.82
736.59	2584.92
737.032	3002.82
737.474	2433.62
737.916	796.72
738.357	438.72
738.799	323.12
739.241	301.42
739.683	281.12
740.125	293.52
740.567	298.42
741.008	319.32
741.45	306.52
741.892	314.92
742.334	349.62
742.775	354.52
743.217	337.72
743.658	268.32
744.1	262.92
744.542	259.72
744.983	310.52
745.425	342.02
745.866	335.72
746.307	285.92
746.749	283.52
747.19	329.52
747.632	457.32
748.073	914.62
748.514	1900.42
748.956	2830.92
749.397	3546.32
749.838	2951.52
750.279	2916.12
750.72	1476.22
751.162	542.42
751.603	322.82
752.044	257.92
752.485	219.42
752.926	199.42
753.367	199.72
753.808	196.42
754.249	187.42
754.69	189.62
755.131	179.92
755.572	180.22
756.013	190.02
756.453	184.52
756.894	183.22
757.335	192.72
757.776	196.62
758.216	199.42
758.657	208.32
759.098	202.82
759.538	225.82
759.979	269.22
760.42	376.52
760.86	730.32
761.301	1893.62
761.741	4450.82
762.182	6303.72
762.622	4416.32
763.063	1294.42
763.503	534.82
763.943	345.62
764.384	341.22
764.824	405.42
765.264	442.72
765.705	317.22
766.145	210.02
766.585	195.22
767.025	184.82
767.465	187.52
767.906	247.02
768.346	320.52
768.786	341.82
769.226	260.02
769.666	326.32
770.106	633.32
770.546	1584.12
770.986	2601.72
771.426	2307.62
771.866	776.02
772.306	331.12
772.745	212.42
773.185	179.82
773.625	174.12
774.065	167.72
774.505	196.12
774.944	318.52
775.384	694.62
775.824	1230.62
776.263	1179.82
776.703	506.72
777.142	224.72
777.582	159.12
778.021	135.12
778.461	140.22
778.9	140.62
779.34	127.62
779.779	121.62
780.219	113.02
780.658	108.12
781.097	109.62
781.537	108.52
781.976	109.02
782.415	105.72
782.855	100.82
783.294	109.42
783.733	111.12
784.172	111.52
784.611	102.02
785.05	111.42
785.489	115.52
785.928	119.12
786.367	122.12
786.806	115.92
787.245	127.02
787.684	136.12
788.123	151.62
788.562	130.52
789.001	129.52
789.44	118.82
789.879	116.92
790.317	119.82
790.756	125.92
791.195	133.12
791.634	144.12
792.072	206.72
792.511	375.32
792.95	1033.52
793.388	2112.02
793.827	1909.32
794.265	670.82
794.704	278.32
795.142	178.92
795.581	149.12
796.019	140.92
796.458	125.12
796.896	121.72
797.334	131.42
797.773	156.72
798.211	220.42
798.649	455.92
799.087	1023.52
799.526	1588.52
799.964	2008.02
800.402	1975.92
800.84	742.22
801.278	298.82
801.716	178.82
802.154	154.62
802.592	142.12
803.03	140.32
803.468	136.52
803.906	143.42
804.344	145.22
804.782	136.92
805.22	132.82
805.658	126.82
806.096	146.02
806.533	151.92
806.971	171.42
807.409	215.32
807.847	310.82
808.284	677.22
808.722	1894.52
809.16	3235.72
809.597	3142.52
810.035	5422.12
810.472	5618.62
810.91	2039.92
811.347	787.92
811.785	403.02
812.222	253.12
812.66	191.52
813.097	166.42
813.535	134.92
813.972	129.02
814.409	126.42
814.846	109.12
815.284	111.72
815.721	103.42
816.158	109.12
816.595	122.42
817.032	179.52
817.47	198.22
817.907	163.02
818.344	154.82
818.781	116.02
819.218	100.02
819.655	124.12
820.092	184.52
820.529	209.42
820.966	176.02
821.403	134.32
821.839	111.02
822.276	103.02
822.713	122.42
823.15	127.12
823.587	117.22
824.023	145.22
824.46	301.72
824.897	903.42
825.333	1341.12
825.77	580.82
826.206	227.42
826.643	130.72
827.08	97.52
827.516	87.52
827.953	78.02
828.389	72.92
828.825	70.82
829.262	67.52
829.698	61.92
830.135	63.52
830.571	66.52
831.007	62.32
831.443	67.02
831.88	65.42
832.316	63.12
832.752	64.72
833.188	71.42
833.624	66.42
834.06	66.82
834.497	75.22
834.933	68.82
835.369	76.22
835.805	66.62
836.241	77.72
836.677	87.42
837.112	89.22
837.548	108.02
837.984	129.92
838.42	206.32
838.856	503.52
839.292	1523.72
839.727	2258.52
840.163	1048.12
840.599	935.22
841.034	2038.72
841.47	2064.92
841.906	769.02
842.341	339.02
842.777	231.92
843.212	324.62
843.648	298.42
844.083	150.62
844.519	97.32
844.954	79.32
845.39	60.42
845.825	62.22
846.261	54.72
846.696	54.22
847.131	49.52
847.566	59.62
848.002	56.12
848.437	54.82
848.872	59.82
849.307	64.62
849.742	87.12
850.177	182.62
850.613	562.22
851.048	853.02
851.483	370.12
851.918	155.62
852.353	91.12
852.788	61.02
853.223	61.02
853.657	55.12
854.092	46.92
854.527	40.52
854.962	42.22
855.397	45.32
855.832	45.22
856.266	41.42
856.701	40.22
857.136	36.42
857.57	46.52
858.005	47.42
858.44	53.92
858.874	42.72
859.309	56.52
859.743	40.22
860.178	42.12
860.612	42.62
861.047	53.12
861.481	62.72
861.915	67.52
862.35	49.72
862.784	34.92
863.218	38.22
863.653	37.52
864.087	41.02
864.521	55.62
864.955	67.32
865.39	160.72
865.824	173.22
866.258	114.62
866.692	159.22
867.126	165.12
867.56	98.52
867.994	44.82
868.428	31.72
868.862	52.52
869.296	53.12
869.73	60.22
870.164	50.32
870.598	46.52
871.031	40.82
871.465	32.12
871.899	39.52
872.333	26.82
872.766	22.52
873.2	25.72
873.634	28.62
874.067	22.52
874.501	24.12
874.935	32.82
875.368	31.32
875.802	26.92
876.235	24.42
876.669	26.42
877.102	19.12
877.535	22.82
877.969	24.52
878.402	24.42
878.836	20.92
879.269	24.62
879.702	19.52
880.135	16.92
880.569	20.02
881.002	28.02
881.435	19.22
881.868	12.92
882.301	19.72
882.734	13.02
883.167	20.02
883.601	18.42
884.034	30.22
884.467	16.32
884.899	21.42
885.332	18.62
885.765	14.62
886.198	18.72
886.631	15.42
887.064	21.12
887.497	16.12
887.929	25.42
888.362	16.12
888.795	13.52
889.228	19.42
889.66	22.72
890.093	18.82
890.526	15.32
890.958	17.82
891.391	14.82
891.823	26.12
892.256	15.12
892.688	11.82
893.121	18.62
893.553	15.02
893.985	25.22
894.418	18.42
894.85	11.92
895.282	16.32
895.715	16.92
896.147	16.62
896.579	20.32
897.011	18.82
897.444	12.22
897.876	18.52
898.308	11.12
898.74	19.02
899.172	11.82
899.604	23.52
900.036	18.92
900.468	17.02
900.9	18.82
901.332	16.12
901.764	11.72
902.196	23.92
902.628	17.52
903.06	15.22
903.491	31.22
903.923	22.72
904.355	21.52
904.787	19.32
905.218	21.42
905.65	20.22
906.082	9.52
906.513	16.22
906.945	18.92
907.376	15.62
907.808	20.22
908.239	20.92
908.671	19.72
909.102	22.62
909.534	23.22
909.965	52.62
910.397	93.72
910.828	309.32
911.259	461.82
911.691	218.52
912.122	111.72
912.553	55.52
912.984	32.72
913.415	23.62
913.847	29.92
914.278	16.12
914.709	13.42
915.14	13.12
915.571	14.12
916.002	17.32
916.433	17.92
916.864	12.52
917.295	11.82
917.726	14.52
918.157	14.62
918.587	22.42
919.018	21.12
919.449	16.22
919.88	25.32
920.311	30.42
920.741	55.82
921.172	167.62
921.603	145.32
922.033	68.02
922.464	46.72
922.895	24.82
923.325	23.12
923.756	12.02
924.186	20.72
924.617	27.62
925.047	42.32
925.478	59.92
925.908	46.92
926.338	27.92
926.769	23.22
927.199	23.92
927.629	9.82
928.06	18.72
928.49	17.12
928.92	14.82
929.35	16.22
929.78	10.02
930.21	6.22
930.641	9.12
931.071	11.02
931.501	4.22
931.931	9.22
932.361	4.22
932.791	1.62
933.221	7.02
933.651	8.32
934.08	20.02
934.51	33.22
934.94	8.22
935.37	12.52
935.8	9.42
936.229	13.52
936.659	4.32
937.089	8.12
937.519	15.82
937.948	20.32
938.378	13.32
938.807	5.92
939.237	1.02
939.666	2.62
940.096	-5.98
940.525	6.42
940.955	4.52
941.384	3.22
941.814	-1.58
942.243	-0.28
942.672	4.22
943.102	2.22
943.531	1.82
943.96	2.52
944.39	3.92
944.819	6.52
945.248	3.72
945.677	-1.68
946.106	5.32
946.535	7.12
946.964	3.12
947.393	2.42
947.822	-0.78
948.251	1.22
948.68	1.02
949.109	3.42
949.538	2.42
949.967	0.92
950.396	-0.58
950.825	0.82
951.254	4.72
951.682	0.02
952.111	1.92
952.54	8.12
952.969	-1.48
953.397	-4.38
953.826	-0.78
954.254	-6.38
954.683	3.22
955.112	-4.78
955.54	3.92
955.969	-2.48
956.397	5.12
956.826	-8.28
957.254	3.12
957.682	-1.38
958.111	7.62
958.539	4.32
958.967	2.22
959.396	0.82
959.824	1.42
960.252	3.92
960.68	-3.48
961.109	0.02
961.537	-7.08
961.965	3.32
962.393	1.92
962.821	0.52
963.249	1.72
963.677	7.22
964.105	0.52
964.533	45.42
964.961	38.82
965.389	17.72
965.817	9.92
966.245	5.02
966.672	1.62
967.1	-5.18
967.528	-2.38
967.956	2.22
968.383	-0.58
968.811	-0.78
969.239	-2.68
969.666	-6.88
970.094	-2.08
970.522	-5.28
970.949	2.52
971.377	-2.88
971.804	-4.18
972.232	-0.28
972.659	1.22
973.087	2.92
973.514	1.22
973.941	-4.68
974.369	-0.38
974.796	-3.08
975.223	1.82
975.651	0.62
976.078	5.52
976.505	-1.28
976.932	1.52
977.359	12.12
977.786	18.62
978.214	0.02
978.641	-2.98
979.068	1.42
979.495	-6.78
979.922	1.82
980.349	-0.88
980.776	0.92
981.202	-2.68
981.629	3.52
982.056	5.72
982.483	-7.68
982.91	6.12
983.337	-6.28
983.763	2.92
984.19	-7.88
984.617	-0.58
985.043	-7.38
985.47	-3.68
985.897	-5.08
986.323	-8.98
986.75	-0.98
987.176	-1.48
987.603	-0.08
988.029	-1.18
988.456	-7.88
988.882	5.22
989.308	-3.98
989.735	-2.48
990.161	-1.48
990.587	-9.78
991.014	0.92
991.44	3.92
991.866	-0.48
992.292	-1.78
992.719	-0.18
993.145	2.02
993.571	-3.68
993.997	-4.38
994.423	-1.78
994.849	-4.88
995.275	2.82
995.701	-2.48
996.127	2.52
996.553	-6.38
996.979	-7.18
997.405	0.62
997.83	-0.78
998.256	-5.68
998.682	-4.18
999.108	-7.28
999.534	-2.88
999.959	-1.28
1000.385	-5.38
1000.811	-1.38
1001.236	-7.78
1001.662	-4.58
1002.087	-9.08
1002.513	1.32
1002.938	1.32
1003.364	-0.78
1003.789	0.22
1004.215	2.22
1004.64	3.62
1005.066	0.72
1005.491	2.32
1005.916	-2.28
1006.342	0.32
1006.767	-12.28
1007.192	7.22
1007.617	-0.48
1008.042	-11.38
1008.468	-5.78
1008.893	-7.28
1009.318	1.32
1009.743	-3.08
1010.168	4.72
1010.593	2.62
1011.018	-1.88
1011.443	-3.78
1011.868	1.82
1012.293	-5.98
1012.718	-13.78
1013.143	-1.08
1013.567	2.82
1013.992	-5.58
1014.417	-11.18
1014.842	4.52
1015.267	0.12
1015.691	-9.58
1016.116	2.62
1016.541	-1.48
1016.965	1.32
1017.39	5.12
1017.814	-2.68
1018.239	-1.38
1018.663	-6.78
1019.088	-9.68
1019.512	-3.18
1019.937	-1.08
1020.361	-2.98
1020.785	-5.48
1021.21	-8.38
1021.634	-0.08
1022.058	1.02
1022.483	5.32
1022.907	-2.88
1023.331	-6.08
1023.755	-5.98
1024.179	-2.08
1024.604	-2.68
1025.028	-6.28
1025.452	-4.38
1025.876	-2.88
1026.3	-1.08
1026.724	-12.78
1027.148	-3.78
1027.572	-8.48
1027.996	-6.88
1028.42	0.32
1028.843	-4.68
1029.267	-1.78
1029.691	2.72
1030.115	-1.98
1030.539	-4.78
1030.962	-8.28
1031.386	-7.08
1031.81	0.32
1032.233	-1.68
1032.657	-2.48
1033.08	-5.88
1033.504	-5.38
1033.927	-6.88
1034.351	-5.98
1034.774	-2.38
1035.198	-6.68
1035.621	-10.98
1036.045	-4.68
1036.468	-2.38
1036.891	-10.48
1037.315	-11.38
1037.738	-2.48
1038.161	5.32
1038.584	-6.58
1039.008	-7.88
1039.431	-5.28
1039.854	-4.08
1040.277	-12.28
1040.7	-7.88
1041.123	-0.18
1041.546	-7.38
1041.969	-4.58
1042.392	-0.98
1042.815	6.02
1043.238	3.02
1043.661	2.92
1044.084	-7.58
1044.507	-3.78
1044.93	-5.68
1045.352	-5.68
1045.775	-4.08
1046.198	2.62
1046.621	4.12
1047.043	-0.08
1047.466	8.32
1047.889	-1.48
1048.311	-4.58
1048.734	-2.58
1049.156	-3.18
1049.579	-5.58
1050.001	-9.08
1050.424	2.12
1050.846	-6.88
1051.269	-1.28
1051.691	-6.88
1052.113	-1.78
1052.536	-4.48
1052.958	-3.18
1053.38	0.52
1053.802	-11.18
1054.225	-1.08
1054.647	-11.18
1055.069	-6.38
1055.491	-1.28
1055.913	-6.98
1056.335	2.62
1056.757	-3.48
1057.179	-12.08
1057.601	-6.28
1058.023	-2.88
1058.445	-9.58
1058.867	-8.28
1059.289	1.32
1059.711	-6.08
1060.133	-3.68
1060.555	-2.18
1060.976	-7.08
1061.398	-4.08
1061.82	-4.48
1062.241	-2.78
1062.663	-5.08
1063.085	-7.98
1063.506	-1.68
1063.928	-5.58
1064.35	1.52
1064.771	-14.38
1065.193	-2.48
1065.614	-8.38
1066.035	-4.38
1066.457	-0.38
1066.878	-0.78
1067.3	-4.18
1067.721	-2.28
1068.142	0.52
1068.564	-5.48
1068.985	-2.68
1069.406	-5.68
1069.827	-4.38
1070.248	-0.78
1070.67	-9.48
1071.091	-3.68
1071.512	-2.88
1071.933	-2.98
1072.354	-6.48
1072.775	-7.88
1073.196	-8.98
1073.617	-0.88
1074.038	-4.18
1074.459	-3.58
1074.88	-11.98
1075.3	-2.98
1075.721	-5.68
1076.142	-2.38
1076.563	2.72
1076.983	-10.58
1077.404	-6.58
1077.825	-8.58
1078.246	-7.18
1078.666	-6.28
1079.087	-8.88
1079.507	-0.38
1079.928	-3.18
1080.348	0.12
1080.769	-2.58
1081.189	-0.68
1081.61	-4.08
1082.03	-3.18
1082.451	-7.98
1082.871	-3.68
1083.291	-4.38
1083.711	-10.38
1084.132	-1.78
1084.552	-8.98
1084.972	-1.88
1085.392	-6.28
1085.813	-9.88
1086.233	-5.08
1086.653	-3.18
1087.073	-1.38
1087.493	-7.18
1087.913	-6.48
1088.333	-7.58
1088.753	-3.88
1089.173	1.82
1089.593	-2.38
1090.013	-1.98
1090.433	1.12
1090.852	-7.18
1091.272	-8.58
1091.692	-6.58
1092.112	-0.78
1092.531	-4.48
1092.951	-15.18
1093.371	-6.38
1093.79	-2.08
1094.21	-3.18
1094.63	-8.68
1095.049	-9.28
1095.469	1.62
1095.888	-0.88
1096.308	1.82
1096.727	3.62
1097.146	-6.38
1097.566	-0.08
1097.985	-8.68
1098.405	-2.58
1098.824	-5.78
1099.243	-8.88
1099.662	-12.78
1100.082	-2.78
1100.501	0.52
1100.92	-3.88
1101.339	-5.58
1101.758	-5.28
