Data from 20171114-ORNL-Ar_H_NY_Subt18_08-06-02-445.txt Node
Date: Tue Nov 14 08:06:02 EST 2017
User: Ender
Spectrometer: HR+D1039
Trigger mode: 0
Integration Time (sec): 2.730000E-2
Scans to average: 10
Electric dark correction enabled: true
Nonlinearity correction enabled: false
Boxcar width: 0
XAxis mode: Wavelengths
Number of Pixels in Spectrum: 2048
>>>>>Begin Spectral Data<<<<<
187.836	0.28
188.309	0.28
188.782	0.28
189.255	-0.32
189.728	-1.12
190.201	10.68
190.674	-4.52
191.147	3.18
191.619	-9.32
192.092	3.78
192.565	1.58
193.038	1.88
193.511	-3.42
193.984	0.68
194.456	-0.72
194.929	0.68
195.402	-3.12
195.874	-0.22
196.347	-3.42
196.82	-8.42
197.292	5.78
197.765	-4.62
198.237	-2.82
198.71	-2.72
199.182	-5.62
199.655	1.48
200.127	2.38
200.6	-3.62
201.072	-4.22
201.544	-5.52
202.017	4.28
202.489	3.78
202.961	0.98
203.433	-2.02
203.906	-5.12
204.378	-4.72
204.85	-6.92
205.322	-8.72
205.794	-4.62
206.266	-3.52
206.739	-17.92
207.211	1.78
207.683	-10.82
208.155	-2.12
208.627	-5.72
209.099	-9.12
209.57	-9.72
210.042	-3.52
210.514	-4.42
210.986	-1.22
211.458	-11.32
211.93	-4.22
212.402	1.08
212.873	-14.92
213.345	-13.62
213.817	-13.12
214.288	-9.12
214.76	-12.52
215.232	-1.52
215.703	-2.02
216.175	-2.12
216.646	-2.42
217.118	-10.82
217.589	-5.62
218.061	-3.22
218.532	-1.22
219.004	-0.52
219.475	-8.92
219.946	-3.82
220.418	-6.02
220.889	0.68
221.36	-2.82
221.832	-3.22
222.303	-4.72
222.774	-3.72
223.245	-11.52
223.717	-2.22
224.188	-1.82
224.659	-10.12
225.13	-1.52
225.601	-3.22
226.072	2.78
226.543	-4.42
227.014	-3.32
227.485	-5.92
227.956	-5.02
228.427	-2.82
228.898	5.08
229.369	8.58
229.839	-4.22
230.31	-9.02
230.781	4.78
231.252	-2.72
231.722	-3.32
232.193	-1.42
232.664	-0.02
233.135	3.08
233.605	2.78
234.076	-4.42
234.546	5.78
235.017	4.98
235.487	1.88
235.958	-6.62
236.428	-2.02
236.899	7.08
237.369	1.58
237.84	1.28
238.31	4.68
238.78	4.68
239.251	2.68
239.721	2.28
240.191	-4.02
240.662	-1.42
241.132	0.48
241.602	-3.12
242.072	2.48
242.542	9.18
243.013	3.28
243.483	7.68
243.953	-2.02
244.423	-0.02
244.893	-8.62
245.363	1.48
245.833	4.18
246.303	2.78
246.773	7.08
247.243	8.38
247.712	6.28
248.182	5.58
248.652	7.08
249.122	-1.52
249.592	12.28
250.061	21.98
250.531	32.18
251.001	16.88
251.471	21.78
251.94	20.68
252.41	5.28
252.879	0.08
253.349	13.48
253.818	10.28
254.288	3.48
254.757	7.68
255.227	2.58
255.696	-1.02
256.166	4.38
256.635	6.08
257.105	7.28
257.574	3.08
258.043	9.48
258.513	13.78
258.982	18.38
259.451	10.78
259.92	8.88
260.389	9.18
260.859	12.18
261.328	16.78
261.797	17.98
262.266	4.58
262.735	10.28
263.204	10.88
263.673	3.78
264.142	11.28
264.611	-3.82
265.08	6.28
265.549	2.38
266.018	6.98
266.487	4.58
266.955	-1.32
267.424	7.38
267.893	8.48
268.362	2.98
268.83	1.28
269.299	7.68
269.768	8.68
270.236	12.78
270.705	5.98
271.174	11.38
271.642	10.78
272.111	10.78
272.579	17.28
273.048	26.48
273.516	33.08
273.985	33.28
274.453	26.98
274.922	21.68
275.39	10.38
275.858	6.08
276.327	12.88
276.795	19.28
277.263	4.58
277.731	32.08
278.2	48.68
278.668	61.18
279.136	49.68
279.604	21.58
280.072	10.08
280.54	11.08
281.008	11.68
281.477	12.88
281.945	12.18
282.413	14.38
282.881	16.78
283.348	4.38
283.816	12.48
284.284	15.38
284.752	20.78
285.22	13.38
285.688	15.38
286.156	20.88
286.623	45.78
287.091	48.18
287.559	29.78
288.026	16.68
288.494	19.08
288.962	15.28
289.429	12.48
289.897	16.78
290.364	11.28
290.832	15.48
291.3	19.78
291.767	17.78
292.234	20.88
292.702	14.38
293.169	18.68
293.637	26.68
294.104	19.48
294.571	9.38
295.039	10.08
295.506	14.38
295.973	16.68
296.44	21.18
296.908	20.48
297.375	23.88
297.842	20.68
298.309	21.78
298.776	17.78
299.243	17.98
299.71	15.98
300.177	23.78
300.644	23.28
301.111	18.98
301.578	23.28
302.045	14.18
302.512	19.28
302.979	21.98
303.446	26.68
303.913	21.88
304.379	21.38
304.846	29.48
305.313	18.68
305.78	22.78
306.246	22.88
306.713	30.08
307.18	24.28
307.646	24.48
308.113	28.18
308.579	30.18
309.046	27.88
309.512	20.18
309.979	20.58
310.445	27.88
310.912	31.88
311.378	29.58
311.845	34.88
312.311	28.68
312.777	32.58
313.244	32.88
313.71	35.88
314.176	34.08
314.642	35.18
315.109	39.28
315.575	33.88
316.041	34.78
316.507	41.88
316.973	41.78
317.439	35.18
317.905	39.28
318.371	39.98
318.837	29.58
319.303	35.68
319.769	32.48
320.235	30.08
320.701	32.28
321.167	38.38
321.633	37.08
322.099	39.38
322.564	44.08
323.03	39.58
323.496	40.58
323.962	46.78
324.427	39.98
324.893	45.18
325.359	42.18
325.824	37.08
326.29	37.38
326.755	37.88
327.221	42.68
327.686	37.58
328.152	45.28
328.617	45.68
329.083	53.78
329.548	55.18
330.014	49.08
330.479	44.98
330.944	42.18
331.41	43.48
331.875	48.18
332.34	39.18
332.805	42.88
333.271	48.38
333.736	47.98
334.201	49.78
334.666	47.18
335.131	58.28
335.596	47.48
336.061	54.48
336.526	42.68
336.991	53.98
337.456	56.78
337.921	50.98
338.386	41.48
338.851	54.88
339.316	48.28
339.781	45.28
340.246	53.58
340.711	48.98
341.175	56.28
341.64	46.18
342.105	46.48
342.569	60.18
343.034	56.78
343.499	53.28
343.963	49.78
344.428	65.08
344.893	61.08
345.357	67.18
345.822	59.68
346.286	70.18
346.751	71.88
347.215	66.68
347.679	71.78
348.144	97.58
348.608	81.38
349.073	67.58
349.537	77.98
350.001	81.18
350.465	90.08
350.93	78.88
351.394	83.18
351.858	75.28
352.322	82.68
352.786	89.28
353.25	99.18
353.715	118.78
354.179	99.08
354.643	123.68
355.107	127.08
355.571	114.18
356.035	108.28
356.498	122.08
356.962	132.78
357.426	134.78
357.89	116.68
358.354	90.78
358.818	83.48
359.281	87.08
359.745	79.38
360.209	80.78
360.673	76.38
361.136	86.88
361.6	85.88
362.064	83.18
362.527	82.38
362.991	93.08
363.454	87.58
363.918	83.18
364.381	82.28
364.845	85.38
365.308	84.78
365.772	85.98
366.235	88.18
366.698	89.98
367.162	88.98
367.625	86.58
368.088	88.98
368.552	90.78
369.015	91.88
369.478	97.78
369.941	103.98
370.404	98.28
370.867	110.78
371.331	113.18
371.794	111.58
372.257	116.78
372.72	121.78
373.183	110.78
373.646	109.98
374.109	102.58
374.572	110.48
375.035	116.58
375.497	119.78
375.96	112.08
376.423	110.88
376.886	112.58
377.349	114.88
377.811	104.38
378.274	109.38
378.737	111.58
379.199	113.58
379.662	121.58
380.125	124.68
380.587	116.28
381.05	126.48
381.512	131.68
381.975	140.98
382.437	136.48
382.9	133.48
383.362	135.08
383.825	144.08
384.287	147.68
384.75	148.28
385.212	143.78
385.674	144.38
386.136	135.88
386.599	122.68
387.061	131.68
387.523	133.78
387.985	135.98
388.447	143.88
388.91	144.78
389.372	168.48
389.834	159.28
390.296	151.78
390.758	152.38
391.22	170.78
391.682	216.98
392.144	308.08
392.606	236.38
393.068	174.38
393.529	173.78
393.991	158.68
394.453	143.48
394.915	164.48
395.377	202.28
395.838	220.48
396.3	153.28
396.762	144.48
397.224	135.98
397.685	144.08
398.147	135.08
398.608	130.58
399.07	131.98
399.531	136.18
399.993	150.98
400.454	161.68
400.916	149.38
401.377	150.28
401.839	158.38
402.3	153.88
402.762	167.28
403.223	189.58
403.684	172.48
404.145	156.58
404.607	163.68
405.068	171.78
405.529	175.98
405.99	192.88
406.451	180.88
406.913	177.88
407.374	168.98
407.835	170.78
408.296	172.58
408.757	171.68
409.218	190.98
409.679	185.78
410.14	179.88
410.601	189.58
411.062	189.98
411.522	191.68
411.983	198.98
412.444	181.28
412.905	181.08
413.366	187.08
413.826	201.28
414.287	216.48
414.748	270.58
415.208	248.88
415.669	220.38
416.13	211.08
416.59	213.18
417.051	222.38
417.511	222.68
417.972	235.08
418.432	249.98
418.893	286.18
419.353	254.28
419.814	205.78
420.274	181.68
420.734	187.18
421.195	202.38
421.655	191.38
422.115	199.08
422.576	200.08
423.036	203.18
423.496	212.58
423.956	218.88
424.416	234.28
424.876	272.18
425.336	273.48
425.797	266.98
426.257	261.58
426.717	248.38
427.177	241.38
427.637	227.28
428.097	246.38
428.556	257.28
429.016	270.98
429.476	267.18
429.936	280.68
430.396	284.58
430.856	301.18
431.315	329.48
431.775	362.58
432.235	389.18
432.694	368.68
433.154	376.38
433.614	407.08
434.073	341.38
434.533	291.68
434.993	274.78
435.452	289.18
435.912	306.28
436.371	296.98
436.83	293.78
437.29	278.28
437.749	260.28
438.209	256.08
438.668	284.68
439.127	300.88
439.587	269.78
440.046	253.38
440.505	268.18
440.964	285.78
441.424	330.38
441.883	323.98
442.342	270.08
442.801	226.08
443.26	224.08
443.719	229.38
444.178	220.88
444.637	214.98
445.096	227.38
445.555	224.68
446.014	231.28
446.473	235.68
446.932	240.48
447.391	235.58
447.849	235.28
448.308	222.38
448.767	224.48
449.226	241.78
449.685	242.08
450.143	254.18
450.602	244.48
451.061	231.88
451.519	236.78
451.978	240.88
452.436	243.58
452.895	242.98
453.353	255.08
453.812	243.18
454.27	247.38
454.729	249.88
455.187	248.78
455.646	256.18
456.104	253.28
456.562	268.28
457.021	268.08
457.479	270.38
457.937	283.68
458.395	267.38
458.854	252.88
459.312	263.08
459.77	280.08
460.228	260.68
460.686	249.38
461.144	251.08
461.602	249.78
462.06	242.78
462.518	256.28
462.976	256.38
463.434	268.88
463.892	269.78
464.35	279.18
464.808	294.08
465.266	275.88
465.724	276.98
466.181	275.18
466.639	278.38
467.097	295.08
467.555	302.58
468.012	304.88
468.47	314.68
468.928	332.38
469.385	347.08
469.843	356.58
470.3	357.28
470.758	364.68
471.215	383.68
471.673	424.18
472.13	422.38
472.588	430.08
473.045	375.88
473.503	387.98
473.96	400.58
474.417	406.28
474.875	441.58
475.332	483.48
475.789	468.78
476.246	468.78
476.704	494.58
477.161	512.18
477.618	531.38
478.075	564.98
478.532	628.58
478.989	709.48
479.446	819.78
479.903	790.08
480.36	830.38
480.817	892.18
481.274	988.78
481.731	1090.58
482.188	1192.68
482.645	1342.78
483.102	1449.28
483.558	1594.88
484.015	1647.88
484.472	1624.28
484.929	1569.08
485.385	1509.38
485.842	1469.38
486.299	1409.18
486.755	1343.28
487.212	1117.78
487.668	954.38
488.125	865.98
488.582	803.58
489.038	762.78
489.494	719.88
489.951	701.18
490.407	671.08
490.864	670.48
491.32	658.88
491.776	655.88
492.233	662.78
492.689	625.78
493.145	619.38
493.602	604.98
494.058	624.78
494.514	628.68
494.97	654.18
495.426	653.78
495.882	633.68
496.338	616.28
496.794	638.08
497.251	622.18
497.707	652.38
498.163	649.68
498.618	661.28
499.074	654.28
499.53	680.28
499.986	686.88
500.442	667.68
500.898	639.68
501.354	630.98
501.809	644.78
502.265	658.48
502.721	670.68
503.177	689.78
503.632	667.78
504.088	678.88
504.543	730.88
504.999	723.58
505.455	667.58
505.91	638.08
506.366	646.28
506.821	634.38
507.277	628.88
507.732	630.48
508.187	627.18
508.643	640.68
509.098	642.38
509.553	666.18
510.009	672.18
510.464	678.98
510.919	696.68
511.375	704.68
511.83	724.28
512.285	731.38
512.74	772.18
513.195	791.78
513.65	777.78
514.105	772.78
514.56	784.48
515.015	808.08
515.47	819.98
515.925	801.38
516.38	803.58
516.835	796.18
517.29	785.68
517.745	786.78
518.2	763.48
518.655	760.78
519.109	750.78
519.564	749.78
520.019	739.68
520.474	742.38
520.928	730.48
521.383	722.48
521.838	722.48
522.292	717.28
522.747	717.78
523.201	715.68
523.656	696.78
524.11	693.58
524.565	705.38
525.019	699.58
525.474	702.38
525.928	711.28
526.382	704.18
526.837	700.88
527.291	707.58
527.745	701.38
528.2	708.88
528.654	697.88
529.108	694.98
529.562	693.48
530.016	692.68
530.47	698.68
530.925	697.28
531.379	705.68
531.833	713.78
532.287	703.48
532.741	704.58
533.195	711.28
533.649	716.68
534.103	724.68
534.556	718.58
535.01	720.08
535.464	714.98
535.918	730.88
536.372	723.78
536.826	718.28
537.279	706.98
537.733	712.48
538.187	718.38
538.64	721.78
539.094	738.38
539.548	732.68
540.001	729.48
540.455	730.78
540.908	739.08
541.362	740.38
541.815	751.98
542.269	765.68
542.722	757.98
543.175	773.38
543.629	765.98
544.082	787.48
544.536	789.18
544.989	782.68
545.442	790.88
545.895	792.88
546.349	788.78
546.802	796.78
547.255	794.28
547.708	807.38
548.161	824.18
548.614	825.58
549.067	823.68
549.52	821.08
549.973	813.28
550.426	806.08
550.879	803.58
551.332	803.08
551.785	804.78
552.238	807.68
552.691	813.38
553.144	836.88
553.596	849.08
554.049	856.38
554.502	892.08
554.955	922.88
555.407	906.38
555.86	899.88
556.313	896.78
556.765	885.08
557.218	884.38
557.67	888.48
558.123	873.78
558.576	869.58
559.028	877.98
559.48	878.38
559.933	883.28
560.385	842.58
560.838	814.38
561.29	782.38
561.742	774.48
562.195	772.78
562.647	768.28
563.099	771.38
563.551	775.08
564.004	788.88
564.456	776.28
564.908	754.48
565.36	747.78
565.812	740.58
566.264	725.78
566.716	727.18
567.168	714.28
567.62	724.78
568.072	699.58
568.524	695.08
568.976	693.08
569.428	676.98
569.88	668.98
570.332	681.48
570.784	678.98
571.235	683.78
571.687	689.48
572.139	696.08
572.59	704.58
573.042	707.88
573.494	701.98
573.945	698.58
574.397	685.18
574.849	689.28
575.3	688.78
575.752	686.38
576.203	676.38
576.655	693.58
577.106	682.68
577.557	667.88
578.009	661.38
578.46	664.58
578.912	657.58
579.363	668.38
579.814	663.08
580.265	662.58
580.717	664.18
581.168	658.98
581.619	684.48
582.07	689.88
582.521	674.98
582.972	677.78
583.423	690.38
583.875	674.98
584.326	696.98
584.777	752.88
585.227	837.08
585.678	926.68
586.129	1010.98
586.58	1085.88
587.031	1171.98
587.482	1347.48
587.933	1527.48
588.384	1321.18
588.834	978.68
589.285	811.38
589.736	783.58
590.186	768.38
590.637	764.28
591.088	738.48
591.538	731.08
591.989	734.68
592.439	723.08
592.89	707.18
593.34	707.38
593.791	712.38
594.241	702.68
594.692	705.28
595.142	698.48
595.593	699.58
596.043	699.18
596.493	724.48
596.943	709.38
597.394	716.18
597.844	700.18
598.294	726.28
598.744	748.68
599.195	769.78
599.645	808.38
600.095	851.98
600.545	907.08
600.995	951.58
601.445	1018.98
601.895	1075.88
602.345	1120.88
602.795	1103.58
603.245	1057.38
603.695	994.68
604.145	939.08
604.594	909.98
605.044	848.38
605.494	793.48
605.944	742.08
606.393	738.78
606.843	709.58
607.293	721.38
607.743	721.98
608.192	737.28
608.642	753.98
609.091	753.78
609.541	762.58
609.99	753.18
610.44	765.58
610.889	713.28
611.339	697.48
611.788	680.68
612.238	688.98
612.687	707.08
613.136	718.38
613.586	729.48
614.035	728.08
614.484	755.58
614.933	752.88
615.383	748.78
615.832	727.18
616.281	719.28
616.73	678.58
617.179	658.58
617.628	659.38
618.077	632.38
618.526	626.18
618.975	613.58
619.424	606.28
619.873	606.48
620.322	611.68
620.771	604.68
621.22	601.58
621.669	578.78
622.118	585.28
622.567	574.88
623.015	562.68
623.464	557.88
623.913	555.48
624.361	547.68
624.81	535.78
625.259	547.68
625.707	549.18
626.156	552.28
626.604	559.08
627.053	548.88
627.501	553.28
627.95	561.98
628.398	565.48
628.847	569.28
629.295	563.08
629.744	561.88
630.192	561.88
630.64	557.88
631.089	564.68
631.537	565.18
631.985	580.78
632.433	598.18
632.881	602.48
633.33	656.88
633.778	628.98
634.226	560.08
634.674	567.88
635.122	562.98
635.57	587.88
636.018	618.98
636.466	578.38
636.914	549.08
637.362	568.88
637.81	566.88
638.258	562.98
638.705	573.28
639.153	608.38
639.601	606.68
640.049	628.08
640.497	656.38
640.944	677.18
641.392	622.68
641.84	614.98
642.287	586.48
642.735	568.78
643.182	564.68
643.63	570.38
644.078	570.88
644.525	570.58
644.973	582.38
645.42	595.28
645.867	619.28
646.315	624.48
646.762	651.88
647.21	689.58
647.657	716.58
648.104	747.28
648.551	768.78
648.999	825.88
649.446	910.08
649.893	1001.38
650.34	1150.28
650.787	1376.28
651.234	1703.28
651.682	2225.58
652.129	3071.78
652.576	4398.58
653.023	6526.08
653.47	8973.98
653.917	11224.68
654.363	13010.88
654.81	14410.58
655.257	13709.88
655.704	9012.48
656.151	5277.68
656.598	3417.38
657.044	2400.38
657.491	1847.68
657.938	1486.68
658.385	1237.28
658.831	1076.58
659.278	954.88
659.724	846.88
660.171	776.38
660.618	715.98
661.064	686.18
661.511	665.28
661.957	646.18
662.404	642.88
662.85	639.38
663.296	616.28
663.743	549.08
664.189	532.48
664.635	522.98
665.082	526.48
665.528	530.58
665.974	512.48
666.42	502.28
666.867	496.98
667.313	478.18
667.759	472.38
668.205	470.88
668.651	478.38
669.097	478.38
669.543	491.68
669.989	465.08
670.435	437.48
670.881	440.98
671.327	437.58
671.773	459.78
672.219	475.48
672.665	519.28
673.11	567.88
673.556	614.38
674.002	655.18
674.448	635.08
674.893	526.78
675.339	457.78
675.785	426.38
676.23	404.58
676.676	381.08
677.122	373.38
677.567	362.28
678.013	358.38
678.458	357.38
678.904	344.78
679.349	337.18
679.794	346.98
680.24	341.18
680.685	340.78
681.131	336.98
681.576	334.28
682.021	349.28
682.466	336.28
682.912	340.18
683.357	344.58
683.802	375.68
684.247	397.78
684.692	442.58
685.137	477.68
685.583	521.48
686.028	548.18
686.473	496.98
686.918	437.08
687.363	404.78
687.807	372.98
688.252	354.88
688.697	342.88
689.142	326.28
689.587	320.68
690.032	314.58
690.477	328.48
690.921	345.58
691.366	373.58
691.811	390.78
692.255	411.08
692.7	445.68
693.145	488.18
693.589	667.88
694.034	1079.78
694.478	1470.08
694.923	1676.28
695.367	2183.48
695.812	1156.28
696.256	488.48
696.701	364.28
697.145	340.08
697.59	324.68
698.034	310.18
698.478	323.48
698.922	315.28
699.367	316.18
699.811	332.78
700.255	348.28
700.699	369.68
701.143	414.08
701.588	462.48
702.032	500.58
702.476	488.38
702.92	477.88
703.364	477.48
703.808	610.28
704.252	994.58
704.696	1397.48
705.14	1621.08
705.584	2067.58
706.027	1029.58
706.471	505.18
706.915	382.38
707.359	337.18
707.803	304.98
708.246	302.68
708.69	298.68
709.134	302.08
709.577	298.18
710.021	304.18
710.465	298.38
710.908	291.58
711.352	288.08
711.795	301.98
712.239	341.48
712.682	369.78
713.126	409.68
713.569	446.18
714.012	361.68
714.456	312.08
714.899	293.18
715.342	263.48
715.786	251.78
716.229	255.48
716.672	250.18
717.115	244.98
717.558	241.98
718.002	243.08
718.445	253.68
718.888	283.18
719.331	284.48
719.774	296.08
720.217	291.38
720.66	274.88
721.103	263.48
721.546	244.18
721.989	244.28
722.432	224.68
722.874	231.28
723.317	219.28
723.76	227.08
724.203	247.08
724.645	305.68
725.088	429.48
725.531	541.58
725.974	620.88
726.416	526.08
726.859	303.48
727.301	236.38
727.744	229.18
728.187	223.38
728.629	233.18
729.071	234.58
729.514	249.28
729.956	266.18
730.399	275.88
730.841	283.68
731.283	263.18
731.726	251.58
732.168	250.98
732.61	252.98
733.053	281.28
733.495	304.68
733.937	342.28
734.379	382.38
734.821	416.48
735.263	513.38
735.705	795.58
736.148	1500.98
736.59	2479.88
737.032	2962.08
737.474	2393.98
737.916	780.28
738.357	411.88
738.799	313.08
739.241	281.08
739.683	270.78
740.125	273.98
740.567	291.38
741.008	300.38
741.45	304.68
741.892	304.08
742.334	342.68
742.775	343.08
743.217	327.48
743.658	260.68
744.1	246.38
744.542	255.78
744.983	301.18
745.425	330.18
745.866	327.78
746.307	276.38
746.749	268.08
747.19	315.38
747.632	438.08
748.073	832.58
748.514	1761.48
748.956	2740.78
749.397	3433.88
749.838	2857.78
750.279	2865.38
750.72	1447.58
751.162	529.28
751.603	307.18
752.044	241.48
752.485	212.98
752.926	208.18
753.367	196.88
753.808	184.78
754.249	179.18
754.69	180.38
755.131	170.28
755.572	176.18
756.013	175.68
756.453	182.78
756.894	183.08
757.335	187.38
757.776	187.38
758.216	188.18
758.657	193.18
759.098	194.38
759.538	212.58
759.979	262.18
760.42	354.78
760.86	662.48
761.301	1721.18
761.741	4206.68
762.182	6203.48
762.622	4394.08
763.063	1259.38
763.503	510.78
763.943	335.88
764.384	337.28
764.824	393.28
765.264	442.58
765.705	305.08
766.145	207.08
766.585	179.48
767.025	171.38
767.465	183.48
767.906	231.48
768.346	315.88
768.786	336.38
769.226	257.88
769.666	309.18
770.106	577.18
770.546	1459.68
770.986	2570.88
771.426	2299.38
771.866	765.78
772.306	311.88
772.745	201.28
773.185	169.98
773.625	169.28
774.065	155.58
774.505	194.08
774.944	297.78
775.384	673.98
775.824	1236.18
776.263	1206.38
776.703	515.28
777.142	211.68
777.582	156.98
778.021	126.88
778.461	136.78
778.9	131.88
779.34	132.88
779.779	116.68
780.219	108.48
780.658	108.98
781.097	109.88
781.537	114.88
781.976	102.78
782.415	102.48
782.855	103.08
783.294	103.68
783.733	96.68
784.172	103.98
784.611	105.28
785.05	104.48
785.489	110.68
785.928	117.58
786.367	112.48
786.806	116.88
787.245	124.58
787.684	133.98
788.123	140.68
788.562	129.88
789.001	122.48
789.44	113.58
789.879	108.18
790.317	112.68
790.756	122.68
791.195	126.68
791.634	144.18
792.072	197.38
792.511	341.88
792.95	952.48
793.388	2060.68
793.827	1883.28
794.265	652.58
794.704	272.48
795.142	180.88
795.581	142.98
796.019	130.08
796.458	120.08
796.896	115.18
797.334	125.28
797.773	148.78
798.211	208.08
798.649	412.08
799.087	969.88
799.526	1530.68
799.964	1906.88
800.402	1943.88
800.84	727.58
801.278	283.38
801.716	175.88
802.154	149.88
802.592	138.38
803.03	127.58
803.468	122.48
803.906	136.98
804.344	145.58
804.782	132.98
805.22	128.88
805.658	127.98
806.096	141.68
806.533	147.78
806.971	166.28
807.409	212.78
807.847	296.48
808.284	618.88
808.722	1754.18
809.16	3179.28
809.597	2960.28
810.035	5169.38
810.472	5595.28
810.91	2006.68
811.347	770.98
811.785	392.08
812.222	245.38
812.66	188.18
813.097	158.48
813.535	135.88
813.972	120.08
814.409	104.98
814.846	105.08
815.284	103.68
815.721	103.68
816.158	103.78
816.595	120.68
817.032	172.98
817.47	195.78
817.907	167.88
818.344	153.38
818.781	114.38
819.218	99.88
819.655	120.68
820.092	181.88
820.529	211.48
820.966	171.38
821.403	129.08
821.839	103.48
822.276	97.88
822.713	119.88
823.15	131.38
823.587	105.88
824.023	136.38
824.46	293.28
824.897	858.48
825.333	1318.08
825.77	558.38
826.206	222.18
826.643	128.78
827.08	94.78
827.516	82.68
827.953	73.38
828.389	75.18
828.825	67.98
829.262	64.98
829.698	62.58
830.135	62.68
830.571	61.78
831.007	59.58
831.443	65.28
831.88	59.18
832.316	59.18
832.752	59.98
833.188	70.28
833.624	63.18
834.06	65.28
834.497	66.88
834.933	72.48
835.369	75.98
835.805	76.98
836.241	72.78
836.677	78.58
837.112	87.28
837.548	96.88
837.984	127.78
838.42	189.38
838.856	467.08
839.292	1437.98
839.727	2218.88
840.163	1032.88
840.599	892.98
841.034	1948.58
841.47	2041.18
841.906	743.38
842.341	324.28
842.777	225.88
843.212	310.98
843.648	313.98
844.083	151.98
844.519	99.48
844.954	77.08
845.39	62.38
845.825	54.68
846.261	48.98
846.696	54.08
847.131	54.68
847.566	58.08
848.002	46.08
848.437	53.58
848.872	52.88
849.307	59.18
849.742	76.88
850.177	169.48
850.613	524.08
851.048	845.78
851.483	369.68
851.918	149.78
852.353	85.28
852.788	60.58
853.223	58.68
853.657	58.88
854.092	50.68
854.527	40.88
854.962	38.08
855.397	44.78
855.832	52.38
856.266	34.58
856.701	38.38
857.136	31.58
857.57	41.98
858.005	43.78
858.44	58.38
858.874	41.58
859.309	50.08
859.743	36.18
860.178	46.48
860.612	42.38
861.047	50.08
861.481	62.48
861.915	64.28
862.35	42.18
862.784	30.18
863.218	38.78
863.653	26.08
864.087	42.88
864.521	46.58
864.955	64.18
865.39	147.58
865.824	169.98
866.258	110.58
866.692	163.38
867.126	159.78
867.56	98.88
867.994	51.18
868.428	41.48
868.862	44.88
869.296	52.18
869.73	56.08
870.164	49.98
870.598	44.38
871.031	36.58
871.465	28.68
871.899	33.28
872.333	24.08
872.766	25.98
873.2	22.18
873.634	29.28
874.067	24.18
874.501	24.68
874.935	34.38
875.368	28.98
875.802	30.58
876.235	25.28
876.669	21.38
877.102	20.78
877.535	27.38
877.969	17.88
878.402	27.08
878.836	21.18
879.269	24.48
879.702	23.48
880.135	20.08
880.569	21.78
881.002	29.98
881.435	25.68
881.868	18.98
882.301	15.78
882.734	11.18
883.167	20.28
883.601	17.08
884.034	21.68
884.467	15.28
884.899	23.28
885.332	12.48
885.765	21.38
886.198	13.18
886.631	20.88
887.064	18.78
887.497	19.88
887.929	21.58
888.362	12.58
888.795	13.68
889.228	19.38
889.66	18.18
890.093	16.28
890.526	9.58
890.958	14.18
891.391	19.28
891.823	25.78
892.256	16.48
892.688	13.98
893.121	11.88
893.553	13.48
893.985	17.08
894.418	23.08
894.85	11.18
895.282	22.18
895.715	16.48
896.147	13.38
896.579	19.48
897.011	14.58
897.444	14.48
897.876	16.38
898.308	10.28
898.74	11.38
899.172	8.68
899.604	26.28
900.036	22.68
900.468	15.18
900.9	11.88
901.332	16.88
901.764	13.28
902.196	17.98
902.628	16.88
903.06	14.28
903.491	28.08
903.923	18.38
904.355	21.88
904.787	24.68
905.218	22.38
905.65	18.18
906.082	14.28
906.513	13.48
906.945	11.28
907.376	12.38
907.808	15.48
908.239	20.98
908.671	19.28
909.102	24.08
909.534	15.88
909.965	45.78
910.397	87.98
910.828	296.88
911.259	455.28
911.691	205.78
912.122	102.28
912.553	43.28
912.984	36.08
913.415	25.68
913.847	28.18
914.278	12.28
914.709	15.28
915.14	15.88
915.571	17.08
916.002	9.68
916.433	15.78
916.864	13.68
917.295	9.18
917.726	20.38
918.157	16.38
918.587	27.88
919.018	19.38
919.449	26.28
919.88	23.68
920.311	26.08
920.741	51.88
921.172	162.68
921.603	142.98
922.033	65.58
922.464	48.48
922.895	20.18
923.325	19.88
923.756	18.18
924.186	12.98
924.617	25.08
925.047	39.68
925.478	59.28
925.908	46.58
926.338	26.48
926.769	20.88
927.199	19.58
927.629	6.58
928.06	14.08
928.49	14.28
928.92	15.38
929.35	9.98
929.78	7.98
930.21	7.78
930.641	4.78
931.071	9.28
931.501	5.88
931.931	9.08
932.361	5.68
932.791	3.38
933.221	6.18
933.651	2.88
934.08	18.68
934.51	26.38
934.94	10.58
935.37	7.48
935.8	9.78
936.229	2.38
936.659	4.58
937.089	3.48
937.519	11.48
937.948	22.38
938.378	18.48
938.807	7.28
939.237	9.38
939.666	8.48
940.096	-7.62
940.525	1.58
940.955	4.08
941.384	3.68
941.814	-2.42
942.243	-0.02
942.672	0.78
943.102	-0.82
943.531	-1.92
943.96	6.88
944.39	2.28
944.819	-0.12
945.248	-1.92
945.677	1.58
946.106	-0.62
946.535	1.88
946.964	0.38
947.393	8.38
947.822	4.78
948.251	-5.02
948.68	6.38
949.109	2.88
949.538	7.88
949.967	-1.42
950.396	3.88
950.825	-3.52
951.254	-2.92
951.682	-9.12
952.111	-0.42
952.54	6.78
952.969	-0.92
953.397	-9.02
953.826	-0.22
954.254	-3.82
954.683	3.78
955.112	-3.42
955.54	8.58
955.969	1.88
956.397	-3.92
956.826	-2.82
957.254	7.38
957.682	3.98
958.111	-0.22
958.539	3.08
958.967	2.08
959.396	2.38
959.824	-0.02
960.252	5.58
960.68	-4.62
961.109	0.28
961.537	-4.02
961.965	2.18
962.393	-2.42
962.821	-4.42
963.249	-3.82
963.677	1.58
964.105	6.18
964.533	42.58
964.961	38.58
965.389	16.28
965.817	6.48
966.245	-1.52
966.672	0.38
967.1	-2.42
967.528	-0.02
967.956	-7.32
968.383	-3.72
968.811	-0.42
969.239	1.78
969.666	-8.62
970.094	-2.32
970.522	1.38
970.949	-0.62
971.377	-9.12
971.804	-5.12
972.232	1.78
972.659	0.58
973.087	0.58
973.514	-1.72
973.941	-5.62
974.369	5.78
974.796	-0.32
975.223	-5.62
975.651	-2.52
976.078	2.48
976.505	-4.42
976.932	3.18
977.359	12.28
977.786	12.78
978.214	1.98
978.641	-2.22
979.068	-6.22
979.495	-5.12
979.922	-1.92
980.349	-1.32
980.776	0.58
981.202	-2.42
981.629	0.58
982.056	5.58
982.483	0.28
982.91	7.68
983.337	-3.42
983.763	2.98
984.19	-8.42
984.617	-7.92
985.043	-5.82
985.47	1.28
985.897	-3.02
986.323	-7.02
986.75	2.98
987.176	5.78
987.603	4.18
988.029	-5.72
988.456	-10.82
988.882	5.98
989.308	-5.82
989.735	-3.62
990.161	-4.72
990.587	-6.62
991.014	-2.92
991.44	10.18
991.866	-3.22
992.292	-7.92
992.719	-3.22
993.145	6.18
993.571	-5.42
993.997	-1.72
994.423	-1.82
994.849	-6.02
995.275	0.28
995.701	3.08
996.127	-1.92
996.553	3.48
996.979	0.28
997.405	-5.92
997.83	-0.22
998.256	-5.62
998.682	-8.92
999.108	-9.22
999.534	3.68
999.959	-1.52
1000.385	-4.02
1000.811	-3.62
1001.236	-7.52
1001.662	-8.82
1002.087	-8.72
1002.513	0.08
1002.938	6.28
1003.364	-2.02
1003.789	-2.92
1004.215	-0.12
1004.64	-0.92
1005.066	5.48
1005.491	-1.32
1005.916	-5.02
1006.342	0.58
1006.767	-13.02
1007.192	6.48
1007.617	-7.12
1008.042	-2.22
1008.468	-10.22
1008.893	-6.12
1009.318	-2.52
1009.743	-2.92
1010.168	3.88
1010.593	2.38
1011.018	-7.22
1011.443	-1.72
1011.868	0.78
1012.293	-6.92
1012.718	-5.92
1013.143	-4.92
1013.567	3.98
1013.992	1.28
1014.417	-13.72
1014.842	1.38
1015.267	-6.92
1015.691	-2.82
1016.116	5.28
1016.541	-1.92
1016.965	4.88
1017.39	4.08
1017.814	-4.02
1018.239	-2.12
1018.663	-6.02
1019.088	-11.42
1019.512	-2.72
1019.937	-3.32
1020.361	-2.32
1020.785	-6.62
1021.21	-10.22
1021.634	-6.42
1022.058	2.58
1022.483	-2.02
1022.907	-4.62
1023.331	-3.62
1023.755	-4.72
1024.179	4.08
1024.604	-10.82
1025.028	-5.52
1025.452	-4.72
1025.876	-4.42
1026.3	2.88
1026.724	-8.02
1027.148	-6.82
1027.572	-9.42
1027.996	-5.62
1028.42	-1.92
1028.843	-10.62
1029.267	-6.62
1029.691	-5.62
1030.115	-7.82
1030.539	-14.12
1030.962	-3.12
1031.386	-13.52
1031.81	-1.62
1032.233	-6.02
1032.657	-4.62
1033.08	-1.52
1033.504	-1.02
1033.927	-6.02
1034.351	3.28
1034.774	-3.52
1035.198	-2.42
1035.621	-10.42
1036.045	-8.92
1036.468	-0.52
1036.891	-13.72
1037.315	-10.32
1037.738	-15.52
1038.161	-0.52
1038.584	-9.02
1039.008	-10.92
1039.431	-0.12
1039.854	-6.52
1040.277	-5.52
1040.7	-9.92
1041.123	-4.32
1041.546	-11.32
1041.969	1.38
1042.392	-6.22
1042.815	-3.52
1043.238	1.58
1043.661	-0.52
1044.084	-4.92
1044.507	-4.12
1044.93	-8.32
1045.352	-3.62
1045.775	2.28
1046.198	1.68
1046.621	-5.72
1047.043	0.28
1047.466	5.98
1047.889	-7.82
1048.311	-5.12
1048.734	-9.32
1049.156	-7.82
1049.579	-5.42
1050.001	-1.92
1050.424	-2.82
1050.846	-10.92
1051.269	-4.32
1051.691	-4.22
1052.113	-8.92
1052.536	4.18
1052.958	-5.32
1053.38	-6.32
1053.802	-7.12
1054.225	-1.52
1054.647	-10.12
1055.069	-8.02
1055.491	-2.12
1055.913	-6.22
1056.335	-1.82
1056.757	-5.82
1057.179	-8.82
1057.601	-1.22
1058.023	0.88
1058.445	-7.02
1058.867	-3.72
1059.289	-5.02
1059.711	-12.02
1060.133	-8.12
1060.555	-7.12
1060.976	-0.62
1061.398	-8.42
1061.82	-11.72
1062.241	-7.82
1062.663	-5.12
1063.085	-4.22
1063.506	-3.52
1063.928	-4.32
1064.35	0.28
1064.771	-10.92
1065.193	-4.82
1065.614	-11.42
1066.035	-4.52
1066.457	-4.92
1066.878	-2.12
1067.3	-6.72
1067.721	-0.52
1068.142	-7.02
1068.564	-4.52
1068.985	-7.52
1069.406	-10.62
1069.827	-6.62
1070.248	-10.82
1070.67	-8.72
1071.091	-6.42
1071.512	-6.62
1071.933	-6.12
1072.354	-8.32
1072.775	-5.62
1073.196	-10.52
1073.617	-7.72
1074.038	-5.72
1074.459	-0.02
1074.88	-13.52
1075.3	1.78
1075.721	-6.22
1076.142	-1.92
1076.563	-7.02
1076.983	-9.42
1077.404	-9.82
1077.825	-8.42
1078.246	1.28
1078.666	-11.82
1079.087	-5.22
1079.507	-11.42
1079.928	-0.32
1080.348	-2.32
1080.769	-10.12
1081.189	-3.12
1081.61	-1.32
1082.03	-13.42
1082.451	-6.02
1082.871	-4.02
1083.291	-9.72
1083.711	-9.42
1084.132	-11.72
1084.552	-5.52
1084.972	0.78
1085.392	-12.02
1085.813	-6.92
1086.233	-4.42
1086.653	-3.72
1087.073	-10.22
1087.493	-3.72
1087.913	-4.42
1088.333	-10.02
1088.753	-9.32
1089.173	-4.42
1089.593	-3.42
1090.013	2.08
1090.433	-2.52
1090.852	-8.42
1091.272	-5.22
1091.692	-5.22
1092.112	-6.32
1092.531	-7.92
1092.951	-14.82
1093.371	-2.52
1093.79	2.68
1094.21	1.58
1094.63	-5.72
1095.049	-6.02
1095.469	-2.12
1095.888	-6.02
1096.308	1.38
1096.727	1.38
1097.146	-8.02
1097.566	0.98
1097.985	-3.62
1098.405	-3.32
1098.824	-7.12
1099.243	-3.02
1099.662	-7.42
1100.082	-8.72
1100.501	-2.92
1100.92	-4.62
1101.339	0.18
1101.758	-3.42
