Data from 20171114-ORNL-Ar_H_NY_Subt18_08-08-51-991.txt Node
Date: Tue Nov 14 08:08:51 EST 2017
User: Ender
Spectrometer: HR+D1039
Trigger mode: 0
Integration Time (sec): 2.730000E-2
Scans to average: 10
Electric dark correction enabled: true
Nonlinearity correction enabled: false
Boxcar width: 0
XAxis mode: Wavelengths
Number of Pixels in Spectrum: 2048
>>>>>Begin Spectral Data<<<<<
187.836	-2.39
188.309	-2.39
188.782	-2.39
189.255	-2.49
189.728	0.81
190.201	5.41
190.674	-3.59
191.147	2.91
191.619	-3.59
192.092	4.01
192.565	6.11
193.038	-1.79
193.511	-2.19
193.984	-3.09
194.456	-3.29
194.929	1.61
195.402	-2.69
195.874	4.21
196.347	0.21
196.82	-6.49
197.292	7.41
197.765	-0.39
198.237	-4.79
198.71	0.61
199.182	-0.49
199.655	1.41
200.127	1.51
200.6	-1.49
201.072	-6.09
201.544	-3.49
202.017	-1.49
202.489	-2.09
202.961	-3.89
203.433	2.11
203.906	-8.59
204.378	-7.69
204.85	-5.19
205.322	-6.59
205.794	-1.69
206.266	-2.79
206.739	-7.79
207.211	-1.29
207.683	-8.39
208.155	-8.49
208.627	-6.69
209.099	-6.59
209.57	-10.09
210.042	0.11
210.514	2.21
210.986	-4.19
211.458	-8.19
211.93	-2.39
212.402	0.51
212.873	1.11
213.345	-13.09
213.817	-13.89
214.288	-2.59
214.76	-5.59
215.232	-2.89
215.703	-4.69
216.175	-9.89
216.646	-3.29
217.118	-6.49
217.589	-8.69
218.061	-8.59
218.532	-8.89
219.004	-0.79
219.475	-4.59
219.946	1.01
220.418	-1.59
220.889	2.11
221.36	-0.49
221.832	-5.29
222.303	-8.39
222.774	-5.89
223.245	-9.19
223.717	-6.19
224.188	-1.69
224.659	-3.79
225.13	-3.89
225.601	1.91
226.072	0.91
226.543	-1.99
227.014	0.21
227.485	-3.09
227.956	-7.09
228.427	-2.29
228.898	2.71
229.369	4.71
229.839	-0.79
230.31	-10.29
230.781	2.21
231.252	-5.39
231.722	-2.09
232.193	-13.09
232.664	-0.89
233.135	-0.09
233.605	-4.39
234.076	-8.39
234.546	-0.89
235.017	1.01
235.487	0.01
235.958	0.01
236.428	-8.79
236.899	-0.09
237.369	2.41
237.84	-4.69
238.31	-3.59
238.78	-5.69
239.251	-4.79
239.721	-5.69
240.191	-2.89
240.662	-5.59
241.132	-4.89
241.602	-4.89
242.072	-2.49
242.542	6.61
243.013	0.31
243.483	-0.29
243.953	-4.79
244.423	-2.59
244.893	-3.89
245.363	5.31
245.833	-6.49
246.303	-2.29
246.773	1.51
247.243	-1.79
247.712	4.21
248.182	0.91
248.652	-0.39
249.122	-7.79
249.592	0.51
250.061	2.31
250.531	8.21
251.001	-1.29
251.471	6.01
251.94	3.61
252.41	0.91
252.879	-4.99
253.349	8.61
253.818	12.61
254.288	-0.09
254.757	-3.79
255.227	-5.09
255.696	2.11
256.166	5.31
256.635	-1.69
257.105	7.11
257.574	-3.19
258.043	4.41
258.513	-0.39
258.982	0.51
259.451	-3.79
259.92	-2.09
260.389	5.81
260.859	4.71
261.328	2.61
261.797	2.01
262.266	-9.19
262.735	2.61
263.204	-1.19
263.673	-4.39
264.142	5.81
264.611	-6.29
265.08	-4.29
265.549	-3.69
266.018	3.91
266.487	-4.99
266.955	-7.29
267.424	-0.59
267.893	-3.09
268.362	0.71
268.83	0.01
269.299	2.91
269.768	2.01
270.236	10.41
270.705	-0.59
271.174	-1.99
271.642	4.01
272.111	-0.79
272.579	3.11
273.048	4.81
273.516	0.11
273.985	7.21
274.453	5.21
274.922	10.01
275.39	-0.59
275.858	1.61
276.327	11.11
276.795	10.11
277.263	2.31
277.731	8.61
278.2	4.21
278.668	11.91
279.136	7.01
279.604	2.31
280.072	6.51
280.54	8.41
281.008	-1.09
281.477	5.81
281.945	1.01
282.413	10.21
282.881	12.01
283.348	11.31
283.816	10.01
284.284	19.51
284.752	10.71
285.22	8.81
285.688	7.01
286.156	6.61
286.623	11.71
287.091	14.41
287.559	11.41
288.026	10.01
288.494	7.61
288.962	4.21
289.429	8.71
289.897	14.81
290.364	7.51
290.832	11.61
291.3	13.31
291.767	17.31
292.234	18.51
292.702	7.11
293.169	7.41
293.637	16.01
294.104	14.01
294.571	5.51
295.039	6.51
295.506	6.51
295.973	7.31
296.44	7.51
296.908	13.51
297.375	6.41
297.842	8.01
298.309	12.61
298.776	6.41
299.243	10.01
299.71	5.21
300.177	16.01
300.644	14.91
301.111	9.31
301.578	19.01
302.045	15.61
302.512	14.61
302.979	19.01
303.446	10.01
303.913	12.81
304.379	16.01
304.846	17.41
305.313	16.81
305.78	12.81
306.246	15.81
306.713	19.41
307.18	20.41
307.646	16.21
308.113	16.31
308.579	16.31
309.046	19.51
309.512	17.81
309.979	5.41
310.445	20.31
310.912	25.21
311.378	26.91
311.845	20.41
312.311	18.21
312.777	18.81
313.244	20.71
313.71	27.01
314.176	17.31
314.642	25.71
315.109	15.71
315.575	25.71
316.041	30.51
316.507	26.71
316.973	23.01
317.439	22.11
317.905	30.71
318.371	30.91
318.837	28.11
319.303	21.01
319.769	30.01
320.235	23.11
320.701	19.11
321.167	22.31
321.633	20.01
322.099	23.01
322.564	27.41
323.03	30.31
323.496	26.41
323.962	31.81
324.427	24.81
324.893	28.21
325.359	23.51
325.824	33.51
326.29	30.31
326.755	28.51
327.221	28.61
327.686	25.41
328.152	35.41
328.617	29.41
329.083	33.61
329.548	41.31
330.014	37.01
330.479	33.41
330.944	29.61
331.41	35.01
331.875	37.81
332.34	32.81
332.805	34.11
333.271	34.81
333.736	24.91
334.201	45.81
334.666	38.51
335.131	43.11
335.596	40.81
336.061	37.11
336.526	32.71
336.991	33.11
337.456	44.51
337.921	36.51
338.386	34.61
338.851	43.31
339.316	39.01
339.781	37.61
340.246	45.91
340.711	39.81
341.175	42.21
341.64	33.41
342.105	44.21
342.569	45.61
343.034	46.61
343.499	46.21
343.963	42.31
344.428	49.41
344.893	45.81
345.357	48.11
345.822	52.21
346.286	59.31
346.751	60.51
347.215	56.61
347.679	54.31
348.144	72.71
348.608	67.91
349.073	58.41
349.537	62.21
350.001	61.81
350.465	73.71
350.93	64.31
351.394	64.71
351.858	58.21
352.322	72.61
352.786	68.61
353.25	85.51
353.715	92.01
354.179	85.11
354.643	95.71
355.107	98.61
355.571	84.61
356.035	85.31
356.498	98.81
356.962	90.31
357.426	102.21
357.89	96.71
358.354	76.01
358.818	72.31
359.281	63.21
359.745	64.01
360.209	61.41
360.673	62.11
361.136	64.81
361.6	67.41
362.064	65.81
362.527	71.31
362.991	79.31
363.454	68.01
363.918	67.21
364.381	69.41
364.845	73.91
365.308	68.21
365.772	77.91
366.235	73.21
366.698	71.31
367.162	71.01
367.625	70.71
368.088	78.81
368.552	81.01
369.015	86.31
369.478	81.11
369.941	86.61
370.404	81.71
370.867	86.11
371.331	87.21
371.794	95.71
372.257	86.01
372.72	89.21
373.183	84.61
373.646	84.21
374.109	84.21
374.572	83.11
375.035	86.91
375.497	91.81
375.96	96.51
376.423	86.51
376.886	104.61
377.349	98.01
377.811	88.11
378.274	92.41
378.737	92.71
379.199	98.81
379.662	91.01
380.125	97.11
380.587	97.11
381.05	97.21
381.512	102.41
381.975	108.81
382.437	111.41
382.9	107.71
383.362	110.81
383.825	114.01
384.287	111.71
384.75	109.91
385.212	113.01
385.674	124.31
386.136	120.81
386.599	114.51
387.061	108.71
387.523	110.41
387.985	113.81
388.447	129.71
388.91	115.41
389.372	114.71
389.834	122.51
390.296	122.31
390.758	123.31
391.22	124.31
391.682	141.51
392.144	151.21
392.606	138.61
393.068	122.81
393.529	145.11
393.991	129.91
394.453	121.51
394.915	121.31
395.377	132.91
395.838	142.41
396.3	125.81
396.762	131.61
397.224	124.51
397.685	125.91
398.147	127.31
398.608	117.21
399.07	123.11
399.531	124.11
399.993	135.71
400.454	140.51
400.916	140.61
401.377	136.71
401.839	142.31
402.3	144.31
402.762	152.31
403.223	165.71
403.684	157.11
404.145	150.31
404.607	150.91
405.068	154.21
405.529	156.01
405.99	166.71
406.451	176.41
406.913	162.51
407.374	148.31
407.835	150.91
408.296	162.81
408.757	170.91
409.218	175.61
409.679	167.11
410.14	166.01
410.601	165.41
411.062	172.11
411.522	169.41
411.983	163.71
412.444	167.21
412.905	175.31
413.366	176.41
413.826	189.01
414.287	206.41
414.748	254.31
415.208	242.41
415.669	204.51
416.13	205.41
416.59	200.31
417.051	213.11
417.511	213.51
417.972	232.21
418.432	235.41
418.893	284.61
419.353	242.01
419.814	193.51
420.274	173.71
420.734	178.21
421.195	193.41
421.655	188.51
422.115	182.21
422.576	187.31
423.036	189.41
423.496	198.51
423.956	212.01
424.416	226.91
424.876	254.61
425.336	249.11
425.797	256.11
426.257	249.81
426.717	235.71
427.177	224.41
427.637	205.61
428.097	226.41
428.556	238.91
429.016	259.91
429.476	244.91
429.936	259.31
430.396	273.21
430.856	281.11
431.315	291.61
431.775	326.61
432.235	360.41
432.694	337.31
433.154	339.31
433.614	369.61
434.073	324.91
434.533	278.21
434.993	256.61
435.452	269.11
435.912	281.01
436.371	278.61
436.83	262.41
437.29	252.31
437.749	243.51
438.209	240.81
438.668	267.71
439.127	280.21
439.587	253.01
440.046	240.31
440.505	256.91
440.964	266.61
441.424	311.01
441.883	294.91
442.342	255.91
442.801	221.91
443.26	218.81
443.719	219.61
444.178	216.01
444.637	215.81
445.096	223.61
445.555	226.01
446.014	225.01
446.473	232.71
446.932	232.01
447.391	228.91
447.849	232.31
448.308	210.21
448.767	219.11
449.226	233.81
449.685	239.31
450.143	245.51
450.602	240.21
451.061	228.81
451.519	235.21
451.978	224.01
452.436	238.61
452.895	236.61
453.353	248.41
453.812	240.31
454.27	241.61
454.729	240.91
455.187	238.21
455.646	248.51
456.104	244.71
456.562	255.81
457.021	268.51
457.479	259.01
457.937	272.21
458.395	265.81
458.854	248.31
459.312	255.51
459.77	282.01
460.228	258.51
460.686	250.91
461.144	253.21
461.602	248.71
462.06	247.51
462.518	252.41
462.976	263.21
463.434	260.91
463.892	261.81
464.35	277.31
464.808	282.31
465.266	267.31
465.724	267.01
466.181	268.91
466.639	275.21
467.097	294.11
467.555	296.81
468.012	305.91
468.47	311.91
468.928	326.71
469.385	340.31
469.843	340.21
470.3	346.71
470.758	365.81
471.215	380.91
471.673	404.11
472.13	406.21
472.588	416.21
473.045	373.51
473.503	383.41
473.96	393.01
474.417	403.01
474.875	437.91
475.332	468.31
475.789	466.81
476.246	464.41
476.704	492.21
477.161	504.11
477.618	515.41
478.075	547.11
478.532	608.21
478.989	660.51
479.446	775.91
479.903	743.41
480.36	773.51
480.817	820.71
481.274	905.81
481.731	985.71
482.188	1068.81
482.645	1194.21
483.102	1275.61
483.558	1396.61
484.015	1433.21
484.472	1419.01
484.929	1353.71
485.385	1320.41
485.842	1298.91
486.299	1235.11
486.755	1221.21
487.212	1031.31
487.668	882.71
488.125	815.51
488.582	738.81
489.038	720.11
489.494	697.31
489.951	661.41
490.407	652.91
490.864	637.41
491.32	624.01
491.776	632.81
492.233	632.41
492.689	612.21
493.145	604.51
493.602	595.91
494.058	612.81
494.514	609.41
494.97	634.71
495.426	642.61
495.882	623.51
496.338	601.61
496.794	624.01
497.251	613.31
497.707	623.41
498.163	628.71
498.618	634.71
499.074	637.31
499.53	662.51
499.986	667.41
500.442	649.71
500.898	626.51
501.354	613.11
501.809	619.51
502.265	615.31
502.721	630.81
503.177	643.11
503.632	649.31
504.088	645.61
504.543	664.31
504.999	691.91
505.455	662.21
505.91	632.31
506.366	635.71
506.821	631.41
507.277	641.41
507.732	638.71
508.187	639.61
508.643	636.41
509.098	653.11
509.553	660.61
510.009	665.91
510.464	675.71
510.919	690.91
511.375	700.61
511.83	704.91
512.285	722.21
512.74	751.91
513.195	785.41
513.65	772.01
514.105	762.11
514.56	771.71
515.015	787.91
515.47	799.51
515.925	778.31
516.38	783.91
516.835	791.01
517.29	775.41
517.745	771.61
518.2	760.51
518.655	754.31
519.109	742.71
519.564	744.71
520.019	721.81
520.474	729.81
520.928	721.71
521.383	718.71
521.838	712.41
522.292	717.81
522.747	719.51
523.201	706.81
523.656	703.41
524.11	707.21
524.565	697.11
525.019	696.91
525.474	697.61
525.928	695.01
526.382	700.01
526.837	694.41
527.291	705.51
527.745	695.41
528.2	701.51
528.654	689.21
529.108	700.81
529.562	690.51
530.016	693.31
530.47	695.71
530.925	690.71
531.379	689.91
531.833	703.21
532.287	704.41
532.741	703.91
533.195	707.11
533.649	714.11
534.103	721.51
534.556	707.31
535.01	712.41
535.464	703.51
535.918	711.51
536.372	716.91
536.826	723.01
537.279	712.11
537.733	717.11
538.187	720.81
538.64	721.11
539.094	723.61
539.548	733.31
540.001	728.61
540.455	719.81
540.908	739.51
541.362	743.71
541.815	752.41
542.269	765.41
542.722	775.61
543.175	770.51
543.629	772.81
544.082	793.61
544.536	797.71
544.989	795.81
545.442	796.31
545.895	800.21
546.349	809.41
546.802	798.61
547.255	807.41
547.708	816.71
548.161	824.01
548.614	828.41
549.067	831.01
549.52	818.51
549.973	825.11
550.426	816.01
550.879	801.41
551.332	809.01
551.785	819.21
552.238	820.61
552.691	840.81
553.144	844.81
553.596	867.01
554.049	869.81
554.502	900.61
554.955	925.11
555.407	925.91
555.86	918.81
556.313	903.81
556.765	885.61
557.218	886.71
557.67	883.61
558.123	880.01
558.576	883.81
559.028	890.21
559.48	897.91
559.933	885.61
560.385	856.01
560.838	823.91
561.29	798.81
561.742	803.01
562.195	782.21
562.647	772.41
563.099	782.51
563.551	769.71
564.004	780.51
564.456	779.01
564.908	760.41
565.36	749.01
565.812	741.31
566.264	720.81
566.716	729.61
567.168	709.71
567.62	716.71
568.072	711.81
568.524	711.01
568.976	695.61
569.428	688.51
569.88	693.11
570.332	685.11
570.784	699.71
571.235	692.91
571.687	707.91
572.139	712.31
572.59	721.71
573.042	725.91
573.494	717.71
573.945	716.11
574.397	698.61
574.849	701.81
575.3	694.81
575.752	696.51
576.203	689.71
576.655	702.71
577.106	685.11
577.557	674.01
578.009	678.31
578.46	672.41
578.912	671.01
579.363	674.51
579.814	672.61
580.265	668.51
580.717	679.81
581.168	675.81
581.619	687.51
582.07	694.41
582.521	685.41
582.972	673.01
583.423	690.11
583.875	685.21
584.326	687.31
584.777	715.61
585.227	736.01
585.678	765.11
586.129	788.41
586.58	814.41
587.031	846.31
587.482	893.81
587.933	925.51
588.384	898.71
588.834	815.61
589.285	785.21
589.736	788.81
590.186	790.21
590.637	766.71
591.088	756.61
591.538	750.01
591.989	743.51
592.439	738.91
592.89	732.31
593.34	719.11
593.791	717.31
594.241	708.91
594.692	713.61
595.142	705.91
595.593	704.81
596.043	708.61
596.493	722.81
596.943	715.01
597.394	738.11
597.844	733.31
598.294	745.61
598.744	765.91
599.195	795.41
599.645	834.11
600.095	884.91
600.545	932.41
600.995	987.21
601.445	1042.11
601.895	1107.81
602.345	1153.51
602.795	1137.11
603.245	1086.91
603.695	1040.91
604.145	974.61
604.594	929.61
605.044	876.11
605.494	822.21
605.944	770.51
606.393	756.11
606.843	744.01
607.293	747.51
607.743	746.21
608.192	744.31
608.642	768.81
609.091	777.21
609.541	779.91
609.99	781.21
610.44	777.91
610.889	730.71
611.339	702.31
611.788	686.31
612.238	713.41
612.687	717.01
613.136	713.81
613.586	725.11
614.035	720.81
614.484	728.71
614.933	725.71
615.383	724.41
615.832	723.71
616.281	710.71
616.73	697.41
617.179	664.51
617.628	649.51
618.077	642.61
618.526	625.81
618.975	622.11
619.424	624.91
619.873	637.41
620.322	627.41
620.771	620.01
621.22	620.11
621.669	610.91
622.118	603.91
622.567	594.51
623.015	588.01
623.464	575.61
623.913	560.81
624.361	563.71
624.81	564.11
625.259	565.71
625.707	563.21
626.156	563.11
626.604	568.41
627.053	569.81
627.501	572.51
627.95	585.41
628.398	591.71
628.847	588.31
629.295	575.61
629.744	582.71
630.192	566.61
630.64	580.51
631.089	563.41
631.537	558.01
631.985	545.91
632.433	558.41
632.881	540.41
633.33	557.41
633.778	542.91
634.226	529.21
634.674	543.01
635.122	563.51
635.57	559.91
636.018	576.71
636.466	574.01
636.914	564.41
637.362	574.01
637.81	582.91
638.258	595.91
638.705	589.61
639.153	630.01
639.601	633.11
640.049	652.61
640.497	693.01
640.944	717.41
641.392	657.41
641.84	627.31
642.287	584.31
642.735	577.21
643.182	569.81
643.63	569.41
644.078	577.31
644.525	592.21
644.973	594.91
645.42	611.01
645.867	629.61
646.315	640.31
646.762	680.21
647.21	691.21
647.657	713.61
648.104	744.51
648.551	754.11
648.999	829.21
649.446	900.71
649.893	982.11
650.34	1130.71
650.787	1339.51
651.234	1667.31
651.682	2133.41
652.129	2922.71
652.576	4151.11
653.023	6076.21
653.47	8186.31
653.917	10084.31
654.363	11510.11
654.81	12655.81
655.257	11985.31
655.704	7933.01
656.151	4812.01
656.598	3148.91
657.044	2244.31
657.491	1743.11
657.938	1426.81
658.385	1185.41
658.831	1051.51
659.278	945.21
659.724	833.01
660.171	782.61
660.618	711.21
661.064	684.31
661.511	669.61
661.957	667.91
662.404	650.71
662.85	661.41
663.296	629.01
663.743	571.01
664.189	554.21
664.635	533.11
665.082	536.71
665.528	540.21
665.974	517.71
666.42	521.01
666.867	524.31
667.313	495.31
667.759	476.31
668.205	470.01
668.651	462.61
669.097	457.61
669.543	448.21
669.989	453.91
670.435	458.61
670.881	460.01
671.327	466.41
671.773	481.11
672.219	512.51
672.665	570.71
673.11	603.41
673.556	648.71
674.002	686.91
674.448	680.91
674.893	569.31
675.339	489.91
675.785	451.11
676.23	437.01
676.676	406.11
677.122	395.61
677.567	382.21
678.013	378.61
678.458	364.91
678.904	374.31
679.349	363.01
679.794	367.91
680.24	367.31
680.685	369.81
681.131	355.61
681.576	359.11
682.021	363.61
682.466	364.61
682.912	367.51
683.357	362.21
683.802	397.31
684.247	431.81
684.692	477.11
685.137	517.41
685.583	556.11
686.028	573.51
686.473	534.81
686.918	464.21
687.363	430.21
687.807	408.11
688.252	376.71
688.697	358.01
689.142	348.61
689.587	341.31
690.032	332.51
690.477	352.91
690.921	368.81
691.366	396.61
691.811	413.01
692.255	446.01
692.7	477.51
693.145	530.11
693.589	751.01
694.034	1213.31
694.478	1622.51
694.923	1791.41
695.367	2334.81
695.812	1250.91
696.256	511.61
696.701	385.61
697.145	356.21
697.59	337.61
698.034	327.61
698.478	335.41
698.922	334.91
699.367	337.11
699.811	340.11
700.255	358.71
700.699	394.71
701.143	438.91
701.588	491.11
702.032	534.41
702.476	526.61
702.92	506.61
703.364	517.01
703.808	689.31
704.252	1127.91
704.696	1542.41
705.14	1728.81
705.584	2200.41
706.027	1111.41
706.471	539.91
706.915	419.01
707.359	362.61
707.803	337.51
708.246	313.51
708.69	322.51
709.134	327.31
709.577	329.91
710.021	326.41
710.465	321.61
710.908	309.21
711.352	309.21
711.795	319.21
712.239	366.11
712.682	405.91
713.126	432.81
713.569	473.61
714.012	372.51
714.456	319.41
714.899	305.51
715.342	288.01
715.786	270.01
716.229	267.01
716.672	254.31
717.115	259.41
717.558	263.01
718.002	267.91
718.445	273.61
718.888	295.61
719.331	303.51
719.774	323.91
720.217	312.01
720.66	291.81
721.103	281.91
721.546	259.91
721.989	259.61
722.432	245.81
722.874	239.71
723.317	235.81
723.76	239.21
724.203	269.31
724.645	336.41
725.088	467.81
725.531	591.61
725.974	652.91
726.416	559.31
726.859	312.81
727.301	263.61
727.744	245.31
728.187	248.01
728.629	247.11
729.071	249.41
729.514	269.51
729.956	287.51
730.399	291.71
730.841	302.61
731.283	280.31
731.726	285.11
732.168	273.21
732.61	278.91
733.053	308.21
733.495	325.81
733.937	368.31
734.379	409.31
734.821	464.71
735.263	576.31
735.705	907.61
736.148	1716.91
736.59	2741.81
737.032	3139.81
737.474	2575.11
737.916	863.51
738.357	445.41
738.799	340.21
739.241	308.61
739.683	302.51
740.125	309.11
740.567	307.11
741.008	334.71
741.45	327.11
741.892	331.41
742.334	368.01
742.775	372.61
743.217	361.71
743.658	284.31
744.1	268.61
744.542	277.01
744.983	332.71
745.425	357.81
745.866	364.41
746.307	298.81
746.749	288.01
747.19	346.01
747.632	497.51
748.073	971.01
748.514	2018.61
748.956	2987.01
749.397	3779.11
749.838	3123.51
750.279	3046.31
750.72	1564.51
751.162	566.71
751.603	335.41
752.044	261.11
752.485	228.81
752.926	223.91
753.367	213.41
753.808	206.21
754.249	201.01
754.69	195.61
755.131	190.01
755.572	192.61
756.013	184.01
756.453	188.31
756.894	194.41
757.335	197.71
757.776	201.71
758.216	203.01
758.657	209.11
759.098	212.41
759.538	242.81
759.979	284.81
760.42	403.21
760.86	780.91
761.301	2033.91
761.741	4778.31
762.182	6581.31
762.622	4672.81
763.063	1389.21
763.503	572.31
763.943	344.81
764.384	290.81
764.824	273.01
765.264	265.41
765.705	231.91
766.145	191.01
766.585	185.61
767.025	174.11
767.465	180.11
767.906	194.31
768.346	210.31
768.786	223.71
769.226	227.71
769.666	336.41
770.106	677.51
770.546	1715.41
770.986	2730.01
771.426	2433.41
771.866	831.41
772.306	346.31
772.745	211.11
773.185	170.51
773.625	167.61
774.065	159.71
774.505	173.11
774.944	229.01
775.384	409.91
775.824	653.51
776.263	625.71
776.703	307.01
777.142	174.01
777.582	145.21
778.021	130.51
778.461	135.81
778.9	132.31
779.34	133.31
779.779	116.71
780.219	114.81
780.658	113.01
781.097	112.41
781.537	113.21
781.976	110.61
782.415	106.41
782.855	105.01
783.294	107.01
783.733	109.71
784.172	111.21
784.611	106.01
785.05	106.21
785.489	116.41
785.928	117.01
786.367	124.41
786.806	121.31
787.245	134.91
787.684	141.61
788.123	145.41
788.562	133.91
789.001	140.61
789.44	130.71
789.879	120.21
790.317	119.71
790.756	123.61
791.195	128.81
791.634	156.81
792.072	218.71
792.511	399.41
792.95	1110.51
793.388	2215.41
793.827	1964.81
794.265	701.01
794.704	302.01
795.142	192.51
795.581	158.71
796.019	144.91
796.458	138.91
796.896	131.61
797.334	145.71
797.773	170.61
798.211	233.11
798.649	477.61
799.087	1101.01
799.526	1702.91
799.964	2149.41
800.402	2066.31
800.84	786.31
801.278	321.61
801.716	200.41
802.154	161.31
802.592	151.41
803.03	142.71
803.468	136.11
803.906	152.11
804.344	152.51
804.782	145.01
805.22	133.41
805.658	141.71
806.096	157.51
806.533	165.91
806.971	183.31
807.409	229.61
807.847	340.21
808.284	737.91
808.722	2026.21
809.16	3443.11
809.597	3384.71
810.035	5778.91
810.472	5926.61
810.91	2182.41
811.347	843.81
811.785	426.81
812.222	270.31
812.66	210.51
813.097	168.41
813.535	150.81
813.972	133.81
814.409	125.41
814.846	106.81
815.284	112.31
815.721	104.71
816.158	109.51
816.595	120.81
817.032	168.21
817.47	182.81
817.907	135.21
818.344	107.31
818.781	106.71
819.218	105.11
819.655	130.01
820.092	200.41
820.529	229.01
820.966	173.71
821.403	128.11
821.839	103.11
822.276	101.31
822.713	122.31
823.15	139.01
823.587	121.11
824.023	162.41
824.46	330.81
824.897	980.01
825.333	1397.31
825.77	609.41
826.206	244.31
826.643	146.91
827.08	104.91
827.516	89.01
827.953	80.61
828.389	83.51
828.825	72.11
829.262	77.61
829.698	68.31
830.135	70.81
830.571	66.41
831.007	62.01
831.443	65.11
831.88	65.81
832.316	66.91
832.752	66.51
833.188	69.41
833.624	65.31
834.06	78.11
834.497	71.81
834.933	76.81
835.369	80.01
835.805	69.91
836.241	83.41
836.677	82.91
837.112	95.91
837.548	114.21
837.984	149.31
838.42	218.21
838.856	553.91
839.292	1641.11
839.727	2374.01
840.163	1138.31
840.599	1013.71
841.034	2174.91
841.47	2174.91
841.906	823.41
842.341	361.31
842.777	207.31
843.212	221.81
843.648	203.11
844.083	121.51
844.519	92.11
844.954	77.61
845.39	65.71
845.825	55.01
846.261	62.71
846.696	58.51
847.131	53.61
847.566	60.71
848.002	54.51
848.437	58.51
848.872	63.51
849.307	65.51
849.742	93.11
850.177	203.21
850.613	599.41
851.048	903.91
851.483	401.11
851.918	160.71
852.353	94.91
852.788	53.51
853.223	51.41
853.657	54.41
854.092	49.61
854.527	49.41
854.962	47.01
855.397	48.71
855.832	49.61
856.266	46.21
856.701	41.21
857.136	36.71
857.57	45.31
858.005	52.41
858.44	62.31
858.874	45.31
859.309	60.81
859.743	42.81
860.178	51.11
860.612	42.31
861.047	59.91
861.481	74.51
861.915	80.11
862.35	55.51
862.784	37.21
863.218	34.21
863.653	29.71
864.087	50.51
864.521	56.51
864.955	68.31
865.39	164.81
865.824	178.91
866.258	119.01
866.692	181.31
867.126	188.31
867.56	113.11
867.994	65.01
868.428	42.81
868.862	54.41
869.296	58.71
869.73	62.11
870.164	57.01
870.598	58.11
871.031	43.11
871.465	35.21
871.899	33.91
872.333	31.61
872.766	29.11
873.2	23.11
873.634	33.91
874.067	29.31
874.501	24.21
874.935	37.31
875.368	29.81
875.802	26.61
876.235	26.11
876.669	22.71
877.102	25.31
877.535	34.61
877.969	23.81
878.402	22.61
878.836	18.51
879.269	28.21
879.702	28.21
880.135	27.01
880.569	22.31
881.002	26.81
881.435	26.31
881.868	25.01
882.301	22.81
882.734	13.31
883.167	26.11
883.601	20.51
884.034	22.51
884.467	19.81
884.899	22.81
885.332	17.51
885.765	17.11
886.198	15.01
886.631	20.01
887.064	19.01
887.497	19.71
887.929	25.11
888.362	16.61
888.795	12.01
889.228	21.61
889.66	20.71
890.093	17.91
890.526	11.91
890.958	16.21
891.391	17.81
891.823	26.81
892.256	15.21
892.688	13.61
893.121	10.81
893.553	13.11
893.985	20.51
894.418	16.11
894.85	19.81
895.282	20.11
895.715	18.91
896.147	16.71
896.579	15.61
897.011	14.71
897.444	22.11
897.876	16.21
898.308	21.11
898.74	15.01
899.172	15.81
899.604	22.01
900.036	16.11
900.468	15.91
900.9	17.21
901.332	21.81
901.764	18.71
902.196	18.91
902.628	22.71
903.06	24.31
903.491	28.11
903.923	21.41
904.355	21.91
904.787	26.81
905.218	18.41
905.65	21.41
906.082	16.61
906.513	12.21
906.945	16.31
907.376	13.71
907.808	15.91
908.239	16.61
908.671	20.01
909.102	20.81
909.534	25.01
909.965	52.11
910.397	95.21
910.828	339.61
911.259	483.31
911.691	230.41
912.122	114.01
912.553	52.81
912.984	37.61
913.415	22.31
913.847	29.91
914.278	18.91
914.709	14.21
915.14	21.71
915.571	19.51
916.002	13.81
916.433	24.71
916.864	17.41
917.295	13.11
917.726	27.71
918.157	20.01
918.587	26.31
919.018	26.61
919.449	22.81
919.88	27.21
920.311	34.71
920.741	50.81
921.172	173.91
921.603	154.21
922.033	78.81
922.464	48.81
922.895	23.21
923.325	23.41
923.756	18.01
924.186	15.11
924.617	18.41
925.047	25.41
925.478	22.61
925.908	23.91
926.338	16.21
926.769	13.61
927.199	20.41
927.629	7.11
928.06	12.51
928.49	10.11
928.92	13.11
929.35	9.41
929.78	17.31
930.21	5.41
930.641	5.51
931.071	4.01
931.501	3.81
931.931	9.61
932.361	9.81
932.791	4.01
933.221	5.41
933.651	8.31
934.08	17.01
934.51	27.21
934.94	6.01
935.37	9.81
935.8	14.21
936.229	7.71
936.659	11.21
937.089	-0.29
937.519	18.71
937.948	29.41
938.378	19.71
938.807	7.71
939.237	7.31
939.666	8.51
940.096	-7.29
940.525	2.21
940.955	-0.29
941.384	2.71
941.814	-3.79
942.243	1.81
942.672	0.71
943.102	-4.69
943.531	-1.89
943.96	5.11
944.39	8.01
944.819	-1.59
945.248	9.71
945.677	0.11
946.106	3.51
946.535	3.11
946.964	2.61
947.393	2.71
947.822	4.31
948.251	-2.49
948.68	6.71
949.109	6.91
949.538	7.61
949.967	-3.69
950.396	-1.49
950.825	-0.09
951.254	0.01
951.682	-0.49
952.111	8.51
952.54	3.81
952.969	-1.99
953.397	-8.89
953.826	0.71
954.254	-6.79
954.683	-0.49
955.112	-3.09
955.54	-1.49
955.969	5.31
956.397	0.91
956.826	-1.59
957.254	1.41
957.682	5.31
958.111	1.31
958.539	1.01
958.967	-2.09
959.396	-1.49
959.824	2.81
960.252	-1.29
960.68	-2.99
961.109	-1.99
961.537	-1.69
961.965	-5.69
962.393	-4.69
962.821	-2.09
963.249	2.01
963.677	9.71
964.105	10.31
964.533	49.41
964.961	43.81
965.389	13.71
965.817	9.91
966.245	4.41
966.672	-6.19
967.1	-9.39
967.528	0.11
967.956	-4.29
968.383	1.41
968.811	-4.89
969.239	0.71
969.666	-2.39
970.094	1.21
970.522	1.61
970.949	-4.99
971.377	-3.09
971.804	-4.69
972.232	0.71
972.659	-2.89
973.087	-0.29
973.514	-3.39
973.941	-7.79
974.369	2.51
974.796	3.81
975.223	1.31
975.651	4.11
976.078	4.31
976.505	0.31
976.932	7.71
977.359	17.81
977.786	18.11
978.214	0.51
978.641	-4.09
979.068	2.21
979.495	-5.29
979.922	0.61
980.349	0.31
980.776	7.21
981.202	-2.49
981.629	7.81
982.056	-0.09
982.483	2.11
982.91	2.81
983.337	1.41
983.763	8.51
984.19	-3.89
984.617	-5.89
985.043	-4.89
985.47	-0.99
985.897	-4.69
986.323	-3.69
986.75	7.11
987.176	2.41
987.603	-4.19
988.029	1.51
988.456	-1.09
988.882	-0.69
989.308	-9.19
989.735	-8.09
990.161	0.41
990.587	-3.09
991.014	2.41
991.44	8.51
991.866	-3.99
992.292	-4.69
992.719	-0.99
993.145	7.11
993.571	-6.89
993.997	-3.19
994.423	-4.79
994.849	-8.29
995.275	0.71
995.701	2.11
996.127	-3.79
996.553	0.81
996.979	-1.79
997.405	-3.19
997.83	1.71
998.256	-1.49
998.682	-5.99
999.108	-10.19
999.534	0.81
999.959	-3.99
1000.385	-1.79
1000.811	2.31
1001.236	-10.09
1001.662	-11.49
1002.087	-13.59
1002.513	0.11
1002.938	3.51
1003.364	-8.09
1003.789	-0.39
1004.215	-2.19
1004.64	0.71
1005.066	3.21
1005.491	-0.49
1005.916	0.71
1006.342	-3.79
1006.767	-7.79
1007.192	0.11
1007.617	-3.89
1008.042	-5.99
1008.468	0.91
1008.893	-5.79
1009.318	-2.79
1009.743	-1.79
1010.168	0.91
1010.593	-1.19
1011.018	-12.99
1011.443	-0.09
1011.868	1.41
1012.293	-4.59
1012.718	-2.99
1013.143	3.31
1013.567	2.41
1013.992	-0.19
1014.417	-10.19
1014.842	4.61
1015.267	-6.49
1015.691	-3.99
1016.116	0.81
1016.541	-2.79
1016.965	1.31
1017.39	-0.79
1017.814	-0.69
1018.239	0.21
1018.663	-8.79
1019.088	-10.89
1019.512	-0.69
1019.937	-5.99
1020.361	-13.69
1020.785	-12.89
1021.21	-3.59
1021.634	-0.99
1022.058	0.81
1022.483	-1.19
1022.907	-3.09
1023.331	-2.39
1023.755	-3.39
1024.179	0.21
1024.604	1.81
1025.028	-4.59
1025.452	-7.59
1025.876	-3.69
1026.3	0.31
1026.724	-7.09
1027.148	-8.99
1027.572	-10.69
1027.996	-5.49
1028.42	-2.59
1028.843	-6.99
1029.267	-10.49
1029.691	-3.99
1030.115	-8.69
1030.539	-7.39
1030.962	-10.29
1031.386	-3.19
1031.81	-2.99
1032.233	0.71
1032.657	-1.59
1033.08	-6.19
1033.504	-3.19
1033.927	-6.69
1034.351	-3.09
1034.774	-4.09
1035.198	-1.89
1035.621	-8.89
1036.045	-7.29
1036.468	0.91
1036.891	-11.69
1037.315	-7.39
1037.738	-8.19
1038.161	2.61
1038.584	-6.09
1039.008	-8.99
1039.431	-4.49
1039.854	-2.59
1040.277	-4.39
1040.7	-10.99
1041.123	-0.59
1041.546	-5.59
1041.969	-4.79
1042.392	-9.19
1042.815	-2.59
1043.238	-4.39
1043.661	0.81
1044.084	-8.09
1044.507	-5.09
1044.93	-7.19
1045.352	-5.69
1045.775	-0.29
1046.198	-4.89
1046.621	-5.69
1047.043	-4.59
1047.466	11.91
1047.889	-0.59
1048.311	-1.79
1048.734	-2.09
1049.156	-0.89
1049.579	-5.39
1050.001	-5.49
1050.424	2.31
1050.846	-3.49
1051.269	-8.69
1051.691	-6.09
1052.113	-3.19
1052.536	-1.39
1052.958	-3.69
1053.38	-4.09
1053.802	-10.59
1054.225	-0.29
1054.647	-5.69
1055.069	-2.89
1055.491	1.71
1055.913	-4.29
1056.335	-3.09
1056.757	-0.29
1057.179	-6.29
1057.601	-2.79
1058.023	-0.99
1058.445	-3.69
1058.867	-1.09
1059.289	-5.79
1059.711	-8.09
1060.133	-3.79
1060.555	-3.59
1060.976	-8.79
1061.398	-5.69
1061.82	-1.49
1062.241	-6.09
1062.663	-10.39
1063.085	-6.79
1063.506	-1.39
1063.928	-3.69
1064.35	-3.39
1064.771	-11.69
1065.193	-1.59
1065.614	-7.09
1066.035	-8.49
1066.457	-2.99
1066.878	1.81
1067.3	-6.59
1067.721	-2.59
1068.142	-2.19
1068.564	-3.59
1068.985	-6.69
1069.406	-3.29
1069.827	-6.89
1070.248	-5.19
1070.67	-8.19
1071.091	-6.09
1071.512	-1.89
1071.933	-4.59
1072.354	-7.39
1072.775	-5.89
1073.196	-6.49
1073.617	0.11
1074.038	-8.39
1074.459	-5.39
1074.88	-3.79
1075.3	-1.19
1075.721	-3.69
1076.142	-1.89
1076.563	-7.19
1076.983	-13.09
1077.404	-13.79
1077.825	-11.09
1078.246	-3.29
1078.666	-11.19
1079.087	-5.09
1079.507	-2.09
1079.928	-0.49
1080.348	-3.99
1080.769	-7.69
1081.189	4.41
1081.61	-0.29
1082.03	-3.89
1082.451	-8.59
1082.871	-2.39
1083.291	-6.59
1083.711	-6.79
1084.132	-6.39
1084.552	-3.09
1084.972	-1.99
1085.392	-8.29
1085.813	-6.29
1086.233	-7.39
1086.653	-5.09
1087.073	-1.19
1087.493	-9.69
1087.913	-7.59
1088.333	-0.69
1088.753	-2.79
1089.173	2.11
1089.593	-7.59
1090.013	0.21
1090.433	-1.69
1090.852	-2.89
1091.272	0.21
1091.692	-11.09
1092.112	-3.79
1092.531	-14.09
1092.951	-12.99
1093.371	-2.49
1093.79	2.21
1094.21	-1.29
1094.63	-10.89
1095.049	-6.09
1095.469	-9.49
1095.888	-4.69
1096.308	-1.29
1096.727	6.11
1097.146	-6.49
1097.566	-4.49
1097.985	-4.19
1098.405	-6.69
1098.824	-8.39
1099.243	-5.49
1099.662	-3.29
1100.082	-7.99
1100.501	-0.39
1100.92	-2.59
1101.339	-9.19
1101.758	-10.19
