Data from 20171114-ORNL-Ar_H_NY_Subt18_08-04-45-192.txt Node
Date: Tue Nov 14 08:04:45 EST 2017
User: Ender
Spectrometer: HR+D1039
Trigger mode: 0
Integration Time (sec): 2.730000E-2
Scans to average: 10
Electric dark correction enabled: true
Nonlinearity correction enabled: false
Boxcar width: 0
XAxis mode: Wavelengths
Number of Pixels in Spectrum: 2048
>>>>>Begin Spectral Data<<<<<
187.836	1.51
188.309	1.51
188.782	1.51
189.255	-7.29
189.728	-5.59
190.201	5.51
190.674	0.81
191.147	2.11
191.619	-6.79
192.092	7.71
192.565	2.41
193.038	0.11
193.511	2.91
193.984	-4.89
194.456	-2.29
194.929	0.81
195.402	0.71
195.874	2.31
196.347	-6.69
196.82	3.61
197.292	4.31
197.765	-3.19
198.237	-9.19
198.71	2.41
199.182	0.31
199.655	3.31
200.127	-1.99
200.6	-4.39
201.072	-0.39
201.544	-5.79
202.017	-3.39
202.489	10.61
202.961	-1.19
203.433	-0.89
203.906	-7.99
204.378	-5.99
204.85	-1.59
205.322	-8.99
205.794	-4.99
206.266	-4.49
206.739	-5.49
207.211	5.91
207.683	-6.69
208.155	-3.29
208.627	-3.19
209.099	-7.59
209.57	-5.49
210.042	-5.19
210.514	-5.49
210.986	0.61
211.458	-4.99
211.93	-5.49
212.402	-3.09
212.873	-2.89
213.345	-8.99
213.817	-11.79
214.288	-4.09
214.76	-13.29
215.232	0.21
215.703	-2.59
216.175	1.71
216.646	-6.89
217.118	-9.09
217.589	-4.49
218.061	-1.29
218.532	-2.59
219.004	-4.99
219.475	-5.79
219.946	-6.89
220.418	-4.79
220.889	-3.09
221.36	-3.09
221.832	-8.69
222.303	-10.49
222.774	-2.49
223.245	-9.19
223.717	-5.59
224.188	-8.09
224.659	-2.79
225.13	-8.89
225.601	-0.59
226.072	3.61
226.543	0.31
227.014	3.01
227.485	2.61
227.956	-1.79
228.427	2.71
228.898	1.31
229.369	2.21
229.839	-5.89
230.31	-5.39
230.781	5.41
231.252	0.71
231.722	0.51
232.193	-4.39
232.664	5.51
233.135	2.41
233.605	0.01
234.076	-4.79
234.546	1.51
235.017	3.81
235.487	0.71
235.958	3.21
236.428	-1.09
236.899	3.31
237.369	6.61
237.84	0.61
238.31	9.21
238.78	2.31
239.251	-3.19
239.721	2.81
240.191	1.21
240.662	-2.29
241.132	-1.89
241.602	3.11
242.072	-0.89
242.542	8.31
243.013	7.61
243.483	5.41
243.953	5.51
244.423	1.81
244.893	-3.79
245.363	2.41
245.833	9.31
246.303	-0.49
246.773	11.71
247.243	-2.69
247.712	-1.69
248.182	10.91
248.652	11.41
249.122	4.61
249.592	8.01
250.061	24.01
250.531	34.81
251.001	21.91
251.471	20.91
251.94	25.51
252.41	7.91
252.879	1.01
253.349	10.01
253.818	14.91
254.288	8.31
254.757	9.91
255.227	6.81
255.696	4.61
256.166	13.01
256.635	14.31
257.105	11.21
257.574	8.71
258.043	8.81
258.513	10.81
258.982	20.41
259.451	8.81
259.92	17.61
260.389	11.41
260.859	17.31
261.328	15.41
261.797	17.91
262.266	7.41
262.735	11.81
263.204	6.61
263.673	4.01
264.142	8.21
264.611	-5.09
265.08	-4.39
265.549	2.51
266.018	1.51
266.487	-0.69
266.955	0.71
267.424	-0.09
267.893	10.21
268.362	7.31
268.83	4.41
269.299	14.81
269.768	9.61
270.236	7.51
270.705	7.81
271.174	10.01
271.642	12.11
272.111	6.41
272.579	17.61
273.048	27.61
273.516	26.01
273.985	29.81
274.453	26.61
274.922	19.01
275.39	14.01
275.858	2.91
276.327	11.11
276.795	22.11
277.263	14.91
277.731	37.71
278.2	63.01
278.668	62.31
279.136	56.61
279.604	19.51
280.072	14.71
280.54	15.71
281.008	13.41
281.477	17.71
281.945	13.11
282.413	15.81
282.881	14.91
283.348	9.91
283.816	18.61
284.284	19.61
284.752	24.41
285.22	15.71
285.688	23.51
286.156	19.51
286.623	48.61
287.091	56.31
287.559	26.71
288.026	23.21
288.494	18.01
288.962	9.71
289.429	11.21
289.897	23.81
290.364	17.11
290.832	17.61
291.3	15.11
291.767	21.11
292.234	20.81
292.702	17.21
293.169	19.01
293.637	28.31
294.104	28.61
294.571	9.51
295.039	16.31
295.506	17.51
295.973	20.81
296.44	16.01
296.908	20.21
297.375	19.91
297.842	23.31
298.309	15.51
298.776	14.71
299.243	26.21
299.71	14.71
300.177	21.31
300.644	25.21
301.111	24.41
301.578	23.71
302.045	16.21
302.512	25.01
302.979	24.61
303.446	27.91
303.913	18.81
304.379	21.11
304.846	31.41
305.313	29.11
305.78	25.41
306.246	25.21
306.713	27.81
307.18	28.41
307.646	32.51
308.113	36.61
308.579	27.61
309.046	25.51
309.512	33.21
309.979	19.51
310.445	30.31
310.912	27.81
311.378	34.41
311.845	36.31
312.311	37.61
312.777	35.01
313.244	32.21
313.71	42.61
314.176	34.71
314.642	38.01
315.109	39.51
315.575	39.81
316.041	42.41
316.507	36.61
316.973	44.11
317.439	42.01
317.905	40.01
318.371	35.41
318.837	39.51
319.303	31.81
319.769	43.41
320.235	38.71
320.701	32.01
321.167	41.51
321.633	39.71
322.099	42.01
322.564	44.91
323.03	46.71
323.496	47.71
323.962	38.41
324.427	43.01
324.893	44.91
325.359	40.51
325.824	37.21
326.29	38.11
326.755	37.51
327.221	42.21
327.686	39.31
328.152	43.51
328.617	44.41
329.083	45.81
329.548	49.81
330.014	50.01
330.479	43.61
330.944	39.81
331.41	47.91
331.875	44.41
332.34	47.31
332.805	50.11
333.271	45.41
333.736	44.81
334.201	57.31
334.666	46.91
335.131	52.91
335.596	51.91
336.061	53.11
336.526	49.61
336.991	47.61
337.456	57.91
337.921	50.01
338.386	48.61
338.851	48.81
339.316	48.51
339.781	47.51
340.246	51.91
340.711	46.51
341.175	49.11
341.64	44.31
342.105	49.31
342.569	59.11
343.034	63.51
343.499	61.81
343.963	55.01
344.428	62.91
344.893	61.31
345.357	64.31
345.822	59.61
346.286	66.91
346.751	76.21
347.215	71.61
347.679	77.01
348.144	96.61
348.608	91.81
349.073	67.01
349.537	76.61
350.001	80.41
350.465	96.71
350.93	81.11
351.394	79.01
351.858	75.31
352.322	80.41
352.786	85.31
353.25	99.31
353.715	116.01
354.179	97.91
354.643	124.41
355.107	127.91
355.571	106.21
356.035	101.31
356.498	117.81
356.962	121.11
357.426	133.21
357.89	120.81
358.354	89.61
358.818	87.51
359.281	81.81
359.745	80.41
360.209	75.11
360.673	74.21
361.136	82.51
361.6	85.21
362.064	86.21
362.527	86.61
362.991	92.91
363.454	85.31
363.918	75.91
364.381	76.91
364.845	84.31
365.308	85.11
365.772	81.71
366.235	80.71
366.698	79.41
367.162	92.41
367.625	85.01
368.088	84.31
368.552	85.21
369.015	93.81
369.478	95.31
369.941	101.01
370.404	92.31
370.867	105.61
371.331	107.41
371.794	114.71
372.257	111.51
372.72	116.61
373.183	111.61
373.646	106.81
374.109	104.11
374.572	106.41
375.035	109.01
375.497	107.01
375.96	104.81
376.423	105.11
376.886	103.21
377.349	107.91
377.811	101.51
378.274	108.11
378.737	105.31
379.199	105.61
379.662	105.71
380.125	116.01
380.587	114.21
381.05	121.41
381.512	127.71
381.975	129.01
382.437	125.31
382.9	122.31
383.362	126.51
383.825	135.71
384.287	143.21
384.75	141.71
385.212	131.11
385.674	136.11
386.136	127.71
386.599	126.11
387.061	126.01
387.523	124.11
387.985	129.71
388.447	135.21
388.91	144.61
389.372	151.11
389.834	148.61
390.296	138.71
390.758	145.41
391.22	160.71
391.682	192.91
392.144	271.91
392.606	213.01
393.068	159.81
393.529	152.01
393.991	144.51
394.453	139.91
394.915	151.91
395.377	184.61
395.838	201.81
396.3	155.41
396.762	142.61
397.224	136.01
397.685	127.71
398.147	125.81
398.608	129.11
399.07	130.11
399.531	128.81
399.993	141.31
400.454	146.61
400.916	146.41
401.377	145.01
401.839	143.81
402.3	142.31
402.762	157.91
403.223	175.01
403.684	168.11
404.145	151.31
404.607	154.01
405.068	160.81
405.529	165.81
405.99	183.61
406.451	175.41
406.913	166.81
407.374	152.81
407.835	151.71
408.296	160.71
408.757	167.81
409.218	177.11
409.679	168.01
410.14	174.61
410.601	178.31
411.062	178.61
411.522	186.21
411.983	174.21
412.444	171.61
412.905	179.41
413.366	181.61
413.826	184.21
414.287	210.31
414.748	252.41
415.208	236.81
415.669	202.91
416.13	197.11
416.59	193.91
417.051	202.41
417.511	208.11
417.972	228.31
418.432	241.51
418.893	272.41
419.353	247.71
419.814	194.31
420.274	173.21
420.734	173.01
421.195	199.41
421.655	194.51
422.115	186.81
422.576	179.11
423.036	190.91
423.496	195.21
423.956	207.31
424.416	225.51
424.876	250.91
425.336	249.71
425.797	252.51
426.257	245.51
426.717	236.11
427.177	227.31
427.637	218.21
428.097	228.51
428.556	240.31
429.016	263.81
429.476	249.71
429.936	262.11
430.396	263.51
430.856	280.61
431.315	300.01
431.775	335.41
432.235	363.21
432.694	337.31
433.154	350.81
433.614	369.01
434.073	320.01
434.533	274.61
434.993	259.71
435.452	270.11
435.912	283.81
436.371	280.61
436.83	268.21
437.29	259.61
437.749	239.91
438.209	231.91
438.668	256.51
439.127	274.81
439.587	250.41
440.046	237.61
440.505	244.51
440.964	262.21
441.424	314.01
441.883	299.91
442.342	254.01
442.801	210.01
443.26	211.61
443.719	207.41
444.178	202.81
444.637	197.91
445.096	204.21
445.555	215.61
446.014	208.41
446.473	212.71
446.932	219.41
447.391	217.11
447.849	216.21
448.308	210.41
448.767	218.01
449.226	224.01
449.685	225.51
450.143	232.81
450.602	232.61
451.061	214.71
451.519	222.41
451.978	229.11
452.436	224.91
452.895	231.11
453.353	243.31
453.812	233.31
454.27	226.71
454.729	225.41
455.187	229.11
455.646	239.51
456.104	236.41
456.562	249.01
457.021	254.11
457.479	248.01
457.937	258.41
458.395	249.81
458.854	240.61
459.312	242.71
459.77	260.81
460.228	245.11
460.686	227.91
461.144	239.51
461.602	232.01
462.06	234.81
462.518	246.21
462.976	246.01
463.434	252.41
463.892	251.31
464.35	272.41
464.808	278.91
465.266	254.61
465.724	254.61
466.181	268.21
466.639	258.91
467.097	277.21
467.555	284.31
468.012	289.51
468.47	296.51
468.928	320.91
469.385	331.41
469.843	337.91
470.3	332.41
470.758	349.71
471.215	361.81
471.673	382.51
472.13	388.31
472.588	384.71
473.045	345.11
473.503	361.91
473.96	378.81
474.417	382.91
474.875	416.01
475.332	453.81
475.789	440.21
476.246	449.91
476.704	468.21
477.161	489.51
477.618	492.71
478.075	537.81
478.532	581.51
478.989	668.11
479.446	760.51
479.903	732.91
480.36	778.31
480.817	825.81
481.274	925.71
481.731	1021.31
482.188	1107.41
482.645	1246.31
483.102	1340.01
483.558	1479.61
484.015	1527.11
484.472	1507.31
484.929	1459.21
485.385	1413.11
485.842	1373.51
486.299	1313.01
486.755	1241.21
487.212	1030.91
487.668	877.91
488.125	817.51
488.582	749.41
489.038	714.91
489.494	679.21
489.951	659.41
490.407	644.21
490.864	628.91
491.32	622.51
491.776	612.81
492.233	628.11
492.689	588.81
493.145	579.11
493.602	569.31
494.058	591.71
494.514	589.71
494.97	611.21
495.426	618.01
495.882	595.01
496.338	594.91
496.794	602.91
497.251	598.51
497.707	616.11
498.163	614.51
498.618	617.41
499.074	619.31
499.53	644.71
499.986	657.81
500.442	624.31
500.898	609.81
501.354	603.21
501.809	598.51
502.265	610.41
502.721	628.01
503.177	640.51
503.632	634.81
504.088	644.21
504.543	682.31
504.999	677.01
505.455	630.01
505.91	602.51
506.366	610.11
506.821	603.01
507.277	594.31
507.732	600.31
508.187	603.31
508.643	615.41
509.098	613.21
509.553	633.51
510.009	644.81
510.464	636.91
510.919	648.21
511.375	665.31
511.83	674.51
512.285	688.91
512.74	730.81
513.195	759.81
513.65	736.71
514.105	726.21
514.56	735.91
515.015	755.41
515.47	778.01
515.925	761.01
516.38	759.21
516.835	765.81
517.29	762.81
517.745	748.41
518.2	731.11
518.655	721.91
519.109	716.31
519.564	708.51
520.019	706.31
520.474	697.01
520.928	697.91
521.383	688.11
521.838	682.31
522.292	680.51
522.747	674.81
523.201	669.11
523.656	665.31
524.11	658.61
524.565	652.61
525.019	657.11
525.474	674.21
525.928	676.31
526.382	672.41
526.837	666.71
527.291	675.31
527.745	659.01
528.2	665.91
528.654	655.01
529.108	651.31
529.562	663.61
530.016	656.91
530.47	660.41
530.925	656.01
531.379	659.81
531.833	673.71
532.287	676.51
532.741	670.71
533.195	677.11
533.649	686.91
534.103	690.41
534.556	679.91
535.01	683.21
535.464	673.31
535.918	680.51
536.372	682.41
536.826	684.61
537.279	670.01
537.733	678.41
538.187	683.21
538.64	680.41
539.094	691.21
539.548	697.01
540.001	688.01
540.455	682.31
540.908	686.51
541.362	698.31
541.815	698.71
542.269	717.81
542.722	718.31
543.175	730.51
543.629	730.31
544.082	741.91
544.536	747.81
544.989	745.71
545.442	754.21
545.895	742.01
546.349	744.31
546.802	743.01
547.255	749.21
547.708	751.51
548.161	761.31
548.614	775.61
549.067	793.01
549.52	771.91
549.973	766.01
550.426	761.01
550.879	747.91
551.332	753.81
551.785	749.31
552.238	752.11
552.691	777.71
553.144	780.61
553.596	796.01
554.049	806.21
554.502	841.71
554.955	853.81
555.407	860.71
555.86	847.71
556.313	849.61
556.765	833.61
557.218	827.81
557.67	818.81
558.123	830.81
558.576	826.81
559.028	822.01
559.48	842.31
559.933	827.51
560.385	774.61
560.838	755.11
561.29	732.41
561.742	732.71
562.195	713.01
562.647	713.51
563.099	730.01
563.551	731.41
564.004	741.41
564.456	719.11
564.908	713.31
565.36	695.81
565.812	681.31
566.264	680.21
566.716	673.31
567.168	660.31
567.62	674.31
568.072	651.51
568.524	653.71
568.976	647.11
569.428	633.71
569.88	636.71
570.332	632.31
570.784	638.21
571.235	635.31
571.687	640.01
572.139	653.01
572.59	661.81
573.042	666.51
573.494	652.71
573.945	660.41
574.397	639.61
574.849	645.11
575.3	649.11
575.752	639.11
576.203	632.31
576.655	642.01
577.106	622.11
577.557	619.41
578.009	620.11
578.46	614.51
578.912	616.21
579.363	609.31
579.814	613.81
580.265	616.31
580.717	627.31
581.168	623.31
581.619	619.41
582.07	633.61
582.521	619.81
582.972	623.71
583.423	632.51
583.875	626.71
584.326	650.31
584.777	689.51
585.227	751.71
585.678	833.21
586.129	920.51
586.58	978.51
587.031	1054.71
587.482	1202.11
587.933	1362.41
588.384	1193.21
588.834	889.81
589.285	736.01
589.736	727.71
590.186	708.41
590.637	707.01
591.088	691.11
591.538	672.71
591.989	660.41
592.439	670.91
592.89	666.51
593.34	653.31
593.791	652.31
594.241	638.31
594.692	649.21
595.142	647.71
595.593	643.41
596.043	642.61
596.493	656.61
596.943	653.51
597.394	660.51
597.844	651.11
598.294	678.21
598.744	686.01
599.195	707.91
599.645	743.41
600.095	788.21
600.545	830.11
600.995	886.01
601.445	934.31
601.895	995.91
602.345	1044.91
602.795	1017.71
603.245	982.11
603.695	919.91
604.145	864.11
604.594	830.21
605.044	788.81
605.494	734.91
605.944	693.11
606.393	675.91
606.843	673.91
607.293	670.21
607.743	670.71
608.192	685.71
608.642	693.71
609.091	692.81
609.541	701.41
609.99	700.11
610.44	693.71
610.889	652.71
611.339	640.41
611.788	621.81
612.238	638.71
612.687	649.31
613.136	651.01
613.586	664.01
614.035	666.51
614.484	688.41
614.933	684.31
615.383	676.81
615.832	661.21
616.281	650.51
616.73	616.51
617.179	614.01
617.628	592.21
618.077	575.91
618.526	569.81
618.975	561.71
619.424	557.21
619.873	550.61
620.322	550.61
620.771	555.31
621.22	543.81
621.669	538.11
622.118	534.11
622.567	531.11
623.015	513.81
623.464	518.51
623.913	513.21
624.361	503.91
624.81	500.31
625.259	500.01
625.707	494.51
626.156	505.81
626.604	506.91
627.053	500.51
627.501	509.71
627.95	509.71
628.398	516.41
628.847	513.51
629.295	499.31
629.744	524.11
630.192	511.81
630.64	513.71
631.089	506.31
631.537	519.21
631.985	529.41
632.433	531.61
632.881	537.41
633.33	588.51
633.778	560.61
634.226	506.01
634.674	509.71
635.122	514.01
635.57	531.11
636.018	554.91
636.466	519.71
636.914	502.71
637.362	506.01
637.81	509.21
638.258	518.61
638.705	514.51
639.153	543.11
639.601	564.21
640.049	581.31
640.497	596.71
640.944	621.01
641.392	577.11
641.84	546.31
642.287	524.21
642.735	509.31
643.182	507.41
643.63	510.31
644.078	512.81
644.525	538.71
644.973	529.21
645.42	537.91
645.867	556.21
646.315	564.61
646.762	592.31
647.21	624.01
647.657	628.91
648.104	664.91
648.551	685.71
648.999	739.61
649.446	807.81
649.893	893.91
650.34	1006.91
650.787	1210.81
651.234	1502.71
651.682	1962.21
652.129	2662.11
652.576	3825.01
653.023	5667.11
653.47	7800.41
653.917	9871.41
654.363	11549.71
654.81	12933.21
655.257	12301.71
655.704	7971.11
656.151	4704.51
656.598	3043.71
657.044	2140.01
657.491	1655.71
657.938	1330.91
658.385	1101.41
658.831	970.01
659.278	857.51
659.724	769.71
660.171	699.81
660.618	644.51
661.064	605.21
661.511	590.51
661.957	578.91
662.404	559.71
662.85	576.41
663.296	543.41
663.743	496.61
664.189	483.41
664.635	475.91
665.082	467.01
665.528	462.61
665.974	456.21
666.42	447.91
666.867	448.81
667.313	432.21
667.759	423.81
668.205	421.71
668.651	427.81
669.097	434.01
669.543	446.91
669.989	408.31
670.435	396.61
670.881	388.01
671.327	394.81
671.773	415.01
672.219	437.41
672.665	482.31
673.11	519.41
673.556	554.91
674.002	593.21
674.448	587.61
674.893	484.01
675.339	423.81
675.785	387.91
676.23	374.01
676.676	341.11
677.122	336.31
677.567	328.81
678.013	321.21
678.458	316.81
678.904	313.41
679.349	297.81
679.794	309.31
680.24	303.91
680.685	311.61
681.131	300.81
681.576	304.21
682.021	306.21
682.466	314.31
682.912	297.81
683.357	307.31
683.802	329.01
684.247	356.51
684.692	402.71
685.137	432.31
685.583	472.51
686.028	498.61
686.473	454.61
686.918	395.11
687.363	364.11
687.807	343.71
688.252	318.01
688.697	321.21
689.142	296.71
689.587	288.91
690.032	275.91
690.477	295.61
690.921	296.11
691.366	331.91
691.811	338.91
692.255	383.01
692.7	398.91
693.145	436.71
693.589	588.11
694.034	952.41
694.478	1322.71
694.923	1536.31
695.367	2034.11
695.812	1060.41
696.256	441.91
696.701	324.11
697.145	299.71
697.59	288.01
698.034	281.71
698.478	287.51
698.922	287.51
699.367	289.31
699.811	290.21
700.255	303.21
700.699	335.51
701.143	367.41
701.588	414.01
702.032	450.31
702.476	457.11
702.92	427.11
703.364	434.31
703.808	552.81
704.252	876.91
704.696	1257.91
705.14	1479.11
705.584	1884.81
706.027	937.41
706.471	457.21
706.915	350.01
707.359	301.01
707.803	275.01
708.246	265.51
708.69	273.01
709.134	275.31
709.577	262.21
710.021	275.01
710.465	269.11
710.908	263.21
711.352	259.51
711.795	270.81
712.239	306.01
712.682	330.01
713.126	363.91
713.569	410.11
714.012	323.31
714.456	281.61
714.899	257.51
715.342	241.41
715.786	223.51
716.229	225.51
716.672	221.91
717.115	220.41
717.558	219.81
718.002	219.71
718.445	228.31
718.888	245.41
719.331	264.11
719.774	273.01
720.217	267.51
720.66	242.71
721.103	233.61
721.546	220.81
721.989	220.91
722.432	199.51
722.874	200.31
723.317	192.61
723.76	199.91
724.203	223.61
724.645	273.81
725.088	384.51
725.531	492.71
725.974	568.21
726.416	482.91
726.859	270.41
727.301	216.31
727.744	205.21
728.187	205.41
728.629	202.61
729.071	216.41
729.514	226.21
729.956	228.61
730.399	252.01
730.841	259.41
731.283	233.41
731.726	226.51
732.168	224.21
732.61	222.71
733.053	239.11
733.495	268.81
733.937	304.91
734.379	343.11
734.821	369.41
735.263	456.91
735.705	704.11
736.148	1321.91
736.59	2206.51
737.032	2724.21
737.474	2205.21
737.916	701.91
738.357	372.21
738.799	282.91
739.241	255.71
739.683	242.31
740.125	250.71
740.567	259.61
741.008	282.41
741.45	275.11
741.892	276.21
742.334	298.01
742.775	313.61
743.217	293.61
743.658	234.21
744.1	216.51
744.542	223.61
744.983	268.21
745.425	299.71
745.866	305.81
746.307	250.41
746.749	246.21
747.19	270.01
747.632	384.11
748.073	741.21
748.514	1566.71
748.956	2475.81
749.397	3079.11
749.838	2575.11
750.279	2640.81
750.72	1315.21
751.162	474.31
751.603	279.71
752.044	217.31
752.485	184.71
752.926	177.41
753.367	175.71
753.808	171.11
754.249	161.91
754.69	158.11
755.131	155.51
755.572	148.71
756.013	151.11
756.453	160.01
756.894	162.81
757.335	159.21
757.776	170.21
758.216	169.01
758.657	167.91
759.098	173.01
759.538	193.81
759.979	229.41
760.42	313.01
760.86	590.11
761.301	1522.41
761.741	3778.01
762.182	5759.31
762.622	4057.91
763.063	1140.51
763.503	467.01
763.943	294.31
764.384	293.81
764.824	342.31
765.264	376.21
765.705	253.31
766.145	178.51
766.585	159.41
767.025	148.81
767.465	160.11
767.906	198.41
768.346	275.61
768.786	288.71
769.226	219.31
769.666	267.31
770.106	517.11
770.546	1285.41
770.986	2312.91
771.426	2119.61
771.866	691.71
772.306	285.91
772.745	187.11
773.185	149.21
773.625	148.61
774.065	140.71
774.505	171.21
774.944	255.21
775.384	557.01
775.824	1034.01
776.263	1031.21
776.703	436.11
777.142	187.51
777.582	133.21
778.021	120.21
778.461	116.61
778.9	118.21
779.34	114.91
779.779	103.11
780.219	98.41
780.658	82.81
781.097	93.81
781.537	106.81
781.976	92.81
782.415	94.41
782.855	81.71
783.294	90.11
783.733	91.11
784.172	95.91
784.611	87.81
785.05	97.01
785.489	94.31
785.928	105.91
786.367	110.31
786.806	101.91
787.245	103.31
787.684	117.21
788.123	129.81
788.562	114.91
789.001	114.61
789.44	104.31
789.879	106.31
790.317	96.71
790.756	105.51
791.195	110.81
791.634	127.61
792.072	168.61
792.511	303.11
792.95	826.91
793.388	1873.01
793.827	1727.21
794.265	595.91
794.704	242.41
795.142	156.91
795.581	129.21
796.019	118.41
796.458	107.51
796.896	107.11
797.334	113.31
797.773	132.31
798.211	186.11
798.649	364.11
799.087	862.81
799.526	1382.71
799.964	1734.11
800.402	1803.51
800.84	669.01
801.278	249.21
801.716	160.41
802.154	131.01
802.592	125.01
803.03	115.81
803.468	106.31
803.906	122.41
804.344	132.01
804.782	119.61
805.22	112.91
805.658	103.21
806.096	122.91
806.533	130.01
806.971	151.81
807.409	184.21
807.847	269.91
808.284	543.61
808.722	1569.01
809.16	2873.21
809.597	2662.51
810.035	4706.71
810.472	5219.01
810.91	1852.51
811.347	695.11
811.785	346.31
812.222	224.11
812.66	171.01
813.097	143.51
813.535	120.51
813.972	111.31
814.409	103.21
814.846	102.91
815.284	99.01
815.721	84.51
816.158	89.71
816.595	95.21
817.032	156.21
817.47	176.21
817.907	139.31
818.344	125.01
818.781	94.21
819.218	83.61
819.655	110.41
820.092	160.01
820.529	183.21
820.966	152.41
821.403	110.81
821.839	90.31
822.276	84.61
822.713	99.61
823.15	122.41
823.587	105.51
824.023	123.31
824.46	248.01
824.897	767.51
825.333	1210.71
825.77	514.81
826.206	193.71
826.643	115.01
827.08	86.31
827.516	71.01
827.953	69.41
828.389	72.81
828.825	58.21
829.262	58.91
829.698	51.21
830.135	55.71
830.571	48.61
831.007	54.01
831.443	55.21
831.88	50.31
832.316	54.21
832.752	47.91
833.188	52.41
833.624	54.01
834.06	62.61
834.497	60.21
834.933	56.71
835.369	66.51
835.805	58.81
836.241	65.71
836.677	64.71
837.112	64.91
837.548	92.81
837.984	111.11
838.42	168.01
838.856	418.61
839.292	1285.31
839.727	2052.21
840.163	954.41
840.599	787.91
841.034	1769.61
841.47	1904.81
841.906	684.41
842.341	290.11
842.777	198.31
843.212	272.51
843.648	267.41
844.083	131.61
844.519	84.91
844.954	64.51
845.39	50.91
845.825	50.01
846.261	47.91
846.696	49.81
847.131	40.91
847.566	48.41
848.002	43.71
848.437	48.61
848.872	48.51
849.307	53.51
849.742	71.71
850.177	157.21
850.613	472.31
851.048	777.51
851.483	336.61
851.918	132.51
852.353	75.31
852.788	46.71
853.223	45.61
853.657	48.01
854.092	40.61
854.527	37.51
854.962	36.71
855.397	37.01
855.832	42.51
856.266	35.31
856.701	32.61
857.136	26.21
857.57	34.11
858.005	39.41
858.44	52.11
858.874	42.01
859.309	43.71
859.743	32.81
860.178	41.21
860.612	35.51
861.047	40.61
861.481	58.41
861.915	61.41
862.35	42.11
862.784	26.01
863.218	26.81
863.653	28.11
864.087	44.61
864.521	45.71
864.955	53.41
865.39	135.81
865.824	149.81
866.258	101.11
866.692	148.61
867.126	160.91
867.56	94.01
867.994	43.41
868.428	35.61
868.862	44.71
869.296	51.61
869.73	50.51
870.164	45.81
870.598	40.31
871.031	35.41
871.465	26.91
871.899	25.01
872.333	24.51
872.766	16.01
873.2	19.11
873.634	26.71
874.067	25.81
874.501	27.11
874.935	27.91
875.368	27.81
875.802	15.71
876.235	22.41
876.669	24.51
877.102	22.51
877.535	17.31
877.969	24.31
878.402	19.61
878.836	13.81
879.269	18.51
879.702	24.11
880.135	17.91
880.569	20.91
881.002	32.31
881.435	15.51
881.868	10.91
882.301	19.41
882.734	11.11
883.167	21.71
883.601	12.51
884.034	17.91
884.467	10.61
884.899	17.51
885.332	12.61
885.765	11.81
886.198	12.71
886.631	15.71
887.064	15.91
887.497	13.81
887.929	20.81
888.362	7.61
888.795	15.41
889.228	16.11
889.66	20.61
890.093	12.41
890.526	9.01
890.958	15.31
891.391	20.81
891.823	19.31
892.256	15.01
892.688	12.71
893.121	16.81
893.553	15.91
893.985	16.01
894.418	20.11
894.85	9.41
895.282	7.71
895.715	15.51
896.147	11.41
896.579	14.31
897.011	10.01
897.444	20.61
897.876	11.11
898.308	17.41
898.74	17.61
899.172	7.81
899.604	20.21
900.036	13.71
900.468	14.61
900.9	10.11
901.332	16.21
901.764	9.11
902.196	15.21
902.628	19.21
903.06	7.51
903.491	26.41
903.923	19.71
904.355	22.01
904.787	20.41
905.218	18.11
905.65	15.71
906.082	16.91
906.513	12.11
906.945	13.51
907.376	15.51
907.808	18.81
908.239	15.51
908.671	8.01
909.102	22.61
909.534	17.61
909.965	40.81
910.397	78.61
910.828	268.91
911.259	425.41
911.691	189.61
912.122	98.01
912.553	45.31
912.984	29.11
913.415	25.11
913.847	15.71
914.278	13.61
914.709	12.51
915.14	15.51
915.571	17.21
916.002	10.61
916.433	17.81
916.864	13.81
917.295	8.91
917.726	15.51
918.157	14.91
918.587	27.81
919.018	18.81
919.449	22.41
919.88	23.91
920.311	34.01
920.741	49.81
921.172	144.71
921.603	130.01
922.033	64.21
922.464	39.81
922.895	20.11
923.325	13.01
923.756	15.11
924.186	6.01
924.617	22.41
925.047	35.11
925.478	45.01
925.908	34.91
926.338	18.61
926.769	16.41
927.199	17.61
927.629	14.01
928.06	17.11
928.49	13.91
928.92	8.21
929.35	3.91
929.78	10.21
930.21	7.21
930.641	6.91
931.071	10.41
931.501	-0.89
931.931	2.81
932.361	8.41
932.791	0.41
933.221	5.31
933.651	-1.29
934.08	17.01
934.51	22.71
934.94	9.01
935.37	4.31
935.8	9.11
936.229	7.61
936.659	9.31
937.089	-3.99
937.519	13.91
937.948	21.71
938.378	12.71
938.807	6.21
939.237	3.71
939.666	6.11
940.096	-5.49
940.525	1.41
940.955	-0.99
941.384	0.61
941.814	0.11
942.243	-3.89
942.672	-0.39
943.102	-5.59
943.531	-4.19
943.96	6.01
944.39	2.51
944.819	-0.79
945.248	-1.19
945.677	4.41
946.106	6.51
946.535	-0.99
946.964	5.61
947.393	3.61
947.822	2.41
948.251	-2.79
948.68	2.11
949.109	3.21
949.538	10.51
949.967	2.61
950.396	3.01
950.825	-5.69
951.254	-1.89
951.682	-6.09
952.111	-1.19
952.54	6.71
952.969	-6.29
953.397	-4.29
953.826	-0.09
954.254	-3.59
954.683	1.41
955.112	0.41
955.54	7.21
955.969	-3.89
956.397	-3.79
956.826	-1.89
957.254	5.01
957.682	-0.99
958.111	5.81
958.539	-0.39
958.967	-1.69
959.396	-4.69
959.824	-5.39
960.252	4.21
960.68	-9.29
961.109	-3.69
961.537	-4.09
961.965	-1.59
962.393	-4.49
962.821	-8.19
963.249	3.81
963.677	6.61
964.105	3.41
964.533	34.51
964.961	46.51
965.389	17.31
965.817	11.71
966.245	4.01
966.672	1.91
967.1	-8.89
967.528	1.01
967.956	-4.29
968.383	1.31
968.811	0.31
969.239	-4.99
969.666	-3.39
970.094	-0.69
970.522	3.21
970.949	-0.79
971.377	-6.99
971.804	1.51
972.232	-4.79
972.659	-9.59
973.087	-6.09
973.514	-3.29
973.941	-1.69
974.369	6.91
974.796	0.21
975.223	1.21
975.651	1.91
976.078	2.21
976.505	-2.39
976.932	2.41
977.359	7.41
977.786	10.11
978.214	1.61
978.641	-2.19
979.068	-2.79
979.495	-3.29
979.922	-2.69
980.349	1.21
980.776	0.41
981.202	1.21
981.629	4.91
982.056	7.61
982.483	1.31
982.91	4.61
983.337	-1.09
983.763	-0.49
984.19	-3.69
984.617	-10.39
985.043	-6.69
985.47	-0.09
985.897	-5.59
986.323	-11.49
986.75	4.31
987.176	-0.49
987.603	-3.49
988.029	-0.99
988.456	-4.69
988.882	0.71
989.308	-7.29
989.735	-2.19
990.161	-0.89
990.587	-10.49
991.014	-1.69
991.44	0.51
991.866	-1.89
992.292	-7.69
992.719	0.81
993.145	5.51
993.571	-1.29
993.997	-3.29
994.423	4.21
994.849	-1.49
995.275	-0.79
995.701	3.91
996.127	-1.89
996.553	3.51
996.979	0.51
997.405	0.21
997.83	-0.19
998.256	-5.89
998.682	-5.09
999.108	-6.99
999.534	-1.19
999.959	-6.99
1000.385	-0.89
1000.811	3.01
1001.236	-6.59
1001.662	-6.49
1002.087	-6.79
1002.513	2.41
1002.938	4.71
1003.364	2.21
1003.789	-3.29
1004.215	6.01
1004.64	-1.39
1005.066	-1.59
1005.491	-0.79
1005.916	-3.99
1006.342	-0.79
1006.767	-3.89
1007.192	7.71
1007.617	-6.69
1008.042	-4.69
1008.468	-8.09
1008.893	-5.79
1009.318	-3.09
1009.743	-4.09
1010.168	2.11
1010.593	-1.99
1011.018	-5.39
1011.443	-8.19
1011.868	1.31
1012.293	-7.79
1012.718	-5.29
1013.143	4.51
1013.567	2.81
1013.992	-8.49
1014.417	-13.79
1014.842	1.31
1015.267	-4.99
1015.691	0.91
1016.116	2.81
1016.541	-3.99
1016.965	5.41
1017.39	0.21
1017.814	5.71
1018.239	3.31
1018.663	-10.29
1019.088	-14.39
1019.512	-0.59
1019.937	-1.59
1020.361	-3.59
1020.785	-10.09
1021.21	-2.49
1021.634	2.01
1022.058	2.91
1022.483	3.81
1022.907	-5.29
1023.331	1.91
1023.755	-0.29
1024.179	3.31
1024.604	-6.89
1025.028	-8.19
1025.452	-8.29
1025.876	-3.19
1026.3	1.71
1026.724	-11.99
1027.148	-4.09
1027.572	-11.69
1027.996	-4.79
1028.42	-0.49
1028.843	3.31
1029.267	-4.89
1029.691	-2.49
1030.115	-7.59
1030.539	-6.69
1030.962	-8.49
1031.386	-4.89
1031.81	-2.99
1032.233	-0.69
1032.657	3.51
1033.08	-5.09
1033.504	-0.09
1033.927	-5.89
1034.351	-7.39
1034.774	-3.19
1035.198	-3.09
1035.621	-5.69
1036.045	-2.59
1036.468	-0.89
1036.891	-7.79
1037.315	-11.99
1037.738	-6.39
1038.161	-3.39
1038.584	-7.09
1039.008	-6.79
1039.431	0.21
1039.854	-4.19
1040.277	-1.99
1040.7	-10.89
1041.123	3.61
1041.546	-0.49
1041.969	-3.29
1042.392	-3.79
1042.815	-0.89
1043.238	2.41
1043.661	6.11
1044.084	-8.69
1044.507	-5.79
1044.93	-3.29
1045.352	-2.89
1045.775	-0.69
1046.198	-2.39
1046.621	-5.99
1047.043	0.61
1047.466	2.51
1047.889	0.21
1048.311	-5.49
1048.734	-2.79
1049.156	2.71
1049.579	-3.59
1050.001	0.21
1050.424	1.91
1050.846	-0.59
1051.269	-4.29
1051.691	-3.29
1052.113	-3.49
1052.536	-4.49
1052.958	1.51
1053.38	-1.39
1053.802	-7.19
1054.225	3.41
1054.647	-7.29
1055.069	-10.89
1055.491	2.61
1055.913	-7.19
1056.335	-2.79
1056.757	-1.79
1057.179	-5.89
1057.601	-0.69
1058.023	0.11
1058.445	-2.29
1058.867	-5.99
1059.289	-4.19
1059.711	-6.59
1060.133	-6.09
1060.555	-6.19
1060.976	-3.89
1061.398	-0.39
1061.82	-5.09
1062.241	-3.49
1062.663	-5.59
1063.085	-5.59
1063.506	0.51
1063.928	-6.09
1064.35	-3.49
1064.771	-10.19
1065.193	-4.59
1065.614	-9.79
1066.035	-4.09
1066.457	-3.69
1066.878	5.71
1067.3	-6.39
1067.721	-5.49
1068.142	-2.99
1068.564	-5.09
1068.985	-4.49
1069.406	-1.29
1069.827	-7.69
1070.248	-0.49
1070.67	-3.69
1071.091	-3.39
1071.512	-3.79
1071.933	-3.59
1072.354	-6.19
1072.775	-3.79
1073.196	-3.49
1073.617	-5.79
1074.038	-10.19
1074.459	-2.19
1074.88	-13.09
1075.3	0.11
1075.721	-7.29
1076.142	-0.59
1076.563	-5.19
1076.983	-7.39
1077.404	-3.69
1077.825	-10.39
1078.246	-5.19
1078.666	-11.09
1079.087	-5.79
1079.507	-9.59
1079.928	-0.59
1080.348	-7.09
1080.769	-2.09
1081.189	-2.79
1081.61	-4.59
1082.03	-10.59
1082.451	-15.99
1082.871	-7.39
1083.291	-10.89
1083.711	-8.99
1084.132	-7.29
1084.552	-4.69
1084.972	-2.69
1085.392	-12.19
1085.813	-4.09
1086.233	-9.99
1086.653	-9.09
1087.073	-2.99
1087.493	-3.19
1087.913	-5.49
1088.333	-9.29
1088.753	0.81
1089.173	4.91
1089.593	0.61
1090.013	2.81
1090.433	1.01
1090.852	-11.59
1091.272	-1.29
1091.692	-2.79
1092.112	-6.89
1092.531	-3.79
1092.951	-13.19
1093.371	-1.69
1093.79	-2.49
1094.21	-3.59
1094.63	-3.89
1095.049	-0.99
1095.469	2.91
1095.888	-1.69
1096.308	-5.19
1096.727	11.41
1097.146	-9.29
1097.566	0.91
1097.985	-0.39
1098.405	-3.19
1098.824	-1.79
1099.243	-7.69
1099.662	-10.79
1100.082	-5.89
1100.501	-6.79
1100.92	-12.39
1101.339	-2.19
1101.758	-4.09
