Data from 20171114-ORNL-Ar_H_NY_Subt18_08-09-28-055.txt Node
Date: Tue Nov 14 08:09:28 EST 2017
User: Ender
Spectrometer: HR+D1039
Trigger mode: 0
Integration Time (sec): 2.730000E-2
Scans to average: 10
Electric dark correction enabled: true
Nonlinearity correction enabled: false
Boxcar width: 0
XAxis mode: Wavelengths
Number of Pixels in Spectrum: 2048
>>>>>Begin Spectral Data<<<<<
187.836	-6.97
188.309	-6.97
188.782	-6.97
189.255	0.93
189.728	-4.07
190.201	4.03
190.674	3.43
191.147	2.63
191.619	-12.07
192.092	0.13
192.565	3.53
193.038	-3.37
193.511	2.93
193.984	-0.17
194.456	-0.87
194.929	4.73
195.402	3.03
195.874	2.13
196.347	2.63
196.82	-0.27
197.292	9.13
197.765	-1.27
198.237	-1.37
198.71	1.83
199.182	-3.07
199.655	1.43
200.127	3.93
200.6	-2.97
201.072	-1.17
201.544	-5.37
202.017	2.53
202.489	8.53
202.961	-0.87
203.433	-3.77
203.906	-2.67
204.378	-8.77
204.85	-0.97
205.322	-5.87
205.794	-4.07
206.266	-5.87
206.739	-11.87
207.211	2.13
207.683	-7.47
208.155	-6.37
208.627	-8.57
209.099	-3.57
209.57	-7.77
210.042	-5.57
210.514	-5.47
210.986	-5.27
211.458	-1.97
211.93	-6.77
212.402	2.13
212.873	-12.57
213.345	-12.47
213.817	-6.67
214.288	-3.47
214.76	-12.67
215.232	-5.67
215.703	-3.97
216.175	-6.17
216.646	1.83
217.118	-6.37
217.589	1.53
218.061	-3.37
218.532	-6.87
219.004	-8.37
219.475	-1.47
219.946	-5.37
220.418	-6.37
220.889	5.93
221.36	-5.57
221.832	-4.97
222.303	-6.57
222.774	3.13
223.245	-9.27
223.717	-10.37
224.188	-0.77
224.659	-11.07
225.13	-5.47
225.601	-8.27
226.072	0.53
226.543	-3.87
227.014	-3.47
227.485	-2.67
227.956	-2.57
228.427	-4.87
228.898	5.33
229.369	5.63
229.839	-7.67
230.31	-7.47
230.781	7.23
231.252	0.13
231.722	-8.67
232.193	-5.87
232.664	5.43
233.135	-5.27
233.605	-2.97
234.076	-6.87
234.546	-2.97
235.017	5.53
235.487	-3.97
235.958	-2.77
236.428	-2.77
236.899	-6.07
237.369	-0.37
237.84	-5.37
238.31	-3.77
238.78	-0.17
239.251	-7.97
239.721	-1.87
240.191	-3.67
240.662	-6.87
241.132	-2.57
241.602	-4.17
242.072	-5.37
242.542	-2.17
243.013	-5.47
243.483	2.53
243.953	-2.57
244.423	-4.27
244.893	-2.87
245.363	0.43
245.833	-2.67
246.303	-4.57
246.773	-0.57
247.243	-2.27
247.712	-7.17
248.182	2.83
248.652	-0.97
249.122	-13.07
249.592	-2.37
250.061	0.33
250.531	7.93
251.001	-4.17
251.471	0.23
251.94	8.03
252.41	-6.17
252.879	-7.97
253.349	1.73
253.818	3.33
254.288	-5.47
254.757	-2.37
255.227	-7.07
255.696	-2.17
256.166	0.33
256.635	0.03
257.105	-5.17
257.574	-2.37
258.043	3.13
258.513	-3.37
258.982	-0.57
259.451	-0.97
259.92	4.43
260.389	-3.47
260.859	11.93
261.328	0.93
261.797	4.63
262.266	1.03
262.735	3.43
263.204	2.03
263.673	3.13
264.142	2.93
264.611	-8.67
265.08	-5.17
265.549	-7.77
266.018	-0.57
266.487	-5.27
266.955	-7.07
267.424	-3.07
267.893	2.43
268.362	-2.17
268.83	-3.87
269.299	6.43
269.768	-1.87
270.236	1.73
270.705	-2.17
271.174	1.13
271.642	1.23
272.111	-2.47
272.579	7.93
273.048	2.83
273.516	0.23
273.985	0.83
274.453	4.53
274.922	7.63
275.39	1.63
275.858	-5.77
276.327	7.33
276.795	7.53
277.263	-1.37
277.731	11.93
278.2	7.53
278.668	3.63
279.136	11.43
279.604	1.13
280.072	1.03
280.54	-1.67
281.008	-0.17
281.477	-1.47
281.945	4.93
282.413	1.43
282.881	1.73
283.348	3.63
283.816	8.53
284.284	9.43
284.752	3.63
285.22	8.43
285.688	11.33
286.156	10.93
286.623	17.63
287.091	7.33
287.559	8.13
288.026	4.53
288.494	12.53
288.962	-2.27
289.429	0.23
289.897	10.23
290.364	10.23
290.832	5.13
291.3	5.03
291.767	5.83
292.234	13.23
292.702	2.43
293.169	8.03
293.637	16.13
294.104	11.93
294.571	-2.77
295.039	2.93
295.506	3.53
295.973	8.03
296.44	3.73
296.908	7.13
297.375	7.93
297.842	11.33
298.309	4.93
298.776	2.73
299.243	10.73
299.71	9.83
300.177	7.13
300.644	12.43
301.111	13.03
301.578	8.83
302.045	12.03
302.512	12.23
302.979	14.53
303.446	10.73
303.913	9.63
304.379	8.33
304.846	19.73
305.313	17.83
305.78	17.33
306.246	16.23
306.713	17.33
307.18	13.73
307.646	11.83
308.113	13.93
308.579	20.13
309.046	12.33
309.512	25.53
309.979	10.13
310.445	19.33
310.912	15.73
311.378	20.83
311.845	19.83
312.311	21.03
312.777	21.63
313.244	16.03
313.71	28.53
314.176	21.83
314.642	22.13
315.109	20.43
315.575	20.53
316.041	23.53
316.507	15.13
316.973	22.73
317.439	29.63
317.905	26.03
318.371	18.93
318.837	17.23
319.303	20.93
319.769	24.03
320.235	16.93
320.701	22.43
321.167	21.43
321.633	19.63
322.099	26.73
322.564	25.43
323.03	31.83
323.496	27.13
323.962	26.63
324.427	26.13
324.893	33.03
325.359	28.73
325.824	28.23
326.29	27.83
326.755	25.03
327.221	31.83
327.686	25.03
328.152	33.33
328.617	23.63
329.083	32.13
329.548	33.53
330.014	37.13
330.479	31.83
330.944	31.93
331.41	27.63
331.875	26.73
332.34	31.83
332.805	27.53
333.271	33.23
333.736	22.33
334.201	32.03
334.666	37.13
335.131	36.93
335.596	36.43
336.061	35.53
336.526	25.33
336.991	32.53
337.456	42.83
337.921	36.43
338.386	32.73
338.851	38.33
339.316	34.53
339.781	34.73
340.246	42.03
340.711	34.53
341.175	36.03
341.64	33.73
342.105	40.23
342.569	46.23
343.034	47.03
343.499	39.33
343.963	37.43
344.428	44.53
344.893	47.23
345.357	50.33
345.822	44.13
346.286	46.93
346.751	53.03
347.215	47.63
347.679	50.63
348.144	64.93
348.608	56.03
349.073	50.73
349.537	57.43
350.001	57.03
350.465	67.53
350.93	61.73
351.394	66.83
351.858	53.83
352.322	64.13
352.786	65.53
353.25	76.03
353.715	81.83
354.179	77.03
354.643	82.93
355.107	87.33
355.571	81.03
356.035	74.13
356.498	80.43
356.962	84.13
357.426	98.73
357.89	86.53
358.354	69.23
358.818	65.63
359.281	57.13
359.745	55.23
360.209	55.53
360.673	61.13
361.136	60.73
361.6	67.43
362.064	66.73
362.527	67.93
362.991	76.53
363.454	64.33
363.918	61.13
364.381	63.73
364.845	64.43
365.308	63.83
365.772	70.93
366.235	61.13
366.698	68.13
367.162	71.63
367.625	70.13
368.088	72.63
368.552	72.73
369.015	70.23
369.478	73.93
369.941	82.93
370.404	76.83
370.867	74.43
371.331	79.93
371.794	89.83
372.257	81.33
372.72	86.43
373.183	79.03
373.646	71.73
374.109	79.83
374.572	82.73
375.035	85.33
375.497	84.73
375.96	83.43
376.423	85.33
376.886	88.23
377.349	84.73
377.811	83.33
378.274	85.03
378.737	81.23
379.199	90.13
379.662	95.53
380.125	93.43
380.587	90.03
381.05	95.43
381.512	95.23
381.975	101.73
382.437	95.23
382.9	92.03
383.362	106.73
383.825	113.73
384.287	106.93
384.75	98.53
385.212	109.43
385.674	109.73
386.136	112.53
386.599	100.73
387.061	99.83
387.523	104.73
387.985	109.33
388.447	117.13
388.91	107.43
389.372	117.63
389.834	112.13
390.296	111.93
390.758	116.43
391.22	121.53
391.682	125.93
392.144	137.33
392.606	130.93
393.068	122.83
393.529	133.83
393.991	119.83
394.453	113.83
394.915	117.53
395.377	119.03
395.838	123.73
396.3	117.13
396.762	123.13
397.224	127.03
397.685	117.73
398.147	108.63
398.608	118.03
399.07	115.83
399.531	118.53
399.993	127.73
400.454	137.23
400.916	131.23
401.377	131.13
401.839	135.93
402.3	130.03
402.762	145.23
403.223	157.23
403.684	148.63
404.145	151.73
404.607	147.93
405.068	148.83
405.529	155.43
405.99	163.13
406.451	150.53
406.913	157.23
407.374	149.13
407.835	144.53
408.296	154.43
408.757	157.63
409.218	169.43
409.679	161.83
410.14	161.83
410.601	161.73
411.062	166.73
411.522	162.63
411.983	156.43
412.444	163.23
412.905	167.83
413.366	171.83
413.826	188.63
414.287	207.63
414.748	248.23
415.208	224.23
415.669	200.23
416.13	193.33
416.59	190.83
417.051	207.63
417.511	206.93
417.972	218.93
418.432	231.73
418.893	274.13
419.353	241.03
419.814	181.93
420.274	167.63
420.734	170.23
421.195	187.93
421.655	180.93
422.115	188.93
422.576	182.93
423.036	192.63
423.496	198.93
423.956	205.43
424.416	218.73
424.876	241.83
425.336	235.13
425.797	248.03
426.257	241.63
426.717	229.43
427.177	215.93
427.637	212.03
428.097	216.63
428.556	228.03
429.016	250.53
429.476	240.33
429.936	244.13
430.396	255.73
430.856	268.43
431.315	290.63
431.775	319.33
432.235	343.23
432.694	320.33
433.154	326.23
433.614	354.63
434.073	306.13
434.533	258.63
434.993	243.33
435.452	258.93
435.912	265.03
436.371	258.53
436.83	251.43
437.29	242.43
437.749	233.43
438.209	231.33
438.668	249.53
439.127	263.33
439.587	246.73
440.046	235.63
440.505	243.73
440.964	259.73
441.424	291.83
441.883	286.23
442.342	240.23
442.801	214.13
443.26	209.53
443.719	219.33
444.178	213.73
444.637	207.63
445.096	213.03
445.555	219.23
446.014	217.63
446.473	223.03
446.932	231.23
447.391	220.43
447.849	215.73
448.308	212.83
448.767	216.83
449.226	232.43
449.685	231.73
450.143	250.63
450.602	234.03
451.061	219.23
451.519	223.93
451.978	224.33
452.436	234.63
452.895	235.53
453.353	241.73
453.812	236.93
454.27	233.23
454.729	234.13
455.187	238.33
455.646	242.33
456.104	237.03
456.562	259.23
457.021	258.13
457.479	244.93
457.937	265.03
458.395	258.23
458.854	242.33
459.312	253.83
459.77	260.13
460.228	250.83
460.686	239.33
461.144	249.63
461.602	240.73
462.06	243.93
462.518	254.53
462.976	260.23
463.434	250.93
463.892	252.83
464.35	260.63
464.808	279.13
465.266	261.53
465.724	258.73
466.181	270.03
466.639	268.03
467.097	284.43
467.555	294.23
468.012	297.63
468.47	298.83
468.928	319.23
469.385	336.73
469.843	337.93
470.3	335.73
470.758	352.43
471.215	370.93
471.673	389.13
472.13	390.53
472.588	407.43
473.045	372.43
473.503	369.33
473.96	385.43
474.417	393.83
474.875	420.73
475.332	451.13
475.789	446.83
476.246	462.03
476.704	467.73
477.161	492.13
477.618	504.53
478.075	532.43
478.532	582.23
478.989	644.23
479.446	750.33
479.903	741.43
480.36	757.73
480.817	796.23
481.274	878.13
481.731	968.43
482.188	1041.63
482.645	1159.43
483.102	1251.53
483.558	1351.93
484.015	1402.03
484.472	1379.33
484.929	1328.13
485.385	1288.73
485.842	1267.33
486.299	1218.43
486.755	1188.33
487.212	1014.43
487.668	859.43
488.125	797.33
488.582	731.53
489.038	711.13
489.494	675.03
489.951	651.93
490.407	640.13
490.864	614.93
491.32	618.03
491.776	624.03
492.233	629.33
492.689	591.93
493.145	589.83
493.602	583.13
494.058	596.33
494.514	585.93
494.97	614.43
495.426	630.53
495.882	607.83
496.338	591.43
496.794	611.73
497.251	591.13
497.707	614.33
498.163	608.63
498.618	618.43
499.074	627.33
499.53	649.83
499.986	650.53
500.442	623.13
500.898	611.93
501.354	607.13
501.809	603.33
502.265	606.73
502.721	619.73
503.177	630.13
503.632	630.33
504.088	630.73
504.543	651.33
504.999	680.93
505.455	644.93
505.91	616.63
506.366	627.63
506.821	620.83
507.277	615.73
507.732	616.83
508.187	628.93
508.643	627.43
509.098	629.63
509.553	642.73
510.009	658.63
510.464	652.93
510.919	682.83
511.375	684.03
511.83	694.53
512.285	706.93
512.74	739.13
513.195	770.13
513.65	754.83
514.105	745.93
514.56	750.83
515.015	773.43
515.47	778.43
515.925	761.33
516.38	774.33
516.835	779.43
517.29	771.23
517.745	768.13
518.2	761.03
518.655	744.13
519.109	734.23
519.564	734.83
520.019	721.03
520.474	714.53
520.928	714.23
521.383	700.53
521.838	704.63
522.292	708.53
522.747	705.03
523.201	696.83
523.656	699.33
524.11	687.13
524.565	678.63
525.019	684.13
525.474	691.73
525.928	692.23
526.382	696.23
526.837	689.13
527.291	690.23
527.745	679.43
528.2	679.03
528.654	684.93
529.108	692.03
529.562	674.83
530.016	677.53
530.47	683.13
530.925	682.83
531.379	686.83
531.833	682.23
532.287	691.53
532.741	682.03
533.195	694.83
533.649	700.03
534.103	708.13
534.556	694.93
535.01	698.73
535.464	687.83
535.918	713.33
536.372	704.43
536.826	716.43
537.279	699.33
537.733	706.33
538.187	705.63
538.64	708.13
539.094	713.73
539.548	719.43
540.001	720.23
540.455	714.93
540.908	719.83
541.362	730.93
541.815	739.53
542.269	754.73
542.722	752.93
543.175	757.43
543.629	763.63
544.082	784.13
544.536	781.93
544.989	778.43
545.442	796.43
545.895	786.53
546.349	786.63
546.802	793.53
547.255	799.73
547.708	808.13
548.161	803.73
548.614	818.13
549.067	822.53
549.52	819.53
549.973	799.43
550.426	805.03
550.879	783.33
551.332	791.63
551.785	806.73
552.238	809.93
552.691	815.93
553.144	833.13
553.596	849.23
554.049	857.73
554.502	884.83
554.955	914.83
555.407	896.23
555.86	893.33
556.313	898.53
556.765	877.33
557.218	870.73
557.67	876.13
558.123	872.63
558.576	869.13
559.028	866.63
559.48	890.23
559.933	874.13
560.385	844.93
560.838	804.93
561.29	781.63
561.742	786.03
562.195	761.73
562.647	764.03
563.099	768.53
563.551	773.63
564.004	791.73
564.456	769.53
564.908	751.83
565.36	752.93
565.812	735.13
566.264	721.53
566.716	717.93
567.168	711.33
567.62	703.23
568.072	687.93
568.524	688.23
568.976	690.13
569.428	680.43
569.88	679.23
570.332	690.63
570.784	688.63
571.235	682.63
571.687	699.73
572.139	698.93
572.59	713.03
573.042	713.93
573.494	711.23
573.945	708.23
574.397	690.03
574.849	686.93
575.3	688.93
575.752	682.03
576.203	677.93
576.655	689.93
577.106	675.53
577.557	664.03
578.009	681.13
578.46	673.43
578.912	653.13
579.363	668.53
579.814	674.63
580.265	662.33
580.717	675.43
581.168	663.23
581.619	682.53
582.07	686.63
582.521	685.73
582.972	668.23
583.423	674.73
583.875	672.93
584.326	686.43
584.777	701.53
585.227	725.83
585.678	736.23
586.129	756.53
586.58	784.73
587.031	803.43
587.482	841.73
587.933	870.83
588.384	849.63
588.834	790.53
589.285	771.43
589.736	779.63
590.186	778.73
590.637	767.83
591.088	740.03
591.538	745.03
591.989	729.03
592.439	736.83
592.89	719.83
593.34	708.43
593.791	708.43
594.241	697.63
594.692	704.73
595.142	703.63
595.593	696.53
596.043	696.03
596.493	710.03
596.943	700.13
597.394	723.53
597.844	718.93
598.294	737.43
598.744	757.83
599.195	792.23
599.645	830.83
600.095	873.93
600.545	923.53
600.995	976.33
601.445	1031.43
601.895	1103.13
602.345	1128.73
602.795	1117.93
603.245	1075.23
603.695	1015.43
604.145	967.73
604.594	918.93
605.044	862.83
605.494	808.93
605.944	765.13
606.393	750.13
606.843	737.33
607.293	739.33
607.743	732.53
608.192	747.03
608.642	761.63
609.091	758.53
609.541	763.93
609.99	763.13
610.44	765.53
610.889	717.33
611.339	694.53
611.788	682.23
612.238	688.23
612.687	708.23
613.136	700.73
613.586	714.73
614.035	703.13
614.484	710.03
614.933	708.23
615.383	712.23
615.832	720.13
616.281	686.93
616.73	675.23
617.179	654.63
617.628	656.63
618.077	632.73
618.526	623.93
618.975	627.43
619.424	624.93
619.873	620.53
620.322	616.83
620.771	608.33
621.22	604.73
621.669	592.23
622.118	583.63
622.567	581.13
623.015	574.03
623.464	574.03
623.913	554.53
624.361	547.23
624.81	547.63
625.259	552.33
625.707	556.73
626.156	567.53
626.604	575.63
627.053	567.83
627.501	582.23
627.95	574.43
628.398	573.83
628.847	576.03
629.295	570.93
629.744	578.43
630.192	576.73
630.64	573.63
631.089	552.83
631.537	548.13
631.985	533.43
632.433	540.93
632.881	535.23
633.33	534.53
633.778	531.73
634.226	524.93
634.674	541.53
635.122	549.33
635.57	564.23
636.018	573.83
636.466	562.93
636.914	555.33
637.362	568.53
637.81	571.93
638.258	584.23
638.705	592.83
639.153	624.03
639.601	630.93
640.049	644.53
640.497	673.63
640.944	700.83
641.392	643.93
641.84	617.03
642.287	592.93
642.735	562.83
643.182	562.43
643.63	558.63
644.078	561.73
644.525	578.43
644.973	591.53
645.42	593.93
645.867	615.93
646.315	644.43
646.762	656.73
647.21	685.83
647.657	704.83
648.104	731.53
648.551	761.43
648.999	821.43
649.446	895.63
649.893	988.13
650.34	1117.53
650.787	1324.63
651.234	1630.33
651.682	2119.33
652.129	2901.33
652.576	4108.63
653.023	5997.53
653.47	8067.33
653.917	9924.33
654.363	11383.53
654.81	12488.33
655.257	11831.63
655.704	7833.83
656.151	4707.33
656.598	3101.63
657.044	2219.43
657.491	1742.43
657.938	1391.53
658.385	1174.83
658.831	1018.43
659.278	924.93
659.724	835.83
660.171	768.53
660.618	703.73
661.064	680.43
661.511	647.03
661.957	647.33
662.404	632.23
662.85	647.53
663.296	622.83
663.743	562.73
664.189	542.03
664.635	534.73
665.082	530.13
665.528	527.63
665.974	523.93
666.42	515.83
666.867	508.53
667.313	489.23
667.759	471.53
668.205	461.03
668.651	455.03
669.097	454.63
669.543	447.33
669.989	448.73
670.435	451.13
670.881	457.13
671.327	450.73
671.773	475.43
672.219	510.03
672.665	554.83
673.11	598.23
673.556	650.13
674.002	680.83
674.448	663.03
674.893	558.23
675.339	487.03
675.785	451.63
676.23	428.83
676.676	399.13
677.122	391.63
677.567	378.03
678.013	374.83
678.458	366.53
678.904	373.83
679.349	360.53
679.794	371.73
680.24	358.13
680.685	355.73
681.131	356.43
681.576	359.83
682.021	363.93
682.466	350.33
682.912	366.83
683.357	369.83
683.802	391.73
684.247	423.33
684.692	468.03
685.137	509.73
685.583	545.43
686.028	568.93
686.473	528.93
686.918	457.53
687.363	436.73
687.807	402.83
688.252	369.93
688.697	360.93
689.142	347.03
689.587	344.63
690.032	337.93
690.477	354.53
690.921	363.83
691.366	395.43
691.811	408.43
692.255	436.83
692.7	472.53
693.145	535.43
693.589	756.23
694.034	1218.93
694.478	1622.43
694.923	1782.53
695.367	2294.13
695.812	1222.23
696.256	513.53
696.701	387.63
697.145	357.23
697.59	343.33
698.034	333.03
698.478	331.73
698.922	328.23
699.367	326.83
699.811	352.23
700.255	367.03
700.699	397.53
701.143	441.03
701.588	499.63
702.032	519.53
702.476	529.93
702.92	499.03
703.364	524.13
703.808	680.93
704.252	1114.83
704.696	1528.23
705.14	1714.13
705.584	2163.53
706.027	1101.13
706.471	534.73
706.915	413.53
707.359	362.23
707.803	330.83
708.246	316.33
708.69	321.93
709.134	317.13
709.577	316.23
710.021	322.43
710.465	314.63
710.908	310.83
711.352	307.63
711.795	323.03
712.239	359.43
712.682	406.23
713.126	427.73
713.569	465.03
714.012	370.33
714.456	314.13
714.899	295.33
715.342	277.93
715.786	268.43
716.229	274.83
716.672	266.63
717.115	257.33
717.558	255.23
718.002	260.13
718.445	267.53
718.888	291.13
719.331	294.93
719.774	308.83
720.217	320.83
720.66	299.73
721.103	277.33
721.546	265.63
721.989	250.43
722.432	240.43
722.874	243.03
723.317	234.03
723.76	248.83
724.203	271.13
724.645	332.93
725.088	477.73
725.531	592.03
725.974	654.13
726.416	561.93
726.859	310.23
727.301	251.43
727.744	243.93
728.187	241.83
728.629	248.03
729.071	257.03
729.514	275.53
729.956	276.93
730.399	291.73
730.841	289.73
731.283	281.93
731.726	273.73
732.168	270.03
732.61	287.53
733.053	298.23
733.495	328.03
733.937	369.63
734.379	423.63
734.821	457.23
735.263	586.93
735.705	918.23
736.148	1724.43
736.59	2740.93
737.032	3119.13
737.474	2554.03
737.916	849.93
738.357	441.53
738.799	336.23
739.241	306.33
739.683	286.53
740.125	299.33
740.567	309.63
741.008	323.03
741.45	318.23
741.892	334.93
742.334	365.43
742.775	370.03
743.217	356.83
743.658	280.33
744.1	262.93
744.542	277.63
744.983	334.03
745.425	344.93
745.866	357.23
746.307	290.63
746.749	290.93
747.19	334.63
747.632	496.73
748.073	979.63
748.514	2015.13
748.956	2986.33
749.397	3761.03
749.838	3113.93
750.279	3018.33
750.72	1547.13
751.162	573.63
751.603	335.43
752.044	262.53
752.485	228.63
752.926	221.03
753.367	213.33
753.808	199.03
754.249	200.93
754.69	197.33
755.131	190.33
755.572	185.33
756.013	178.33
756.453	185.33
756.894	194.23
757.335	203.73
757.776	198.83
758.216	199.73
758.657	205.63
759.098	210.33
759.538	238.33
759.979	291.43
760.42	410.43
760.86	796.33
761.301	2056.23
761.741	4814.23
762.182	6567.43
762.622	4648.93
763.063	1376.63
763.503	571.23
763.943	335.33
764.384	269.63
764.824	250.13
765.264	250.43
765.705	223.23
766.145	186.63
766.585	180.43
767.025	173.83
767.465	164.93
767.906	189.03
768.346	204.53
768.786	212.63
769.226	222.83
769.666	331.63
770.106	695.53
770.546	1706.33
770.986	2730.83
771.426	2412.13
771.866	829.53
772.306	347.53
772.745	212.13
773.185	175.93
773.625	166.93
774.065	155.53
774.505	167.23
774.944	226.83
775.384	402.03
775.824	628.13
776.263	601.73
776.703	296.63
777.142	165.33
777.582	143.63
778.021	128.23
778.461	123.03
778.9	131.33
779.34	129.63
779.779	117.43
780.219	112.53
780.658	109.73
781.097	112.73
781.537	113.53
781.976	100.83
782.415	106.33
782.855	106.23
783.294	106.63
783.733	108.23
784.172	109.63
784.611	109.63
785.05	115.23
785.489	117.93
785.928	122.13
786.367	121.93
786.806	126.93
787.245	130.23
787.684	144.53
788.123	149.53
788.562	140.73
789.001	138.33
789.44	125.43
789.879	116.33
790.317	119.93
790.756	123.33
791.195	139.93
791.634	159.33
792.072	219.83
792.511	400.63
792.95	1112.73
793.388	2212.43
793.827	1928.93
794.265	704.53
794.704	289.63
795.142	188.93
795.581	159.23
796.019	139.83
796.458	132.03
796.896	129.53
797.334	141.33
797.773	165.73
798.211	235.23
798.649	486.73
799.087	1097.83
799.526	1700.53
799.964	2133.33
800.402	2035.63
800.84	787.13
801.278	319.53
801.716	199.03
802.154	160.83
802.592	153.23
803.03	152.63
803.468	143.33
803.906	151.13
804.344	155.83
804.782	148.03
805.22	142.93
805.658	135.13
806.096	162.23
806.533	166.63
806.971	185.33
807.409	230.53
807.847	344.43
808.284	745.83
808.722	2051.83
809.16	3427.03
809.597	3416.93
810.035	5771.43
810.472	5869.23
810.91	2179.93
811.347	841.63
811.785	428.93
812.222	272.63
812.66	203.43
813.097	175.63
813.535	146.13
813.972	139.83
814.409	121.73
814.846	112.93
815.284	114.13
815.721	105.13
816.158	104.33
816.595	112.63
817.032	159.43
817.47	177.83
817.907	129.13
818.344	102.73
818.781	106.83
819.218	100.23
819.655	130.93
820.092	201.83
820.529	217.33
820.966	174.53
821.403	123.23
821.839	106.73
822.276	107.43
822.713	125.23
823.15	136.23
823.587	124.03
824.023	163.83
824.46	337.73
824.897	977.83
825.333	1372.83
825.77	600.63
826.206	239.23
826.643	132.93
827.08	107.63
827.516	81.63
827.953	83.23
828.389	81.83
828.825	79.23
829.262	69.33
829.698	64.33
830.135	64.13
830.571	65.63
831.007	63.23
831.443	64.83
831.88	62.03
832.316	63.63
832.752	64.23
833.188	67.53
833.624	62.33
834.06	66.53
834.497	74.03
834.933	77.73
835.369	79.63
835.805	76.73
836.241	80.43
836.677	85.63
837.112	92.83
837.548	108.93
837.984	140.83
838.42	220.43
838.856	554.83
839.292	1639.03
839.727	2360.73
840.163	1130.03
840.599	1022.63
841.034	2169.33
841.47	2145.83
841.906	793.33
842.341	341.53
842.777	206.63
843.212	214.33
843.648	196.63
844.083	115.83
844.519	81.73
844.954	71.33
845.39	63.83
845.825	61.73
846.261	63.53
846.696	58.53
847.131	48.13
847.566	58.63
848.002	52.13
848.437	51.03
848.872	62.03
849.307	64.63
849.742	88.83
850.177	203.73
850.613	603.53
851.048	899.33
851.483	390.23
851.918	159.83
852.353	84.23
852.788	57.43
853.223	51.73
853.657	57.63
854.092	49.13
854.527	43.13
854.962	43.53
855.397	49.53
855.832	53.33
856.266	45.93
856.701	48.53
857.136	43.33
857.57	46.43
858.005	53.33
858.44	61.93
858.874	45.53
859.309	54.93
859.743	40.23
860.178	40.63
860.612	45.93
861.047	57.93
861.481	73.43
861.915	69.23
862.35	48.83
862.784	36.73
863.218	43.03
863.653	36.93
864.087	46.83
864.521	54.63
864.955	71.63
865.39	169.03
865.824	181.33
866.258	119.43
866.692	180.43
867.126	188.93
867.56	105.93
867.994	54.63
868.428	38.03
868.862	50.93
869.296	57.13
869.73	62.73
870.164	62.53
870.598	50.33
871.031	45.23
871.465	32.73
871.899	34.03
872.333	23.43
872.766	26.33
873.2	21.83
873.634	33.83
874.067	26.93
874.501	23.73
874.935	38.73
875.368	31.23
875.802	27.23
876.235	23.33
876.669	27.13
877.102	27.23
877.535	30.53
877.969	21.13
878.402	25.43
878.836	20.83
879.269	22.43
879.702	25.23
880.135	25.03
880.569	21.63
881.002	22.53
881.435	19.33
881.868	19.43
882.301	27.63
882.734	21.93
883.167	21.03
883.601	18.13
884.034	24.53
884.467	13.73
884.899	22.03
885.332	13.63
885.765	13.83
886.198	22.13
886.631	12.63
887.064	20.93
887.497	23.13
887.929	24.03
888.362	21.83
888.795	10.13
889.228	20.43
889.66	20.43
890.093	21.93
890.526	16.63
890.958	18.13
891.391	13.73
891.823	24.23
892.256	17.53
892.688	10.93
893.121	11.53
893.553	15.63
893.985	20.73
894.418	20.23
894.85	12.13
895.282	14.83
895.715	16.13
896.147	19.83
896.579	13.43
897.011	13.23
897.444	21.73
897.876	11.73
898.308	15.63
898.74	21.03
899.172	9.33
899.604	30.03
900.036	21.73
900.468	11.93
900.9	9.73
901.332	20.53
901.764	16.53
902.196	24.83
902.628	18.13
903.06	13.43
903.491	28.13
903.923	16.83
904.355	23.03
904.787	25.53
905.218	21.33
905.65	21.83
906.082	12.63
906.513	11.23
906.945	10.73
907.376	15.53
907.808	18.63
908.239	21.43
908.671	15.33
909.102	24.03
909.534	27.43
909.965	49.83
910.397	100.03
910.828	343.83
911.259	488.63
911.691	230.83
912.122	115.33
912.553	52.63
912.984	33.53
913.415	26.63
913.847	26.83
914.278	12.23
914.709	17.03
915.14	19.13
915.571	17.43
916.002	10.73
916.433	19.13
916.864	18.83
917.295	11.63
917.726	19.73
918.157	10.73
918.587	33.43
919.018	23.13
919.449	16.73
919.88	24.03
920.311	31.13
920.741	49.33
921.172	171.33
921.603	158.73
922.033	70.33
922.464	49.13
922.895	25.23
923.325	23.03
923.756	14.03
924.186	11.03
924.617	23.83
925.047	20.53
925.478	23.13
925.908	23.93
926.338	17.13
926.769	9.83
927.199	20.43
927.629	12.83
928.06	14.13
928.49	12.93
928.92	15.03
929.35	7.73
929.78	13.23
930.21	3.23
930.641	9.33
931.071	9.23
931.501	6.73
931.931	10.63
932.361	11.33
932.791	6.83
933.221	6.73
933.651	3.43
934.08	21.23
934.51	32.53
934.94	15.43
935.37	7.93
935.8	11.33
936.229	9.93
936.659	6.63
937.089	-2.27
937.519	12.93
937.948	26.93
938.378	17.83
938.807	12.43
939.237	6.13
939.666	3.73
940.096	-2.17
940.525	6.73
940.955	4.33
941.384	-3.47
941.814	-2.27
942.243	-4.97
942.672	6.33
943.102	-2.97
943.531	0.03
943.96	3.43
944.39	4.53
944.819	3.63
945.248	4.63
945.677	2.53
946.106	4.63
946.535	0.83
946.964	-3.87
947.393	1.03
947.822	2.43
948.251	-0.77
948.68	2.53
949.109	7.23
949.538	2.23
949.967	-2.37
950.396	3.73
950.825	0.33
951.254	1.93
951.682	-7.37
952.111	3.63
952.54	7.13
952.969	1.23
953.397	-6.07
953.826	-1.77
954.254	-5.97
954.683	0.23
955.112	-3.37
955.54	0.33
955.969	6.23
956.397	3.93
956.826	-1.27
957.254	3.53
957.682	-2.97
958.111	7.93
958.539	-3.37
958.967	2.43
959.396	-0.37
959.824	-1.07
960.252	2.83
960.68	-1.97
961.109	0.43
961.537	-6.47
961.965	0.23
962.393	-2.57
962.821	-1.47
963.249	1.23
963.677	3.43
964.105	8.33
964.533	45.33
964.961	46.73
965.389	26.33
965.817	15.03
966.245	5.33
966.672	-1.17
967.1	-5.17
967.528	0.93
967.956	-4.57
968.383	-4.87
968.811	-3.67
969.239	-4.47
969.666	-1.47
970.094	2.03
970.522	2.83
970.949	0.23
971.377	-3.87
971.804	2.53
972.232	-1.17
972.659	1.33
973.087	-4.67
973.514	-3.07
973.941	-6.07
974.369	8.03
974.796	-0.07
975.223	3.53
975.651	-2.17
976.078	4.23
976.505	-3.47
976.932	2.83
977.359	21.13
977.786	22.23
978.214	4.93
978.641	-2.77
979.068	-4.67
979.495	-2.37
979.922	-3.07
980.349	-5.77
980.776	4.53
981.202	-2.97
981.629	4.43
982.056	4.93
982.483	5.53
982.91	3.93
983.337	-3.47
983.763	6.83
984.19	-4.37
984.617	-6.47
985.043	-6.37
985.47	-1.07
985.897	-6.57
986.323	-7.77
986.75	0.43
987.176	-1.87
987.603	0.53
988.029	2.93
988.456	-0.37
988.882	7.93
989.308	-9.27
989.735	-3.67
990.161	1.93
990.587	-5.57
991.014	-0.47
991.44	4.83
991.866	-4.57
992.292	-3.77
992.719	-7.37
993.145	0.83
993.571	-7.77
993.997	-8.67
994.423	-2.37
994.849	-6.87
995.275	-1.27
995.701	-1.87
996.127	-4.27
996.553	-0.47
996.979	-3.37
997.405	-3.77
997.83	-5.97
998.256	-4.37
998.682	-5.57
999.108	-5.87
999.534	-0.47
999.959	-1.97
1000.385	-8.07
1000.811	-2.57
1001.236	-7.77
1001.662	-9.37
1002.087	-8.97
1002.513	-0.07
1002.938	-1.27
1003.364	-7.97
1003.789	1.83
1004.215	3.63
1004.64	-1.97
1005.066	1.83
1005.491	1.33
1005.916	3.03
1006.342	-4.07
1006.767	-6.87
1007.192	2.83
1007.617	-5.17
1008.042	-2.37
1008.468	-4.97
1008.893	-3.87
1009.318	-1.47
1009.743	-7.07
1010.168	5.73
1010.593	1.53
1011.018	-6.97
1011.443	0.13
1011.868	-1.77
1012.293	-1.97
1012.718	-8.07
1013.143	-1.97
1013.567	6.63
1013.992	-3.87
1014.417	-13.37
1014.842	-1.97
1015.267	-4.37
1015.691	1.53
1016.116	5.13
1016.541	-1.17
1016.965	-1.67
1017.39	3.73
1017.814	0.33
1018.239	-1.77
1018.663	-9.97
1019.088	-5.47
1019.512	-4.37
1019.937	-4.07
1020.361	-6.07
1020.785	-11.37
1021.21	-5.37
1021.634	0.23
1022.058	-0.47
1022.483	0.93
1022.907	-3.47
1023.331	-1.97
1023.755	-6.37
1024.179	-2.87
1024.604	-10.47
1025.028	-3.97
1025.452	-5.87
1025.876	-1.17
1026.3	2.63
1026.724	-8.57
1027.148	-3.67
1027.572	-8.37
1027.996	-0.97
1028.42	-6.27
1028.843	-3.37
1029.267	-6.27
1029.691	-1.77
1030.115	-5.57
1030.539	-17.87
1030.962	-5.97
1031.386	-7.97
1031.81	-3.57
1032.233	-0.67
1032.657	-3.27
1033.08	-6.07
1033.504	-5.67
1033.927	-6.47
1034.351	-0.87
1034.774	-8.97
1035.198	-1.27
1035.621	-6.87
1036.045	-6.77
1036.468	-0.57
1036.891	-7.37
1037.315	-8.37
1037.738	-10.37
1038.161	4.03
1038.584	-6.77
1039.008	-9.37
1039.431	-3.37
1039.854	0.03
1040.277	-11.57
1040.7	-9.77
1041.123	-0.47
1041.546	-14.27
1041.969	-4.37
1042.392	-3.47
1042.815	3.83
1043.238	5.53
1043.661	1.23
1044.084	-7.17
1044.507	-4.17
1044.93	-4.97
1045.352	-4.67
1045.775	3.63
1046.198	-6.47
1046.621	-1.57
1047.043	-3.97
1047.466	6.53
1047.889	-4.37
1048.311	-3.57
1048.734	-5.07
1049.156	-6.37
1049.579	-4.47
1050.001	-1.37
1050.424	-0.77
1050.846	-3.47
1051.269	-4.77
1051.691	-9.27
1052.113	-8.67
1052.536	-3.17
1052.958	-5.27
1053.38	-0.97
1053.802	-9.07
1054.225	0.23
1054.647	-4.87
1055.069	-1.57
1055.491	5.93
1055.913	-4.47
1056.335	-2.17
1056.757	-2.97
1057.179	-5.87
1057.601	-5.27
1058.023	-4.67
1058.445	-6.97
1058.867	-7.67
1059.289	-8.77
1059.711	-11.97
1060.133	-1.67
1060.555	-5.27
1060.976	-9.37
1061.398	-5.97
1061.82	-8.87
1062.241	-8.27
1062.663	-9.67
1063.085	-0.47
1063.506	-1.77
1063.928	0.23
1064.35	-2.67
1064.771	-8.57
1065.193	-4.97
1065.614	-11.37
1066.035	-1.87
1066.457	-6.17
1066.878	-2.97
1067.3	-5.77
1067.721	-2.37
1068.142	-8.77
1068.564	-3.27
1068.985	-6.37
1069.406	-4.97
1069.827	-6.37
1070.248	-0.27
1070.67	-6.27
1071.091	-1.97
1071.512	-3.27
1071.933	-4.57
1072.354	-4.57
1072.775	-7.97
1073.196	-8.57
1073.617	0.53
1074.038	-7.07
1074.459	-6.77
1074.88	-6.77
1075.3	-5.17
1075.721	-7.27
1076.142	-0.17
1076.563	0.03
1076.983	-10.97
1077.404	-3.77
1077.825	-5.27
1078.246	-3.97
1078.666	-9.77
1079.087	-5.47
1079.507	-3.17
1079.928	5.93
1080.348	-0.97
1080.769	-8.07
1081.189	-1.87
1081.61	-6.37
1082.03	-5.87
1082.451	-6.87
1082.871	-6.67
1083.291	-11.17
1083.711	-4.77
1084.132	-6.97
1084.552	-8.77
1084.972	0.83
1085.392	-13.77
1085.813	-6.77
1086.233	-8.77
1086.653	-3.77
1087.073	-3.57
1087.493	-1.47
1087.913	-9.87
1088.333	-8.77
1088.753	-6.77
1089.173	2.23
1089.593	-10.67
1090.013	-0.17
1090.433	1.93
1090.852	-6.67
1091.272	-2.97
1091.692	-6.77
1092.112	-2.17
1092.531	-8.07
1092.951	-17.07
1093.371	1.83
1093.79	3.13
1094.21	2.93
1094.63	-6.77
1095.049	-8.97
1095.469	-6.67
1095.888	-7.77
1096.308	-1.97
1096.727	5.13
1097.146	-7.47
1097.566	0.53
1097.985	-2.97
1098.405	-8.17
1098.824	-9.97
1099.243	-2.07
1099.662	-11.47
1100.082	-3.37
1100.501	0.13
1100.92	-11.47
1101.339	-2.87
1101.758	-7.57
