Data from 20171114-ORNL-Ar_H_NY_Subt18_08-05-53-709.txt Node
Date: Tue Nov 14 08:05:53 EST 2017
User: Ender
Spectrometer: HR+D1039
Trigger mode: 0
Integration Time (sec): 2.730000E-2
Scans to average: 10
Electric dark correction enabled: true
Nonlinearity correction enabled: false
Boxcar width: 0
XAxis mode: Wavelengths
Number of Pixels in Spectrum: 2048
>>>>>Begin Spectral Data<<<<<
187.836	-5.78
188.309	-5.78
188.782	-5.78
189.255	-4.78
189.728	-2.58
190.201	8.62
190.674	4.52
191.147	3.92
191.619	-6.78
192.092	4.22
192.565	5.42
193.038	-0.28
193.511	-2.38
193.984	3.82
194.456	-4.48
194.929	0.02
195.402	-3.88
195.874	0.42
196.347	-0.18
196.82	-7.48
197.292	1.02
197.765	-1.58
198.237	-4.28
198.71	9.82
199.182	2.32
199.655	3.52
200.127	6.02
200.6	2.42
201.072	-1.88
201.544	-3.18
202.017	1.52
202.489	8.02
202.961	3.02
203.433	-4.68
203.906	-2.48
204.378	-1.58
204.85	-3.68
205.322	-2.98
205.794	-3.88
206.266	-3.78
206.739	-6.98
207.211	0.52
207.683	-7.08
208.155	-6.58
208.627	-3.98
209.099	-1.68
209.57	-3.58
210.042	-3.58
210.514	-4.28
210.986	3.82
211.458	-9.48
211.93	1.62
212.402	-0.38
212.873	-5.78
213.345	-9.98
213.817	-9.18
214.288	-0.78
214.76	-11.58
215.232	-0.68
215.703	-3.48
216.175	-6.48
216.646	-5.58
217.118	-4.08
217.589	-3.58
218.061	4.52
218.532	2.42
219.004	2.32
219.475	-2.88
219.946	-1.98
220.418	-2.08
220.889	5.22
221.36	1.42
221.832	-1.28
222.303	-7.58
222.774	3.32
223.245	-14.28
223.717	-10.88
224.188	-4.58
224.659	-7.38
225.13	-6.98
225.601	2.12
226.072	4.32
226.543	-0.58
227.014	-0.38
227.485	4.92
227.956	0.02
228.427	-2.68
228.898	1.62
229.369	6.52
229.839	-2.48
230.31	-4.38
230.781	2.02
231.252	0.32
231.722	-4.18
232.193	-2.28
232.664	3.92
233.135	2.22
233.605	2.12
234.076	-3.78
234.546	4.32
235.017	4.42
235.487	6.12
235.958	0.22
236.428	2.82
236.899	7.62
237.369	1.52
237.84	2.82
238.31	7.72
238.78	-0.48
239.251	4.92
239.721	4.62
240.191	1.92
240.662	-2.28
241.132	0.62
241.602	1.12
242.072	1.32
242.542	6.92
243.013	-1.38
243.483	6.02
243.953	1.52
244.423	1.32
244.893	-4.18
245.363	3.32
245.833	4.82
246.303	-4.78
246.773	8.32
247.243	2.12
247.712	9.52
248.182	13.52
248.652	6.52
249.122	-3.18
249.592	12.92
250.061	22.02
250.531	35.42
251.001	18.42
251.471	28.52
251.94	21.62
252.41	9.22
252.879	1.52
253.349	18.62
253.818	12.62
254.288	5.22
254.757	2.72
255.227	3.32
255.696	7.12
256.166	4.72
256.635	5.22
257.105	8.62
257.574	8.62
258.043	4.82
258.513	12.42
258.982	20.82
259.451	8.12
259.92	16.42
260.389	9.52
260.859	15.22
261.328	13.22
261.797	20.12
262.266	13.62
262.735	10.12
263.204	12.02
263.673	-3.48
264.142	8.72
264.611	-2.28
265.08	4.82
265.549	1.42
266.018	8.82
266.487	-1.28
266.955	1.62
267.424	6.02
267.893	13.62
268.362	3.82
268.83	4.42
269.299	8.82
269.768	7.92
270.236	11.82
270.705	9.32
271.174	8.82
271.642	8.52
272.111	10.92
272.579	21.62
273.048	29.52
273.516	34.52
273.985	25.52
274.453	22.52
274.922	19.82
275.39	13.22
275.858	8.92
276.327	15.82
276.795	17.92
277.263	12.42
277.731	29.02
278.2	57.52
278.668	62.72
279.136	54.82
279.604	25.32
280.072	17.92
280.54	18.82
281.008	11.02
281.477	19.72
281.945	11.42
282.413	18.12
282.881	19.32
283.348	14.42
283.816	19.02
284.284	17.42
284.752	22.12
285.22	18.12
285.688	15.22
286.156	21.02
286.623	45.22
287.091	59.12
287.559	29.22
288.026	19.42
288.494	22.12
288.962	2.62
289.429	7.02
289.897	19.72
290.364	17.52
290.832	20.82
291.3	11.42
291.767	17.62
292.234	21.72
292.702	14.52
293.169	19.92
293.637	24.82
294.104	23.22
294.571	10.82
295.039	15.32
295.506	16.92
295.973	18.22
296.44	16.62
296.908	17.52
297.375	24.02
297.842	22.72
298.309	25.02
298.776	19.52
299.243	22.92
299.71	14.92
300.177	22.82
300.644	27.52
301.111	26.62
301.578	27.62
302.045	18.12
302.512	25.12
302.979	23.22
303.446	20.72
303.913	17.42
304.379	24.02
304.846	30.42
305.313	32.82
305.78	22.02
306.246	26.92
306.713	37.72
307.18	35.02
307.646	28.02
308.113	31.62
308.579	26.22
309.046	25.72
309.512	27.52
309.979	18.92
310.445	29.32
310.912	34.82
311.378	29.92
311.845	30.72
312.311	35.22
312.777	37.92
313.244	33.02
313.71	43.52
314.176	35.12
314.642	34.62
315.109	34.32
315.575	39.72
316.041	40.32
316.507	36.62
316.973	47.32
317.439	32.82
317.905	39.82
318.371	40.72
318.837	32.12
319.303	38.82
319.769	40.62
320.235	38.72
320.701	43.22
321.167	45.62
321.633	32.82
322.099	46.02
322.564	50.52
323.03	44.02
323.496	36.72
323.962	39.52
324.427	44.82
324.893	47.32
325.359	38.02
325.824	43.92
326.29	43.92
326.755	44.92
327.221	40.72
327.686	33.52
328.152	43.42
328.617	47.82
329.083	43.22
329.548	54.02
330.014	47.62
330.479	43.12
330.944	44.22
331.41	44.52
331.875	45.32
332.34	54.02
332.805	44.82
333.271	52.72
333.736	47.52
334.201	50.52
334.666	51.02
335.131	61.22
335.596	48.62
336.061	49.82
336.526	47.82
336.991	51.22
337.456	58.52
337.921	58.22
338.386	45.22
338.851	52.62
339.316	47.32
339.781	48.82
340.246	54.72
340.711	44.62
341.175	51.82
341.64	47.92
342.105	60.72
342.569	53.12
343.034	64.52
343.499	59.42
343.963	56.62
344.428	70.02
344.893	58.12
345.357	65.42
345.822	68.42
346.286	72.12
346.751	72.52
347.215	71.42
347.679	75.92
348.144	99.42
348.608	87.52
349.073	74.22
349.537	81.42
350.001	79.32
350.465	93.12
350.93	78.32
351.394	79.82
351.858	73.52
352.322	86.12
352.786	85.92
353.25	105.62
353.715	116.02
354.179	105.72
354.643	124.52
355.107	129.32
355.571	115.72
356.035	104.82
356.498	118.52
356.962	126.02
357.426	138.12
357.89	124.82
358.354	101.32
358.818	86.92
359.281	83.32
359.745	81.52
360.209	82.32
360.673	85.22
361.136	80.02
361.6	97.72
362.064	88.12
362.527	81.42
362.991	91.62
363.454	86.42
363.918	84.22
364.381	81.92
364.845	86.42
365.308	88.72
365.772	92.32
366.235	89.82
366.698	87.32
367.162	85.32
367.625	89.32
368.088	90.02
368.552	94.52
369.015	93.42
369.478	101.52
369.941	102.72
370.404	98.02
370.867	106.12
371.331	109.62
371.794	114.42
372.257	114.62
372.72	122.42
373.183	113.12
373.646	105.32
374.109	113.22
374.572	114.42
375.035	118.82
375.497	114.72
375.96	107.72
376.423	110.92
376.886	118.32
377.349	108.72
377.811	100.42
378.274	108.02
378.737	114.12
379.199	112.32
379.662	115.42
380.125	117.62
380.587	121.32
381.05	123.62
381.512	132.72
381.975	135.82
382.437	131.92
382.9	133.92
383.362	136.72
383.825	146.32
384.287	148.82
384.75	145.22
385.212	147.32
385.674	144.62
386.136	141.22
386.599	134.52
387.061	131.82
387.523	133.92
387.985	136.02
388.447	150.32
388.91	149.12
389.372	160.52
389.834	152.12
390.296	146.52
390.758	156.12
391.22	175.52
391.682	214.32
392.144	305.72
392.606	234.72
393.068	166.32
393.529	169.92
393.991	156.22
394.453	147.72
394.915	166.12
395.377	201.42
395.838	223.52
396.3	158.72
396.762	146.72
397.224	138.82
397.685	132.22
398.147	132.12
398.608	130.32
399.07	134.42
399.531	134.22
399.993	150.72
400.454	159.62
400.916	149.72
401.377	150.02
401.839	154.12
402.3	158.02
402.762	178.02
403.223	185.02
403.684	170.22
404.145	161.52
404.607	168.52
405.068	173.92
405.529	172.12
405.99	196.12
406.451	190.52
406.913	177.62
407.374	167.42
407.835	166.02
408.296	173.32
408.757	183.12
409.218	192.12
409.679	185.52
410.14	182.52
410.601	184.52
411.062	186.82
411.522	196.72
411.983	196.22
412.444	181.82
412.905	180.82
413.366	189.22
413.826	205.62
414.287	226.72
414.748	266.62
415.208	248.92
415.669	222.12
416.13	206.52
416.59	204.02
417.051	216.72
417.511	225.82
417.972	239.92
418.432	257.82
418.893	295.12
419.353	259.12
419.814	207.92
420.274	188.02
420.734	186.42
421.195	201.52
421.655	203.52
422.115	196.62
422.576	191.52
423.036	198.02
423.496	211.42
423.956	221.52
424.416	234.62
424.876	277.32
425.336	268.72
425.797	275.92
426.257	269.02
426.717	245.92
427.177	235.02
427.637	228.32
428.097	237.62
428.556	249.52
429.016	281.32
429.476	266.62
429.936	281.82
430.396	288.72
430.856	293.12
431.315	326.22
431.775	358.62
432.235	395.22
432.694	361.82
433.154	371.02
433.614	410.12
434.073	351.22
434.533	296.82
434.993	274.42
435.452	291.62
435.912	303.12
436.371	303.12
436.83	288.32
437.29	277.72
437.749	253.02
438.209	243.62
438.668	283.22
439.127	283.72
439.587	274.02
440.046	257.22
440.505	269.62
440.964	291.62
441.424	333.32
441.883	318.02
442.342	273.92
442.801	231.12
443.26	222.62
443.719	225.62
444.178	223.82
444.637	213.02
445.096	220.22
445.555	220.72
446.014	226.92
446.473	227.12
446.932	242.52
447.391	226.82
447.849	226.12
448.308	224.02
448.767	229.62
449.226	245.22
449.685	242.82
450.143	257.12
450.602	245.92
451.061	232.32
451.519	237.32
451.978	237.72
452.436	239.22
452.895	242.62
453.353	257.82
453.812	253.12
454.27	244.32
454.729	249.52
455.187	243.52
455.646	243.62
456.104	249.62
456.562	262.82
457.021	271.82
457.479	264.32
457.937	285.72
458.395	266.12
458.854	249.32
459.312	259.12
459.77	276.82
460.228	267.12
460.686	254.82
461.144	256.02
461.602	249.42
462.06	245.72
462.518	256.12
462.976	263.62
463.434	267.82
463.892	268.52
464.35	283.12
464.808	293.62
465.266	269.42
465.724	282.22
466.181	281.82
466.639	275.82
467.097	293.22
467.555	305.22
468.012	307.82
468.47	315.42
468.928	337.82
469.385	354.72
469.843	361.62
470.3	363.22
470.758	368.02
471.215	396.32
471.673	416.72
472.13	415.02
472.588	422.42
473.045	377.22
473.503	384.12
473.96	401.32
474.417	416.32
474.875	447.42
475.332	483.92
475.789	473.72
476.246	482.32
476.704	493.62
477.161	522.82
477.618	533.02
478.075	569.22
478.532	629.82
478.989	709.22
479.446	836.12
479.903	793.72
480.36	820.62
480.817	878.42
481.274	988.22
481.731	1095.22
482.188	1190.12
482.645	1329.42
483.102	1446.52
483.558	1584.02
484.015	1638.42
484.472	1622.12
484.929	1561.22
485.385	1516.32
485.842	1461.72
486.299	1398.02
486.755	1324.62
487.212	1140.12
487.668	962.02
488.125	867.32
488.582	800.32
489.038	756.52
489.494	730.52
489.951	702.62
490.407	684.22
490.864	663.72
491.32	651.92
491.776	652.82
492.233	659.82
492.689	628.52
493.145	633.52
493.602	610.52
494.058	617.82
494.514	639.12
494.97	657.92
495.426	668.62
495.882	639.52
496.338	622.32
496.794	642.32
497.251	632.52
497.707	644.52
498.163	647.52
498.618	663.22
499.074	668.52
499.53	693.42
499.986	681.82
500.442	665.42
500.898	640.22
501.354	635.22
501.809	652.02
502.265	668.12
502.721	670.52
503.177	681.22
503.632	676.02
504.088	686.32
504.543	716.72
504.999	719.52
505.455	682.52
505.91	653.22
506.366	635.92
506.821	642.12
507.277	636.52
507.732	637.62
508.187	628.62
508.643	642.02
509.098	651.62
509.553	665.82
510.009	681.92
510.464	683.52
510.919	704.62
511.375	699.22
511.83	718.22
512.285	734.42
512.74	765.82
513.195	804.22
513.65	785.22
514.105	785.32
514.56	788.72
515.015	804.82
515.47	822.92
515.925	808.02
516.38	810.32
516.835	807.22
517.29	791.12
517.745	790.62
518.2	778.52
518.655	770.82
519.109	760.82
519.564	753.22
520.019	745.12
520.474	745.32
520.928	737.52
521.383	732.12
521.838	725.32
522.292	718.82
522.747	720.32
523.201	722.42
523.656	707.22
524.11	712.12
524.565	712.32
525.019	701.42
525.474	712.22
525.928	717.22
526.382	705.82
526.837	712.72
527.291	721.42
527.745	705.42
528.2	712.12
528.654	698.32
529.108	693.92
529.562	706.52
530.016	702.12
530.47	713.12
530.925	711.72
531.379	708.32
531.833	719.02
532.287	719.62
532.741	721.92
533.195	722.02
533.649	731.32
534.103	725.02
534.556	708.32
535.01	716.42
535.464	726.22
535.918	735.62
536.372	733.12
536.826	726.82
537.279	717.02
537.733	724.12
538.187	732.92
538.64	719.32
539.094	738.02
539.548	740.22
540.001	733.62
540.455	749.92
540.908	748.92
541.362	746.82
541.815	771.02
542.269	766.42
542.722	767.22
543.175	780.02
543.629	784.92
544.082	797.72
544.536	802.02
544.989	799.32
545.442	804.92
545.895	796.82
546.349	791.12
546.802	805.92
547.255	804.02
547.708	815.92
548.161	830.32
548.614	831.72
549.067	838.22
549.52	830.92
549.973	823.52
550.426	809.02
550.879	804.62
551.332	807.92
551.785	823.62
552.238	820.02
552.691	830.82
553.144	846.12
553.596	859.32
554.049	874.82
554.502	909.22
554.955	912.52
555.407	921.42
555.86	905.32
556.313	900.22
556.765	880.92
557.218	892.32
557.67	901.42
558.123	893.82
558.576	880.32
559.028	891.72
559.48	888.22
559.933	880.32
560.385	848.82
560.838	816.02
561.29	790.72
561.742	785.42
562.195	770.12
562.647	758.32
563.099	783.02
563.551	775.22
564.004	797.12
564.456	782.02
564.908	770.12
565.36	749.02
565.812	737.12
566.264	723.02
566.716	726.72
567.168	727.42
567.62	724.42
568.072	709.42
568.524	701.32
568.976	695.52
569.428	678.52
569.88	682.02
570.332	686.32
570.784	686.72
571.235	684.72
571.687	699.22
572.139	708.82
572.59	713.52
573.042	714.22
573.494	721.02
573.945	707.42
574.397	688.12
574.849	701.92
575.3	707.32
575.752	685.92
576.203	691.72
576.655	697.12
577.106	678.42
577.557	669.92
578.009	677.12
578.46	666.72
578.912	665.52
579.363	670.22
579.814	674.32
580.265	672.22
580.717	672.42
581.168	679.42
581.619	676.92
582.07	686.62
582.521	679.62
582.972	681.52
583.423	682.12
583.875	682.42
584.326	707.72
584.777	748.02
585.227	837.22
585.678	927.22
586.129	1010.32
586.58	1081.32
587.031	1175.72
587.482	1322.42
587.933	1517.22
588.384	1324.82
588.834	983.32
589.285	811.92
589.736	784.72
590.186	782.62
590.637	763.62
591.088	749.12
591.538	736.52
591.989	731.52
592.439	727.52
592.89	721.42
593.34	713.12
593.791	720.72
594.241	714.42
594.692	715.72
595.142	708.42
595.593	701.32
596.043	709.32
596.493	727.42
596.943	718.52
597.394	717.42
597.844	719.52
598.294	732.62
598.744	744.22
599.195	777.52
599.645	819.02
600.095	861.92
600.545	924.82
600.995	976.52
601.445	1036.32
601.895	1083.52
602.345	1134.42
602.795	1110.82
603.245	1074.72
603.695	1015.22
604.145	947.62
604.594	908.42
605.044	862.02
605.494	811.82
605.944	755.42
606.393	742.82
606.843	733.52
607.293	735.62
607.743	731.82
608.192	754.52
608.642	762.52
609.091	767.12
609.541	779.32
609.99	771.92
610.44	775.62
610.889	712.72
611.339	706.62
611.788	699.12
612.238	703.22
612.687	724.02
613.136	724.42
613.586	740.52
614.035	733.92
614.484	761.72
614.933	759.12
615.383	749.02
615.832	743.22
616.281	722.22
616.73	685.12
617.179	670.42
617.628	650.02
618.077	635.52
618.526	615.72
618.975	621.42
619.424	612.52
619.873	615.92
620.322	628.52
620.771	612.22
621.22	593.62
621.669	591.42
622.118	576.92
622.567	574.22
623.015	577.82
623.464	572.82
623.913	562.32
624.361	553.02
624.81	540.62
625.259	552.82
625.707	554.32
626.156	549.22
626.604	558.82
627.053	557.52
627.501	560.52
627.95	560.62
628.398	576.62
628.847	550.82
629.295	564.22
629.744	576.92
630.192	564.42
630.64	560.02
631.089	568.12
631.537	574.32
631.985	578.12
632.433	590.42
632.881	604.62
633.33	653.62
633.778	637.42
634.226	570.32
634.674	569.92
635.122	573.82
635.57	599.92
636.018	624.12
636.466	571.22
636.914	557.32
637.362	565.52
637.81	574.52
638.258	579.72
638.705	587.12
639.153	604.62
639.601	611.32
640.049	637.02
640.497	664.22
640.944	690.42
641.392	639.02
641.84	606.02
642.287	587.52
642.735	566.52
643.182	568.12
643.63	576.62
644.078	575.22
644.525	592.92
644.973	598.62
645.42	607.02
645.867	617.72
646.315	636.42
646.762	666.32
647.21	692.02
647.657	704.02
648.104	741.12
648.551	762.42
648.999	825.62
649.446	902.02
649.893	1007.12
650.34	1151.62
650.787	1383.32
651.234	1695.92
651.682	2229.92
652.129	3046.82
652.576	4424.82
653.023	6483.02
653.47	8931.02
653.917	11230.32
654.363	12985.22
654.81	14375.22
655.257	13667.62
655.704	8952.42
656.151	5276.92
656.598	3416.22
657.044	2430.42
657.491	1858.32
657.938	1489.92
658.385	1232.22
658.831	1070.82
659.278	963.22
659.724	851.82
660.171	781.92
660.618	724.12
661.064	686.72
661.511	666.12
661.957	661.02
662.404	641.52
662.85	646.62
663.296	611.22
663.743	549.72
664.189	534.62
664.635	530.22
665.082	525.12
665.528	521.02
665.974	515.52
666.42	502.72
666.867	508.62
667.313	481.42
667.759	478.42
668.205	469.92
668.651	482.52
669.097	480.22
669.543	502.82
669.989	469.32
670.435	449.02
670.881	440.82
671.327	447.82
671.773	463.32
672.219	484.52
672.665	535.42
673.11	566.92
673.556	617.82
674.002	662.92
674.448	650.92
674.893	539.12
675.339	464.82
675.785	434.62
676.23	414.82
676.676	396.52
677.122	379.12
677.567	368.62
678.013	359.22
678.458	353.82
678.904	356.22
679.349	334.32
679.794	349.62
680.24	344.42
680.685	347.52
681.131	345.62
681.576	345.92
682.021	346.62
682.466	347.22
682.912	341.62
683.357	343.32
683.802	375.92
684.247	405.42
684.692	448.32
685.137	489.22
685.583	526.32
686.028	546.92
686.473	508.32
686.918	438.22
687.363	413.82
687.807	378.62
688.252	357.42
688.697	356.82
689.142	332.22
689.587	321.62
690.032	313.92
690.477	333.42
690.921	348.42
691.366	374.82
691.811	401.62
692.255	421.22
692.7	451.02
693.145	484.82
693.589	676.92
694.034	1092.72
694.478	1508.52
694.923	1685.12
695.367	2227.02
695.812	1179.72
696.256	489.82
696.701	374.02
697.145	339.02
697.59	332.12
698.034	317.62
698.478	328.22
698.922	319.72
699.367	323.62
699.811	333.62
700.255	347.32
700.699	378.12
701.143	418.92
701.588	463.92
702.032	498.82
702.476	495.52
702.92	482.02
703.364	480.52
703.808	616.32
704.252	992.72
704.696	1413.52
705.14	1619.32
705.584	2085.02
706.027	1039.92
706.471	508.72
706.915	391.32
707.359	343.72
707.803	315.52
708.246	304.02
708.69	306.22
709.134	307.32
709.577	306.62
710.021	301.22
710.465	298.62
710.908	290.02
711.352	296.22
711.795	302.92
712.239	346.82
712.682	377.32
713.126	411.82
713.569	462.62
714.012	367.52
714.456	326.32
714.899	294.42
715.342	273.32
715.786	252.32
716.229	251.52
716.672	251.72
717.115	247.72
717.558	246.42
718.002	246.92
718.445	254.12
718.888	282.82
719.331	295.72
719.774	301.52
720.217	302.82
720.66	271.32
721.103	257.12
721.546	258.02
721.989	248.32
722.432	230.42
722.874	236.22
723.317	222.82
723.76	224.12
724.203	261.02
724.645	310.12
725.088	433.32
725.531	558.72
725.974	634.32
726.416	526.52
726.859	293.32
727.301	233.02
727.744	233.52
728.187	228.72
728.629	232.92
729.071	236.22
729.514	250.12
729.956	265.52
730.399	277.62
730.841	289.92
731.283	266.92
731.726	259.22
732.168	260.52
732.61	262.32
733.053	275.12
733.495	299.42
733.937	336.92
734.379	383.92
734.821	424.22
735.263	525.12
735.705	805.82
736.148	1523.42
736.59	2463.22
737.032	2979.82
737.474	2437.42
737.916	789.72
738.357	423.22
738.799	313.92
739.241	292.12
739.683	280.32
740.125	291.32
740.567	294.12
741.008	316.72
741.45	307.32
741.892	308.82
742.334	341.92
742.775	350.12
743.217	337.32
743.658	261.52
744.1	248.02
744.542	257.82
744.983	301.42
745.425	343.92
745.866	342.12
746.307	278.32
746.749	270.92
747.19	311.42
747.632	440.02
748.073	835.52
748.514	1763.72
748.956	2748.82
749.397	3462.12
749.838	2870.02
750.279	2899.72
750.72	1445.62
751.162	530.82
751.603	312.22
752.044	245.92
752.485	210.32
752.926	207.12
753.367	206.92
753.808	186.62
754.249	182.42
754.69	185.92
755.131	182.52
755.572	175.62
756.013	174.12
756.453	177.42
756.894	191.02
757.335	185.52
757.776	186.72
758.216	195.92
758.657	194.22
759.098	199.02
759.538	216.22
759.979	257.62
760.42	362.02
760.86	680.72
761.301	1719.22
761.741	4251.92
762.182	6288.22
762.622	4420.72
763.063	1263.42
763.503	524.72
763.943	336.12
764.384	333.92
764.824	405.22
765.264	435.32
765.705	302.82
766.145	213.52
766.585	182.42
767.025	180.82
767.465	177.72
767.906	238.02
768.346	314.62
768.786	333.72
769.226	257.02
769.666	307.72
770.106	589.92
770.546	1474.22
770.986	2572.02
771.426	2316.62
771.866	781.12
772.306	319.52
772.745	202.12
773.185	170.12
773.625	164.32
774.065	161.42
774.505	196.52
774.944	297.12
775.384	652.52
775.824	1212.02
776.263	1190.02
776.703	502.92
777.142	215.22
777.582	159.02
778.021	135.62
778.461	136.72
778.9	138.02
779.34	134.92
779.779	122.02
780.219	109.72
780.658	107.02
781.097	107.82
781.537	114.12
781.976	99.32
782.415	104.32
782.855	104.22
783.294	104.42
783.733	101.32
784.172	105.22
784.611	102.12
785.05	113.92
785.489	112.52
785.928	112.02
786.367	115.72
786.806	116.02
787.245	124.12
787.684	130.32
788.123	139.62
788.562	127.32
789.001	123.62
789.44	121.02
789.879	114.52
790.317	115.42
790.756	125.52
791.195	125.92
791.634	143.42
792.072	195.72
792.511	353.52
792.95	963.62
793.388	2072.92
793.827	1882.52
794.265	656.32
794.704	268.42
795.142	181.12
795.581	147.02
796.019	133.72
796.458	130.42
796.896	122.32
797.334	129.72
797.773	152.92
798.211	204.22
798.649	417.52
799.087	970.82
799.526	1537.92
799.964	1925.62
800.402	1984.32
800.84	739.22
801.278	292.12
801.716	180.02
802.154	151.32
802.592	136.92
803.03	137.12
803.468	138.42
803.906	145.12
804.344	142.22
804.782	132.92
805.22	131.82
805.658	134.02
806.096	146.42
806.533	146.72
806.971	171.82
807.409	209.42
807.847	304.62
808.284	632.92
808.722	1770.82
809.16	3179.72
809.597	2986.42
810.035	5209.62
810.472	5672.12
810.91	2044.02
811.347	778.12
811.785	398.02
812.222	250.22
812.66	187.62
813.097	164.82
813.535	136.12
813.972	127.42
814.409	119.02
814.846	103.92
815.284	107.02
815.721	98.52
816.158	107.42
816.595	120.32
817.032	176.32
817.47	196.92
817.907	176.32
818.344	145.62
818.781	118.92
819.218	97.32
819.655	114.22
820.092	180.02
820.529	207.32
820.966	169.42
821.403	129.12
821.839	111.92
822.276	95.12
822.713	113.52
823.15	125.62
823.587	107.42
824.023	142.92
824.46	285.72
824.897	867.12
825.333	1320.12
825.77	565.32
826.206	220.72
826.643	129.92
827.08	93.12
827.516	82.12
827.953	76.42
828.389	83.72
828.825	64.62
829.262	65.92
829.698	57.12
830.135	66.82
830.571	59.62
831.007	63.52
831.443	59.52
831.88	58.02
832.316	64.12
832.752	60.22
833.188	62.52
833.624	64.22
834.06	66.42
834.497	67.42
834.933	73.72
835.369	70.62
835.805	66.92
836.241	76.52
836.677	78.22
837.112	89.02
837.548	99.72
837.984	126.92
838.42	195.52
838.856	471.92
839.292	1439.62
839.727	2242.12
840.163	1033.52
840.599	883.22
841.034	1962.72
841.47	2075.22
841.906	762.12
842.341	327.62
842.777	230.12
843.212	306.52
843.648	307.72
844.083	148.62
844.519	93.52
844.954	72.32
845.39	57.72
845.825	61.12
846.261	57.32
846.696	56.52
847.131	52.22
847.566	56.62
848.002	54.82
848.437	56.22
848.872	52.72
849.307	67.92
849.742	76.22
850.177	165.32
850.613	531.82
851.048	855.52
851.483	377.22
851.918	145.32
852.353	83.02
852.788	49.42
853.223	57.62
853.657	48.72
854.092	46.72
854.527	40.52
854.962	37.12
855.397	47.32
855.832	50.42
856.266	43.62
856.701	38.72
857.136	32.32
857.57	41.92
858.005	42.92
858.44	54.82
858.874	43.02
859.309	58.72
859.743	43.72
860.178	46.52
860.612	38.32
861.047	46.62
861.481	64.42
861.915	67.52
862.35	47.92
862.784	29.62
863.218	37.72
863.653	28.92
864.087	50.22
864.521	49.62
864.955	68.02
865.39	150.52
865.824	178.72
866.258	111.32
866.692	159.62
867.126	165.22
867.56	102.32
867.994	53.02
868.428	31.22
868.862	48.22
869.296	51.32
869.73	54.12
870.164	52.52
870.598	47.22
871.031	35.92
871.465	32.62
871.899	32.12
872.333	23.62
872.766	29.32
873.2	23.22
873.634	34.32
874.067	24.82
874.501	26.02
874.935	34.72
875.368	31.72
875.802	26.92
876.235	23.82
876.669	28.52
877.102	25.12
877.535	29.12
877.969	26.32
878.402	21.02
878.836	18.92
879.269	27.82
879.702	22.42
880.135	26.02
880.569	23.22
881.002	30.22
881.435	23.52
881.868	15.32
882.301	19.92
882.734	15.82
883.167	23.92
883.601	17.32
884.034	16.62
884.467	8.12
884.899	23.62
885.332	13.52
885.765	18.02
886.198	20.92
886.631	18.92
887.064	21.22
887.497	18.32
887.929	24.62
888.362	14.72
888.795	17.32
889.228	22.52
889.66	18.52
890.093	15.82
890.526	19.82
890.958	19.62
891.391	15.12
891.823	20.92
892.256	17.52
892.688	15.62
893.121	17.02
893.553	9.72
893.985	22.82
894.418	20.42
894.85	16.32
895.282	11.62
895.715	16.42
896.147	15.62
896.579	13.92
897.011	16.42
897.444	19.02
897.876	16.62
898.308	20.52
898.74	11.12
899.172	12.72
899.604	27.22
900.036	22.62
900.468	15.52
900.9	16.52
901.332	16.22
901.764	13.22
902.196	19.32
902.628	20.42
903.06	9.12
903.491	24.32
903.923	22.22
904.355	19.12
904.787	22.52
905.218	21.92
905.65	21.62
906.082	13.62
906.513	13.12
906.945	16.02
907.376	15.42
907.808	23.02
908.239	20.02
908.671	25.12
909.102	17.82
909.534	25.82
909.965	43.22
910.397	83.12
910.828	297.82
911.259	456.02
911.691	210.72
912.122	101.82
912.553	54.72
912.984	32.82
913.415	24.72
913.847	23.52
914.278	17.52
914.709	17.02
915.14	17.02
915.571	19.02
916.002	16.52
916.433	20.22
916.864	18.72
917.295	16.82
917.726	20.02
918.157	14.72
918.587	26.52
919.018	26.32
919.449	18.72
919.88	23.72
920.311	34.92
920.741	45.42
921.172	162.22
921.603	150.22
922.033	68.62
922.464	42.32
922.895	23.02
923.325	25.52
923.756	17.72
924.186	16.32
924.617	25.02
925.047	39.72
925.478	52.12
925.908	42.12
926.338	27.92
926.769	14.52
927.199	24.42
927.629	8.42
928.06	20.02
928.49	17.42
928.92	14.22
929.35	7.52
929.78	9.62
930.21	9.42
930.641	9.52
931.071	9.22
931.501	8.22
931.931	12.42
932.361	9.42
932.791	1.42
933.221	1.12
933.651	8.52
934.08	19.82
934.51	28.02
934.94	5.52
935.37	12.62
935.8	15.32
936.229	6.92
936.659	6.72
937.089	6.42
937.519	16.52
937.948	25.52
938.378	13.72
938.807	7.62
939.237	4.02
939.666	10.82
940.096	-5.48
940.525	-0.58
940.955	5.02
941.384	11.32
941.814	-1.78
942.243	-2.68
942.672	8.02
943.102	-5.18
943.531	2.52
943.96	3.02
944.39	1.72
944.819	-4.08
945.248	1.12
945.677	-1.48
946.106	8.62
946.535	5.62
946.964	1.22
947.393	0.52
947.822	3.52
948.251	-5.38
948.68	2.82
949.109	7.12
949.538	6.02
949.967	0.82
950.396	3.02
950.825	1.92
951.254	-2.28
951.682	-8.08
952.111	2.92
952.54	3.52
952.969	-1.48
953.397	-3.18
953.826	5.12
954.254	-0.88
954.683	2.52
955.112	-0.08
955.54	2.12
955.969	2.72
956.397	6.42
956.826	0.62
957.254	8.82
957.682	7.02
958.111	10.42
958.539	5.92
958.967	1.22
959.396	-1.98
959.824	-0.08
960.252	0.42
960.68	-6.28
961.109	0.52
961.537	-4.28
961.965	-3.68
962.393	-1.88
962.821	-1.28
963.249	1.82
963.677	4.52
964.105	5.62
964.533	44.52
964.961	39.52
965.389	19.72
965.817	12.42
966.245	-0.88
966.672	-0.48
967.1	-3.18
967.528	0.52
967.956	-7.28
968.383	3.52
968.811	-2.08
969.239	1.22
969.666	0.22
970.094	6.72
970.522	3.52
970.949	4.02
971.377	-4.98
971.804	-3.58
972.232	-0.98
972.659	-4.98
973.087	-2.18
973.514	-1.28
973.941	-3.68
974.369	2.62
974.796	-1.98
975.223	-0.68
975.651	1.02
976.078	6.02
976.505	-2.08
976.932	9.32
977.359	14.22
977.786	20.92
978.214	1.02
978.641	-1.88
979.068	-3.78
979.495	-6.68
979.922	-3.38
980.349	-1.78
980.776	7.62
981.202	-4.38
981.629	7.02
982.056	3.92
982.483	-1.68
982.91	5.62
983.337	-9.78
983.763	3.22
984.19	-8.58
984.617	-8.18
985.043	-13.68
985.47	-1.78
985.897	-2.08
986.323	-5.18
986.75	-2.28
987.176	-3.28
987.603	-0.88
988.029	-3.58
988.456	0.42
988.882	4.42
989.308	-2.38
989.735	-7.48
990.161	1.42
990.587	-1.08
991.014	-1.48
991.44	12.82
991.866	0.32
992.292	-1.18
992.719	-3.98
993.145	4.12
993.571	-4.28
993.997	-5.18
994.423	-5.88
994.849	-6.08
995.275	-0.18
995.701	2.82
996.127	-5.68
996.553	3.32
996.979	0.42
997.405	-8.08
997.83	-6.38
998.256	-4.88
998.682	-6.98
999.108	-8.98
999.534	-1.78
999.959	-0.78
1000.385	-4.78
1000.811	4.82
1001.236	-12.98
1001.662	-8.78
1002.087	-11.28
1002.513	1.12
1002.938	3.42
1003.364	-3.78
1003.789	-3.18
1004.215	1.62
1004.64	4.22
1005.066	1.72
1005.491	-0.68
1005.916	-6.68
1006.342	-3.78
1006.767	-4.18
1007.192	5.32
1007.617	-5.68
1008.042	-5.08
1008.468	-6.08
1008.893	-9.58
1009.318	-4.68
1009.743	2.12
1010.168	3.62
1010.593	-0.68
1011.018	-7.98
1011.443	2.42
1011.868	0.92
1012.293	-4.28
1012.718	-2.88
1013.143	4.62
1013.567	3.62
1013.992	3.92
1014.417	-13.08
1014.842	2.12
1015.267	-2.98
1015.691	-6.78
1016.116	2.12
1016.541	-6.28
1016.965	5.32
1017.39	4.62
1017.814	2.52
1018.239	-2.08
1018.663	-11.68
1019.088	-8.68
1019.512	-5.48
1019.937	-3.78
1020.361	-1.68
1020.785	-8.78
1021.21	-0.88
1021.634	-6.78
1022.058	1.12
1022.483	3.72
1022.907	-3.98
1023.331	-4.08
1023.755	-2.98
1024.179	-3.38
1024.604	1.82
1025.028	-2.28
1025.452	-6.68
1025.876	-1.88
1026.3	1.02
1026.724	-13.18
1027.148	-3.98
1027.572	-3.18
1027.996	-5.58
1028.42	-0.48
1028.843	-3.28
1029.267	-2.78
1029.691	-0.08
1030.115	0.72
1030.539	-8.08
1030.962	-4.68
1031.386	-7.78
1031.81	-5.48
1032.233	6.72
1032.657	0.62
1033.08	-0.28
1033.504	-2.98
1033.927	-3.68
1034.351	-7.98
1034.774	-7.18
1035.198	-1.78
1035.621	-9.58
1036.045	-2.08
1036.468	5.22
1036.891	-12.28
1037.315	-2.78
1037.738	-5.78
1038.161	4.22
1038.584	-5.78
1039.008	-1.48
1039.431	0.72
1039.854	-1.08
1040.277	-6.18
1040.7	-6.68
1041.123	-0.38
1041.546	-6.08
1041.969	-3.18
1042.392	-10.38
1042.815	-3.28
1043.238	1.02
1043.661	4.72
1044.084	-9.68
1044.507	-0.18
1044.93	-10.38
1045.352	-6.28
1045.775	-1.58
1046.198	-2.58
1046.621	0.02
1047.043	1.12
1047.466	1.62
1047.889	-2.38
1048.311	-0.88
1048.734	-5.08
1049.156	-4.18
1049.579	-3.28
1050.001	-3.58
1050.424	2.42
1050.846	-0.38
1051.269	0.12
1051.691	-1.78
1052.113	-0.58
1052.536	-1.98
1052.958	-4.28
1053.38	-1.48
1053.802	-10.58
1054.225	0.42
1054.647	-7.18
1055.069	-7.28
1055.491	7.22
1055.913	-1.88
1056.335	3.62
1056.757	-3.08
1057.179	-2.38
1057.601	-3.78
1058.023	-4.08
1058.445	-5.68
1058.867	-4.98
1059.289	-5.68
1059.711	-4.58
1060.133	-9.78
1060.555	-3.58
1060.976	-10.38
1061.398	-4.68
1061.82	-2.38
1062.241	0.62
1062.663	-6.98
1063.085	-6.88
1063.506	4.92
1063.928	-2.38
1064.35	-1.98
1064.771	-9.98
1065.193	-4.88
1065.614	-10.18
1066.035	-3.58
1066.457	-2.38
1066.878	0.52
1067.3	-2.08
1067.721	-3.18
1068.142	-9.18
1068.564	-2.78
1068.985	-4.08
1069.406	-3.28
1069.827	-1.08
1070.248	-0.48
1070.67	-8.38
1071.091	-2.88
1071.512	3.12
1071.933	-1.48
1072.354	-11.18
1072.775	-6.68
1073.196	-9.08
1073.617	-0.98
1074.038	-7.38
1074.459	0.62
1074.88	-7.58
1075.3	-2.78
1075.721	-4.88
1076.142	-1.78
1076.563	-0.28
1076.983	-6.28
1077.404	-6.08
1077.825	-9.18
1078.246	-0.58
1078.666	-9.48
1079.087	-4.68
1079.507	-4.68
1079.928	-0.78
1080.348	-0.88
1080.769	-3.78
1081.189	0.72
1081.61	0.12
1082.03	-2.48
1082.451	-4.28
1082.871	-1.98
1083.291	0.12
1083.711	-2.38
1084.132	-4.48
1084.552	-6.38
1084.972	1.22
1085.392	-8.88
1085.813	-9.58
1086.233	-9.38
1086.653	-6.38
1087.073	0.02
1087.493	-1.68
1087.913	-4.78
1088.333	-7.58
1088.753	-10.38
1089.173	8.62
1089.593	3.52
1090.013	5.52
1090.433	3.72
1090.852	-1.98
1091.272	-0.68
1091.692	1.72
1092.112	-0.78
1092.531	-2.28
1092.951	-8.18
1093.371	3.92
1093.79	4.52
1094.21	-5.68
1094.63	-3.48
1095.049	-5.88
1095.469	-0.38
1095.888	-2.08
1096.308	1.52
1096.727	-0.18
1097.146	-11.08
1097.566	-2.78
1097.985	-5.18
1098.405	-1.48
1098.824	-7.08
1099.243	-7.28
1099.662	-8.88
1100.082	-1.98
1100.501	-0.88
1100.92	-10.38
1101.339	-6.08
1101.758	-5.38
