Data from 20171114-ORNL-Ar_H_NY_Subt18_08-08-17-568.txt Node
Date: Tue Nov 14 08:08:17 EST 2017
User: Ender
Spectrometer: HR+D1039
Trigger mode: 0
Integration Time (sec): 2.730000E-2
Scans to average: 10
Electric dark correction enabled: true
Nonlinearity correction enabled: false
Boxcar width: 0
XAxis mode: Wavelengths
Number of Pixels in Spectrum: 2048
>>>>>Begin Spectral Data<<<<<
187.836	-6.33
188.309	-6.33
188.782	-6.33
189.255	3.67
189.728	-0.93
190.201	3.37
190.674	3.57
191.147	-0.33
191.619	-9.13
192.092	1.77
192.565	5.77
193.038	1.67
193.511	-1.93
193.984	-0.53
194.456	2.37
194.929	1.07
195.402	-3.83
195.874	-0.33
196.347	-0.23
196.82	-8.33
197.292	-3.13
197.765	-1.93
198.237	-4.13
198.71	0.17
199.182	-5.43
199.655	1.57
200.127	3.47
200.6	-8.33
201.072	-0.63
201.544	-5.43
202.017	-3.83
202.489	4.67
202.961	-5.03
203.433	-4.23
203.906	-2.63
204.378	-8.23
204.85	-4.23
205.322	-7.53
205.794	-1.03
206.266	-3.33
206.739	-3.83
207.211	-1.83
207.683	-3.93
208.155	-4.73
208.627	-8.23
209.099	-2.83
209.57	-8.83
210.042	-4.93
210.514	-7.33
210.986	-2.63
211.458	-7.43
211.93	-6.43
212.402	0.97
212.873	-0.23
213.345	-10.63
213.817	-11.03
214.288	-10.03
214.76	-12.73
215.232	-5.13
215.703	-1.93
216.175	-5.53
216.646	-4.03
217.118	-10.43
217.589	-9.33
218.061	1.67
218.532	-5.43
219.004	-2.93
219.475	-5.83
219.946	-0.73
220.418	-10.43
220.889	-0.23
221.36	-2.13
221.832	-3.03
222.303	-9.93
222.774	4.27
223.245	-11.33
223.717	-10.43
224.188	-3.63
224.659	-7.13
225.13	-5.23
225.601	-4.03
226.072	-1.83
226.543	-4.23
227.014	-3.73
227.485	-4.03
227.956	-6.23
228.427	1.07
228.898	-0.93
229.369	3.47
229.839	-4.43
230.31	-4.73
230.781	4.27
231.252	-0.63
231.722	-2.93
232.193	-0.23
232.664	0.57
233.135	4.37
233.605	-0.33
234.076	-13.83
234.546	-2.53
235.017	4.77
235.487	1.57
235.958	-1.73
236.428	-3.73
236.899	0.87
237.369	4.57
237.84	-6.03
238.31	7.07
238.78	0.87
239.251	-1.43
239.721	-0.23
240.191	-1.33
240.662	-3.03
241.132	-2.53
241.602	-3.63
242.072	-1.73
242.542	8.27
243.013	2.07
243.483	3.07
243.953	-3.83
244.423	0.57
244.893	-3.53
245.363	-0.93
245.833	1.57
246.303	-0.93
246.773	1.07
247.243	2.27
247.712	-1.33
248.182	7.07
248.652	4.37
249.122	-2.93
249.592	7.17
250.061	19.67
250.531	33.37
251.001	7.37
251.471	19.47
251.94	19.27
252.41	10.47
252.879	7.57
253.349	10.07
253.818	10.37
254.288	1.57
254.757	3.77
255.227	-1.73
255.696	1.47
256.166	5.67
256.635	8.27
257.105	8.07
257.574	2.17
258.043	11.97
258.513	11.37
258.982	15.27
259.451	7.87
259.92	11.97
260.389	6.57
260.859	16.37
261.328	6.67
261.797	13.67
262.266	8.07
262.735	10.17
263.204	-1.43
263.673	-0.63
264.142	2.27
264.611	2.47
265.08	-1.83
265.549	-5.43
266.018	1.07
266.487	-5.73
266.955	-6.23
267.424	4.97
267.893	8.87
268.362	-1.23
268.83	6.47
269.299	13.57
269.768	6.27
270.236	10.57
270.705	-0.63
271.174	8.57
271.642	7.17
272.111	10.47
272.579	11.97
273.048	25.57
273.516	28.17
273.985	25.37
274.453	21.57
274.922	20.97
275.39	6.97
275.858	0.27
276.327	2.17
276.795	10.87
277.263	5.37
277.731	27.77
278.2	54.37
278.668	57.37
279.136	48.97
279.604	20.67
280.072	11.07
280.54	9.97
281.008	9.87
281.477	16.27
281.945	13.27
282.413	14.87
282.881	14.47
283.348	5.37
283.816	11.67
284.284	17.37
284.752	21.17
285.22	7.97
285.688	9.77
286.156	18.77
286.623	38.77
287.091	50.27
287.559	34.97
288.026	15.27
288.494	18.17
288.962	8.47
289.429	9.47
289.897	12.77
290.364	8.17
290.832	14.37
291.3	12.37
291.767	16.07
292.234	16.87
292.702	9.37
293.169	18.17
293.637	17.47
294.104	18.77
294.571	8.77
295.039	10.57
295.506	14.67
295.973	20.17
296.44	13.17
296.908	19.77
297.375	16.87
297.842	16.17
298.309	14.87
298.776	13.57
299.243	23.67
299.71	16.17
300.177	19.97
300.644	23.07
301.111	20.17
301.578	22.77
302.045	18.07
302.512	20.17
302.979	23.67
303.446	18.67
303.913	15.47
304.379	14.57
304.846	29.47
305.313	25.97
305.78	25.97
306.246	31.57
306.713	23.47
307.18	24.37
307.646	25.87
308.113	25.17
308.579	25.67
309.046	20.87
309.512	25.77
309.979	15.77
310.445	28.57
310.912	30.27
311.378	34.77
311.845	29.07
312.311	27.67
312.777	33.17
313.244	32.77
313.71	38.07
314.176	29.17
314.642	32.27
315.109	30.97
315.575	34.97
316.041	37.67
316.507	31.27
316.973	36.57
317.439	33.77
317.905	35.37
318.371	35.37
318.837	35.17
319.303	30.57
319.769	31.87
320.235	37.37
320.701	31.27
321.167	35.77
321.633	30.57
322.099	38.97
322.564	44.77
323.03	41.57
323.496	35.17
323.962	34.97
324.427	37.27
324.893	38.17
325.359	32.17
325.824	30.07
326.29	38.77
326.755	36.57
327.221	37.37
327.686	41.87
328.152	45.87
328.617	38.37
329.083	43.17
329.548	46.47
330.014	43.57
330.479	40.37
330.944	40.47
331.41	44.97
331.875	46.47
332.34	45.07
332.805	37.17
333.271	39.47
333.736	42.57
334.201	50.17
334.666	49.47
335.131	51.07
335.596	50.87
336.061	49.87
336.526	36.57
336.991	48.97
337.456	52.37
337.921	48.67
338.386	41.47
338.851	47.77
339.316	41.07
339.781	52.67
340.246	54.57
340.711	46.67
341.175	48.97
341.64	47.07
342.105	48.47
342.569	48.27
343.034	59.17
343.499	51.57
343.963	54.67
344.428	64.67
344.893	55.57
345.357	64.87
345.822	56.77
346.286	62.87
346.751	70.77
347.215	67.57
347.679	69.17
348.144	105.77
348.608	79.17
349.073	70.47
349.537	71.07
350.001	83.77
350.465	93.27
350.93	84.07
351.394	85.77
351.858	71.37
352.322	84.67
352.786	81.17
353.25	98.97
353.715	105.17
354.179	109.07
354.643	125.87
355.107	129.97
355.571	108.97
356.035	105.47
356.498	122.07
356.962	126.57
357.426	135.97
357.89	115.27
358.354	87.47
358.818	87.67
359.281	73.27
359.745	75.17
360.209	73.17
360.673	76.27
361.136	73.97
361.6	80.97
362.064	90.37
362.527	86.27
362.991	94.07
363.454	80.67
363.918	73.97
364.381	82.67
364.845	82.67
365.308	80.87
365.772	87.87
366.235	80.27
366.698	86.97
367.162	85.17
367.625	88.67
368.088	90.07
368.552	85.47
369.015	93.27
369.478	95.57
369.941	106.47
370.404	92.77
370.867	101.87
371.331	103.97
371.794	109.67
372.257	113.27
372.72	121.07
373.183	109.97
373.646	97.07
374.109	97.27
374.572	103.87
375.035	101.87
375.497	109.27
375.96	107.27
376.423	102.87
376.886	111.97
377.349	105.57
377.811	102.07
378.274	103.47
378.737	104.27
379.199	117.57
379.662	115.17
380.125	115.47
380.587	118.27
381.05	129.77
381.512	130.17
381.975	145.87
382.437	129.57
382.9	125.57
383.362	133.67
383.825	142.47
384.287	155.17
384.75	149.17
385.212	139.97
385.674	139.57
386.136	139.77
386.599	128.47
387.061	132.17
387.523	129.57
387.985	140.87
388.447	150.47
388.91	145.47
389.372	159.37
389.834	155.77
390.296	146.07
390.758	154.97
391.22	173.77
391.682	219.77
392.144	319.37
392.606	235.67
393.068	172.97
393.529	175.07
393.991	152.17
394.453	151.97
394.915	164.37
395.377	202.97
395.838	222.77
396.3	155.67
396.762	147.67
397.224	138.97
397.685	135.07
398.147	129.87
398.608	135.27
399.07	130.97
399.531	137.27
399.993	144.17
400.454	152.77
400.916	144.17
401.377	141.27
401.839	158.37
402.3	159.17
402.762	168.97
403.223	183.97
403.684	175.87
404.145	165.27
404.607	165.77
405.068	168.87
405.529	169.87
405.99	192.07
406.451	180.67
406.913	176.87
407.374	170.77
407.835	164.07
408.296	172.27
408.757	181.97
409.218	192.97
409.679	186.47
410.14	184.37
410.601	178.07
411.062	183.87
411.522	193.97
411.983	194.27
412.444	179.17
412.905	183.07
413.366	183.27
413.826	196.67
414.287	216.27
414.748	258.27
415.208	241.17
415.669	213.47
416.13	211.27
416.59	201.37
417.051	220.97
417.511	222.17
417.972	236.07
418.432	245.87
418.893	293.87
419.353	243.27
419.814	195.17
420.274	185.17
420.734	179.07
421.195	202.87
421.655	199.87
422.115	195.07
422.576	194.37
423.036	196.27
423.496	208.47
423.956	215.97
424.416	231.87
424.876	275.87
425.336	266.37
425.797	260.37
426.257	258.87
426.717	244.17
427.177	239.57
427.637	223.67
428.097	242.77
428.556	257.47
429.016	269.87
429.476	265.77
429.936	281.07
430.396	288.27
430.856	298.77
431.315	326.17
431.775	365.47
432.235	392.67
432.694	366.57
433.154	373.97
433.614	411.77
434.073	341.07
434.533	295.77
434.993	277.07
435.452	286.97
435.912	301.27
436.371	294.07
436.83	284.27
437.29	277.87
437.749	255.57
438.209	244.87
438.668	284.47
439.127	302.67
439.587	273.57
440.046	253.27
440.505	261.87
440.964	278.57
441.424	331.87
441.883	315.47
442.342	268.27
442.801	224.17
443.26	223.47
443.719	224.27
444.178	216.07
444.637	212.27
445.096	219.37
445.555	223.37
446.014	227.77
446.473	229.77
446.932	233.77
447.391	233.87
447.849	229.27
448.308	221.37
448.767	223.57
449.226	238.67
449.685	237.27
450.143	247.87
450.602	243.57
451.061	228.77
451.519	236.17
451.978	238.37
452.436	239.77
452.895	235.87
453.353	261.27
453.812	243.57
454.27	242.47
454.729	240.67
455.187	238.87
455.646	248.27
456.104	253.07
456.562	259.07
457.021	271.87
457.479	268.07
457.937	279.77
458.395	266.07
458.854	260.47
459.312	265.47
459.77	283.17
460.228	255.67
460.686	240.77
461.144	250.27
461.602	243.47
462.06	245.67
462.518	253.67
462.976	251.57
463.434	255.67
463.892	267.27
464.35	276.77
464.808	296.27
465.266	266.77
465.724	269.77
466.181	281.67
466.639	269.97
467.097	282.27
467.555	301.47
468.012	300.57
468.47	310.67
468.928	330.97
469.385	338.37
469.843	358.37
470.3	351.97
470.758	366.37
471.215	389.77
471.673	412.67
472.13	414.97
472.588	420.97
473.045	375.87
473.503	383.67
473.96	401.77
474.417	409.27
474.875	435.87
475.332	487.97
475.789	465.97
476.246	469.87
476.704	487.47
477.161	512.07
477.618	530.67
478.075	568.07
478.532	627.97
478.989	696.47
479.446	822.67
479.903	780.27
480.36	808.77
480.817	883.07
481.274	982.17
481.731	1093.07
482.188	1176.47
482.645	1323.27
483.102	1435.77
483.558	1555.47
484.015	1623.88
484.472	1578.37
484.929	1545.37
485.385	1502.97
485.842	1438.67
486.299	1376.97
486.755	1321.67
487.212	1095.77
487.668	934.27
488.125	861.17
488.582	785.77
489.038	748.77
489.494	715.37
489.951	680.47
490.407	670.57
490.864	644.27
491.32	647.07
491.776	639.07
492.233	651.87
492.689	616.47
493.145	611.57
493.602	602.37
494.058	615.77
494.514	616.57
494.97	637.97
495.426	656.17
495.882	623.07
496.338	609.07
496.794	620.27
497.251	611.87
497.707	633.07
498.163	631.67
498.618	652.37
499.074	653.57
499.53	681.87
499.986	679.07
500.442	654.07
500.898	643.77
501.354	626.97
501.809	638.77
502.265	637.87
502.721	663.77
503.177	676.97
503.632	670.77
504.088	680.77
504.543	715.27
504.999	719.97
505.455	655.17
505.91	634.27
506.366	634.57
506.821	619.47
507.277	618.57
507.732	625.37
508.187	625.87
508.643	639.47
509.098	637.67
509.553	651.57
510.009	661.87
510.464	661.67
510.919	678.57
511.375	690.57
511.83	704.97
512.285	725.37
512.74	757.47
513.195	783.07
513.65	767.07
514.105	771.17
514.56	771.07
515.015	791.67
515.47	815.57
515.925	782.87
516.38	787.37
516.835	790.07
517.29	783.37
517.745	778.37
518.2	764.07
518.655	751.47
519.109	737.87
519.564	742.77
520.019	730.57
520.474	719.97
520.928	713.07
521.383	716.07
521.838	708.27
522.292	705.97
522.747	717.57
523.201	710.27
523.656	701.77
524.11	688.97
524.565	691.27
525.019	688.97
525.474	703.97
525.928	708.77
526.382	691.87
526.837	693.47
527.291	706.07
527.745	690.07
528.2	697.97
528.654	687.87
529.108	683.87
529.562	695.57
530.016	682.87
530.47	691.47
530.925	695.97
531.379	705.97
531.833	704.67
532.287	704.57
532.741	693.07
533.195	704.57
533.649	712.57
534.103	714.77
534.556	694.17
535.01	700.97
535.464	704.37
535.918	714.17
536.372	718.47
536.826	715.17
537.279	711.27
537.733	705.37
538.187	718.47
538.64	714.37
539.094	718.17
539.548	727.37
540.001	720.97
540.455	721.37
540.908	732.87
541.362	738.27
541.815	746.77
542.269	754.07
542.722	765.67
543.175	779.47
543.629	761.17
544.082	792.77
544.536	787.67
544.989	782.27
545.442	793.87
545.895	803.37
546.349	789.27
546.802	783.87
547.255	794.57
547.708	802.77
548.161	810.27
548.614	817.07
549.067	830.67
549.52	820.07
549.973	806.57
550.426	803.07
550.879	790.57
551.332	809.67
551.785	799.67
552.238	808.57
552.691	817.47
553.144	843.87
553.596	840.17
554.049	856.97
554.502	908.17
554.955	906.27
555.407	895.77
555.86	891.77
556.313	888.77
556.765	888.17
557.218	884.37
557.67	883.27
558.123	866.57
558.576	869.67
559.028	884.57
559.48	874.97
559.933	875.47
560.385	835.57
560.838	803.27
561.29	787.77
561.742	785.37
562.195	761.77
562.647	757.47
563.099	765.37
563.551	777.07
564.004	784.47
564.456	775.67
564.908	764.37
565.36	743.87
565.812	736.27
566.264	728.17
566.716	725.17
567.168	721.07
567.62	730.57
568.072	711.37
568.524	697.07
568.976	687.77
569.428	685.47
569.88	670.67
570.332	690.87
570.784	696.37
571.235	688.27
571.687	690.67
572.139	699.47
572.59	699.87
573.042	710.07
573.494	710.47
573.945	708.37
574.397	688.67
574.849	688.27
575.3	695.67
575.752	675.37
576.203	691.57
576.655	692.87
577.106	668.27
577.557	668.57
578.009	679.77
578.46	669.57
578.912	655.87
579.363	661.27
579.814	662.67
580.265	673.27
580.717	673.67
581.168	663.97
581.619	669.37
582.07	680.27
582.521	671.57
582.972	668.87
583.423	681.97
583.875	683.97
584.326	712.57
584.777	755.37
585.227	845.07
585.678	942.47
586.129	1041.27
586.58	1108.27
587.031	1187.77
587.482	1347.27
587.933	1548.47
588.384	1353.87
588.834	995.87
589.285	818.27
589.736	790.17
590.186	775.67
590.637	773.67
591.088	744.27
591.538	742.47
591.989	732.47
592.439	725.97
592.89	717.67
593.34	713.87
593.791	707.77
594.241	718.07
594.692	707.37
595.142	706.67
595.593	702.27
596.043	708.97
596.493	714.17
596.943	725.67
597.394	731.47
597.844	724.97
598.294	729.37
598.744	760.87
599.195	783.77
599.645	833.97
600.095	861.07
600.545	915.67
600.995	969.38
601.445	1033.17
601.895	1086.27
602.345	1138.47
602.795	1115.17
603.245	1068.17
603.695	1011.57
604.145	960.07
604.594	904.17
605.044	861.37
605.494	800.27
605.944	762.67
606.393	748.07
606.843	740.17
607.293	748.17
607.743	736.87
608.192	746.27
608.642	763.37
609.091	765.47
609.541	776.07
609.99	777.07
610.44	781.17
610.889	717.17
611.339	707.77
611.788	696.37
612.238	715.67
612.687	730.17
613.136	726.87
613.586	744.77
614.035	743.67
614.484	771.07
614.933	770.37
615.383	758.37
615.832	739.77
616.281	731.17
616.73	689.77
617.179	670.77
617.628	650.47
618.077	643.57
618.526	625.57
618.975	630.87
619.424	621.47
619.873	620.97
620.322	628.47
620.771	622.07
621.22	613.87
621.669	593.17
622.118	596.87
622.567	586.77
623.015	571.17
623.464	577.77
623.913	570.57
624.361	565.97
624.81	559.47
625.259	555.17
625.707	561.87
626.156	560.47
626.604	570.47
627.053	561.67
627.501	559.97
627.95	564.77
628.398	586.47
628.847	570.87
629.295	570.17
629.744	577.97
630.192	571.47
630.64	579.87
631.089	571.37
631.537	583.57
631.985	597.07
632.433	610.87
632.881	632.47
633.33	675.87
633.778	657.77
634.226	576.17
634.674	575.87
635.122	599.67
635.57	611.97
636.018	639.37
636.466	592.37
636.914	565.67
637.362	572.97
637.81	572.97
638.258	585.67
638.705	586.57
639.153	617.37
639.601	630.47
640.049	648.07
640.497	674.37
640.944	701.67
641.392	644.47
641.84	621.67
642.287	585.37
642.735	574.17
643.182	579.37
643.63	582.37
644.078	584.87
644.525	602.57
644.973	616.37
645.42	615.27
645.867	631.07
646.315	647.57
646.762	667.87
647.21	694.67
647.657	733.37
648.104	762.17
648.551	790.17
648.999	857.17
649.446	924.17
649.893	1034.07
650.34	1193.97
650.787	1434.27
651.234	1785.88
651.682	2346.87
652.129	3227.97
652.576	4674.27
653.023	6852.38
653.47	9398.98
653.917	11629.08
654.363	13330.38
654.81	14610.48
655.257	13875.68
655.704	9119.88
656.151	5403.27
656.598	3498.27
657.044	2463.97
657.491	1895.17
657.938	1509.27
658.385	1260.27
658.831	1099.17
659.278	960.07
659.724	865.17
660.171	800.37
660.618	734.57
661.064	699.47
661.511	680.67
661.957	670.07
662.404	653.87
662.85	655.87
663.296	636.17
663.743	576.77
664.189	546.67
664.635	542.77
665.082	533.47
665.528	537.17
665.974	526.17
666.42	518.27
666.867	512.87
667.313	494.07
667.759	486.57
668.205	482.87
668.651	490.07
669.097	505.77
669.543	521.07
669.989	484.07
670.435	453.57
670.881	448.07
671.327	451.47
671.773	474.47
672.219	491.57
672.665	544.57
673.11	587.07
673.556	638.07
674.002	669.37
674.448	662.97
674.893	559.07
675.339	476.57
675.785	441.17
676.23	418.47
676.676	381.87
677.122	387.87
677.567	370.07
678.013	374.87
678.458	360.07
678.904	367.17
679.349	349.77
679.794	358.07
680.24	356.97
680.685	345.17
681.131	354.07
681.576	356.67
682.021	362.47
682.466	352.87
682.912	353.57
683.357	358.37
683.802	383.87
684.247	420.17
684.692	459.47
685.137	498.97
685.583	544.67
686.028	563.47
686.473	529.07
686.918	449.87
687.363	420.77
687.807	391.27
688.252	368.07
688.697	356.97
689.142	334.27
689.587	338.97
690.032	332.97
690.477	346.17
690.921	354.87
691.366	390.57
691.811	406.17
692.255	428.97
692.7	460.97
693.145	519.47
693.589	715.77
694.034	1163.47
694.478	1561.97
694.923	1731.07
695.367	2247.07
695.812	1201.47
696.256	509.27
696.701	368.77
697.145	350.97
697.59	342.07
698.034	327.97
698.478	329.17
698.922	336.47
699.367	330.47
699.811	338.87
700.255	355.97
700.699	377.27
701.143	429.47
701.588	480.07
702.032	521.77
702.476	518.37
702.92	507.77
703.364	499.77
703.808	652.77
704.252	1068.17
704.696	1474.47
705.14	1679.27
705.584	2114.07
706.027	1070.67
706.471	523.57
706.915	395.07
707.359	349.97
707.803	320.87
708.246	315.77
708.69	312.77
709.134	324.57
709.577	309.27
710.021	313.37
710.465	307.77
710.908	302.57
711.352	302.37
711.795	317.37
712.239	355.07
712.682	393.87
713.126	421.27
713.569	471.07
714.012	379.07
714.456	330.87
714.899	301.47
715.342	278.27
715.786	260.97
716.229	263.67
716.672	264.27
717.115	256.97
717.558	250.37
718.002	249.47
718.445	261.57
718.888	286.87
719.331	296.07
719.774	302.97
720.217	303.87
720.66	287.27
721.103	268.47
721.546	260.97
721.989	256.27
722.432	236.37
722.874	239.37
723.317	237.47
723.76	241.67
724.203	262.47
724.645	321.07
725.088	456.87
725.531	573.07
725.974	642.17
726.416	551.57
726.859	313.07
727.301	249.07
727.744	246.57
728.187	238.57
728.629	240.67
729.071	248.67
729.514	266.67
729.956	278.37
730.399	288.17
730.841	289.47
731.283	274.97
731.726	261.87
732.168	266.57
732.61	273.77
733.053	288.37
733.495	317.57
733.937	356.77
734.379	404.97
734.821	436.07
735.263	560.87
735.705	865.57
736.148	1637.97
736.59	2631.97
737.032	3031.17
737.474	2457.77
737.916	813.37
738.357	438.67
738.799	338.37
739.241	301.67
739.683	282.27
740.125	295.27
740.567	300.67
741.008	312.57
741.45	325.27
741.892	322.17
742.334	349.47
742.775	354.97
743.217	341.07
743.658	273.47
744.1	248.17
744.542	267.87
744.983	313.07
745.425	345.97
745.866	340.97
746.307	284.27
746.749	287.67
747.19	326.77
747.632	472.17
748.073	917.97
748.514	1926.07
748.956	2869.67
749.397	3596.37
749.838	3012.77
750.279	2936.27
750.72	1477.67
751.162	551.57
751.603	319.27
752.044	254.87
752.485	217.67
752.926	212.57
753.367	210.57
753.808	197.37
754.249	187.67
754.69	192.77
755.131	182.67
755.572	186.57
756.013	182.37
756.453	194.27
756.894	193.87
757.335	195.87
757.776	201.67
758.216	203.27
758.657	195.37
759.098	202.97
759.538	228.47
759.979	269.27
760.42	392.07
760.86	732.77
761.301	1914.47
761.741	4521.57
762.182	6342.17
762.622	4448.47
763.063	1311.67
763.503	544.27
763.943	351.57
764.384	353.37
764.824	426.07
765.264	465.67
765.705	314.37
766.145	215.97
766.585	190.57
767.025	182.97
767.465	192.17
767.906	260.37
768.346	323.97
768.786	345.77
769.226	275.87
769.666	337.87
770.106	660.17
770.546	1619.77
770.986	2630.77
771.426	2342.27
771.866	793.17
772.306	329.47
772.745	204.17
773.185	175.27
773.625	173.47
774.065	167.67
774.505	202.17
774.944	332.77
775.384	731.97
775.824	1285.07
776.263	1229.17
776.703	526.07
777.142	229.57
777.582	163.47
778.021	149.37
778.461	143.37
778.9	143.37
779.34	135.27
779.779	117.17
780.219	111.27
780.658	114.67
781.097	110.77
781.537	118.27
781.976	112.57
782.415	112.47
782.855	99.37
783.294	110.07
783.733	105.77
784.172	110.67
784.611	106.97
785.05	113.07
785.489	110.77
785.928	119.17
786.367	122.07
786.806	119.97
787.245	125.77
787.684	136.97
788.123	149.47
788.562	141.17
789.001	131.27
789.44	119.77
789.879	119.67
790.317	118.87
790.756	131.17
791.195	131.67
791.634	151.27
792.072	219.27
792.511	387.17
792.95	1065.07
793.388	2152.27
793.827	1912.37
794.265	675.67
794.704	290.77
795.142	184.37
795.581	154.07
796.019	139.97
796.458	139.37
796.896	121.47
797.334	132.07
797.773	161.47
798.211	224.07
798.649	461.97
799.087	1045.87
799.526	1616.07
799.964	2035.27
800.402	1984.67
800.84	755.37
801.278	310.87
801.716	198.07
802.154	150.87
802.592	144.57
803.03	138.67
803.468	134.77
803.906	149.27
804.344	149.37
804.782	137.57
805.22	133.87
805.658	131.57
806.096	146.77
806.533	160.47
806.971	174.97
807.409	215.97
807.847	327.17
808.284	691.47
808.722	1926.17
809.16	3283.97
809.597	3193.97
810.035	5500.07
810.472	5666.47
810.91	2065.27
811.347	793.07
811.785	401.57
812.222	256.07
812.66	197.27
813.097	170.47
813.535	145.07
813.972	128.57
814.409	121.67
814.846	114.37
815.284	117.07
815.721	100.97
816.158	107.57
816.595	126.77
817.032	182.07
817.47	205.67
817.907	166.07
818.344	158.87
818.781	122.97
819.218	98.57
819.655	122.17
820.092	185.87
820.529	209.47
820.966	175.77
821.403	137.47
821.839	111.17
822.276	102.07
822.713	122.27
823.15	134.67
823.587	116.77
824.023	149.57
824.46	315.07
824.897	916.87
825.333	1345.38
825.77	586.67
826.206	231.97
826.643	136.27
827.08	103.57
827.516	86.37
827.953	80.27
828.389	87.67
828.825	67.77
829.262	72.87
829.698	59.57
830.135	63.37
830.571	62.17
831.007	65.27
831.443	67.87
831.88	63.77
832.316	68.37
832.752	61.67
833.188	67.77
833.624	63.57
834.06	65.47
834.497	66.37
834.933	78.47
835.369	72.67
835.805	73.67
836.241	80.77
836.677	79.67
837.112	92.47
837.548	105.57
837.984	133.97
838.42	202.77
838.856	517.67
839.292	1555.17
839.727	2267.18
840.163	1061.97
840.599	959.37
841.034	2050.17
841.47	2078.07
841.906	768.87
842.341	339.07
842.777	238.47
843.212	336.07
843.648	319.97
844.083	151.57
844.519	100.17
844.954	77.17
845.39	57.27
845.825	61.27
846.261	53.67
846.696	54.27
847.131	52.37
847.566	56.17
848.002	51.37
848.437	48.67
848.872	60.97
849.307	61.37
849.742	83.87
850.177	189.67
850.613	570.07
851.048	866.87
851.483	373.97
851.918	156.97
852.353	85.47
852.788	63.47
853.223	58.77
853.657	62.47
854.092	51.67
854.527	38.97
854.962	39.67
855.397	43.57
855.832	42.97
856.266	37.77
856.701	42.07
857.136	36.87
857.57	41.77
858.005	52.57
858.44	58.57
858.874	41.87
859.309	53.17
859.743	39.87
860.178	42.17
860.612	46.27
861.047	52.87
861.481	67.97
861.915	71.07
862.35	53.17
862.784	38.47
863.218	31.97
863.653	31.07
864.087	47.37
864.521	52.37
864.955	74.47
865.39	154.37
865.824	177.27
866.258	108.87
866.692	161.17
867.126	162.37
867.56	106.97
867.994	44.97
868.428	37.87
868.862	39.57
869.296	51.47
869.73	58.67
870.164	51.57
870.598	47.27
871.031	36.07
871.465	37.27
871.899	31.87
872.333	24.17
872.766	21.27
873.2	25.67
873.634	29.47
874.067	28.77
874.501	19.87
874.935	32.47
875.368	28.77
875.802	29.87
876.235	29.17
876.669	28.07
877.102	24.87
877.535	25.57
877.969	22.77
878.402	23.37
878.836	17.27
879.269	26.17
879.702	23.37
880.135	21.87
880.569	21.07
881.002	31.57
881.435	16.17
881.868	14.07
882.301	27.87
882.734	19.17
883.167	23.97
883.601	18.37
884.034	18.27
884.467	16.07
884.899	19.77
885.332	16.17
885.765	16.77
886.198	19.47
886.631	15.47
887.064	16.97
887.497	19.57
887.929	27.27
888.362	16.07
888.795	11.77
889.228	13.97
889.66	19.97
890.093	22.27
890.526	16.97
890.958	16.47
891.391	18.77
891.823	18.47
892.256	17.07
892.688	14.17
893.121	17.27
893.553	14.77
893.985	23.27
894.418	12.77
894.85	14.57
895.282	16.07
895.715	21.97
896.147	17.27
896.579	15.67
897.011	15.87
897.444	16.37
897.876	14.67
898.308	21.37
898.74	15.27
899.172	17.87
899.604	20.77
900.036	17.67
900.468	11.17
900.9	7.27
901.332	20.57
901.764	16.07
902.196	17.27
902.628	12.87
903.06	19.87
903.491	32.67
903.923	22.37
904.355	19.17
904.787	28.07
905.218	23.87
905.65	23.37
906.082	17.67
906.513	8.97
906.945	12.07
907.376	12.07
907.808	20.97
908.239	26.47
908.671	19.77
909.102	24.37
909.534	26.27
909.965	50.87
910.397	99.17
910.828	319.07
911.259	470.67
911.691	213.97
912.122	103.17
912.553	52.17
912.984	36.07
913.415	30.37
913.847	24.77
914.278	11.07
914.709	14.97
915.14	18.57
915.571	17.87
916.002	14.97
916.433	18.27
916.864	14.27
917.295	9.17
917.726	19.47
918.157	20.77
918.587	31.27
919.018	26.57
919.449	23.17
919.88	24.67
920.311	32.17
920.741	47.57
921.172	166.67
921.603	152.77
922.033	70.47
922.464	41.77
922.895	16.17
923.325	17.67
923.756	20.67
924.186	14.07
924.617	26.57
925.047	44.57
925.478	54.77
925.908	49.37
926.338	31.67
926.769	25.67
927.199	20.07
927.629	12.67
928.06	18.97
928.49	15.17
928.92	13.87
929.35	11.67
929.78	11.97
930.21	10.07
930.641	8.77
931.071	9.17
931.501	1.07
931.931	5.07
932.361	5.37
932.791	3.57
933.221	2.87
933.651	-1.43
934.08	15.97
934.51	26.97
934.94	12.57
935.37	15.07
935.8	14.67
936.229	7.07
936.659	6.07
937.089	4.47
937.519	14.77
937.948	21.47
938.378	11.87
938.807	1.97
939.237	5.37
939.666	1.37
940.096	-9.93
940.525	-0.93
940.955	-0.63
941.384	1.67
941.814	-2.13
942.243	-2.63
942.672	2.17
943.102	-8.33
943.531	-1.03
943.96	4.17
944.39	-2.13
944.819	-1.33
945.248	-4.73
945.677	0.67
946.106	3.07
946.535	4.27
946.964	3.87
947.393	7.77
947.822	5.87
948.251	-0.53
948.68	6.07
949.109	2.67
949.538	3.17
949.967	-4.43
950.396	0.67
950.825	1.27
951.254	-2.03
951.682	-6.93
952.111	-0.73
952.54	6.07
952.969	-1.53
953.397	-2.33
953.826	-3.83
954.254	-4.93
954.683	4.57
955.112	-4.63
955.54	5.67
955.969	-2.23
956.397	4.37
956.826	-0.73
957.254	6.37
957.682	3.97
958.111	10.67
958.539	-2.63
958.967	5.57
959.396	3.77
959.824	-0.53
960.252	2.27
960.68	-5.03
961.109	2.97
961.537	-5.93
961.965	-3.13
962.393	-0.83
962.821	4.97
963.249	3.27
963.677	3.77
964.105	3.47
964.533	43.27
964.961	39.07
965.389	22.27
965.817	5.37
966.245	7.07
966.672	0.97
967.1	-5.63
967.528	0.87
967.956	0.57
968.383	2.27
968.811	-3.03
969.239	-5.33
969.666	-7.83
970.094	-0.13
970.522	0.07
970.949	-0.63
971.377	-6.93
971.804	3.67
972.232	3.97
972.659	-2.43
973.087	-0.13
973.514	-1.33
973.941	-5.73
974.369	10.17
974.796	4.17
975.223	-1.43
975.651	-1.43
976.078	-5.03
976.505	-2.83
976.932	7.47
977.359	12.07
977.786	16.57
978.214	-1.13
978.641	-4.23
979.068	-1.33
979.495	-0.93
979.922	-4.33
980.349	-2.93
980.776	1.27
981.202	-1.13
981.629	5.47
982.056	1.17
982.483	-2.13
982.91	5.77
983.337	-6.33
983.763	2.37
984.19	-1.73
984.617	-4.83
985.043	-3.33
985.47	5.07
985.897	-1.23
986.323	-10.73
986.75	6.77
987.176	-3.83
987.603	-1.53
988.029	-6.53
988.456	-8.13
988.882	3.57
989.308	-2.73
989.735	-5.53
990.161	0.67
990.587	-10.03
991.014	-2.83
991.44	6.57
991.866	-3.53
992.292	-6.13
992.719	-1.23
993.145	-1.63
993.571	-7.03
993.997	-2.73
994.423	0.47
994.849	-4.63
995.275	-4.63
995.701	3.07
996.127	-2.53
996.553	1.87
996.979	-2.73
997.405	-5.13
997.83	-4.73
998.256	-6.03
998.682	-1.53
999.108	-5.73
999.534	1.17
999.959	-5.03
1000.385	1.17
1000.811	0.17
1001.236	-10.03
1001.662	-6.53
1002.087	-6.23
1002.513	0.67
1002.938	-3.13
1003.364	-0.93
1003.789	-1.83
1004.215	-3.63
1004.64	-3.23
1005.066	9.17
1005.491	5.77
1005.916	-5.63
1006.342	-6.33
1006.767	-7.03
1007.192	5.57
1007.617	-7.53
1008.042	-7.83
1008.468	-6.13
1008.893	-6.63
1009.318	-3.53
1009.743	2.97
1010.168	3.67
1010.593	-4.83
1011.018	-7.23
1011.443	-4.13
1011.868	-1.23
1012.293	-7.13
1012.718	-5.93
1013.143	-0.03
1013.567	-6.03
1013.992	-5.03
1014.417	-13.93
1014.842	2.27
1015.267	-2.83
1015.691	-3.23
1016.116	9.37
1016.541	-3.93
1016.965	-3.03
1017.39	-2.83
1017.814	-6.43
1018.239	-4.83
1018.663	-4.83
1019.088	-9.93
1019.512	-5.93
1019.937	1.17
1020.361	-3.33
1020.785	-10.93
1021.21	-1.23
1021.634	3.77
1022.058	-3.63
1022.483	3.07
1022.907	-4.53
1023.331	-4.53
1023.755	-6.73
1024.179	-1.93
1024.604	-8.43
1025.028	-4.43
1025.452	-4.03
1025.876	-1.43
1026.3	0.77
1026.724	-10.23
1027.148	-6.93
1027.572	-3.83
1027.996	-0.93
1028.42	-1.33
1028.843	-5.13
1029.267	-8.23
1029.691	-9.93
1030.115	-9.13
1030.539	-2.43
1030.962	-6.03
1031.386	-9.53
1031.81	-2.43
1032.233	-5.83
1032.657	-4.93
1033.08	-3.03
1033.504	-5.43
1033.927	-6.13
1034.351	-1.93
1034.774	-3.13
1035.198	-6.23
1035.621	-8.63
1036.045	-7.23
1036.468	6.27
1036.891	-14.53
1037.315	-10.73
1037.738	-14.13
1038.161	-2.63
1038.584	-3.73
1039.008	-4.83
1039.431	1.87
1039.854	-5.03
1040.277	-8.63
1040.7	-12.43
1041.123	7.47
1041.546	-7.13
1041.969	-9.03
1042.392	-6.63
1042.815	-4.03
1043.238	-3.53
1043.661	4.87
1044.084	-10.73
1044.507	-7.83
1044.93	-6.53
1045.352	-3.73
1045.775	-1.03
1046.198	-2.13
1046.621	-5.53
1047.043	-4.73
1047.466	10.77
1047.889	-5.13
1048.311	-1.93
1048.734	-4.83
1049.156	1.57
1049.579	-6.73
1050.001	-1.83
1050.424	-4.43
1050.846	-6.73
1051.269	-2.03
1051.691	-10.33
1052.113	-6.23
1052.536	-0.73
1052.958	-8.73
1053.38	-10.33
1053.802	-11.03
1054.225	-2.23
1054.647	-10.13
1055.069	-6.33
1055.491	0.97
1055.913	-9.73
1056.335	-3.73
1056.757	-3.53
1057.179	-9.33
1057.601	-0.63
1058.023	-4.83
1058.445	-2.83
1058.867	-1.43
1059.289	-0.73
1059.711	-4.13
1060.133	2.47
1060.555	-1.33
1060.976	-7.03
1061.398	-10.33
1061.82	-9.33
1062.241	-8.43
1062.663	-12.63
1063.085	-2.33
1063.506	-0.73
1063.928	-8.23
1064.35	-1.43
1064.771	-12.43
1065.193	2.27
1065.614	-9.23
1066.035	-5.43
1066.457	-7.93
1066.878	-0.13
1067.3	-6.83
1067.721	-6.13
1068.142	-5.23
1068.564	-8.43
1068.985	-9.63
1069.406	-5.43
1069.827	-6.23
1070.248	-4.03
1070.67	-9.33
1071.091	-5.93
1071.512	-1.83
1071.933	-9.53
1072.354	-7.93
1072.775	-5.93
1073.196	-8.23
1073.617	-0.83
1074.038	-7.53
1074.459	-6.53
1074.88	-11.83
1075.3	0.57
1075.721	-6.43
1076.142	-1.83
1076.563	-0.53
1076.983	-9.63
1077.404	-6.23
1077.825	-10.93
1078.246	-6.93
1078.666	-7.83
1079.087	-7.03
1079.507	-11.73
1079.928	-2.63
1080.348	-6.03
1080.769	-8.43
1081.189	-3.13
1081.61	-5.53
1082.03	-7.63
1082.451	-9.53
1082.871	-8.43
1083.291	-11.33
1083.711	-6.93
1084.132	-2.53
1084.552	1.57
1084.972	3.27
1085.392	-10.33
1085.813	-13.63
1086.233	-7.83
1086.653	-4.43
1087.073	-6.33
1087.493	-11.03
1087.913	-7.93
1088.333	-4.33
1088.753	-5.33
1089.173	1.87
1089.593	-3.13
1090.013	-2.23
1090.433	-2.13
1090.852	-7.63
1091.272	-0.63
1091.692	1.87
1092.112	-3.23
1092.531	-11.13
1092.951	-19.53
1093.371	-1.43
1093.79	-3.13
1094.21	-4.83
1094.63	-8.13
1095.049	-3.33
1095.469	-2.93
1095.888	-5.23
1096.308	6.67
1096.727	8.07
1097.146	-5.93
1097.566	-2.83
1097.985	-2.73
1098.405	-0.63
1098.824	-7.23
1099.243	-7.53
1099.662	-8.63
1100.082	-2.83
1100.501	-7.73
1100.92	-10.83
1101.339	-4.33
1101.758	-12.13
