Data from 20171114-ORNL-Ar_H_NY_Subt18_08-06-15-001.txt Node
Date: Tue Nov 14 08:06:15 EST 2017
User: Ender
Spectrometer: HR+D1039
Trigger mode: 0
Integration Time (sec): 2.730000E-2
Scans to average: 10
Electric dark correction enabled: true
Nonlinearity correction enabled: false
Boxcar width: 0
XAxis mode: Wavelengths
Number of Pixels in Spectrum: 2048
>>>>>Begin Spectral Data<<<<<
187.836	-3.78
188.309	-3.78
188.782	-3.78
189.255	-1.38
189.728	-5.88
190.201	6.22
190.674	2.12
191.147	2.02
191.619	-4.18
192.092	-3.08
192.565	7.72
193.038	0.22
193.511	-1.08
193.984	1.62
194.456	-2.38
194.929	1.62
195.402	0.62
195.874	-0.38
196.347	-1.48
196.82	-5.08
197.292	1.42
197.765	3.12
198.237	-6.48
198.71	2.12
199.182	-5.18
199.655	3.42
200.127	-0.28
200.6	-4.28
201.072	-10.48
201.544	-0.08
202.017	2.72
202.489	8.62
202.961	1.82
203.433	-1.78
203.906	-4.38
204.378	-2.08
204.85	-5.38
205.322	-6.68
205.794	-1.58
206.266	-2.38
206.739	-5.98
207.211	3.32
207.683	-2.38
208.155	-1.08
208.627	-7.18
209.099	-1.58
209.57	-2.68
210.042	-4.58
210.514	-2.98
210.986	1.82
211.458	-10.58
211.93	0.32
212.402	5.52
212.873	-8.58
213.345	-10.28
213.817	-9.68
214.288	-1.88
214.76	-11.78
215.232	-3.68
215.703	-2.18
216.175	-4.38
216.646	-5.88
217.118	-2.88
217.589	-5.98
218.061	5.62
218.532	-5.48
219.004	-1.88
219.475	-5.28
219.946	-3.48
220.418	-5.18
220.889	-0.48
221.36	3.52
221.832	-5.08
222.303	-6.28
222.774	-2.88
223.245	-10.68
223.717	-7.88
224.188	-2.48
224.659	-7.18
225.13	-0.78
225.601	0.62
226.072	-1.58
226.543	4.12
227.014	-0.78
227.485	-2.38
227.956	-2.98
228.427	-2.88
228.898	3.42
229.369	6.32
229.839	-2.88
230.31	-11.98
230.781	8.12
231.252	-2.78
231.722	-6.18
232.193	-0.48
232.664	-0.38
233.135	2.92
233.605	0.82
234.076	-6.18
234.546	-0.78
235.017	6.22
235.487	3.62
235.958	2.02
236.428	-3.48
236.899	5.22
237.369	3.82
237.84	3.02
238.31	14.82
238.78	3.32
239.251	8.62
239.721	1.32
240.191	0.22
240.662	2.92
241.132	-1.48
241.602	-2.88
242.072	4.52
242.542	11.82
243.013	3.32
243.483	2.82
243.953	-4.88
244.423	4.72
244.893	-2.28
245.363	4.42
245.833	-2.08
246.303	4.52
246.773	12.72
247.243	2.92
247.712	4.42
248.182	8.62
248.652	8.72
249.122	2.82
249.592	13.52
250.061	19.92
250.531	31.72
251.001	18.42
251.471	19.42
251.94	20.72
252.41	8.32
252.879	-4.88
253.349	12.82
253.818	9.92
254.288	3.42
254.757	6.42
255.227	2.32
255.696	2.72
256.166	10.62
256.635	9.32
257.105	7.22
257.574	10.32
258.043	10.82
258.513	16.52
258.982	20.72
259.451	14.02
259.92	15.92
260.389	12.12
260.859	18.82
261.328	12.12
261.797	14.72
262.266	10.22
262.735	10.72
263.204	8.72
263.673	2.72
264.142	5.62
264.611	-4.38
265.08	3.92
265.549	2.52
266.018	8.52
266.487	2.22
266.955	-9.68
267.424	0.22
267.893	10.62
268.362	3.12
268.83	5.92
269.299	9.02
269.768	11.02
270.236	5.22
270.705	7.42
271.174	12.22
271.642	15.02
272.111	7.72
272.579	23.62
273.048	26.92
273.516	28.92
273.985	32.12
274.453	20.82
274.922	22.12
275.39	11.92
275.858	6.32
276.327	13.12
276.795	13.92
277.263	9.82
277.731	36.92
278.2	64.52
278.668	60.62
279.136	51.12
279.604	21.12
280.072	17.82
280.54	15.12
281.008	11.42
281.477	15.22
281.945	13.42
282.413	15.52
282.881	16.32
283.348	6.12
283.816	17.82
284.284	18.22
284.752	21.22
285.22	14.32
285.688	17.52
286.156	24.82
286.623	44.72
287.091	54.52
287.559	32.32
288.026	24.42
288.494	23.42
288.962	8.82
289.429	11.62
289.897	19.42
290.364	16.82
290.832	24.92
291.3	14.52
291.767	19.22
292.234	22.62
292.702	16.52
293.169	20.82
293.637	26.72
294.104	22.62
294.571	15.62
295.039	11.52
295.506	18.62
295.973	21.22
296.44	20.12
296.908	25.22
297.375	24.52
297.842	19.32
298.309	19.82
298.776	15.02
299.243	21.02
299.71	19.72
300.177	18.72
300.644	24.12
301.111	23.52
301.578	25.32
302.045	18.52
302.512	24.72
302.979	24.62
303.446	31.82
303.913	24.12
304.379	19.42
304.846	32.42
305.313	24.62
305.78	21.92
306.246	25.02
306.713	30.92
307.18	32.82
307.646	28.52
308.113	33.72
308.579	33.42
309.046	23.62
309.512	29.52
309.979	16.82
310.445	28.32
310.912	33.12
311.378	32.52
311.845	32.72
312.311	37.02
312.777	36.82
313.244	33.02
313.71	38.72
314.176	34.02
314.642	38.02
315.109	33.32
315.575	38.62
316.041	44.22
316.507	37.72
316.973	40.12
317.439	32.42
317.905	37.02
318.371	36.52
318.837	38.22
319.303	37.72
319.769	43.42
320.235	35.12
320.701	36.92
321.167	37.42
321.633	36.52
322.099	40.32
322.564	51.92
323.03	44.02
323.496	40.72
323.962	46.12
324.427	37.82
324.893	40.62
325.359	45.62
325.824	37.92
326.29	39.52
326.755	36.72
327.221	46.42
327.686	45.12
328.152	46.82
328.617	47.72
329.083	55.82
329.548	51.72
330.014	46.42
330.479	43.72
330.944	41.52
331.41	47.32
331.875	47.92
332.34	46.42
332.805	47.32
333.271	50.22
333.736	49.72
334.201	56.82
334.666	57.62
335.131	58.62
335.596	59.42
336.061	54.92
336.526	41.72
336.991	54.92
337.456	56.42
337.921	47.02
338.386	55.02
338.851	51.32
339.316	52.72
339.781	50.22
340.246	48.62
340.711	51.92
341.175	53.02
341.64	45.42
342.105	50.12
342.569	54.62
343.034	61.02
343.499	55.02
343.963	49.72
344.428	65.92
344.893	62.62
345.357	62.62
345.822	60.52
346.286	66.72
346.751	82.72
347.215	73.82
347.679	75.82
348.144	106.62
348.608	90.02
349.073	73.62
349.537	75.12
350.001	82.12
350.465	90.12
350.93	86.22
351.394	87.52
351.858	75.42
352.322	89.82
352.786	86.82
353.25	104.22
353.715	112.72
354.179	105.22
354.643	126.62
355.107	133.52
355.571	120.02
356.035	107.92
356.498	116.72
356.962	122.82
357.426	138.42
357.89	124.32
358.354	94.62
358.818	86.42
359.281	83.92
359.745	77.32
360.209	88.92
360.673	81.52
361.136	82.12
361.6	90.52
362.064	93.32
362.527	84.52
362.991	99.92
363.454	82.22
363.918	78.02
364.381	87.02
364.845	88.92
365.308	90.22
365.772	87.02
366.235	90.22
366.698	81.32
367.162	95.62
367.625	81.82
368.088	93.62
368.552	92.42
369.015	92.82
369.478	98.12
369.941	106.62
370.404	96.52
370.867	106.32
371.331	111.62
371.794	121.02
372.257	115.82
372.72	117.82
373.183	117.52
373.646	110.92
374.109	109.72
374.572	105.92
375.035	113.42
375.497	119.52
375.96	116.92
376.423	116.02
376.886	119.52
377.349	115.62
377.811	109.72
378.274	113.02
378.737	113.52
379.199	119.82
379.662	116.92
380.125	125.72
380.587	120.92
381.05	127.92
381.512	134.72
381.975	142.52
382.437	136.22
382.9	132.62
383.362	141.02
383.825	149.52
384.287	149.32
384.75	142.62
385.212	145.02
385.674	150.82
386.136	142.52
386.599	125.92
387.061	135.52
387.523	133.82
387.985	141.82
388.447	152.62
388.91	154.32
389.372	160.82
389.834	159.32
390.296	148.52
390.758	169.12
391.22	177.82
391.682	224.42
392.144	314.52
392.606	235.02
393.068	176.12
393.529	179.42
393.991	161.72
394.453	158.12
394.915	161.22
395.377	202.12
395.838	229.02
396.3	173.12
396.762	153.42
397.224	140.12
397.685	131.72
398.147	130.12
398.608	136.72
399.07	130.32
399.531	140.92
399.993	152.62
400.454	168.12
400.916	151.82
401.377	146.42
401.839	158.72
402.3	160.22
402.762	166.62
403.223	194.92
403.684	179.72
404.145	171.82
404.607	160.52
405.068	173.42
405.529	177.92
405.99	192.22
406.451	183.62
406.913	177.12
407.374	168.82
407.835	174.42
408.296	176.52
408.757	184.12
409.218	194.42
409.679	183.62
410.14	185.02
410.601	186.92
411.062	192.82
411.522	200.12
411.983	196.32
412.444	180.52
412.905	184.12
413.366	191.22
413.826	201.42
414.287	225.82
414.748	264.72
415.208	257.02
415.669	216.22
416.13	215.32
416.59	207.72
417.051	212.82
417.511	226.22
417.972	240.52
418.432	254.72
418.893	305.72
419.353	262.52
419.814	206.52
420.274	185.82
420.734	184.92
421.195	212.92
421.655	209.62
422.115	199.72
422.576	210.62
423.036	207.32
423.496	211.72
423.956	222.22
424.416	239.72
424.876	275.22
425.336	261.22
425.797	276.52
426.257	270.92
426.717	255.82
427.177	240.52
427.637	232.02
428.097	242.92
428.556	257.22
429.016	281.42
429.476	281.92
429.936	296.42
430.396	296.12
430.856	303.32
431.315	331.72
431.775	359.32
432.235	393.02
432.694	369.02
433.154	386.02
433.614	402.42
434.073	339.92
434.533	294.42
434.993	283.12
435.452	299.72
435.912	304.72
436.371	295.92
436.83	293.22
437.29	276.52
437.749	262.02
438.209	258.22
438.668	282.12
439.127	304.02
439.587	273.92
440.046	258.12
440.505	267.72
440.964	289.82
441.424	339.82
441.883	325.02
442.342	275.22
442.801	235.22
443.26	225.62
443.719	230.62
444.178	220.92
444.637	215.82
445.096	226.22
445.555	230.02
446.014	234.52
446.473	232.42
446.932	238.82
447.391	233.42
447.849	228.52
448.308	227.42
448.767	238.52
449.226	247.22
449.685	249.22
450.143	260.52
450.602	248.72
451.061	225.42
451.519	247.02
451.978	241.22
452.436	243.42
452.895	256.22
453.353	266.42
453.812	248.32
454.27	247.02
454.729	249.22
455.187	245.62
455.646	260.52
456.104	261.12
456.562	269.02
457.021	281.42
457.479	267.32
457.937	286.62
458.395	270.22
458.854	264.52
459.312	269.92
459.77	282.82
460.228	264.62
460.686	245.82
461.144	255.42
461.602	248.32
462.06	254.22
462.518	260.02
462.976	264.32
463.434	270.72
463.892	271.92
464.35	286.72
464.808	298.82
465.266	278.62
465.724	270.42
466.181	279.92
466.639	282.12
467.097	303.22
467.555	308.92
468.012	315.32
468.47	320.82
468.928	341.92
469.385	341.92
469.843	364.62
470.3	366.72
470.758	376.12
471.215	403.22
471.673	426.02
472.13	424.32
472.588	437.72
473.045	373.12
473.503	398.42
473.96	415.32
474.417	416.82
474.875	451.72
475.332	493.72
475.789	478.52
476.246	485.62
476.704	504.32
477.161	521.92
477.618	536.22
478.075	591.32
478.532	633.72
478.989	711.42
479.446	835.22
479.903	802.62
480.36	844.22
480.817	904.52
481.274	998.92
481.731	1101.42
482.188	1206.22
482.645	1340.52
483.102	1455.52
483.558	1598.02
484.015	1660.12
484.472	1629.82
484.929	1574.02
485.385	1530.12
485.842	1487.82
486.299	1421.32
486.755	1353.02
487.212	1144.02
487.668	965.52
488.125	883.12
488.582	805.72
489.038	771.42
489.494	732.62
489.951	708.42
490.407	690.52
490.864	669.02
491.32	665.72
491.776	669.32
492.233	665.32
492.689	634.82
493.145	620.62
493.602	612.92
494.058	627.22
494.514	635.72
494.97	659.42
495.426	665.42
495.882	641.72
496.338	631.02
496.794	643.62
497.251	641.12
497.707	658.72
498.163	660.62
498.618	654.42
499.074	664.22
499.53	693.02
499.986	697.22
500.442	674.92
500.898	658.02
501.354	651.92
501.809	660.42
502.265	668.12
502.721	688.92
503.177	694.82
503.632	681.12
504.088	691.82
504.543	733.42
504.999	726.52
505.455	677.32
505.91	647.12
506.366	641.12
506.821	648.62
507.277	648.62
507.732	640.52
508.187	639.82
508.643	651.22
509.098	658.32
509.553	672.62
510.009	678.62
510.464	685.92
510.919	707.92
511.375	714.62
511.83	728.02
512.285	742.62
512.74	779.62
513.195	806.82
513.65	800.22
514.105	783.52
514.56	790.72
515.015	810.02
515.47	830.32
515.925	815.52
516.38	815.92
516.835	807.22
517.29	801.52
517.745	797.32
518.2	792.72
518.655	769.12
519.109	767.52
519.564	757.02
520.019	750.82
520.474	742.72
520.928	743.72
521.383	740.72
521.838	729.22
522.292	730.02
522.747	733.12
523.201	726.62
523.656	717.12
524.11	708.42
524.565	709.32
525.019	710.32
525.474	720.62
525.928	715.02
526.382	718.12
526.837	722.82
527.291	722.12
527.745	716.52
528.2	717.52
528.654	721.22
529.108	707.62
529.562	708.62
530.016	706.02
530.47	707.02
530.925	707.12
531.379	714.62
531.833	727.12
532.287	720.52
532.741	713.82
533.195	721.22
533.649	726.12
534.103	735.62
534.556	726.12
535.01	732.42
535.464	721.62
535.918	743.72
536.372	739.92
536.826	732.62
537.279	726.02
537.733	729.72
538.187	730.32
538.64	735.22
539.094	742.32
539.548	746.32
540.001	749.52
540.455	739.22
540.908	749.62
541.362	757.12
541.815	763.12
542.269	782.12
542.722	778.02
543.175	786.52
543.629	786.12
544.082	800.02
544.536	807.42
544.989	810.02
545.442	815.72
545.895	806.62
546.349	808.42
546.802	815.02
547.255	818.62
547.708	823.82
548.161	836.62
548.614	836.72
549.067	851.62
549.52	832.42
549.973	835.02
550.426	826.82
550.879	814.82
551.332	809.12
551.785	822.82
552.238	833.52
552.691	837.22
553.144	845.62
553.596	861.12
554.049	885.62
554.502	905.02
554.955	930.52
555.407	927.82
555.86	915.22
556.313	912.02
556.765	902.92
557.218	909.12
557.67	897.72
558.123	897.62
558.576	894.12
559.028	899.72
559.48	902.22
559.933	893.42
560.385	867.02
560.838	826.22
561.29	799.12
561.742	796.02
562.195	783.12
562.647	780.22
563.099	793.72
563.551	790.52
564.004	798.02
564.456	790.12
564.908	783.72
565.36	772.52
565.812	754.62
566.264	744.82
566.716	744.62
567.168	733.42
567.62	736.12
568.072	724.82
568.524	720.92
568.976	715.02
569.428	689.72
569.88	684.12
570.332	694.52
570.784	705.52
571.235	703.12
571.687	722.52
572.139	720.52
572.59	729.22
573.042	718.62
573.494	724.92
573.945	719.22
574.397	696.62
574.849	714.22
575.3	708.42
575.752	700.52
576.203	697.82
576.655	698.12
577.106	690.52
577.557	686.12
578.009	689.32
578.46	679.42
578.912	662.62
579.363	680.72
579.814	678.82
580.265	679.42
580.717	692.02
581.168	679.32
581.619	692.62
582.07	691.82
582.521	677.52
582.972	696.92
583.423	694.72
583.875	699.72
584.326	713.72
584.777	756.72
585.227	849.62
585.678	933.62
586.129	1025.32
586.58	1100.02
587.031	1188.82
587.482	1348.12
587.933	1528.82
588.384	1342.92
588.834	997.62
589.285	825.02
589.736	791.82
590.186	785.12
590.637	777.62
591.088	751.82
591.538	755.02
591.989	751.62
592.439	734.92
592.89	741.02
593.34	732.62
593.791	721.72
594.241	713.72
594.692	719.82
595.142	718.52
595.593	719.62
596.043	725.12
596.493	731.92
596.943	732.02
597.394	732.22
597.844	734.12
598.294	742.22
598.744	769.62
599.195	786.22
599.645	832.62
600.095	866.52
600.545	936.32
600.995	984.02
601.445	1038.12
601.895	1109.52
602.345	1136.72
602.795	1128.12
603.245	1085.22
603.695	1017.62
604.145	972.82
604.594	925.02
605.044	870.22
605.494	810.22
605.944	763.92
606.393	761.72
606.843	734.12
607.293	741.82
607.743	733.82
608.192	756.32
608.642	774.82
609.091	777.72
609.541	784.22
609.99	778.92
610.44	782.92
610.889	724.62
611.339	712.22
611.788	701.42
612.238	713.52
612.687	721.22
613.136	725.72
613.586	753.52
614.035	747.62
614.484	760.82
614.933	774.52
615.383	762.92
615.832	753.82
616.281	733.52
616.73	697.82
617.179	673.32
617.628	670.32
618.077	644.52
618.526	628.42
618.975	621.92
619.424	642.82
619.873	624.42
620.322	633.52
620.771	623.12
621.22	608.42
621.669	598.22
622.118	594.82
622.567	588.52
623.015	576.92
623.464	572.82
623.913	567.42
624.361	556.02
624.81	556.62
625.259	562.02
625.707	565.72
626.156	556.02
626.604	575.62
627.053	562.22
627.501	571.42
627.95	568.82
628.398	588.22
628.847	577.52
629.295	572.82
629.744	580.32
630.192	574.82
630.64	576.92
631.089	575.22
631.537	587.92
631.985	591.12
632.433	599.62
632.881	614.62
633.33	662.72
633.778	652.32
634.226	584.22
634.674	576.62
635.122	582.72
635.57	604.82
636.018	639.02
636.466	588.22
636.914	565.52
637.362	577.62
637.81	579.92
638.258	586.32
638.705	584.32
639.153	616.32
639.601	619.42
640.049	649.72
640.497	676.92
640.944	696.32
641.392	633.22
641.84	619.92
642.287	600.62
642.735	579.62
643.182	573.52
643.63	585.52
644.078	588.22
644.525	591.92
644.973	608.42
645.42	625.52
645.867	634.32
646.315	651.32
646.762	668.92
647.21	694.52
647.657	719.42
648.104	756.62
648.551	785.42
648.999	849.92
649.446	926.52
649.893	1014.12
650.34	1165.12
650.787	1395.52
651.234	1751.52
651.682	2293.82
652.129	3136.72
652.576	4501.62
653.023	6662.52
653.47	9139.62
653.917	11446.42
654.363	13205.52
654.81	14594.12
655.257	13875.32
655.704	9091.92
656.151	5342.62
656.598	3483.72
657.044	2464.62
657.491	1886.52
657.938	1503.02
658.385	1244.52
658.831	1080.92
659.278	976.72
659.724	867.52
660.171	795.52
660.618	728.52
661.064	699.62
661.511	675.72
661.957	661.82
662.404	652.92
662.85	657.02
663.296	622.02
663.743	565.82
664.189	544.22
664.635	535.22
665.082	534.62
665.528	536.02
665.974	512.42
666.42	518.12
666.867	512.42
667.313	495.92
667.759	489.62
668.205	485.92
668.651	491.22
669.097	486.32
669.543	510.52
669.989	476.82
670.435	447.22
670.881	448.82
671.327	448.72
671.773	467.42
672.219	486.22
672.665	539.92
673.11	588.22
673.556	628.72
674.002	671.62
674.448	655.72
674.893	546.62
675.339	472.72
675.785	445.22
676.23	419.62
676.676	392.82
677.122	381.82
677.567	371.42
678.013	373.72
678.458	366.82
678.904	368.32
679.349	349.52
679.794	352.82
680.24	350.62
680.685	348.62
681.131	347.72
681.576	353.62
682.021	348.92
682.466	345.82
682.912	347.72
683.357	347.82
683.802	379.32
684.247	407.02
684.692	452.22
685.137	494.22
685.583	542.92
686.028	557.22
686.473	518.42
686.918	440.72
687.363	413.92
687.807	397.32
688.252	364.82
688.697	360.12
689.142	344.42
689.587	340.22
690.032	328.62
690.477	344.62
690.921	348.52
691.366	385.82
691.811	403.22
692.255	434.52
692.7	464.22
693.145	496.22
693.589	681.32
694.034	1119.02
694.478	1527.62
694.923	1719.02
695.367	2253.22
695.812	1187.82
696.256	492.02
696.701	369.92
697.145	346.12
697.59	326.02
698.034	326.52
698.478	332.72
698.922	323.22
699.367	329.02
699.811	346.72
700.255	355.52
700.699	379.82
701.143	430.62
701.588	480.62
702.032	511.92
702.476	515.32
702.92	493.12
703.364	493.12
703.808	635.22
704.252	1021.12
704.696	1442.72
705.14	1666.12
705.584	2125.22
706.027	1058.62
706.471	529.02
706.915	392.62
707.359	350.92
707.803	316.72
708.246	309.52
708.69	318.12
709.134	314.72
709.577	313.52
710.021	317.62
710.465	306.92
710.908	302.82
711.352	300.82
711.795	309.02
712.239	347.12
712.682	390.62
713.126	420.42
713.569	469.72
714.012	378.42
714.456	328.12
714.899	296.32
715.342	271.72
715.786	258.02
716.229	257.92
716.672	249.32
717.115	246.02
717.558	254.42
718.002	247.22
718.445	262.72
718.888	281.52
719.331	282.82
719.774	302.82
720.217	300.52
720.66	280.62
721.103	273.32
721.546	253.92
721.989	244.92
722.432	232.02
722.874	240.92
723.317	232.72
723.76	238.72
724.203	261.82
724.645	320.02
725.088	438.22
725.531	574.02
725.974	638.32
726.416	548.02
726.859	301.82
727.301	249.82
727.744	228.82
728.187	242.82
728.629	239.62
729.071	235.22
729.514	263.02
729.956	276.02
730.399	285.12
730.841	291.02
731.283	271.52
731.726	262.62
732.168	262.52
732.61	265.12
733.053	286.72
733.495	313.92
733.937	347.02
734.379	403.92
734.821	430.32
735.263	538.12
735.705	827.42
736.148	1540.12
736.59	2553.02
737.032	3035.52
737.474	2465.32
737.916	805.12
738.357	429.52
738.799	320.82
739.241	299.12
739.683	285.52
740.125	293.52
740.567	291.22
741.008	313.52
741.45	307.92
741.892	308.62
742.334	346.32
742.775	359.62
743.217	340.92
743.658	273.12
744.1	261.72
744.542	257.92
744.983	312.52
745.425	342.22
745.866	344.12
746.307	291.32
746.749	282.72
747.19	328.92
747.632	446.92
748.073	863.52
748.514	1839.92
748.956	2822.02
749.397	3549.42
749.838	2942.02
750.279	2926.52
750.72	1475.22
751.162	540.12
751.603	327.82
752.044	256.52
752.485	221.22
752.926	212.32
753.367	200.12
753.808	194.82
754.249	182.02
754.69	185.32
755.131	169.62
755.572	179.42
756.013	178.72
756.453	184.82
756.894	187.32
757.335	196.02
757.776	194.32
758.216	197.12
758.657	191.42
759.098	201.12
759.538	218.12
759.979	262.52
760.42	374.82
760.86	689.42
761.301	1772.62
761.741	4357.52
762.182	6387.32
762.622	4476.82
763.063	1294.22
763.503	535.12
763.943	350.52
764.384	337.22
764.824	410.72
765.264	443.52
765.705	305.52
766.145	213.62
766.585	196.02
767.025	183.42
767.465	183.12
767.906	244.52
768.346	325.22
768.786	349.92
769.226	265.22
769.666	309.52
770.106	607.42
770.546	1528.12
770.986	2623.02
771.426	2344.12
771.866	784.12
772.306	319.52
772.745	212.02
773.185	174.52
773.625	168.32
774.065	163.32
774.505	194.32
774.944	308.42
775.384	678.22
775.824	1236.32
776.263	1200.72
776.703	509.52
777.142	226.82
777.582	158.72
778.021	140.92
778.461	142.92
778.9	142.52
779.34	131.52
779.779	116.62
780.219	110.12
780.658	108.22
781.097	117.42
781.537	118.82
781.976	112.12
782.415	104.92
782.855	109.92
783.294	103.92
783.733	108.42
784.172	112.22
784.611	105.52
785.05	114.72
785.489	112.72
785.928	124.62
786.367	123.42
786.806	120.52
787.245	129.12
787.684	134.82
788.123	145.92
788.562	138.92
789.001	129.42
789.44	121.82
789.879	115.92
790.317	118.22
790.756	129.82
791.195	121.62
791.634	150.92
792.072	203.42
792.511	362.02
792.95	978.42
793.388	2109.52
793.827	1931.62
794.265	658.72
794.704	270.52
795.142	188.72
795.581	145.52
796.019	130.52
796.458	121.22
796.896	122.12
797.334	128.32
797.773	150.92
798.211	215.42
798.649	423.52
799.087	1010.72
799.526	1590.52
799.964	1971.82
800.402	1997.02
800.84	747.12
801.278	297.02
801.716	178.92
802.154	148.92
802.592	146.32
803.03	142.62
803.468	133.72
803.906	144.02
804.344	147.22
804.782	133.32
805.22	132.22
805.658	120.62
806.096	149.72
806.533	159.32
806.971	174.72
807.409	217.32
807.847	312.52
808.284	651.32
808.722	1824.02
809.16	3254.32
809.597	3052.22
810.035	5350.42
810.472	5703.72
810.91	2052.12
811.347	781.02
811.785	397.12
812.222	249.82
812.66	194.02
813.097	158.92
813.535	144.72
813.972	135.02
814.409	121.42
814.846	111.92
815.284	113.82
815.721	101.02
816.158	103.02
816.595	121.22
817.032	180.22
817.47	203.32
817.907	171.12
818.344	152.12
818.781	116.02
819.218	107.82
819.655	125.72
820.092	184.32
820.529	208.32
820.966	181.12
821.403	136.92
821.839	107.92
822.276	101.52
822.713	125.02
823.15	135.62
823.587	114.92
824.023	147.82
824.46	294.42
824.897	877.82
825.333	1337.12
825.77	573.62
826.206	227.12
826.643	138.82
827.08	101.12
827.516	84.02
827.953	76.62
828.389	76.62
828.825	73.92
829.262	67.92
829.698	64.72
830.135	66.22
830.571	63.12
831.007	63.42
831.443	61.82
831.88	63.42
832.316	60.32
832.752	65.82
833.188	66.42
833.624	60.32
834.06	71.92
834.497	68.52
834.933	70.12
835.369	73.32
835.805	69.42
836.241	78.52
836.677	80.72
837.112	88.22
837.548	103.72
837.984	135.12
838.42	200.62
838.856	483.22
839.292	1497.22
839.727	2270.82
840.163	1050.92
840.599	905.52
841.034	2002.62
841.47	2101.52
841.906	764.32
842.341	332.12
842.777	232.22
843.212	313.52
843.648	313.12
844.083	154.62
844.519	102.72
844.954	75.82
845.39	66.12
845.825	59.92
846.261	56.42
846.696	53.12
847.131	48.52
847.566	58.02
848.002	54.82
848.437	51.82
848.872	63.02
849.307	58.72
849.742	83.82
850.177	182.22
850.613	552.22
851.048	865.12
851.483	378.72
851.918	149.72
852.353	85.52
852.788	61.12
853.223	54.32
853.657	53.72
854.092	49.82
854.527	47.52
854.962	45.52
855.397	47.82
855.832	54.92
856.266	47.62
856.701	41.92
857.136	37.22
857.57	46.82
858.005	50.32
858.44	62.62
858.874	45.12
859.309	56.82
859.743	38.12
860.178	49.92
860.612	47.12
861.047	58.42
861.481	64.02
861.915	75.82
862.35	50.22
862.784	36.72
863.218	37.82
863.653	37.92
864.087	47.42
864.521	55.82
864.955	69.52
865.39	153.82
865.824	178.72
866.258	110.62
866.692	159.02
867.126	175.82
867.56	104.92
867.994	53.22
868.428	35.52
868.862	52.42
869.296	56.12
869.73	62.02
870.164	49.32
870.598	50.22
871.031	40.82
871.465	36.72
871.899	38.62
872.333	31.02
872.766	27.92
873.2	25.22
873.634	27.82
874.067	26.42
874.501	24.82
874.935	36.62
875.368	33.72
875.802	28.02
876.235	27.82
876.669	24.72
877.102	27.12
877.535	25.82
877.969	28.12
878.402	26.62
878.836	20.72
879.269	21.92
879.702	24.72
880.135	22.02
880.569	27.32
881.002	30.42
881.435	22.52
881.868	16.92
882.301	24.32
882.734	13.22
883.167	20.72
883.601	15.22
884.034	24.92
884.467	11.12
884.899	22.82
885.332	12.82
885.765	16.62
886.198	18.22
886.631	22.72
887.064	16.92
887.497	19.72
887.929	24.22
888.362	15.62
888.795	12.82
889.228	16.12
889.66	18.12
890.093	13.12
890.526	18.42
890.958	20.22
891.391	19.12
891.823	22.02
892.256	19.22
892.688	13.22
893.121	16.02
893.553	14.82
893.985	28.32
894.418	19.32
894.85	13.22
895.282	12.02
895.715	16.72
896.147	21.52
896.579	13.62
897.011	15.82
897.444	19.22
897.876	9.02
898.308	17.12
898.74	15.82
899.172	11.02
899.604	22.82
900.036	14.82
900.468	14.32
900.9	19.32
901.332	26.12
901.764	20.92
902.196	19.82
902.628	15.42
903.06	12.32
903.491	27.52
903.923	26.02
904.355	20.02
904.787	22.02
905.218	28.82
905.65	21.52
906.082	6.22
906.513	13.92
906.945	22.22
907.376	12.22
907.808	19.92
908.239	22.02
908.671	19.52
909.102	19.02
909.534	23.32
909.965	51.92
910.397	95.02
910.828	302.62
911.259	464.72
911.691	218.52
912.122	107.62
912.553	48.72
912.984	37.22
913.415	20.82
913.847	25.72
914.278	22.22
914.709	14.62
915.14	19.72
915.571	17.42
916.002	8.92
916.433	19.92
916.864	15.62
917.295	17.22
917.726	17.92
918.157	17.72
918.587	33.22
919.018	22.72
919.449	24.22
919.88	21.02
920.311	32.72
920.741	51.22
921.172	165.92
921.603	152.42
922.033	70.42
922.464	42.52
922.895	20.22
923.325	18.12
923.756	16.92
924.186	18.62
924.617	27.52
925.047	40.32
925.478	52.92
925.908	43.92
926.338	22.52
926.769	22.92
927.199	22.02
927.629	10.92
928.06	15.02
928.49	11.42
928.92	11.62
929.35	11.42
929.78	14.62
930.21	11.12
930.641	12.52
931.071	12.22
931.501	5.92
931.931	7.22
932.361	10.52
932.791	4.22
933.221	5.92
933.651	12.22
934.08	23.82
934.51	29.32
934.94	9.72
935.37	7.72
935.8	11.52
936.229	3.22
936.659	8.12
937.089	8.32
937.519	21.82
937.948	18.72
938.378	18.72
938.807	6.22
939.237	-4.78
939.666	8.82
940.096	-4.68
940.525	2.92
940.955	5.12
941.384	5.32
941.814	1.52
942.243	2.22
942.672	8.02
943.102	-0.48
943.531	-1.08
943.96	8.02
944.39	3.52
944.819	3.32
945.248	-0.98
945.677	1.22
946.106	8.52
946.535	6.62
946.964	4.12
947.393	4.72
947.822	6.42
948.251	-1.78
948.68	4.12
949.109	9.82
949.538	6.92
949.967	0.72
950.396	0.02
950.825	-0.38
951.254	3.32
951.682	1.62
952.111	5.52
952.54	11.12
952.969	-4.48
953.397	-9.88
953.826	0.42
954.254	-4.08
954.683	-0.48
955.112	-1.08
955.54	-6.68
955.969	-2.98
956.397	1.52
956.826	-3.28
957.254	7.42
957.682	6.92
958.111	6.02
958.539	-1.28
958.967	3.22
959.396	-4.98
959.824	3.72
960.252	4.52
960.68	-6.88
961.109	-1.28
961.537	0.02
961.965	-4.58
962.393	9.22
962.821	-1.48
963.249	-0.78
963.677	6.92
964.105	5.62
964.533	43.92
964.961	37.92
965.389	19.82
965.817	11.02
966.245	2.12
966.672	-3.18
967.1	-8.78
967.528	6.62
967.956	-3.38
968.383	3.42
968.811	-8.58
969.239	-2.58
969.666	2.12
970.094	2.02
970.522	-1.48
970.949	-6.28
971.377	0.12
971.804	0.22
972.232	-9.48
972.659	-0.58
973.087	0.22
973.514	0.02
973.941	-2.88
974.369	5.22
974.796	1.52
975.223	0.72
975.651	-0.58
976.078	3.82
976.505	-1.98
976.932	5.92
977.359	18.62
977.786	19.42
978.214	2.12
978.641	3.52
979.068	-3.88
979.495	-4.38
979.922	-0.58
980.349	0.52
980.776	1.92
981.202	3.72
981.629	2.72
982.056	1.12
982.483	0.42
982.91	6.62
983.337	0.72
983.763	3.92
984.19	-3.28
984.617	-7.18
985.043	-5.28
985.47	-3.18
985.897	-3.58
986.323	-1.98
986.75	-0.18
987.176	-0.98
987.603	4.92
988.029	0.92
988.456	-0.38
988.882	7.42
989.308	-2.18
989.735	-4.18
990.161	-4.08
990.587	-4.98
991.014	-0.98
991.44	5.52
991.866	-2.88
992.292	-6.98
992.719	-1.98
993.145	4.62
993.571	-3.08
993.997	-1.98
994.423	-0.88
994.849	-7.78
995.275	4.82
995.701	5.72
996.127	-3.98
996.553	2.82
996.979	-0.48
997.405	-1.88
997.83	-2.48
998.256	-0.58
998.682	-4.88
999.108	-12.08
999.534	2.32
999.959	0.12
1000.385	-5.18
1000.811	-2.98
1001.236	-6.98
1001.662	-7.28
1002.087	-7.68
1002.513	2.82
1002.938	4.62
1003.364	1.92
1003.789	-0.68
1004.215	2.32
1004.64	-2.78
1005.066	2.92
1005.491	1.62
1005.916	-3.38
1006.342	-8.68
1006.767	-4.18
1007.192	0.82
1007.617	-6.08
1008.042	-5.08
1008.468	-7.88
1008.893	-2.48
1009.318	-3.08
1009.743	-1.48
1010.168	5.12
1010.593	0.72
1011.018	-4.98
1011.443	2.92
1011.868	1.32
1012.293	-3.18
1012.718	-5.78
1013.143	3.52
1013.567	-2.38
1013.992	-1.88
1014.417	-15.68
1014.842	-2.28
1015.267	-7.38
1015.691	-2.88
1016.116	9.82
1016.541	-2.38
1016.965	4.32
1017.39	6.42
1017.814	-2.68
1018.239	5.32
1018.663	-8.98
1019.088	-10.48
1019.512	-5.38
1019.937	-0.78
1020.361	-3.18
1020.785	-5.08
1021.21	-1.58
1021.634	-4.88
1022.058	-1.68
1022.483	5.42
1022.907	1.52
1023.331	-2.68
1023.755	-3.98
1024.179	-2.08
1024.604	-7.88
1025.028	-4.48
1025.452	-6.18
1025.876	-1.78
1026.3	-4.18
1026.724	-11.48
1027.148	-2.08
1027.572	-4.28
1027.996	-6.98
1028.42	0.22
1028.843	-0.08
1029.267	-4.58
1029.691	-7.28
1030.115	-10.48
1030.539	-10.98
1030.962	-6.18
1031.386	-4.98
1031.81	5.92
1032.233	1.22
1032.657	-2.18
1033.08	-7.88
1033.504	-1.98
1033.927	-4.08
1034.351	-3.28
1034.774	-7.28
1035.198	-0.48
1035.621	-5.48
1036.045	-3.58
1036.468	1.82
1036.891	-6.68
1037.315	-2.98
1037.738	-7.08
1038.161	-2.48
1038.584	-5.08
1039.008	-12.58
1039.431	-6.98
1039.854	-6.18
1040.277	-7.78
1040.7	-13.08
1041.123	1.92
1041.546	-8.68
1041.969	-12.08
1042.392	-5.48
1042.815	4.12
1043.238	5.12
1043.661	-1.78
1044.084	-8.18
1044.507	-0.58
1044.93	-10.38
1045.352	-5.68
1045.775	1.62
1046.198	-3.48
1046.621	-3.68
1047.043	-0.68
1047.466	6.82
1047.889	-6.38
1048.311	-7.48
1048.734	-2.58
1049.156	-6.68
1049.579	2.42
1050.001	1.62
1050.424	4.22
1050.846	-4.28
1051.269	-5.68
1051.691	-5.18
1052.113	-5.18
1052.536	2.62
1052.958	-2.78
1053.38	-2.78
1053.802	-13.78
1054.225	-6.28
1054.647	-3.88
1055.069	-7.38
1055.491	4.92
1055.913	-2.28
1056.335	-3.28
1056.757	-7.38
1057.179	-4.78
1057.601	-8.38
1058.023	0.22
1058.445	-5.38
1058.867	-0.98
1059.289	-5.18
1059.711	-9.28
1060.133	-0.98
1060.555	-4.28
1060.976	-4.58
1061.398	0.62
1061.82	-4.68
1062.241	-5.68
1062.663	-3.88
1063.085	-6.48
1063.506	4.82
1063.928	0.62
1064.35	3.52
1064.771	-8.78
1065.193	-6.58
1065.614	-11.58
1066.035	-4.18
1066.457	-6.98
1066.878	-1.78
1067.3	-0.98
1067.721	-6.28
1068.142	-2.08
1068.564	-4.38
1068.985	-9.18
1069.406	-6.88
1069.827	-5.88
1070.248	1.82
1070.67	-4.48
1071.091	-4.98
1071.512	-4.98
1071.933	-4.08
1072.354	-4.28
1072.775	-3.28
1073.196	-6.78
1073.617	-4.08
1074.038	-4.28
1074.459	-1.38
1074.88	-12.78
1075.3	-5.58
1075.721	-6.78
1076.142	2.82
1076.563	-1.18
1076.983	-13.58
1077.404	-1.08
1077.825	-8.28
1078.246	-7.48
1078.666	-5.98
1079.087	-4.98
1079.507	-7.18
1079.928	-1.68
1080.348	-2.68
1080.769	-3.48
1081.189	-0.08
1081.61	-6.98
1082.03	-9.58
1082.451	-10.28
1082.871	-12.28
1083.291	-5.98
1083.711	-7.38
1084.132	-7.18
1084.552	-9.48
1084.972	-3.28
1085.392	-14.78
1085.813	-8.88
1086.233	-8.48
1086.653	-8.38
1087.073	1.52
1087.493	-4.58
1087.913	-3.98
1088.333	-8.98
1088.753	-5.18
1089.173	0.12
1089.593	-3.18
1090.013	-2.08
1090.433	1.72
1090.852	-1.68
1091.272	-1.48
1091.692	-1.18
1092.112	-2.28
1092.531	-11.98
1092.951	-14.58
1093.371	-3.48
1093.79	-6.18
1094.21	-4.28
1094.63	-4.38
1095.049	-4.68
1095.469	-0.48
1095.888	-7.38
1096.308	2.32
1096.727	5.72
1097.146	-9.98
1097.566	4.52
1097.985	2.42
1098.405	-1.98
1098.824	-0.98
1099.243	-8.68
1099.662	-4.28
1100.082	-6.28
1100.501	-1.18
1100.92	-7.58
1101.339	-3.78
1101.758	-4.88
