Data from 20171114-ORNL-Ar_H_NY_Subt18_08-08-48-442.txt Node
Date: Tue Nov 14 08:08:48 EST 2017
User: Ender
Spectrometer: HR+D1039
Trigger mode: 0
Integration Time (sec): 2.730000E-2
Scans to average: 10
Electric dark correction enabled: true
Nonlinearity correction enabled: false
Boxcar width: 0
XAxis mode: Wavelengths
Number of Pixels in Spectrum: 2048
>>>>>Begin Spectral Data<<<<<
187.836	-3.83
188.309	-3.83
188.782	-3.83
189.255	1.67
189.728	2.07
190.201	7.97
190.674	3.67
191.147	1.57
191.619	-7.33
192.092	-0.33
192.565	5.07
193.038	1.57
193.511	-0.43
193.984	-2.63
194.456	-3.13
194.929	-2.03
195.402	-1.93
195.874	-1.93
196.347	-4.93
196.82	-10.73
197.292	7.27
197.765	-3.33
198.237	-12.13
198.71	-8.53
199.182	-0.83
199.655	2.17
200.127	2.27
200.6	-1.53
201.072	-3.13
201.544	-0.43
202.017	-5.53
202.489	5.17
202.961	-3.73
203.433	-4.83
203.906	-5.63
204.378	-3.53
204.85	-5.43
205.322	-8.83
205.794	-1.93
206.266	-1.13
206.739	-4.93
207.211	-4.03
207.683	-12.23
208.155	-11.23
208.627	-8.53
209.099	-2.63
209.57	-10.03
210.042	-4.33
210.514	-9.93
210.986	-3.73
211.458	-11.53
211.93	-2.53
212.402	-3.03
212.873	-7.63
213.345	-10.13
213.817	-9.33
214.288	-5.03
214.76	-15.63
215.232	-0.83
215.703	-4.53
216.175	-6.43
216.646	-8.73
217.118	-6.83
217.589	-5.23
218.061	-10.63
218.532	-7.83
219.004	-6.13
219.475	-5.23
219.946	-4.33
220.418	-9.23
220.889	-6.23
221.36	1.27
221.832	-5.13
222.303	-15.13
222.774	0.77
223.245	-15.23
223.717	-8.33
224.188	-6.13
224.659	-5.33
225.13	-9.43
225.601	-1.63
226.072	-3.73
226.543	-6.83
227.014	-1.23
227.485	-4.73
227.956	-6.53
228.427	-8.83
228.898	-1.33
229.369	1.77
229.839	-6.33
230.31	-7.23
230.781	-0.93
231.252	-3.53
231.722	-5.33
232.193	-6.73
232.664	-7.33
233.135	0.07
233.605	-4.33
234.076	-7.73
234.546	3.57
235.017	1.27
235.487	-2.93
235.958	-6.83
236.428	-9.13
236.899	-3.23
237.369	-5.03
237.84	-13.73
238.31	-0.43
238.78	-4.93
239.251	-8.03
239.721	-6.33
240.191	-3.83
240.662	4.17
241.132	2.67
241.602	-4.33
242.072	-2.93
242.542	3.07
243.013	-6.83
243.483	-2.13
243.953	-3.23
244.423	-9.73
244.893	-9.13
245.363	-2.23
245.833	-2.83
246.303	-3.13
246.773	-0.03
247.243	-2.13
247.712	3.87
248.182	2.87
248.652	-2.13
249.122	-8.43
249.592	2.77
250.061	2.47
250.531	14.77
251.001	1.17
251.471	7.77
251.94	12.77
252.41	-1.93
252.879	-5.83
253.349	0.77
253.818	5.87
254.288	2.97
254.757	-1.83
255.227	-1.93
255.696	-2.83
256.166	3.27
256.635	-2.13
257.105	3.77
257.574	-2.03
258.043	-0.73
258.513	-7.23
258.982	2.77
259.451	-1.93
259.92	-1.83
260.389	0.87
260.859	7.77
261.328	2.97
261.797	11.97
262.266	-1.33
262.735	4.67
263.204	1.07
263.673	-3.13
264.142	-0.83
264.611	-5.43
265.08	-8.03
265.549	0.07
266.018	8.17
266.487	-7.13
266.955	-0.53
267.424	-5.33
267.893	10.27
268.362	-2.93
268.83	1.47
269.299	4.17
269.768	-0.83
270.236	-2.13
270.705	-2.73
271.174	-2.23
271.642	-3.93
272.111	1.27
272.579	4.07
273.048	3.07
273.516	5.67
273.985	7.37
274.453	6.27
274.922	10.27
275.39	6.37
275.858	-6.83
276.327	1.47
276.795	8.87
277.263	1.17
277.731	14.97
278.2	17.17
278.668	21.37
279.136	17.77
279.604	5.07
280.072	6.67
280.54	6.97
281.008	1.87
281.477	8.97
281.945	2.27
282.413	8.17
282.881	5.47
283.348	-2.33
283.816	9.97
284.284	6.07
284.752	15.37
285.22	8.97
285.688	10.17
286.156	5.07
286.623	18.57
287.091	16.87
287.559	10.77
288.026	6.57
288.494	5.47
288.962	0.57
289.429	4.87
289.897	14.77
290.364	4.27
290.832	12.07
291.3	8.07
291.767	13.77
292.234	12.77
292.702	9.27
293.169	9.97
293.637	14.47
294.104	4.17
294.571	-2.83
295.039	2.87
295.506	6.87
295.973	6.57
296.44	5.97
296.908	15.17
297.375	10.57
297.842	12.97
298.309	12.07
298.776	3.07
299.243	10.57
299.71	9.17
300.177	7.67
300.644	17.67
301.111	11.57
301.578	13.27
302.045	12.47
302.512	15.47
302.979	17.47
303.446	15.27
303.913	3.77
304.379	12.67
304.846	25.47
305.313	20.27
305.78	11.97
306.246	17.57
306.713	18.67
307.18	20.27
307.646	18.67
308.113	19.67
308.579	17.47
309.046	14.47
309.512	18.17
309.979	13.47
310.445	17.87
310.912	20.37
311.378	31.37
311.845	25.27
312.311	26.47
312.777	22.67
313.244	23.67
313.71	28.57
314.176	16.17
314.642	27.67
315.109	18.47
315.575	24.67
316.041	24.57
316.507	22.87
316.973	24.77
317.439	23.67
317.905	27.47
318.371	25.47
318.837	22.07
319.303	25.37
319.769	21.87
320.235	24.77
320.701	23.47
321.167	21.77
321.633	22.67
322.099	28.17
322.564	30.87
323.03	31.77
323.496	28.07
323.962	34.57
324.427	27.27
324.893	32.77
325.359	31.97
325.824	33.47
326.29	27.37
326.755	31.67
327.221	32.67
327.686	27.87
328.152	32.77
328.617	28.07
329.083	33.07
329.548	40.57
330.014	36.57
330.479	28.37
330.944	33.37
331.41	29.27
331.875	39.77
332.34	29.47
332.805	28.47
333.271	36.67
333.736	28.27
334.201	40.67
334.666	41.27
335.131	40.67
335.596	45.27
336.061	42.37
336.526	31.27
336.991	39.97
337.456	42.47
337.921	37.77
338.386	32.57
338.851	35.97
339.316	40.37
339.781	35.67
340.246	40.67
340.711	34.77
341.175	45.47
341.64	32.27
342.105	40.17
342.569	47.27
343.034	47.77
343.499	41.97
343.963	40.47
344.428	54.37
344.893	51.57
345.357	52.57
345.822	48.27
346.286	58.07
346.751	61.77
347.215	56.67
347.679	55.27
348.144	76.17
348.608	66.37
349.073	59.77
349.537	61.37
350.001	64.87
350.465	72.67
350.93	66.97
351.394	69.77
351.858	55.17
352.322	82.87
352.786	69.97
353.25	86.27
353.715	94.67
354.179	79.77
354.643	96.07
355.107	100.77
355.571	83.07
356.035	80.47
356.498	98.17
356.962	98.57
357.426	109.17
357.89	94.67
358.354	75.17
358.818	76.37
359.281	72.77
359.745	62.47
360.209	63.57
360.673	61.37
361.136	66.17
361.6	67.07
362.064	72.57
362.527	70.77
362.991	79.87
363.454	70.47
363.918	57.47
364.381	65.17
364.845	73.07
365.308	76.57
365.772	71.97
366.235	71.77
366.698	73.97
367.162	78.97
367.625	74.47
368.088	77.37
368.552	79.47
369.015	74.47
369.478	85.77
369.941	87.97
370.404	76.47
370.867	82.57
371.331	89.57
371.794	93.67
372.257	92.27
372.72	91.87
373.183	89.97
373.646	82.07
374.109	84.37
374.572	87.67
375.035	92.57
375.497	92.37
375.96	84.97
376.423	88.07
376.886	99.77
377.349	92.87
377.811	92.27
378.274	93.97
378.737	92.97
379.199	94.17
379.662	95.47
380.125	101.27
380.587	101.17
381.05	101.27
381.512	108.47
381.975	114.77
382.437	110.17
382.9	107.97
383.362	118.27
383.825	126.67
384.287	123.97
384.75	111.27
385.212	112.27
385.674	124.37
386.136	116.17
386.599	110.47
387.061	116.47
387.523	118.87
387.985	117.67
388.447	134.87
388.91	121.47
389.372	126.47
389.834	126.87
390.296	124.17
390.758	129.47
391.22	140.07
391.682	153.67
392.144	189.77
392.606	157.27
393.068	143.07
393.529	147.27
393.991	129.67
394.453	119.07
394.915	124.77
395.377	142.67
395.838	149.67
396.3	131.57
396.762	128.17
397.224	129.57
397.685	120.67
398.147	127.47
398.608	126.17
399.07	120.97
399.531	126.07
399.993	135.17
400.454	143.67
400.916	138.97
401.377	133.17
401.839	141.77
402.3	141.47
402.762	154.07
403.223	163.87
403.684	163.97
404.145	149.07
404.607	157.97
405.068	151.27
405.529	164.77
405.99	176.67
406.451	161.47
406.913	165.47
407.374	159.07
407.835	149.97
408.296	153.47
408.757	162.67
409.218	176.67
409.679	165.47
410.14	161.67
410.601	161.77
411.062	172.67
411.522	171.87
411.983	178.77
412.444	165.07
412.905	171.07
413.366	176.47
413.826	188.07
414.287	209.97
414.748	252.67
415.208	238.47
415.669	210.37
416.13	206.37
416.59	206.47
417.051	209.67
417.511	212.97
417.972	232.47
418.432	243.17
418.893	285.57
419.353	253.37
419.814	193.87
420.274	181.97
420.734	176.97
421.195	195.87
421.655	184.77
422.115	189.97
422.576	192.77
423.036	198.07
423.496	206.47
423.956	213.87
424.416	227.07
424.876	255.47
425.336	254.77
425.797	251.37
426.257	243.37
426.717	231.57
427.177	220.77
427.637	214.27
428.097	226.07
428.556	236.57
429.016	261.87
429.476	251.57
429.936	260.97
430.396	268.17
430.856	280.47
431.315	299.17
431.775	330.57
432.235	363.27
432.694	334.97
433.154	347.07
433.614	373.07
434.073	323.47
434.533	274.17
434.993	259.47
435.452	271.97
435.912	279.07
436.371	277.87
436.83	277.97
437.29	256.27
437.749	234.37
438.209	238.27
438.668	264.27
439.127	279.57
439.587	251.87
440.046	236.17
440.505	251.37
440.964	265.67
441.424	307.67
441.883	295.07
442.342	251.17
442.801	227.07
443.26	226.17
443.719	222.37
444.178	217.17
444.637	206.27
445.096	215.17
445.555	227.17
446.014	221.37
446.473	226.57
446.932	234.27
447.391	221.77
447.849	227.87
448.308	215.37
448.767	215.87
449.226	230.67
449.685	235.47
450.143	250.07
450.602	239.57
451.061	226.97
451.519	235.27
451.978	234.47
452.436	235.17
452.895	235.77
453.353	251.67
453.812	238.27
454.27	240.47
454.729	230.17
455.187	234.67
455.646	250.67
456.104	245.97
456.562	258.47
457.021	258.77
457.479	260.67
457.937	267.97
458.395	267.77
458.854	243.97
459.312	256.17
459.77	277.87
460.228	252.87
460.686	247.07
461.144	247.57
461.602	246.27
462.06	253.37
462.518	257.87
462.976	257.67
463.434	257.77
463.892	251.97
464.35	265.17
464.808	283.97
465.266	264.77
465.724	268.77
466.181	274.77
466.639	270.97
467.097	288.77
467.555	300.17
468.012	305.47
468.47	305.97
468.928	329.37
469.385	331.47
469.843	346.17
470.3	337.97
470.758	357.37
471.215	383.47
471.673	406.57
472.13	405.17
472.588	413.97
473.045	377.17
473.503	372.97
473.96	391.47
474.417	404.47
474.875	431.97
475.332	466.07
475.789	462.37
476.246	466.17
476.704	480.07
477.161	505.17
477.618	526.07
478.075	559.57
478.532	607.17
478.989	669.57
479.446	777.17
479.903	742.67
480.36	781.27
480.817	818.57
481.274	916.17
481.731	1011.17
482.188	1089.37
482.645	1205.37
483.102	1299.67
483.558	1417.57
484.015	1455.07
484.472	1423.77
484.929	1394.97
485.385	1343.97
485.842	1316.07
486.299	1268.47
486.755	1215.57
487.212	1043.47
487.668	887.37
488.125	824.77
488.582	756.97
489.038	728.37
489.494	694.17
489.951	669.27
490.407	658.87
490.864	638.47
491.32	635.47
491.776	639.77
492.233	653.17
492.689	604.57
493.145	599.47
493.602	595.17
494.058	614.87
494.514	604.77
494.97	638.17
495.426	643.67
495.882	617.67
496.338	607.27
496.794	616.57
497.251	603.17
497.707	620.87
498.163	634.07
498.618	634.67
499.074	638.37
499.53	659.27
499.986	663.67
500.442	640.07
500.898	615.87
501.354	616.07
501.809	627.77
502.265	627.37
502.721	642.07
503.177	648.07
503.632	650.97
504.088	663.77
504.543	675.27
504.999	689.67
505.455	657.97
505.91	629.87
506.366	639.87
506.821	626.37
507.277	629.67
507.732	641.77
508.187	629.27
508.643	646.67
509.098	637.37
509.553	658.17
510.009	667.47
510.464	671.87
510.919	691.37
511.375	697.97
511.83	709.37
512.285	721.97
512.74	751.57
513.195	782.57
513.65	774.37
514.105	770.67
514.56	776.97
515.015	780.87
515.47	799.17
515.925	781.27
516.38	775.77
516.835	791.37
517.29	776.67
517.745	784.77
518.2	754.97
518.655	754.37
519.109	740.77
519.564	730.47
520.019	721.47
520.474	725.97
520.928	731.57
521.383	717.07
521.838	707.87
522.292	701.77
522.747	709.77
523.201	711.47
523.656	709.77
524.11	704.67
524.565	695.47
525.019	691.87
525.474	704.17
525.928	701.67
526.382	688.97
526.837	698.67
527.291	706.77
527.745	699.87
528.2	691.57
528.654	688.07
529.108	690.17
529.562	698.77
530.016	693.27
530.47	688.37
530.925	698.87
531.379	700.07
531.833	701.77
532.287	697.37
532.741	700.17
533.195	706.97
533.649	720.57
534.103	718.77
534.556	709.17
535.01	698.67
535.464	696.87
535.918	712.17
536.372	719.27
536.826	712.97
537.279	696.97
537.733	718.57
538.187	712.67
538.64	715.27
539.094	728.27
539.548	732.07
540.001	726.87
540.455	726.87
540.908	723.57
541.362	741.37
541.815	756.47
542.269	761.87
542.722	768.27
543.175	772.47
543.629	768.67
544.082	789.97
544.536	789.97
544.989	790.57
545.442	804.07
545.895	794.67
546.349	792.87
546.802	800.07
547.255	801.27
547.708	805.87
548.161	821.17
548.614	820.57
549.067	834.27
549.52	826.47
549.973	812.67
550.426	813.07
550.879	797.97
551.332	801.37
551.785	817.97
552.238	817.17
552.691	832.27
553.144	838.07
553.596	849.37
554.049	866.47
554.502	889.57
554.955	922.37
555.407	915.97
555.86	903.57
556.313	895.87
556.765	877.77
557.218	882.87
557.67	883.47
558.123	884.77
558.576	880.47
559.028	885.97
559.48	883.97
559.933	862.07
560.385	855.97
560.838	813.27
561.29	799.47
561.742	793.87
562.195	773.37
562.647	774.77
563.099	780.77
563.551	784.17
564.004	794.97
564.456	773.37
564.908	763.67
565.36	751.87
565.812	730.77
566.264	721.77
566.716	726.57
567.168	714.27
567.62	719.17
568.072	712.07
568.524	695.17
568.976	696.87
569.428	687.27
569.88	682.87
570.332	683.77
570.784	697.17
571.235	687.87
571.687	691.57
572.139	709.57
572.59	711.17
573.042	718.17
573.494	715.57
573.945	711.77
574.397	694.07
574.849	693.57
575.3	705.57
575.752	692.67
576.203	690.27
576.655	694.97
577.106	673.27
577.557	672.17
578.009	673.57
578.46	668.27
578.912	669.57
579.363	677.17
579.814	675.17
580.265	661.87
580.717	676.27
581.168	671.97
581.619	687.37
582.07	700.57
582.521	682.97
582.972	683.97
583.423	677.37
583.875	684.77
584.326	699.07
584.777	718.37
585.227	759.67
585.678	788.77
586.129	831.77
586.58	871.87
587.031	908.47
587.482	970.67
587.933	1052.07
588.384	974.97
588.834	851.97
589.285	791.07
589.736	790.87
590.186	782.57
590.637	775.57
591.088	755.07
591.538	751.47
591.989	750.97
592.439	731.77
592.89	730.57
593.34	717.37
593.791	715.77
594.241	711.37
594.692	704.27
595.142	703.97
595.593	704.27
596.043	711.47
596.493	714.07
596.943	717.07
597.394	727.67
597.844	732.97
598.294	745.07
598.744	771.47
599.195	801.77
599.645	830.07
600.095	873.07
600.545	932.27
600.995	999.07
601.445	1048.37
601.895	1106.87
602.345	1152.47
602.795	1124.87
603.245	1078.57
603.695	1026.67
604.145	972.77
604.594	918.47
605.044	862.77
605.494	807.67
605.944	765.77
606.393	761.87
606.843	739.17
607.293	745.57
607.743	741.47
608.192	747.67
608.642	764.77
609.091	766.97
609.541	763.27
609.99	769.07
610.44	769.37
610.889	733.27
611.339	706.17
611.788	695.07
612.238	699.27
612.687	712.37
613.136	720.17
613.586	730.87
614.035	719.77
614.484	730.57
614.933	724.07
615.383	728.17
615.832	728.47
616.281	720.17
616.73	689.57
617.179	670.87
617.628	657.37
618.077	637.37
618.526	635.97
618.975	627.57
619.424	630.07
619.873	627.77
620.322	621.77
620.771	616.27
621.22	615.47
621.669	604.07
622.118	596.97
622.567	600.47
623.015	584.57
623.464	576.47
623.913	571.67
624.361	562.77
624.81	562.47
625.259	566.27
625.707	567.07
626.156	566.97
626.604	583.47
627.053	570.47
627.501	579.57
627.95	574.07
628.398	592.37
628.847	584.27
629.295	587.17
629.744	584.47
630.192	573.67
630.64	562.57
631.089	563.67
631.537	553.77
631.985	553.57
632.433	562.17
632.881	567.87
633.33	593.47
633.778	570.67
634.226	544.27
634.674	556.47
635.122	554.67
635.57	576.17
636.018	585.77
636.466	580.07
636.914	555.77
637.362	580.37
637.81	593.77
638.258	587.37
638.705	593.07
639.153	623.27
639.601	633.57
640.049	652.47
640.497	692.67
640.944	703.17
641.392	662.37
641.84	613.97
642.287	580.77
642.735	569.37
643.182	583.37
643.63	580.77
644.078	574.87
644.525	592.57
644.973	595.67
645.42	603.47
645.867	624.97
646.315	648.97
646.762	673.67
647.21	692.77
647.657	722.27
648.104	743.57
648.551	766.97
648.999	840.67
649.446	907.17
649.893	993.07
650.34	1139.37
650.787	1349.57
651.234	1677.37
651.682	2182.17
652.129	2977.37
652.576	4252.67
653.023	6203.77
653.47	8367.67
653.917	10339.37
654.363	11854.37
654.81	12976.47
655.257	12318.37
655.704	8143.47
656.151	4884.27
656.598	3182.37
657.044	2275.37
657.491	1783.07
657.938	1423.37
658.385	1195.97
658.831	1060.37
659.278	946.87
659.724	852.17
660.171	774.37
660.618	723.07
661.064	691.77
661.511	669.87
661.957	662.07
662.404	640.97
662.85	660.87
663.296	626.67
663.743	570.27
664.189	547.77
664.635	542.97
665.082	539.97
665.528	542.37
665.974	524.27
666.42	515.57
666.867	516.87
667.313	497.17
667.759	469.17
668.205	468.17
668.651	473.77
669.097	464.77
669.543	456.27
669.989	460.87
670.435	457.17
670.881	457.27
671.327	463.87
671.773	479.77
672.219	500.27
672.665	562.07
673.11	592.37
673.556	644.87
674.002	674.57
674.448	666.87
674.893	554.37
675.339	491.47
675.785	444.37
676.23	440.07
676.676	405.37
677.122	389.47
677.567	384.87
678.013	377.47
678.458	367.37
678.904	369.47
679.349	356.57
679.794	361.57
680.24	360.97
680.685	362.77
681.131	357.17
681.576	357.87
682.021	357.77
682.466	350.27
682.912	358.37
683.357	365.47
683.802	396.07
684.247	425.67
684.692	471.87
685.137	519.47
685.583	550.07
686.028	587.57
686.473	543.27
686.918	457.17
687.363	428.47
687.807	409.57
688.252	379.27
688.697	361.27
689.142	343.07
689.587	348.37
690.032	340.27
690.477	346.87
690.921	362.07
691.366	401.17
691.811	415.47
692.255	447.17
692.7	475.67
693.145	533.27
693.589	742.67
694.034	1199.27
694.478	1614.87
694.923	1787.77
695.367	2308.37
695.812	1245.77
696.256	521.87
696.701	380.87
697.145	351.97
697.59	333.27
698.034	334.07
698.478	335.07
698.922	330.87
699.367	331.07
699.811	349.27
700.255	363.07
700.699	393.57
701.143	433.77
701.588	498.97
702.032	528.57
702.476	526.17
702.92	505.67
703.364	512.97
703.808	682.37
704.252	1108.37
704.696	1531.07
705.14	1719.97
705.584	2186.07
706.027	1101.87
706.471	541.47
706.915	413.47
707.359	367.37
707.803	327.07
708.246	317.67
708.69	324.37
709.134	327.47
709.577	321.07
710.021	321.27
710.465	322.77
710.908	302.97
711.352	307.47
711.795	332.27
712.239	370.77
712.682	394.77
713.126	423.47
713.569	465.47
714.012	368.57
714.456	320.17
714.899	298.97
715.342	278.27
715.786	272.37
716.229	264.77
716.672	258.07
717.115	249.87
717.558	258.37
718.002	258.57
718.445	267.57
718.888	289.07
719.331	301.27
719.774	321.37
720.217	308.27
720.66	292.87
721.103	275.57
721.546	260.37
721.989	256.57
722.432	235.67
722.874	243.57
723.317	230.67
723.76	244.17
724.203	268.27
724.645	328.47
725.088	471.27
725.531	594.47
725.974	657.67
726.416	569.27
726.859	319.87
727.301	251.17
727.744	241.77
728.187	237.87
728.629	248.37
729.071	246.87
729.514	267.77
729.956	278.87
730.399	295.87
730.841	300.17
731.283	283.67
731.726	267.47
732.168	263.57
732.61	277.17
733.053	298.17
733.495	332.27
733.937	370.07
734.379	418.87
734.821	456.37
735.263	581.97
735.705	908.97
736.148	1722.67
736.59	2721.97
737.032	3134.17
737.474	2577.57
737.916	853.37
738.357	450.97
738.799	346.57
739.241	311.97
739.683	297.97
740.125	305.67
740.567	309.27
741.008	325.47
741.45	325.07
741.892	335.87
742.334	363.47
742.775	372.37
743.217	363.67
743.658	286.47
744.1	262.87
744.542	274.97
744.983	328.57
745.425	360.17
745.866	360.87
746.307	294.67
746.749	287.87
747.19	333.17
747.632	482.07
748.073	976.07
748.514	2004.37
748.956	2995.27
749.397	3756.07
749.838	3114.37
750.279	3032.17
750.72	1562.97
751.162	577.97
751.603	340.77
752.044	264.97
752.485	223.27
752.926	220.37
753.367	210.37
753.808	197.17
754.249	197.87
754.69	197.57
755.131	185.17
755.572	185.67
756.013	192.37
756.453	188.17
756.894	192.27
757.335	198.77
757.776	201.27
758.216	197.87
758.657	205.17
759.098	209.57
759.538	236.27
759.979	279.17
760.42	399.27
760.86	780.87
761.301	2024.77
761.741	4758.07
762.182	6580.17
762.622	4644.27
763.063	1368.27
763.503	563.37
763.943	341.87
764.384	301.17
764.824	306.97
765.264	301.37
765.705	247.47
766.145	188.57
766.585	185.17
767.025	177.27
767.465	167.97
767.906	210.27
768.346	236.27
768.786	252.67
769.226	241.07
769.666	325.37
770.106	677.97
770.546	1691.67
770.986	2742.57
771.426	2436.27
771.866	830.47
772.306	337.07
772.745	206.17
773.185	179.77
773.625	169.87
774.065	167.97
774.505	173.47
774.944	247.47
775.384	470.97
775.824	763.47
776.263	748.47
776.703	349.47
777.142	179.37
777.582	136.37
778.021	134.77
778.461	127.17
778.9	129.47
779.34	131.67
779.779	120.47
780.219	114.67
780.658	108.07
781.097	113.57
781.537	111.57
781.976	105.97
782.415	106.57
782.855	109.07
783.294	102.57
783.733	105.97
784.172	108.47
784.611	106.27
785.05	116.27
785.489	116.17
785.928	125.27
786.367	126.77
786.806	119.67
787.245	133.87
787.684	138.27
788.123	158.37
788.562	141.87
789.001	135.47
789.44	127.07
789.879	129.97
790.317	118.57
790.756	131.57
791.195	128.47
791.634	154.37
792.072	218.97
792.511	396.67
792.95	1089.37
793.388	2212.67
793.827	1944.97
794.265	704.57
794.704	301.07
795.142	185.77
795.581	156.97
796.019	142.97
796.458	131.77
796.896	127.17
797.334	135.67
797.773	164.67
798.211	236.37
798.649	473.97
799.087	1098.47
799.526	1679.57
799.964	2123.07
800.402	2055.77
800.84	799.97
801.278	321.77
801.716	200.57
802.154	159.87
802.592	149.57
803.03	146.87
803.468	142.57
803.906	152.17
804.344	154.97
804.782	141.67
805.22	140.07
805.658	139.17
806.096	152.87
806.533	161.77
806.971	181.37
807.409	232.37
807.847	346.87
808.284	732.87
808.722	2027.17
809.16	3410.27
809.597	3372.87
810.035	5719.77
810.472	5865.77
810.91	2164.67
811.347	836.37
811.785	428.67
812.222	271.97
812.66	205.47
813.097	173.37
813.535	150.87
813.972	137.37
814.409	121.97
814.846	113.97
815.284	115.77
815.721	108.17
816.158	108.77
816.595	123.57
817.032	165.77
817.47	187.17
817.907	125.27
818.344	115.87
818.781	104.47
819.218	100.07
819.655	127.37
820.092	196.57
820.529	218.87
820.966	179.07
821.403	131.27
821.839	108.87
822.276	105.57
822.713	134.27
823.15	133.77
823.587	119.17
824.023	161.97
824.46	333.67
824.897	966.47
825.333	1370.57
825.77	602.07
826.206	234.97
826.643	133.07
827.08	104.67
827.516	79.67
827.953	77.07
828.389	87.07
828.825	69.57
829.262	71.77
829.698	59.97
830.135	73.47
830.571	60.77
831.007	68.37
831.443	63.27
831.88	65.37
832.316	63.67
832.752	65.57
833.188	69.37
833.624	62.67
834.06	70.87
834.497	70.47
834.933	75.17
835.369	77.57
835.805	69.17
836.241	78.07
836.677	81.97
837.112	95.67
837.548	112.17
837.984	146.77
838.42	207.47
838.856	541.47
839.292	1618.47
839.727	2364.67
840.163	1114.07
840.599	1000.17
841.034	2149.87
841.47	2157.47
841.906	805.87
842.341	338.27
842.777	211.67
843.212	246.57
843.648	222.07
844.083	130.37
844.519	91.77
844.954	77.27
845.39	61.07
845.825	60.47
846.261	55.67
846.696	57.87
847.131	50.47
847.566	58.07
848.002	50.37
848.437	58.87
848.872	64.27
849.307	67.27
849.742	94.27
850.177	195.37
850.613	588.47
851.048	898.07
851.483	391.97
851.918	159.77
852.353	90.87
852.788	58.37
853.223	48.07
853.657	57.07
854.092	49.37
854.527	39.97
854.962	42.37
855.397	46.17
855.832	51.37
856.266	47.07
856.701	38.37
857.136	35.97
857.57	37.87
858.005	47.87
858.44	55.57
858.874	50.37
859.309	55.47
859.743	37.17
860.178	46.87
860.612	43.07
861.047	52.97
861.481	66.77
861.915	69.87
862.35	52.27
862.784	26.57
863.218	42.47
863.653	31.37
864.087	50.87
864.521	53.57
864.955	67.57
865.39	159.17
865.824	178.17
866.258	121.07
866.692	176.37
867.126	184.27
867.56	105.27
867.994	53.17
868.428	40.37
868.862	50.47
869.296	51.67
869.73	59.47
870.164	52.37
870.598	52.47
871.031	34.87
871.465	31.87
871.899	30.27
872.333	18.47
872.766	25.57
873.2	21.67
873.634	28.17
874.067	27.87
874.501	26.47
874.935	32.27
875.368	27.67
875.802	32.07
876.235	20.17
876.669	21.87
877.102	25.67
877.535	28.17
877.969	27.57
878.402	15.77
878.836	13.87
879.269	24.37
879.702	25.17
880.135	23.17
880.569	22.97
881.002	26.67
881.435	19.07
881.868	10.77
882.301	21.77
882.734	22.67
883.167	23.87
883.601	18.87
884.034	21.47
884.467	16.67
884.899	17.87
885.332	16.57
885.765	13.57
886.198	14.97
886.631	20.67
887.064	21.07
887.497	14.67
887.929	24.17
888.362	17.97
888.795	11.27
889.228	15.47
889.66	21.37
890.093	16.57
890.526	18.87
890.958	15.67
891.391	18.17
891.823	17.37
892.256	14.87
892.688	14.67
893.121	18.97
893.553	18.27
893.985	17.97
894.418	16.77
894.85	11.87
895.282	13.17
895.715	16.37
896.147	16.87
896.579	12.77
897.011	11.37
897.444	11.07
897.876	8.17
898.308	16.57
898.74	10.37
899.172	11.97
899.604	22.87
900.036	14.97
900.468	12.27
900.9	13.17
901.332	17.17
901.764	15.87
902.196	18.97
902.628	20.97
903.06	18.37
903.491	27.47
903.923	22.67
904.355	20.97
904.787	25.67
905.218	22.47
905.65	17.77
906.082	14.67
906.513	13.47
906.945	15.47
907.376	12.47
907.808	24.47
908.239	18.67
908.671	17.87
909.102	21.07
909.534	27.07
909.965	53.87
910.397	95.17
910.828	332.27
911.259	488.97
911.691	223.27
912.122	109.27
912.553	58.67
912.984	25.27
913.415	24.77
913.847	23.87
914.278	12.27
914.709	15.17
915.14	18.57
915.571	15.17
916.002	14.97
916.433	18.57
916.864	12.47
917.295	16.07
917.726	18.57
918.157	18.57
918.587	33.67
919.018	22.17
919.449	21.07
919.88	26.67
920.311	29.57
920.741	47.07
921.172	172.07
921.603	158.57
922.033	72.97
922.464	48.97
922.895	23.57
923.325	17.37
923.756	9.37
924.186	7.67
924.617	21.97
925.047	24.37
925.478	36.07
925.908	31.27
926.338	16.27
926.769	20.17
927.199	21.97
927.629	5.87
928.06	12.97
928.49	16.07
928.92	17.07
929.35	8.27
929.78	12.57
930.21	4.87
930.641	5.37
931.071	6.27
931.501	7.77
931.931	7.07
932.361	6.37
932.791	1.97
933.221	4.87
933.651	5.47
934.08	19.17
934.51	32.07
934.94	9.57
935.37	9.87
935.8	14.87
936.229	9.77
936.659	9.97
937.089	-0.63
937.519	14.67
937.948	26.87
938.378	17.17
938.807	3.07
939.237	-0.03
939.666	5.97
940.096	-7.13
940.525	-1.43
940.955	-1.53
941.384	9.77
941.814	-4.73
942.243	-1.73
942.672	4.77
943.102	-3.93
943.531	0.17
943.96	7.67
944.39	1.07
944.819	2.57
945.248	-2.33
945.677	-3.93
946.106	6.27
946.535	1.37
946.964	-2.33
947.393	4.47
947.822	4.07
948.251	-2.63
948.68	-1.83
949.109	2.77
949.538	3.37
949.967	-0.03
950.396	-2.13
950.825	2.77
951.254	-1.73
951.682	-8.03
952.111	3.47
952.54	3.77
952.969	-4.03
953.397	3.57
953.826	1.67
954.254	-3.73
954.683	0.87
955.112	-4.43
955.54	3.97
955.969	-5.23
956.397	0.37
956.826	-4.63
957.254	-1.33
957.682	-0.13
958.111	6.47
958.539	-1.53
958.967	1.37
959.396	-6.03
959.824	0.77
960.252	0.57
960.68	-4.03
961.109	-2.43
961.537	-7.53
961.965	-1.93
962.393	5.97
962.821	-1.43
963.249	3.47
963.677	7.07
964.105	10.37
964.533	44.17
964.961	40.37
965.389	18.37
965.817	13.97
966.245	6.97
966.672	4.97
967.1	-7.23
967.528	-2.63
967.956	-8.93
968.383	6.27
968.811	-6.33
969.239	-3.13
969.666	-4.43
970.094	-2.83
970.522	1.47
970.949	-0.73
971.377	-3.13
971.804	-4.73
972.232	4.67
972.659	-5.33
973.087	-10.13
973.514	-1.83
973.941	-7.53
974.369	-2.13
974.796	-1.23
975.223	0.17
975.651	-5.83
976.078	0.47
976.505	2.57
976.932	1.47
977.359	17.97
977.786	14.77
978.214	-0.93
978.641	-4.93
979.068	-4.13
979.495	-3.13
979.922	-4.13
980.349	1.57
980.776	-1.03
981.202	0.07
981.629	2.17
982.056	5.37
982.483	-5.83
982.91	-2.03
983.337	-8.23
983.763	5.27
984.19	-13.13
984.617	-6.63
985.043	-6.53
985.47	-4.13
985.897	-2.83
986.323	-5.83
986.75	3.97
987.176	0.57
987.603	-0.23
988.029	0.77
988.456	-8.03
988.882	-3.23
989.308	-6.13
989.735	-3.03
990.161	-3.23
990.587	-15.63
991.014	-6.73
991.44	2.87
991.866	-5.63
992.292	-6.53
992.719	-2.43
993.145	5.57
993.571	-6.33
993.997	-3.43
994.423	-6.43
994.849	-7.23
995.275	-6.13
995.701	-0.33
996.127	-3.43
996.553	-0.73
996.979	-2.43
997.405	-1.63
997.83	-4.53
998.256	-6.33
998.682	-6.73
999.108	-8.63
999.534	0.27
999.959	-7.33
1000.385	-5.63
1000.811	-5.33
1001.236	-4.33
1001.662	-6.43
1002.087	-10.23
1002.513	4.17
1002.938	-1.43
1003.364	-2.73
1003.789	-4.03
1004.215	8.77
1004.64	-9.23
1005.066	-0.93
1005.491	-2.43
1005.916	-1.03
1006.342	-0.63
1006.767	-10.33
1007.192	5.87
1007.617	-5.63
1008.042	-9.63
1008.468	-5.63
1008.893	-3.33
1009.318	1.17
1009.743	-3.03
1010.168	-3.13
1010.593	0.67
1011.018	-7.13
1011.443	-4.23
1011.868	-1.93
1012.293	-4.63
1012.718	-2.53
1013.143	-4.23
1013.567	1.67
1013.992	-1.93
1014.417	-14.63
1014.842	-3.53
1015.267	-4.23
1015.691	-3.13
1016.116	-3.13
1016.541	-0.03
1016.965	6.37
1017.39	1.07
1017.814	-2.63
1018.239	-4.03
1018.663	-9.33
1019.088	-12.63
1019.512	-0.43
1019.937	-1.93
1020.361	-7.83
1020.785	-8.43
1021.21	-4.93
1021.634	-2.93
1022.058	-1.63
1022.483	5.17
1022.907	-5.23
1023.331	-5.03
1023.755	-4.13
1024.179	-1.63
1024.604	-9.73
1025.028	-9.03
1025.452	-10.03
1025.876	-4.23
1026.3	-2.63
1026.724	-12.33
1027.148	-7.13
1027.572	-10.13
1027.996	-6.83
1028.42	-6.53
1028.843	-7.03
1029.267	-5.93
1029.691	-3.23
1030.115	-9.23
1030.539	-9.73
1030.962	-12.23
1031.386	-21.43
1031.81	-3.43
1032.233	2.07
1032.657	-1.43
1033.08	-3.83
1033.504	-1.53
1033.927	-7.63
1034.351	-0.33
1034.774	-8.23
1035.198	-4.33
1035.621	-9.33
1036.045	-14.03
1036.468	0.67
1036.891	-10.23
1037.315	-10.83
1037.738	-9.73
1038.161	-0.13
1038.584	-5.83
1039.008	-6.53
1039.431	-1.83
1039.854	0.37
1040.277	-7.93
1040.7	-14.43
1041.123	-4.83
1041.546	-5.93
1041.969	-3.43
1042.392	-5.43
1042.815	-4.13
1043.238	-1.03
1043.661	-0.33
1044.084	-9.13
1044.507	-4.23
1044.93	-5.63
1045.352	-11.93
1045.775	-1.23
1046.198	-4.73
1046.621	-8.03
1047.043	-9.13
1047.466	8.27
1047.889	-2.93
1048.311	-11.63
1048.734	-1.53
1049.156	-6.13
1049.579	-6.83
1050.001	-3.43
1050.424	-9.63
1050.846	-9.53
1051.269	-8.53
1051.691	-6.23
1052.113	-11.33
1052.536	1.27
1052.958	-5.03
1053.38	-6.53
1053.802	-13.73
1054.225	-3.53
1054.647	-11.63
1055.069	-6.93
1055.491	0.37
1055.913	-7.33
1056.335	3.57
1056.757	-2.13
1057.179	-7.23
1057.601	-6.53
1058.023	-6.43
1058.445	-8.13
1058.867	-6.53
1059.289	-3.43
1059.711	-7.93
1060.133	-1.83
1060.555	-8.43
1060.976	-10.13
1061.398	-8.83
1061.82	-7.93
1062.241	-4.43
1062.663	-13.13
1063.085	-3.83
1063.506	-4.33
1063.928	-7.23
1064.35	-3.83
1064.771	-11.23
1065.193	-5.63
1065.614	-15.23
1066.035	-8.43
1066.457	-4.93
1066.878	1.27
1067.3	-4.33
1067.721	-2.53
1068.142	-5.73
1068.564	-3.73
1068.985	-8.23
1069.406	-8.83
1069.827	-12.33
1070.248	-0.13
1070.67	-7.93
1071.091	-8.83
1071.512	-9.23
1071.933	-5.53
1072.354	-10.83
1072.775	-15.63
1073.196	-7.23
1073.617	-7.43
1074.038	-8.13
1074.459	-7.73
1074.88	-6.83
1075.3	-4.03
1075.721	-11.63
1076.142	-1.53
1076.563	-3.73
1076.983	-14.53
1077.404	-9.03
1077.825	-14.53
1078.246	-0.83
1078.666	-17.03
1079.087	-8.23
1079.507	-14.23
1079.928	-4.33
1080.348	-5.73
1080.769	-8.73
1081.189	-5.63
1081.61	-5.03
1082.03	-4.23
1082.451	-6.73
1082.871	-2.43
1083.291	-9.83
1083.711	-11.93
1084.132	-7.93
1084.552	-3.93
1084.972	-0.63
1085.392	-7.83
1085.813	-11.23
1086.233	-6.93
1086.653	-13.63
1087.073	-5.73
1087.493	-5.03
1087.913	-13.23
1088.333	-8.73
1088.753	-6.83
1089.173	2.77
1089.593	-7.63
1090.013	-9.23
1090.433	-4.03
1090.852	-8.73
1091.272	-1.03
1091.692	-2.83
1092.112	-9.83
1092.531	-7.53
1092.951	-10.03
1093.371	-3.73
1093.79	-1.43
1094.21	-6.23
1094.63	-9.73
1095.049	-6.03
1095.469	-3.23
1095.888	0.37
1096.308	-1.63
1096.727	4.07
1097.146	-6.33
1097.566	-6.83
1097.985	-8.23
1098.405	-6.63
1098.824	-7.93
1099.243	-6.93
1099.662	-5.13
1100.082	-4.73
1100.501	-1.83
1100.92	-4.83
1101.339	-9.13
1101.758	-8.63
