Data from 20171114-ORNL-Ar_H_NY_Subt18_08-05-35-147.txt Node
Date: Tue Nov 14 08:05:35 EST 2017
User: Ender
Spectrometer: HR+D1039
Trigger mode: 0
Integration Time (sec): 2.730000E-2
Scans to average: 10
Electric dark correction enabled: true
Nonlinearity correction enabled: false
Boxcar width: 0
XAxis mode: Wavelengths
Number of Pixels in Spectrum: 2048
>>>>>Begin Spectral Data<<<<<
187.836	0.68
188.309	0.68
188.782	0.68
189.255	1.28
189.728	3.38
190.201	7.08
190.674	1.28
191.147	5.28
191.619	-9.52
192.092	1.68
192.565	0.78
193.038	-3.92
193.511	-2.92
193.984	1.28
194.456	-6.92
194.929	3.68
195.402	-0.12
195.874	-3.02
196.347	3.68
196.82	-6.82
197.292	5.88
197.765	1.68
198.237	-10.32
198.71	3.38
199.182	0.68
199.655	-0.52
200.127	3.48
200.6	-2.62
201.072	1.98
201.544	-6.22
202.017	-3.02
202.489	8.88
202.961	-1.12
203.433	-3.32
203.906	-8.52
204.378	-8.92
204.85	-3.62
205.322	-10.12
205.794	0.98
206.266	-4.62
206.739	-6.82
207.211	-4.02
207.683	-3.42
208.155	-1.92
208.627	-8.12
209.099	-4.32
209.57	-10.62
210.042	-6.52
210.514	0.98
210.986	-2.02
211.458	-15.92
211.93	-7.62
212.402	1.18
212.873	-4.62
213.345	-13.22
213.817	-15.62
214.288	-3.32
214.76	-6.62
215.232	2.38
215.703	-2.22
216.175	-2.82
216.646	-5.72
217.118	-0.72
217.589	-5.52
218.061	1.38
218.532	-2.62
219.004	-5.72
219.475	-3.82
219.946	-1.42
220.418	-8.22
220.889	2.48
221.36	1.18
221.832	-2.22
222.303	-8.22
222.774	-0.52
223.245	-3.12
223.717	-4.92
224.188	-7.22
224.659	-6.12
225.13	-1.42
225.601	-1.92
226.072	-2.22
226.543	-3.52
227.014	4.18
227.485	-0.22
227.956	-4.32
228.427	-1.72
228.898	-1.32
229.369	2.98
229.839	-1.92
230.31	-2.62
230.781	0.18
231.252	-0.82
231.722	2.88
232.193	-2.52
232.664	-2.02
233.135	-0.02
233.605	-2.22
234.076	-3.32
234.546	8.58
235.017	3.48
235.487	1.28
235.958	0.68
236.428	-7.22
236.899	3.78
237.369	3.78
237.84	-2.42
238.31	11.28
238.78	4.48
239.251	-0.62
239.721	0.78
240.191	6.18
240.662	2.58
241.132	3.98
241.602	3.18
242.072	1.58
242.542	7.18
243.013	-1.82
243.483	0.48
243.953	5.08
244.423	-1.32
244.893	-0.22
245.363	1.98
245.833	5.98
246.303	-6.62
246.773	4.58
247.243	0.08
247.712	5.78
248.182	1.08
248.652	7.18
249.122	3.78
249.592	14.98
250.061	20.58
250.531	29.38
251.001	13.98
251.471	21.78
251.94	19.28
252.41	8.38
252.879	4.58
253.349	11.78
253.818	6.48
254.288	8.58
254.757	3.58
255.227	7.58
255.696	6.08
256.166	7.78
256.635	3.08
257.105	8.58
257.574	8.48
258.043	15.88
258.513	15.08
258.982	19.28
259.451	16.08
259.92	21.18
260.389	14.68
260.859	19.68
261.328	7.68
261.797	19.58
262.266	14.18
262.735	14.98
263.204	12.18
263.673	3.48
264.142	9.38
264.611	-1.22
265.08	3.98
265.549	-1.12
266.018	7.98
266.487	-4.92
266.955	4.88
267.424	2.48
267.893	5.18
268.362	2.08
268.83	3.48
269.299	9.58
269.768	8.38
270.236	9.78
270.705	10.08
271.174	9.78
271.642	9.78
272.111	13.98
272.579	17.18
273.048	23.18
273.516	31.18
273.985	31.08
274.453	21.48
274.922	25.58
275.39	11.08
275.858	4.78
276.327	13.28
276.795	19.68
277.263	12.18
277.731	30.08
278.2	61.48
278.668	62.48
279.136	54.48
279.604	18.58
280.072	21.78
280.54	13.38
281.008	12.48
281.477	16.88
281.945	15.78
282.413	14.98
282.881	17.48
283.348	13.68
283.816	16.88
284.284	21.58
284.752	26.08
285.22	13.98
285.688	18.78
286.156	19.38
286.623	47.38
287.091	54.68
287.559	27.78
288.026	22.48
288.494	18.88
288.962	6.88
289.429	7.98
289.897	23.48
290.364	14.98
290.832	18.38
291.3	18.68
291.767	23.48
292.234	16.88
292.702	12.08
293.169	16.38
293.637	28.78
294.104	28.48
294.571	11.38
295.039	15.48
295.506	22.38
295.973	25.78
296.44	23.48
296.908	25.48
297.375	21.68
297.842	20.08
298.309	18.58
298.776	16.68
299.243	25.18
299.71	13.58
300.177	24.78
300.644	23.68
301.111	24.78
301.578	27.28
302.045	16.48
302.512	23.48
302.979	26.48
303.446	23.68
303.913	21.88
304.379	19.98
304.846	31.28
305.313	30.18
305.78	25.98
306.246	28.28
306.713	32.48
307.18	31.58
307.646	32.08
308.113	31.98
308.579	24.28
309.046	23.18
309.512	26.58
309.979	22.78
310.445	32.68
310.912	32.58
311.378	35.58
311.845	32.78
312.311	33.28
312.777	30.68
313.244	35.68
313.71	35.78
314.176	34.68
314.642	31.98
315.109	33.18
315.575	37.68
316.041	39.78
316.507	31.18
316.973	45.78
317.439	32.68
317.905	42.18
318.371	39.28
318.837	35.78
319.303	34.78
319.769	36.68
320.235	38.58
320.701	33.58
321.167	40.18
321.633	38.98
322.099	43.48
322.564	49.28
323.03	42.48
323.496	40.88
323.962	43.48
324.427	44.68
324.893	46.78
325.359	41.98
325.824	37.98
326.29	36.38
326.755	42.68
327.221	44.58
327.686	50.98
328.152	52.68
328.617	44.58
329.083	48.88
329.548	51.98
330.014	43.88
330.479	41.38
330.944	46.68
331.41	46.08
331.875	50.78
332.34	44.08
332.805	47.18
333.271	54.48
333.736	45.38
334.201	57.48
334.666	57.08
335.131	60.28
335.596	57.98
336.061	55.08
336.526	40.98
336.991	51.28
337.456	62.58
337.921	53.98
338.386	49.98
338.851	52.78
339.316	51.88
339.781	50.18
340.246	52.68
340.711	52.48
341.175	55.98
341.64	52.18
342.105	53.48
342.569	58.38
343.034	65.08
343.499	59.08
343.963	61.58
344.428	66.38
344.893	67.48
345.357	71.18
345.822	62.78
346.286	61.98
346.751	73.48
347.215	74.38
347.679	75.98
348.144	96.88
348.608	87.08
349.073	75.88
349.537	79.08
350.001	83.98
350.465	96.98
350.93	86.18
351.394	81.58
351.858	79.88
352.322	90.48
352.786	94.08
353.25	113.48
353.715	115.78
354.179	94.18
354.643	124.48
355.107	129.88
355.571	112.38
356.035	108.88
356.498	126.28
356.962	129.38
357.426	137.98
357.89	120.58
358.354	92.08
358.818	82.88
359.281	80.48
359.745	78.78
360.209	79.78
360.673	84.48
361.136	83.58
361.6	86.88
362.064	87.38
362.527	87.18
362.991	95.78
363.454	82.58
363.918	80.38
364.381	84.88
364.845	87.28
365.308	95.18
365.772	84.88
366.235	91.58
366.698	85.38
367.162	84.58
367.625	84.68
368.088	93.58
368.552	93.98
369.015	92.88
369.478	103.38
369.941	100.18
370.404	98.58
370.867	109.38
371.331	112.78
371.794	117.98
372.257	114.28
372.72	118.38
373.183	118.08
373.646	111.18
374.109	106.88
374.572	109.58
375.035	106.88
375.497	110.78
375.96	109.78
376.423	109.58
376.886	123.18
377.349	115.28
377.811	103.88
378.274	107.78
378.737	106.68
379.199	111.08
379.662	119.18
380.125	117.68
380.587	124.68
381.05	124.08
381.512	135.58
381.975	132.88
382.437	128.88
382.9	133.38
383.362	141.38
383.825	147.58
384.287	145.98
384.75	139.68
385.212	145.88
385.674	138.68
386.136	137.38
386.599	122.38
387.061	129.98
387.523	132.18
387.985	137.28
388.447	153.98
388.91	151.78
389.372	157.38
389.834	155.98
390.296	144.48
390.758	160.58
391.22	173.98
391.682	204.28
392.144	293.58
392.606	231.28
393.068	169.98
393.529	166.48
393.991	152.78
394.453	151.48
394.915	160.58
395.377	192.38
395.838	209.28
396.3	149.98
396.762	144.28
397.224	140.78
397.685	132.38
398.147	134.38
398.608	136.98
399.07	133.18
399.531	136.98
399.993	144.68
400.454	154.98
400.916	152.78
401.377	152.78
401.839	150.98
402.3	156.18
402.762	178.38
403.223	180.28
403.684	176.38
404.145	167.08
404.607	164.28
405.068	167.48
405.529	176.78
405.99	191.68
406.451	182.68
406.913	179.18
407.374	168.18
407.835	168.98
408.296	177.08
408.757	176.68
409.218	190.18
409.679	190.58
410.14	181.18
410.601	183.88
411.062	184.28
411.522	197.08
411.983	189.28
412.444	178.38
412.905	187.68
413.366	188.88
413.826	190.98
414.287	225.38
414.748	264.08
415.208	251.58
415.669	214.18
416.13	208.18
416.59	203.98
417.051	218.58
417.511	219.18
417.972	240.38
418.432	255.78
418.893	297.88
419.353	247.28
419.814	203.18
420.274	184.88
420.734	187.78
421.195	196.48
421.655	196.08
422.115	197.08
422.576	200.08
423.036	194.68
423.496	210.38
423.956	224.08
424.416	235.08
424.876	271.98
425.336	264.78
425.797	264.38
426.257	260.98
426.717	247.98
427.177	234.28
427.637	229.78
428.097	240.68
428.556	251.48
429.016	270.78
429.476	266.38
429.936	280.48
430.396	283.78
430.856	298.18
431.315	318.68
431.775	362.18
432.235	395.98
432.694	358.88
433.154	363.68
433.614	396.98
434.073	341.38
434.533	297.98
434.993	278.98
435.452	291.28
435.912	299.88
436.371	293.98
436.83	290.38
437.29	276.18
437.749	257.58
438.209	245.98
438.668	281.48
439.127	290.98
439.587	276.48
440.046	250.48
440.505	267.68
440.964	278.68
441.424	330.38
441.883	317.88
442.342	263.68
442.801	226.58
443.26	221.18
443.719	228.58
444.178	231.68
444.637	216.78
445.096	220.88
445.555	231.98
446.014	229.78
446.473	226.88
446.932	231.78
447.391	226.38
447.849	237.08
448.308	221.18
448.767	224.58
449.226	243.88
449.685	243.08
450.143	257.58
450.602	238.38
451.061	235.48
451.519	239.58
451.978	240.08
452.436	240.78
452.895	245.28
453.353	257.78
453.812	250.38
454.27	241.68
454.729	237.48
455.187	246.78
455.646	252.18
456.104	251.18
456.562	268.78
457.021	275.88
457.479	262.58
457.937	278.48
458.395	268.68
458.854	248.48
459.312	258.78
459.77	285.78
460.228	256.88
460.686	247.78
461.144	247.88
461.602	246.28
462.06	246.38
462.518	264.28
462.976	265.18
463.434	265.28
463.892	267.68
464.35	283.88
464.808	294.88
465.266	272.48
465.724	270.38
466.181	276.68
466.639	274.48
467.097	293.58
467.555	306.38
468.012	311.08
468.47	316.48
468.928	335.18
469.385	347.78
469.843	354.18
470.3	361.78
470.758	372.18
471.215	394.68
471.673	415.08
472.13	402.28
472.588	424.78
473.045	381.28
473.503	389.68
473.96	397.38
474.417	411.08
474.875	445.38
475.332	484.58
475.789	467.28
476.246	468.48
476.704	495.98
477.161	512.48
477.618	528.68
478.075	580.08
478.532	625.18
478.989	709.78
479.446	819.78
479.903	794.88
480.36	819.68
480.817	882.18
481.274	974.58
481.731	1097.88
482.188	1181.58
482.645	1319.68
483.102	1427.78
483.558	1555.58
484.015	1611.58
484.472	1602.88
484.929	1530.88
485.385	1487.38
485.842	1453.88
486.299	1392.28
486.755	1333.08
487.212	1111.28
487.668	930.88
488.125	870.38
488.582	790.68
489.038	764.98
489.494	727.78
489.951	707.98
490.407	683.98
490.864	666.38
491.32	650.38
491.776	660.68
492.233	658.58
492.689	625.88
493.145	620.48
493.602	615.58
494.058	628.18
494.514	633.48
494.97	649.98
495.426	657.58
495.882	640.18
496.338	628.08
496.794	644.08
497.251	632.18
497.707	649.78
498.163	647.38
498.618	656.48
499.074	654.48
499.53	692.58
499.986	686.48
500.442	662.18
500.898	633.88
501.354	638.08
501.809	648.08
502.265	659.58
502.721	669.18
503.177	681.68
503.632	681.58
504.088	693.38
504.543	720.18
504.999	727.48
505.455	678.48
505.91	639.78
506.366	644.18
506.821	645.78
507.277	635.18
507.732	638.08
508.187	638.98
508.643	641.58
509.098	643.98
509.553	668.58
510.009	677.58
510.464	676.78
510.919	696.68
511.375	715.28
511.83	721.48
512.285	735.98
512.74	776.18
513.195	792.88
513.65	780.08
514.105	775.58
514.56	783.58
515.015	809.28
515.47	831.18
515.925	803.08
516.38	817.08
516.835	811.78
517.29	799.38
517.745	792.08
518.2	778.88
518.655	759.28
519.109	760.58
519.564	760.78
520.019	741.18
520.474	735.88
520.928	736.88
521.383	722.78
521.838	727.98
522.292	723.88
522.747	723.78
523.201	713.58
523.656	716.38
524.11	701.48
524.565	703.88
525.019	708.68
525.474	710.88
525.928	709.88
526.382	698.58
526.837	704.98
527.291	708.98
527.745	715.18
528.2	715.68
528.654	700.18
529.108	698.68
529.562	701.18
530.016	701.18
530.47	701.48
530.925	700.08
531.379	705.68
531.833	719.58
532.287	716.58
532.741	710.58
533.195	714.58
533.649	722.18
534.103	735.18
534.556	717.58
535.01	721.38
535.464	720.08
535.918	738.38
536.372	738.68
536.826	729.98
537.279	715.58
537.733	718.88
538.187	724.68
538.64	723.28
539.094	731.48
539.548	742.88
540.001	723.28
540.455	728.68
540.908	741.18
541.362	745.58
541.815	758.48
542.269	767.38
542.722	763.58
543.175	785.38
543.629	784.58
544.082	795.58
544.536	795.18
544.989	796.68
545.442	808.68
545.895	794.28
546.349	802.78
546.802	799.88
547.255	803.18
547.708	815.88
548.161	819.18
548.614	838.98
549.067	833.18
549.52	828.88
549.973	824.38
550.426	826.98
550.879	811.68
551.332	805.08
551.785	818.88
552.238	820.98
552.691	829.68
553.144	847.78
553.596	860.38
554.049	885.68
554.502	907.88
554.955	925.08
555.407	929.58
555.86	917.58
556.313	913.98
556.765	898.68
557.218	894.78
557.67	889.78
558.123	881.48
558.576	890.68
559.028	883.88
559.48	891.18
559.933	886.18
560.385	853.28
560.838	804.18
561.29	795.38
561.742	787.38
562.195	774.08
562.647	769.38
563.099	780.78
563.551	781.78
564.004	787.98
564.456	784.08
564.908	766.98
565.36	763.38
565.812	736.68
566.264	725.58
566.716	733.08
567.168	724.28
567.62	730.68
568.072	711.78
568.524	703.88
568.976	684.08
569.428	680.28
569.88	677.68
570.332	690.88
570.784	684.98
571.235	689.78
571.687	693.08
572.139	706.48
572.59	700.08
573.042	715.18
573.494	722.08
573.945	717.28
574.397	695.18
574.849	696.38
575.3	694.98
575.752	683.98
576.203	676.88
576.655	690.48
577.106	678.98
577.557	670.28
578.009	671.08
578.46	670.88
578.912	664.58
579.363	663.48
579.814	663.88
580.265	667.18
580.717	678.28
581.168	671.38
581.619	680.98
582.07	676.48
582.521	680.38
582.972	673.78
583.423	680.88
583.875	683.58
584.326	702.68
584.777	740.98
585.227	819.78
585.678	902.58
586.129	976.78
586.58	1047.88
587.031	1144.28
587.482	1281.28
587.933	1459.78
588.384	1281.18
588.834	972.68
589.285	813.48
589.736	789.88
590.186	768.28
590.637	759.98
591.088	737.78
591.538	733.48
591.989	728.58
592.439	722.38
592.89	723.08
593.34	708.08
593.791	710.18
594.241	711.48
594.692	708.38
595.142	700.28
595.593	693.28
596.043	703.88
596.493	721.48
596.943	713.18
597.394	724.88
597.844	704.58
598.294	727.08
598.744	754.28
599.195	777.98
599.645	813.58
600.095	847.88
600.545	914.48
600.995	957.68
601.445	1014.68
601.895	1081.68
602.345	1128.58
602.795	1098.38
603.245	1056.78
603.695	1010.58
604.145	948.58
604.594	910.98
605.044	855.68
605.494	800.98
605.944	750.78
606.393	750.18
606.843	714.98
607.293	723.38
607.743	732.28
608.192	734.88
608.642	757.98
609.091	757.58
609.541	767.38
609.99	753.88
610.44	765.48
610.889	718.88
611.339	703.68
611.788	682.28
612.238	693.88
612.687	712.18
613.136	707.88
613.586	732.88
614.035	727.18
614.484	744.38
614.933	735.38
615.383	732.98
615.832	732.28
616.281	719.78
616.73	683.78
617.179	643.18
617.628	641.78
618.077	623.48
618.526	620.48
618.975	613.48
619.424	611.28
619.873	606.68
620.322	606.18
620.771	604.68
621.22	606.18
621.669	590.78
622.118	584.48
622.567	576.58
623.015	566.68
623.464	567.98
623.913	555.28
624.361	547.18
624.81	543.38
625.259	544.98
625.707	545.08
626.156	546.38
626.604	563.48
627.053	556.18
627.501	550.28
627.95	562.68
628.398	574.48
628.847	558.78
629.295	563.08
629.744	569.98
630.192	551.68
630.64	554.18
631.089	553.88
631.537	563.18
631.985	566.18
632.433	584.18
632.881	599.58
633.33	639.68
633.778	625.68
634.226	556.28
634.674	557.28
635.122	569.78
635.57	578.68
636.018	612.88
636.466	579.78
636.914	548.78
637.362	552.28
637.81	560.08
638.258	572.18
638.705	570.88
639.153	594.58
639.601	601.38
640.049	629.18
640.497	666.48
640.944	684.08
641.392	636.08
641.84	609.18
642.287	580.08
642.735	555.88
643.182	560.58
643.63	548.58
644.078	561.78
644.525	575.18
644.973	583.18
645.42	590.98
645.867	607.68
646.315	629.18
646.762	645.28
647.21	674.58
647.657	704.48
648.104	731.88
648.551	758.88
648.999	815.18
649.446	903.58
649.893	980.98
650.34	1128.98
650.787	1365.58
651.234	1666.18
651.682	2166.78
652.129	2975.58
652.576	4284.78
653.023	6287.68
653.47	8679.98
653.917	10893.18
654.363	12627.58
654.81	14055.28
655.257	13297.78
655.704	8723.08
656.151	5177.88
656.598	3343.38
657.044	2383.88
657.491	1817.28
657.938	1467.68
658.385	1220.08
658.831	1060.88
659.278	947.38
659.724	842.28
660.171	773.88
660.618	705.68
661.064	671.28
661.511	653.08
661.957	642.58
662.404	630.18
662.85	626.58
663.296	607.98
663.743	542.78
664.189	530.38
664.635	515.18
665.082	509.58
665.528	515.48
665.974	504.78
666.42	496.78
666.867	493.98
667.313	480.38
667.759	466.68
668.205	463.38
668.651	469.68
669.097	475.48
669.543	488.68
669.989	455.78
670.435	439.48
670.881	437.68
671.327	438.28
671.773	456.08
672.219	474.28
672.665	528.18
673.11	563.08
673.556	611.28
674.002	654.98
674.448	640.08
674.893	536.18
675.339	464.68
675.785	427.48
676.23	407.38
676.676	384.48
677.122	367.48
677.567	357.08
678.013	363.28
678.458	343.28
678.904	354.68
679.349	335.88
679.794	339.58
680.24	345.38
680.685	340.28
681.131	336.58
681.576	332.08
682.021	344.48
682.466	339.68
682.912	340.88
683.357	343.58
683.802	370.08
684.247	400.08
684.692	440.08
685.137	473.58
685.583	515.18
686.028	550.98
686.473	498.38
686.918	427.88
687.363	403.68
687.807	381.68
688.252	354.08
688.697	343.88
689.142	326.98
689.587	320.28
690.032	318.38
690.477	331.98
690.921	332.78
691.366	366.38
691.811	392.18
692.255	419.38
692.7	444.98
693.145	482.88
693.589	656.68
694.034	1077.28
694.478	1466.08
694.923	1668.48
695.367	2196.78
695.812	1158.98
696.256	479.58
696.701	361.68
697.145	337.48
697.59	315.98
698.034	311.18
698.478	321.28
698.922	312.98
699.367	319.18
699.811	324.18
700.255	338.68
700.699	368.88
701.143	412.78
701.588	455.78
702.032	492.78
702.476	495.78
702.92	474.28
703.364	474.18
703.808	601.48
704.252	973.18
704.696	1383.38
705.14	1600.38
705.584	2066.68
706.027	1027.78
706.471	505.08
706.915	384.28
707.359	348.98
707.803	309.08
708.246	297.08
708.69	302.98
709.134	304.68
709.577	300.88
710.021	309.38
710.465	298.68
710.908	293.68
711.352	284.58
711.795	296.78
712.239	333.78
712.682	363.88
713.126	402.48
713.569	455.18
714.012	357.08
714.456	305.48
714.899	283.08
715.342	271.18
715.786	260.58
716.229	251.08
716.672	247.68
717.115	244.58
717.558	239.08
718.002	242.38
718.445	252.78
718.888	274.88
719.331	282.98
719.774	295.98
720.217	287.18
720.66	270.58
721.103	256.48
721.546	248.68
721.989	236.58
722.432	227.28
722.874	228.68
723.317	217.78
723.76	225.78
724.203	241.08
724.645	305.98
725.088	426.58
725.531	552.28
725.974	622.18
726.416	522.48
726.859	286.78
727.301	235.68
727.744	230.48
728.187	229.38
728.629	231.38
729.071	232.48
729.514	251.38
729.956	258.08
730.399	275.38
730.841	275.48
731.283	261.88
731.726	258.98
732.168	254.28
732.61	255.48
733.053	270.98
733.495	304.48
733.937	337.38
734.379	378.18
734.821	408.88
735.263	512.18
735.705	783.18
736.148	1476.48
736.59	2467.38
737.032	2953.78
737.474	2398.88
737.916	782.28
738.357	403.18
738.799	311.18
739.241	286.18
739.683	273.68
740.125	273.98
740.567	287.58
741.008	301.18
741.45	306.98
741.892	298.68
742.334	338.38
742.775	346.58
743.217	322.98
743.658	257.58
744.1	245.78
744.542	243.68
744.983	297.08
745.425	328.28
745.866	329.08
746.307	274.48
746.749	279.08
747.19	308.38
747.632	429.28
748.073	818.98
748.514	1742.78
748.956	2715.88
749.397	3430.68
749.838	2837.08
750.279	2860.68
750.72	1447.98
751.162	523.48
751.603	305.68
752.044	238.28
752.485	212.78
752.926	204.28
753.367	190.98
753.808	189.78
754.249	190.18
754.69	174.78
755.131	172.38
755.572	175.78
756.013	174.38
756.453	177.68
756.894	177.68
757.335	183.98
757.776	186.58
758.216	191.68
758.657	186.18
759.098	196.68
759.538	212.28
759.979	248.78
760.42	353.98
760.86	661.08
761.301	1694.98
761.741	4179.18
762.182	6243.28
762.622	4399.88
763.063	1254.88
763.503	516.18
763.943	330.48
764.384	318.68
764.824	372.68
765.264	408.98
765.705	286.18
766.145	195.48
766.585	178.98
767.025	170.78
767.465	177.38
767.906	220.18
768.346	303.78
768.786	312.38
769.226	244.48
769.666	297.48
770.106	587.08
770.546	1459.18
770.986	2536.88
771.426	2301.18
771.866	758.78
772.306	308.08
772.745	201.38
773.185	174.18
773.625	163.18
774.065	158.68
774.505	185.38
774.944	283.58
775.384	602.88
775.824	1141.88
776.263	1111.08
776.703	480.98
777.142	210.38
777.582	154.98
778.021	126.98
778.461	131.38
778.9	130.48
779.34	124.18
779.779	113.88
780.219	105.28
780.658	100.98
781.097	108.18
781.537	107.58
781.976	102.28
782.415	99.28
782.855	95.58
783.294	97.38
783.733	104.28
784.172	107.88
784.611	101.68
785.05	107.98
785.489	106.18
785.928	113.98
786.367	116.88
786.806	115.68
787.245	124.48
787.684	136.28
788.123	143.28
788.562	129.68
789.001	121.68
789.44	118.48
789.879	113.58
790.317	114.58
790.756	125.08
791.195	118.68
791.634	146.08
792.072	195.28
792.511	339.68
792.95	937.78
793.388	2039.18
793.827	1872.38
794.265	652.08
794.704	267.58
795.142	174.68
795.581	149.98
796.019	136.88
796.458	126.28
796.896	117.18
797.334	125.88
797.773	147.08
798.211	210.08
798.649	414.38
799.087	961.58
799.526	1522.88
799.964	1916.28
800.402	1950.78
800.84	722.18
801.278	283.88
801.716	178.28
802.154	147.18
802.592	140.18
803.03	131.58
803.468	129.68
803.906	134.98
804.344	142.98
804.782	137.98
805.22	131.98
805.658	121.48
806.096	144.38
806.533	146.98
806.971	166.78
807.409	211.58
807.847	298.68
808.284	625.38
808.722	1747.18
809.16	3155.48
809.597	2943.58
810.035	5159.38
810.472	5645.58
810.91	2008.38
811.347	752.18
811.785	386.48
812.222	247.08
812.66	190.78
813.097	158.78
813.535	135.98
813.972	122.48
814.409	119.78
814.846	99.78
815.284	108.78
815.721	103.78
816.158	98.28
816.595	115.08
817.032	176.28
817.47	187.88
817.907	160.48
818.344	141.48
818.781	114.58
819.218	99.88
819.655	120.98
820.092	178.18
820.529	201.48
820.966	171.78
821.403	129.78
821.839	105.48
822.276	94.48
822.713	110.88
823.15	128.58
823.587	113.08
824.023	143.68
824.46	281.68
824.897	836.68
825.333	1310.08
825.77	561.38
826.206	229.18
826.643	132.88
827.08	101.08
827.516	75.58
827.953	69.68
828.389	75.68
828.825	71.38
829.262	64.28
829.698	58.58
830.135	66.38
830.571	61.98
831.007	55.58
831.443	53.48
831.88	58.98
832.316	61.18
832.752	57.78
833.188	59.48
833.624	63.78
834.06	64.98
834.497	65.28
834.933	66.98
835.369	75.88
835.805	65.68
836.241	77.18
836.677	74.18
837.112	90.08
837.548	91.48
837.984	126.38
838.42	186.68
838.856	460.98
839.292	1418.38
839.727	2237.68
840.163	1030.58
840.599	866.58
841.034	1916.58
841.47	2067.08
841.906	744.48
842.341	314.58
842.777	216.48
843.212	295.08
843.648	293.08
844.083	139.18
844.519	93.08
844.954	71.58
845.39	59.28
845.825	57.48
846.261	57.18
846.696	55.78
847.131	49.98
847.566	59.58
848.002	44.88
848.437	50.78
848.872	59.08
849.307	59.78
849.742	82.18
850.177	170.28
850.613	514.08
851.048	847.38
851.483	368.28
851.918	143.28
852.353	82.68
852.788	56.98
853.223	60.38
853.657	52.88
854.092	46.98
854.527	47.38
854.962	42.38
855.397	41.78
855.832	45.08
856.266	36.38
856.701	37.78
857.136	36.48
857.57	38.28
858.005	44.88
858.44	60.28
858.874	35.78
859.309	51.38
859.743	37.78
860.178	45.98
860.612	38.28
861.047	46.78
861.481	62.48
861.915	71.28
862.35	47.18
862.784	35.68
863.218	37.68
863.653	37.58
864.087	43.98
864.521	47.78
864.955	66.38
865.39	146.98
865.824	168.98
866.258	111.58
866.692	158.48
867.126	169.38
867.56	103.78
867.994	49.28
868.428	37.08
868.862	47.28
869.296	50.48
869.73	59.78
870.164	50.08
870.598	42.98
871.031	34.78
871.465	26.48
871.899	31.38
872.333	27.38
872.766	23.98
873.2	24.78
873.634	28.48
874.067	27.98
874.501	29.58
874.935	30.28
875.368	26.98
875.802	27.48
876.235	27.08
876.669	24.18
877.102	22.68
877.535	23.98
877.969	21.58
878.402	23.78
878.836	18.18
879.269	16.18
879.702	21.98
880.135	19.78
880.569	25.78
881.002	26.18
881.435	25.58
881.868	15.68
882.301	13.48
882.734	18.18
883.167	16.78
883.601	21.78
884.034	25.78
884.467	15.98
884.899	17.18
885.332	20.78
885.765	15.98
886.198	17.88
886.631	19.38
887.064	20.08
887.497	20.88
887.929	27.48
888.362	11.38
888.795	12.98
889.228	21.18
889.66	23.48
890.093	19.78
890.526	16.18
890.958	20.48
891.391	19.58
891.823	23.08
892.256	11.18
892.688	15.78
893.121	18.08
893.553	17.58
893.985	21.58
894.418	20.38
894.85	14.98
895.282	18.18
895.715	12.98
896.147	14.08
896.579	14.98
897.011	15.78
897.444	16.88
897.876	10.58
898.308	18.78
898.74	12.18
899.172	13.68
899.604	24.08
900.036	20.28
900.468	14.78
900.9	16.58
901.332	17.38
901.764	10.18
902.196	15.08
902.628	13.18
903.06	19.88
903.491	21.18
903.923	20.28
904.355	21.78
904.787	23.78
905.218	16.38
905.65	16.38
906.082	6.88
906.513	16.08
906.945	15.18
907.376	9.78
907.808	16.08
908.239	21.18
908.671	18.18
909.102	24.48
909.534	29.28
909.965	52.38
910.397	87.98
910.828	289.98
911.259	458.28
911.691	212.48
912.122	99.98
912.553	47.28
912.984	30.38
913.415	25.78
913.847	25.18
914.278	16.28
914.709	13.38
915.14	22.88
915.571	16.28
916.002	10.38
916.433	21.98
916.864	16.68
917.295	14.78
917.726	19.48
918.157	13.58
918.587	28.98
919.018	22.78
919.449	17.98
919.88	19.48
920.311	26.88
920.741	44.28
921.172	157.18
921.603	148.58
922.033	70.08
922.464	44.78
922.895	15.68
923.325	18.38
923.756	15.98
924.186	12.78
924.617	25.68
925.047	38.68
925.478	54.48
925.908	40.68
926.338	26.38
926.769	17.88
927.199	26.38
927.629	11.78
928.06	13.48
928.49	17.48
928.92	18.18
929.35	9.68
929.78	7.58
930.21	8.38
930.641	9.58
931.071	10.08
931.501	4.28
931.931	7.38
932.361	13.88
932.791	-1.12
933.221	9.18
933.651	2.98
934.08	18.38
934.51	23.58
934.94	7.18
935.37	9.18
935.8	13.48
936.229	10.08
936.659	11.28
937.089	7.48
937.519	20.18
937.948	23.18
938.378	17.98
938.807	7.68
939.237	6.78
939.666	13.08
940.096	3.18
940.525	3.18
940.955	6.18
941.384	3.88
941.814	-6.52
942.243	-4.92
942.672	2.88
943.102	-3.52
943.531	6.78
943.96	1.98
944.39	-0.92
944.819	2.28
945.248	3.28
945.677	3.18
946.106	9.28
946.535	6.48
946.964	0.38
947.393	6.48
947.822	5.78
948.251	-2.52
948.68	6.28
949.109	10.88
949.538	10.68
949.967	-1.52
950.396	-1.72
950.825	1.88
951.254	1.38
951.682	-9.02
952.111	2.78
952.54	5.88
952.969	-1.12
953.397	-6.92
953.826	0.98
954.254	-3.32
954.683	-0.12
955.112	0.08
955.54	-2.32
955.969	5.18
956.397	3.68
956.826	-0.52
957.254	3.08
957.682	3.38
958.111	2.28
958.539	-2.52
958.967	2.08
959.396	-1.52
959.824	0.18
960.252	8.48
960.68	-1.72
961.109	1.98
961.537	-1.62
961.965	-4.22
962.393	4.58
962.821	0.08
963.249	3.88
963.677	1.18
964.105	3.68
964.533	46.58
964.961	39.38
965.389	17.98
965.817	15.48
966.245	-1.42
966.672	2.28
967.1	-2.02
967.528	-0.92
967.956	1.48
968.383	0.88
968.811	-6.22
969.239	-0.52
969.666	-5.32
970.094	-0.72
970.522	0.58
970.949	-3.32
971.377	-3.62
971.804	-0.42
972.232	-0.62
972.659	-1.82
973.087	-2.02
973.514	1.48
973.941	-3.82
974.369	9.28
974.796	-0.32
975.223	0.88
975.651	0.08
976.078	3.98
976.505	-0.82
976.932	6.88
977.359	11.18
977.786	16.88
978.214	3.08
978.641	1.28
979.068	-2.22
979.495	-0.52
979.922	-3.52
980.349	-6.32
980.776	0.48
981.202	4.18
981.629	2.88
982.056	4.58
982.483	1.28
982.91	-0.02
983.337	-6.42
983.763	3.28
984.19	-2.42
984.617	-5.02
985.043	-4.82
985.47	-5.22
985.897	-5.12
986.323	-4.12
986.75	5.38
987.176	2.68
987.603	0.18
988.029	-0.82
988.456	-3.62
988.882	-0.52
989.308	-9.02
989.735	-1.92
990.161	-0.72
990.587	-3.32
991.014	-0.22
991.44	3.78
991.866	-0.62
992.292	-7.52
992.719	-6.42
993.145	10.88
993.571	-9.82
993.997	-5.42
994.423	0.88
994.849	-0.82
995.275	-1.12
995.701	1.78
996.127	0.18
996.553	1.58
996.979	1.98
997.405	1.38
997.83	-1.92
998.256	-7.52
998.682	-1.72
999.108	-6.52
999.534	0.68
999.959	0.28
1000.385	-5.02
1000.811	1.58
1001.236	-8.92
1001.662	-7.12
1002.087	-7.12
1002.513	1.78
1002.938	4.18
1003.364	-0.02
1003.789	4.08
1004.215	6.88
1004.64	1.08
1005.066	1.08
1005.491	5.58
1005.916	-0.92
1006.342	-4.92
1006.767	-6.32
1007.192	4.58
1007.617	-4.52
1008.042	-7.22
1008.468	-9.22
1008.893	-6.52
1009.318	0.28
1009.743	-0.22
1010.168	7.18
1010.593	6.88
1011.018	-5.52
1011.443	-7.32
1011.868	-2.92
1012.293	-2.92
1012.718	-6.32
1013.143	2.18
1013.567	0.08
1013.992	-3.02
1014.417	-9.82
1014.842	3.98
1015.267	-5.92
1015.691	-6.62
1016.116	7.98
1016.541	-3.32
1016.965	7.08
1017.39	6.88
1017.814	-0.02
1018.239	-0.42
1018.663	-9.72
1019.088	-6.62
1019.512	-2.92
1019.937	0.78
1020.361	-4.52
1020.785	-0.52
1021.21	0.28
1021.634	-0.02
1022.058	0.88
1022.483	0.48
1022.907	-8.02
1023.331	-7.52
1023.755	-1.42
1024.179	-4.72
1024.604	-4.62
1025.028	-2.82
1025.452	-3.92
1025.876	-1.42
1026.3	4.68
1026.724	-11.92
1027.148	-2.92
1027.572	-6.52
1027.996	-2.52
1028.42	1.68
1028.843	-1.02
1029.267	-11.32
1029.691	-5.62
1030.115	-4.42
1030.539	-6.62
1030.962	-5.72
1031.386	-15.12
1031.81	1.28
1032.233	0.18
1032.657	-5.82
1033.08	3.88
1033.504	-4.82
1033.927	-2.62
1034.351	-1.62
1034.774	-3.02
1035.198	-3.82
1035.621	-7.52
1036.045	-5.42
1036.468	2.08
1036.891	-14.72
1037.315	-7.52
1037.738	-11.62
1038.161	1.08
1038.584	-7.22
1039.008	-5.52
1039.431	-7.22
1039.854	-0.12
1040.277	-5.02
1040.7	-8.92
1041.123	0.48
1041.546	-5.82
1041.969	-5.62
1042.392	-2.52
1042.815	2.38
1043.238	2.98
1043.661	4.68
1044.084	-2.62
1044.507	-3.52
1044.93	-0.42
1045.352	-2.12
1045.775	-2.22
1046.198	3.78
1046.621	1.18
1047.043	-2.72
1047.466	6.58
1047.889	-6.82
1048.311	-3.12
1048.734	-0.02
1049.156	-11.22
1049.579	-0.02
1050.001	-3.92
1050.424	-1.42
1050.846	-0.82
1051.269	-4.12
1051.691	-7.22
1052.113	-3.92
1052.536	-5.12
1052.958	-3.22
1053.38	-6.02
1053.802	-11.22
1054.225	0.48
1054.647	-8.22
1055.069	-6.92
1055.491	3.18
1055.913	-7.82
1056.335	0.18
1056.757	0.78
1057.179	-1.72
1057.601	-2.42
1058.023	2.38
1058.445	-5.52
1058.867	-3.32
1059.289	-3.82
1059.711	-1.32
1060.133	0.98
1060.555	-5.62
1060.976	-7.02
1061.398	-9.12
1061.82	-9.42
1062.241	-9.52
1062.663	-4.92
1063.085	-2.12
1063.506	-1.32
1063.928	-7.82
1064.35	-1.02
1064.771	-15.72
1065.193	-1.92
1065.614	-4.52
1066.035	-1.22
1066.457	-0.92
1066.878	1.08
1067.3	-5.62
1067.721	-1.62
1068.142	-1.42
1068.564	-5.72
1068.985	-6.12
1069.406	-2.22
1069.827	1.88
1070.248	1.78
1070.67	-5.82
1071.091	-8.12
1071.512	-3.32
1071.933	-10.32
1072.354	-5.02
1072.775	-7.02
1073.196	-6.52
1073.617	-6.72
1074.038	-6.02
1074.459	-0.62
1074.88	-11.52
1075.3	-6.12
1075.721	-8.32
1076.142	-0.52
1076.563	-0.32
1076.983	-9.92
1077.404	-4.52
1077.825	-12.12
1078.246	-2.02
1078.666	-2.92
1079.087	-2.42
1079.507	-7.12
1079.928	-1.22
1080.348	-1.72
1080.769	-4.72
1081.189	3.58
1081.61	0.18
1082.03	-3.12
1082.451	-4.72
1082.871	-3.72
1083.291	-5.92
1083.711	-8.32
1084.132	-5.42
1084.552	-5.92
1084.972	-5.02
1085.392	-15.62
1085.813	-13.12
1086.233	-5.82
1086.653	-4.82
1087.073	-1.42
1087.493	-5.82
1087.913	-2.12
1088.333	-7.12
1088.753	-8.82
1089.173	4.68
1089.593	-4.92
1090.013	6.18
1090.433	0.18
1090.852	-10.02
1091.272	1.88
1091.692	-2.72
1092.112	-0.92
1092.531	-3.02
1092.951	-12.42
1093.371	-3.02
1093.79	1.48
1094.21	-8.82
1094.63	-3.82
1095.049	-5.62
1095.469	-6.62
1095.888	1.18
1096.308	-1.22
1096.727	5.48
1097.146	-9.22
1097.566	0.58
1097.985	0.18
1098.405	-3.82
1098.824	-11.72
1099.243	-6.42
1099.662	-7.02
1100.082	-8.12
1100.501	-4.52
1100.92	-4.72
1101.339	-3.72
1101.758	-7.62
