Data from 20171114-ORNL-Ar_H_NY_Subt18_08-05-55-620.txt Node
Date: Tue Nov 14 08:05:55 EST 2017
User: Ender
Spectrometer: HR+D1039
Trigger mode: 0
Integration Time (sec): 2.730000E-2
Scans to average: 10
Electric dark correction enabled: true
Nonlinearity correction enabled: false
Boxcar width: 0
XAxis mode: Wavelengths
Number of Pixels in Spectrum: 2048
>>>>>Begin Spectral Data<<<<<
187.836	-3.29
188.309	-3.29
188.782	-3.29
189.255	3.11
189.728	2.11
190.201	5.21
190.674	-0.29
191.147	7.81
191.619	-7.19
192.092	-0.99
192.565	4.11
193.038	4.71
193.511	1.51
193.984	-2.09
194.456	-9.09
194.929	-2.59
195.402	-3.09
195.874	0.11
196.347	-1.89
196.82	-8.09
197.292	2.61
197.765	-2.09
198.237	-10.19
198.71	1.11
199.182	-1.39
199.655	-1.19
200.127	-0.19
200.6	-11.69
201.072	-4.79
201.544	-0.79
202.017	-1.29
202.489	2.41
202.961	0.21
203.433	-3.89
203.906	-8.99
204.378	-2.69
204.85	-2.29
205.322	-6.99
205.794	3.31
206.266	-1.19
206.739	-8.89
207.211	5.91
207.683	-7.49
208.155	-6.49
208.627	-2.89
209.099	-2.39
209.57	-10.19
210.042	0.51
210.514	-3.99
210.986	3.71
211.458	-5.59
211.93	-3.49
212.402	2.81
212.873	-4.59
213.345	-10.59
213.817	-9.09
214.288	-6.49
214.76	-12.79
215.232	1.31
215.703	-0.39
216.175	-4.89
216.646	-1.19
217.118	-8.79
217.589	-7.69
218.061	-1.49
218.532	-8.29
219.004	-1.39
219.475	0.91
219.946	-3.19
220.418	-5.99
220.889	5.11
221.36	-2.99
221.832	-8.49
222.303	-7.09
222.774	-1.29
223.245	-7.59
223.717	-9.79
224.188	-5.79
224.659	-15.29
225.13	-6.09
225.601	0.81
226.072	-1.79
226.543	0.51
227.014	-5.99
227.485	-4.89
227.956	-3.99
228.427	-6.09
228.898	1.81
229.369	7.21
229.839	-3.79
230.31	-5.09
230.781	2.51
231.252	-1.79
231.722	-4.49
232.193	-6.49
232.664	-0.69
233.135	-2.19
233.605	-1.89
234.076	-4.59
234.546	5.21
235.017	3.31
235.487	-0.99
235.958	2.21
236.428	-3.09
236.899	3.81
237.369	4.81
237.84	-2.99
238.31	8.81
238.78	-2.39
239.251	3.91
239.721	5.61
240.191	1.81
240.662	-7.49
241.132	-2.79
241.602	-1.89
242.072	2.41
242.542	7.61
243.013	3.51
243.483	2.11
243.953	5.01
244.423	1.21
244.893	0.81
245.363	3.81
245.833	0.11
246.303	-0.09
246.773	3.41
247.243	3.21
247.712	1.41
248.182	6.91
248.652	6.11
249.122	2.91
249.592	9.91
250.061	22.51
250.531	34.01
251.001	15.71
251.471	21.31
251.94	17.51
252.41	5.31
252.879	3.01
253.349	14.21
253.818	3.81
254.288	6.51
254.757	4.41
255.227	-0.39
255.696	3.51
256.166	6.91
256.635	11.71
257.105	7.21
257.574	4.91
258.043	10.21
258.513	11.91
258.982	17.51
259.451	8.01
259.92	16.41
260.389	15.81
260.859	20.31
261.328	15.61
261.797	17.01
262.266	9.21
262.735	22.21
263.204	5.51
263.673	0.61
264.142	8.81
264.611	1.91
265.08	4.51
265.549	2.41
266.018	3.11
266.487	0.11
266.955	-0.39
267.424	-1.89
267.893	5.91
268.362	7.11
268.83	1.71
269.299	10.61
269.768	8.11
270.236	3.51
270.705	7.01
271.174	6.41
271.642	8.71
272.111	11.11
272.579	22.01
273.048	25.31
273.516	32.81
273.985	25.71
274.453	29.51
274.922	18.01
275.39	15.61
275.858	9.41
276.327	11.71
276.795	20.31
277.263	10.31
277.731	32.11
278.2	52.31
278.668	58.41
279.136	54.01
279.604	21.31
280.072	21.21
280.54	11.61
281.008	15.91
281.477	16.51
281.945	18.21
282.413	14.11
282.881	17.01
283.348	8.31
283.816	18.91
284.284	11.51
284.752	18.01
285.22	8.91
285.688	12.11
286.156	28.11
286.623	47.11
287.091	58.21
287.559	30.41
288.026	25.31
288.494	17.61
288.962	7.01
289.429	9.31
289.897	19.21
290.364	12.01
290.832	19.71
291.3	17.01
291.767	15.01
292.234	20.21
292.702	11.51
293.169	20.11
293.637	24.41
294.104	22.21
294.571	10.11
295.039	17.91
295.506	23.11
295.973	22.61
296.44	11.41
296.908	22.11
297.375	23.11
297.842	19.31
298.309	16.21
298.776	13.41
299.243	25.21
299.71	14.21
300.177	24.61
300.644	25.01
301.111	15.61
301.578	26.01
302.045	14.41
302.512	22.41
302.979	26.01
303.446	24.71
303.913	20.01
304.379	23.21
304.846	31.41
305.313	25.01
305.78	26.41
306.246	30.91
306.713	28.51
307.18	32.91
307.646	27.01
308.113	32.91
308.579	24.21
309.046	30.61
309.512	28.51
309.979	21.51
310.445	30.81
310.912	33.21
311.378	38.21
311.845	28.61
312.311	35.01
312.777	31.71
313.244	31.51
313.71	42.51
314.176	31.51
314.642	35.81
315.109	34.41
315.575	38.71
316.041	36.71
316.507	31.31
316.973	39.11
317.439	34.41
317.905	38.51
318.371	36.81
318.837	37.51
319.303	35.61
319.769	33.81
320.235	36.31
320.701	34.81
321.167	36.21
321.633	34.01
322.099	45.31
322.564	48.81
323.03	37.61
323.496	40.11
323.962	45.41
324.427	35.41
324.893	42.21
325.359	34.51
325.824	36.71
326.29	37.31
326.755	40.31
327.221	42.91
327.686	43.51
328.152	54.21
328.617	45.71
329.083	40.11
329.548	42.91
330.014	47.11
330.479	43.21
330.944	38.41
331.41	49.11
331.875	50.71
332.34	41.41
332.805	45.81
333.271	49.31
333.736	42.31
334.201	50.51
334.666	56.61
335.131	59.71
335.596	53.91
336.061	53.71
336.526	45.01
336.991	53.71
337.456	57.01
337.921	47.21
338.386	46.21
338.851	39.31
339.316	46.71
339.781	46.21
340.246	49.71
340.711	44.81
341.175	49.11
341.64	46.71
342.105	50.31
342.569	54.01
343.034	59.11
343.499	52.91
343.963	55.71
344.428	63.41
344.893	64.51
345.357	62.41
345.822	67.21
346.286	69.31
346.751	71.11
347.215	68.81
347.679	75.21
348.144	98.21
348.608	81.41
349.073	72.41
349.537	72.61
350.001	83.41
350.465	91.31
350.93	76.61
351.394	82.01
351.858	70.21
352.322	87.01
352.786	82.41
353.25	98.51
353.715	110.21
354.179	105.01
354.643	126.41
355.107	134.71
355.571	111.91
356.035	100.01
356.498	114.21
356.962	127.91
357.426	134.01
357.89	116.51
358.354	93.61
358.818	80.21
359.281	82.91
359.745	75.21
360.209	77.01
360.673	74.11
361.136	80.21
361.6	85.01
362.064	85.21
362.527	88.61
362.991	87.21
363.454	80.71
363.918	72.31
364.381	79.71
364.845	83.91
365.308	89.71
365.772	87.11
366.235	87.91
366.698	81.81
367.162	85.61
367.625	84.71
368.088	88.51
368.552	93.91
369.015	99.51
369.478	101.61
369.941	103.51
370.404	98.31
370.867	110.81
371.331	108.91
371.794	116.01
372.257	111.81
372.72	119.31
373.183	106.81
373.646	104.71
374.109	107.51
374.572	106.41
375.035	110.71
375.497	107.51
375.96	102.01
376.423	107.51
376.886	111.61
377.349	115.51
377.811	107.71
378.274	108.41
378.737	100.81
379.199	106.11
379.662	105.21
380.125	117.51
380.587	116.11
381.05	125.11
381.512	131.91
381.975	129.71
382.437	131.61
382.9	120.51
383.362	126.81
383.825	142.51
384.287	146.41
384.75	141.11
385.212	145.41
385.674	143.71
386.136	132.51
386.599	122.21
387.061	130.71
387.523	133.41
387.985	135.41
388.447	150.01
388.91	146.61
389.372	163.61
389.834	145.81
390.296	147.01
390.758	152.91
391.22	166.51
391.682	212.31
392.144	295.21
392.606	231.51
393.068	168.81
393.529	170.21
393.991	155.01
394.453	150.31
394.915	149.41
395.377	186.71
395.838	210.11
396.3	149.21
396.762	136.61
397.224	133.01
397.685	129.21
398.147	132.51
398.608	126.81
399.07	130.51
399.531	137.61
399.993	141.21
400.454	152.81
400.916	149.61
401.377	145.11
401.839	146.11
402.3	156.31
402.762	162.61
403.223	177.41
403.684	174.01
404.145	156.11
404.607	161.31
405.068	170.01
405.529	169.61
405.99	185.81
406.451	175.61
406.913	175.21
407.374	160.91
407.835	159.31
408.296	168.41
408.757	174.01
409.218	186.01
409.679	180.01
410.14	178.71
410.601	172.71
411.062	186.31
411.522	193.21
411.983	184.61
412.444	171.81
412.905	185.51
413.366	183.71
413.826	193.01
414.287	217.21
414.748	259.71
415.208	250.01
415.669	206.81
416.13	212.91
416.59	203.81
417.051	212.21
417.511	219.01
417.972	230.51
418.432	251.51
418.893	277.61
419.353	253.31
419.814	197.51
420.274	180.41
420.734	179.71
421.195	200.01
421.655	198.11
422.115	190.71
422.576	195.01
423.036	193.91
423.496	207.51
423.956	220.11
424.416	229.11
424.876	266.61
425.336	260.51
425.797	258.71
426.257	250.71
426.717	243.51
427.177	233.41
427.637	222.21
428.097	235.61
428.556	248.01
429.016	265.91
429.476	268.31
429.936	282.21
430.396	282.81
430.856	289.71
431.315	321.11
431.775	350.91
432.235	386.51
432.694	350.81
433.154	359.91
433.614	392.81
434.073	342.31
434.533	291.41
434.993	276.51
435.452	289.01
435.912	295.11
436.371	287.21
436.83	284.71
437.29	269.71
437.749	250.01
438.209	240.41
438.668	282.31
439.127	290.51
439.587	265.61
440.046	254.91
440.505	261.21
440.964	280.41
441.424	329.11
441.883	311.11
442.342	263.81
442.801	226.21
443.26	226.11
443.719	215.61
444.178	221.11
444.637	210.41
445.096	216.11
445.555	224.11
446.014	227.61
446.473	227.31
446.932	229.11
447.391	224.91
447.849	230.81
448.308	230.41
448.767	227.11
449.226	234.61
449.685	237.11
450.143	252.41
450.602	239.31
451.061	224.41
451.519	234.31
451.978	233.31
452.436	234.41
452.895	239.41
453.353	261.01
453.812	239.41
454.27	239.81
454.729	238.51
455.187	250.01
455.646	250.61
456.104	240.01
456.562	263.81
457.021	267.41
457.479	262.61
457.937	273.01
458.395	263.61
458.854	256.31
459.312	262.01
459.77	275.11
460.228	254.61
460.686	246.91
461.144	250.41
461.602	242.71
462.06	247.61
462.518	253.21
462.976	256.51
463.434	262.41
463.892	266.61
464.35	279.31
464.808	295.11
465.266	266.71
465.724	273.31
466.181	275.61
466.639	274.61
467.097	296.81
467.555	295.51
468.012	302.71
468.47	314.51
468.928	337.11
469.385	340.61
469.843	352.81
470.3	351.41
470.758	365.91
471.215	379.31
471.673	405.51
472.13	402.31
472.588	419.11
473.045	375.21
473.503	378.51
473.96	398.81
474.417	407.11
474.875	438.21
475.332	475.11
475.789	468.01
476.246	473.11
476.704	489.91
477.161	514.91
477.618	531.21
478.075	564.81
478.532	623.11
478.989	695.51
479.446	816.21
479.903	786.11
480.36	827.41
480.817	877.11
481.274	980.31
481.731	1093.21
482.188	1176.01
482.645	1322.71
483.102	1431.11
483.558	1550.31
484.015	1616.01
484.472	1580.81
484.929	1548.71
485.385	1494.61
485.842	1448.01
486.299	1386.71
486.755	1325.71
487.212	1111.81
487.668	937.11
488.125	856.61
488.582	790.51
489.038	753.91
489.494	729.61
489.951	696.71
490.407	671.61
490.864	662.11
491.32	649.81
491.776	647.01
492.233	663.11
492.689	617.91
493.145	612.11
493.602	604.51
494.058	615.71
494.514	623.91
494.97	651.21
495.426	654.81
495.882	627.21
496.338	620.11
496.794	627.61
497.251	635.31
497.707	650.01
498.163	643.21
498.618	663.11
499.074	656.91
499.53	692.11
499.986	689.01
500.442	663.51
500.898	634.81
501.354	621.01
501.809	648.21
502.265	649.91
502.721	662.51
503.177	677.21
503.632	677.51
504.088	682.31
504.543	713.71
504.999	714.41
505.455	667.01
505.91	637.31
506.366	636.51
506.821	632.61
507.277	625.91
507.732	627.21
508.187	626.31
508.643	640.31
509.098	631.61
509.553	662.11
510.009	670.81
510.464	671.41
510.919	696.11
511.375	704.81
511.83	717.01
512.285	728.21
512.74	764.81
513.195	796.31
513.65	778.71
514.105	774.41
514.56	777.81
515.015	803.81
515.47	814.51
515.925	801.01
516.38	797.41
516.835	796.01
517.29	790.01
517.745	788.21
518.2	775.01
518.655	759.21
519.109	752.81
519.564	739.41
520.019	744.81
520.474	732.81
520.928	733.01
521.383	736.41
521.838	727.01
522.292	728.01
522.747	717.61
523.201	719.81
523.656	688.21
524.11	703.71
524.565	703.31
525.019	688.51
525.474	702.71
525.928	708.11
526.382	706.01
526.837	708.21
527.291	706.11
527.745	702.91
528.2	704.51
528.654	701.91
529.108	696.31
529.562	697.21
530.016	702.11
530.47	692.31
530.925	702.21
531.379	706.31
531.833	708.91
532.287	703.21
532.741	711.51
533.195	714.01
533.649	718.31
534.103	727.51
534.556	713.61
535.01	723.81
535.464	716.61
535.918	725.41
536.372	740.41
536.826	731.71
537.279	717.11
537.733	706.71
538.187	719.41
538.64	715.91
539.094	731.21
539.548	741.81
540.001	737.71
540.455	728.71
540.908	738.71
541.362	743.61
541.815	740.21
542.269	770.11
542.722	768.91
543.175	776.11
543.629	769.91
544.082	788.51
544.536	789.51
544.989	790.91
545.442	801.81
545.895	797.21
546.349	805.71
546.802	797.91
547.255	800.91
547.708	802.61
548.161	810.51
548.614	830.11
549.067	835.61
549.52	829.01
549.973	818.31
550.426	819.71
550.879	794.11
551.332	804.11
551.785	817.71
552.238	803.71
552.691	826.11
553.144	829.51
553.596	846.51
554.049	872.41
554.502	897.11
554.955	921.21
555.407	907.51
555.86	908.61
556.313	900.71
556.765	889.51
557.218	897.31
557.67	897.11
558.123	882.41
558.576	889.51
559.028	883.61
559.48	895.31
559.933	885.81
560.385	841.71
560.838	807.91
561.29	786.01
561.742	786.11
562.195	774.21
562.647	772.31
563.099	778.01
563.551	775.01
564.004	788.01
564.456	784.41
564.908	775.61
565.36	764.51
565.812	736.61
566.264	723.21
566.716	727.61
567.168	716.81
567.62	726.01
568.072	706.61
568.524	701.01
568.976	686.11
569.428	681.41
569.88	680.71
570.332	690.91
570.784	691.11
571.235	681.81
571.687	699.21
572.139	697.71
572.59	726.91
573.042	708.61
573.494	710.61
573.945	707.31
574.397	686.31
574.849	692.91
575.3	694.21
575.752	690.11
576.203	687.01
576.655	685.01
577.106	675.01
577.557	675.21
578.009	669.11
578.46	665.41
578.912	666.51
579.363	664.81
579.814	668.41
580.265	675.51
580.717	680.01
581.168	670.81
581.619	679.01
582.07	687.11
582.521	677.41
582.972	680.61
583.423	686.11
583.875	691.61
584.326	698.61
584.777	751.31
585.227	827.41
585.678	913.21
586.129	996.61
586.58	1081.81
587.031	1159.51
587.482	1318.41
587.933	1512.51
588.384	1323.21
588.834	982.11
589.285	805.81
589.736	785.71
590.186	773.61
590.637	765.91
591.088	745.81
591.538	749.41
591.989	726.11
592.439	719.11
592.89	715.41
593.34	712.91
593.791	717.01
594.241	702.51
594.692	708.61
595.142	702.51
595.593	704.41
596.043	708.01
596.493	717.51
596.943	722.41
597.394	719.81
597.844	708.61
598.294	728.11
598.744	755.71
599.195	768.41
599.645	816.71
600.095	847.31
600.545	918.81
600.995	972.91
601.445	1017.51
601.895	1082.21
602.345	1128.91
602.795	1101.01
603.245	1063.01
603.695	1009.41
604.145	954.61
604.594	902.81
605.044	863.11
605.494	797.41
605.944	756.91
606.393	744.01
606.843	723.01
607.293	730.91
607.743	728.41
608.192	740.11
608.642	761.61
609.091	759.51
609.541	775.11
609.99	764.41
610.44	761.41
610.889	717.91
611.339	695.31
611.788	683.81
612.238	694.71
612.687	717.81
613.136	722.51
613.586	732.81
614.035	740.71
614.484	754.21
614.933	749.91
615.383	751.41
615.832	737.91
616.281	722.21
616.73	686.91
617.179	663.91
617.628	642.41
618.077	628.61
618.526	622.71
618.975	614.51
619.424	617.21
619.873	618.61
620.322	608.21
620.771	603.21
621.22	598.91
621.669	597.31
622.118	594.91
622.567	579.31
623.015	567.51
623.464	571.21
623.913	553.31
624.361	552.51
624.81	544.31
625.259	539.21
625.707	557.91
626.156	557.11
626.604	563.01
627.053	561.71
627.501	559.91
627.95	576.91
628.398	566.01
628.847	565.51
629.295	565.31
629.744	565.31
630.192	566.91
630.64	562.41
631.089	552.61
631.537	573.51
631.985	582.21
632.433	598.81
632.881	596.01
633.33	666.71
633.778	642.31
634.226	564.11
634.674	576.11
635.122	574.41
635.57	587.81
636.018	617.21
636.466	579.71
636.914	556.31
637.362	564.21
637.81	561.31
638.258	564.91
638.705	568.41
639.153	606.51
639.601	612.01
640.049	635.11
640.497	658.91
640.944	683.71
641.392	637.51
641.84	604.21
642.287	578.61
642.735	569.81
643.182	576.41
643.63	568.11
644.078	575.91
644.525	585.71
644.973	585.31
645.42	596.01
645.867	619.01
646.315	635.01
646.762	662.31
647.21	685.21
647.657	706.81
648.104	737.71
648.551	766.71
648.999	830.91
649.446	904.91
649.893	995.31
650.34	1150.01
650.787	1372.61
651.234	1696.71
651.682	2223.31
652.129	3063.81
652.576	4396.01
653.023	6486.11
653.47	8922.01
653.917	11189.51
654.363	12924.71
654.81	14317.71
655.257	13671.11
655.704	8943.31
656.151	5279.41
656.598	3410.41
657.044	2404.81
657.491	1858.91
657.938	1486.81
658.385	1237.11
658.831	1066.21
659.278	951.41
659.724	843.01
660.171	775.31
660.618	718.71
661.064	685.11
661.511	660.01
661.957	655.91
662.404	634.01
662.85	651.51
663.296	619.41
663.743	562.11
664.189	541.01
664.635	529.81
665.082	520.61
665.528	522.91
665.974	515.31
666.42	504.61
666.867	493.61
667.313	481.71
667.759	473.51
668.205	471.01
668.651	482.51
669.097	475.51
669.543	493.51
669.989	469.71
670.435	441.51
670.881	439.61
671.327	446.71
671.773	471.61
672.219	479.01
672.665	532.71
673.11	576.51
673.556	627.21
674.002	662.91
674.448	632.41
674.893	522.11
675.339	469.21
675.785	431.21
676.23	403.11
676.676	387.51
677.122	379.91
677.567	361.31
678.013	366.71
678.458	346.41
678.904	344.61
679.349	336.21
679.794	350.91
680.24	340.31
680.685	345.11
681.131	345.51
681.576	348.31
682.021	351.11
682.466	340.91
682.912	339.61
683.357	350.51
683.802	363.21
684.247	401.91
684.692	443.51
685.137	486.61
685.583	530.71
686.028	549.51
686.473	507.71
686.918	440.81
687.363	408.41
687.807	380.91
688.252	354.71
688.697	346.21
689.142	331.71
689.587	326.51
690.032	321.21
690.477	338.81
690.921	348.51
691.366	379.61
691.811	389.91
692.255	429.51
692.7	443.21
693.145	491.41
693.589	668.41
694.034	1097.31
694.478	1486.51
694.923	1688.01
695.367	2217.11
695.812	1162.11
696.256	486.01
696.701	368.91
697.145	340.51
697.59	323.91
698.034	315.21
698.478	322.51
698.922	318.21
699.367	324.31
699.811	334.31
700.255	349.51
700.699	374.51
701.143	421.11
701.588	467.21
702.032	503.11
702.476	495.11
702.92	478.51
703.364	473.31
703.808	620.01
704.252	993.41
704.696	1407.01
705.14	1623.01
705.584	2075.31
706.027	1035.71
706.471	507.41
706.915	393.71
707.359	338.61
707.803	310.31
708.246	294.51
708.69	303.61
709.134	305.81
709.577	303.91
710.021	315.51
710.465	303.41
710.908	292.81
711.352	292.51
711.795	305.21
712.239	345.21
712.682	374.41
713.126	412.71
713.569	457.51
714.012	364.91
714.456	319.11
714.899	296.31
715.342	263.51
715.786	251.71
716.229	266.41
716.672	251.91
717.115	245.11
717.558	247.81
718.002	243.21
718.445	257.01
718.888	282.31
719.331	290.81
719.774	300.51
720.217	298.01
720.66	277.71
721.103	260.91
721.546	248.51
721.989	244.61
722.432	225.81
722.874	236.61
723.317	227.61
723.76	233.11
724.203	257.11
724.645	308.61
725.088	424.91
725.531	544.81
725.974	634.21
726.416	524.21
726.859	299.51
727.301	246.61
727.744	229.71
728.187	221.81
728.629	234.41
729.071	235.21
729.514	252.11
729.956	262.01
730.399	275.21
730.841	280.31
731.283	262.91
731.726	256.51
732.168	255.41
732.61	253.81
733.053	275.31
733.495	303.41
733.937	334.01
734.379	385.81
734.821	423.41
735.263	515.11
735.705	803.51
736.148	1506.81
736.59	2501.41
737.032	2981.71
737.474	2420.71
737.916	780.91
738.357	414.91
738.799	317.21
739.241	284.31
739.683	275.61
740.125	291.31
740.567	287.61
741.008	299.61
741.45	295.71
741.892	306.51
742.334	336.71
742.775	360.21
743.217	328.91
743.658	258.01
744.1	246.41
744.542	248.61
744.983	291.51
745.425	333.71
745.866	336.81
746.307	279.61
746.749	276.51
747.19	312.91
747.632	441.31
748.073	844.71
748.514	1774.01
748.956	2758.91
749.397	3461.31
749.838	2872.61
750.279	2902.01
750.72	1467.71
751.162	528.61
751.603	310.91
752.044	236.41
752.485	212.71
752.926	205.41
753.367	196.41
753.808	182.21
754.249	178.81
754.69	186.11
755.131	179.71
755.572	178.81
756.013	172.21
756.453	178.31
756.894	183.01
757.335	192.91
757.776	199.91
758.216	197.61
758.657	197.01
759.098	190.61
759.538	215.71
759.979	251.81
760.42	359.01
760.86	662.01
761.301	1723.41
761.741	4218.61
762.182	6266.21
762.622	4426.31
763.063	1275.61
763.503	525.41
763.943	329.41
764.384	341.11
764.824	389.31
765.264	434.21
765.705	300.91
766.145	204.41
766.585	180.51
767.025	179.31
767.465	179.91
767.906	228.51
768.346	317.41
768.786	330.31
769.226	246.81
769.666	313.31
770.106	590.91
770.546	1473.31
770.986	2576.81
771.426	2307.31
771.866	766.71
772.306	317.61
772.745	201.31
773.185	163.01
773.625	166.71
774.065	159.61
774.505	185.31
774.944	293.61
775.384	643.61
775.824	1204.01
776.263	1179.11
776.703	502.21
777.142	216.11
777.582	157.61
778.021	141.71
778.461	138.81
778.9	133.41
779.34	131.01
779.779	116.91
780.219	109.71
780.658	105.61
781.097	109.61
781.537	118.71
781.976	109.01
782.415	96.21
782.855	104.31
783.294	100.01
783.733	102.91
784.172	106.21
784.611	94.61
785.05	104.41
785.489	112.01
785.928	117.01
786.367	114.41
786.806	117.31
787.245	131.01
787.684	125.21
788.123	145.31
788.562	130.21
789.001	119.31
789.44	114.11
789.879	109.51
790.317	114.41
790.756	126.91
791.195	129.31
791.634	136.41
792.072	203.41
792.511	345.61
792.95	954.71
793.388	2069.31
793.827	1891.91
794.265	660.11
794.704	271.21
795.142	185.11
795.581	140.71
796.019	134.01
796.458	123.41
796.896	120.91
797.334	131.41
797.773	151.21
798.211	211.81
798.649	420.31
799.087	983.31
799.526	1533.01
799.964	1930.71
800.402	1960.61
800.84	731.31
801.278	291.71
801.716	174.81
802.154	152.81
802.592	140.91
803.03	130.41
803.468	130.91
803.906	142.21
804.344	137.51
804.782	135.71
805.22	128.31
805.658	128.41
806.096	138.81
806.533	150.71
806.971	172.01
807.409	211.31
807.847	306.71
808.284	624.21
808.722	1760.11
809.16	3187.71
809.597	2986.71
810.035	5202.51
810.472	5629.71
810.91	2014.91
811.347	763.31
811.785	393.71
812.222	249.01
812.66	180.01
813.097	159.01
813.535	139.31
813.972	123.01
814.409	113.21
814.846	103.11
815.284	102.91
815.721	96.71
816.158	106.81
816.595	118.21
817.032	176.61
817.47	193.81
817.907	168.71
818.344	142.81
818.781	114.41
819.218	100.51
819.655	121.91
820.092	178.91
820.529	213.51
820.966	167.41
821.403	128.91
821.839	99.81
822.276	95.01
822.713	117.81
823.15	132.01
823.587	120.21
824.023	147.91
824.46	293.11
824.897	857.31
825.333	1321.01
825.77	563.41
826.206	220.51
826.643	137.91
827.08	98.71
827.516	84.51
827.953	71.61
828.389	79.31
828.825	61.71
829.262	69.01
829.698	61.81
830.135	64.71
830.571	59.61
831.007	58.01
831.443	59.71
831.88	61.71
832.316	57.71
832.752	59.41
833.188	63.51
833.624	64.41
834.06	67.11
834.497	66.71
834.933	66.71
835.369	77.91
835.805	65.11
836.241	71.81
836.677	75.11
837.112	82.81
837.548	102.21
837.984	126.81
838.42	183.01
838.856	466.61
839.292	1449.81
839.727	2234.81
840.163	1039.71
840.599	877.61
841.034	1944.51
841.47	2072.01
841.906	762.41
842.341	323.71
842.777	228.21
843.212	304.71
843.648	305.41
844.083	152.31
844.519	91.31
844.954	72.41
845.39	56.11
845.825	57.11
846.261	58.01
846.696	58.51
847.131	55.71
847.566	55.51
848.002	47.51
848.437	50.41
848.872	66.91
849.307	60.41
849.742	88.61
850.177	171.31
850.613	525.31
851.048	855.61
851.483	366.41
851.918	150.71
852.353	80.91
852.788	60.11
853.223	53.11
853.657	54.01
854.092	45.91
854.527	41.71
854.962	37.11
855.397	43.41
855.832	49.21
856.266	39.01
856.701	46.81
857.136	30.61
857.57	41.31
858.005	50.01
858.44	60.21
858.874	41.01
859.309	56.21
859.743	39.11
860.178	46.81
860.612	47.21
861.047	52.11
861.481	67.51
861.915	67.81
862.35	47.01
862.784	33.61
863.218	38.41
863.653	40.41
864.087	44.01
864.521	49.21
864.955	68.61
865.39	150.71
865.824	168.71
866.258	109.91
866.692	161.71
867.126	170.21
867.56	99.61
867.994	50.81
868.428	33.31
868.862	47.01
869.296	55.81
869.73	54.51
870.164	48.91
870.598	45.61
871.031	36.31
871.465	31.61
871.899	23.61
872.333	24.21
872.766	26.61
873.2	22.91
873.634	25.31
874.067	19.81
874.501	18.81
874.935	31.21
875.368	30.41
875.802	19.11
876.235	25.11
876.669	25.51
877.102	26.61
877.535	22.31
877.969	21.81
878.402	24.51
878.836	18.91
879.269	22.71
879.702	25.81
880.135	24.71
880.569	19.81
881.002	30.71
881.435	18.81
881.868	21.01
882.301	20.51
882.734	20.51
883.167	22.11
883.601	20.41
884.034	22.01
884.467	12.51
884.899	15.91
885.332	13.01
885.765	14.41
886.198	18.21
886.631	20.11
887.064	15.51
887.497	19.31
887.929	18.01
888.362	13.11
888.795	7.41
889.228	15.01
889.66	20.91
890.093	15.11
890.526	14.61
890.958	18.01
891.391	14.01
891.823	28.41
892.256	17.91
892.688	12.61
893.121	12.71
893.553	17.51
893.985	24.61
894.418	19.81
894.85	11.61
895.282	18.81
895.715	15.81
896.147	14.11
896.579	16.71
897.011	15.21
897.444	17.81
897.876	13.21
898.308	13.51
898.74	13.31
899.172	9.81
899.604	26.81
900.036	22.51
900.468	14.61
900.9	12.21
901.332	18.21
901.764	13.01
902.196	19.31
902.628	21.31
903.06	15.61
903.491	29.91
903.923	19.71
904.355	22.41
904.787	26.21
905.218	20.41
905.65	26.61
906.082	14.11
906.513	14.01
906.945	15.81
907.376	19.61
907.808	20.31
908.239	19.91
908.671	14.71
909.102	23.31
909.534	15.81
909.965	41.81
910.397	88.91
910.828	304.01
911.259	453.11
911.691	208.01
912.122	104.21
912.553	46.01
912.984	31.91
913.415	29.11
913.847	28.71
914.278	15.41
914.709	15.21
915.14	22.41
915.571	16.91
916.002	13.31
916.433	20.31
916.864	17.21
917.295	10.11
917.726	28.21
918.157	13.01
918.587	27.31
919.018	26.31
919.449	20.01
919.88	24.61
920.311	24.21
920.741	42.81
921.172	154.81
921.603	142.01
922.033	62.11
922.464	43.51
922.895	19.21
923.325	19.41
923.756	11.01
924.186	19.51
924.617	26.71
925.047	40.61
925.478	55.91
925.908	45.91
926.338	25.41
926.769	19.91
927.199	22.61
927.629	4.21
928.06	15.91
928.49	18.91
928.92	15.11
929.35	9.41
929.78	9.71
930.21	4.91
930.641	7.71
931.071	11.31
931.501	4.11
931.931	6.71
932.361	10.31
932.791	7.71
933.221	4.71
933.651	9.61
934.08	16.91
934.51	28.71
934.94	6.71
935.37	4.11
935.8	7.61
936.229	12.01
936.659	4.11
937.089	-0.79
937.519	12.31
937.948	21.31
938.378	17.71
938.807	2.81
939.237	1.51
939.666	3.61
940.096	-9.79
940.525	2.61
940.955	5.21
941.384	2.91
941.814	-6.19
942.243	-3.59
942.672	4.81
943.102	2.41
943.531	-2.09
943.96	2.71
944.39	-1.69
944.819	-9.39
945.248	1.11
945.677	-3.69
946.106	8.41
946.535	5.91
946.964	-0.49
947.393	3.61
947.822	2.71
948.251	-2.49
948.68	8.11
949.109	6.21
949.538	1.31
949.967	-0.89
950.396	-0.69
950.825	-4.99
951.254	1.11
951.682	-11.09
952.111	3.41
952.54	5.91
952.969	-5.59
953.397	-1.39
953.826	0.21
954.254	-2.39
954.683	4.51
955.112	-1.29
955.54	-1.19
955.969	1.41
956.397	1.71
956.826	-2.19
957.254	1.61
957.682	0.91
958.111	7.31
958.539	-3.49
958.967	0.61
959.396	-2.99
959.824	1.61
960.252	0.81
960.68	-0.59
961.109	4.41
961.537	-2.79
961.965	-2.09
962.393	2.81
962.821	2.21
963.249	3.31
963.677	4.61
964.105	-0.79
964.533	42.11
964.961	37.01
965.389	21.11
965.817	6.51
966.245	-0.59
966.672	-0.29
967.1	-3.79
967.528	-3.49
967.956	-0.39
968.383	1.01
968.811	-3.49
969.239	-0.19
969.666	-2.39
970.094	-0.09
970.522	-0.69
970.949	-1.39
971.377	-9.19
971.804	-2.49
972.232	-4.49
972.659	-4.09
973.087	-2.49
973.514	-1.49
973.941	-3.19
974.369	8.31
974.796	3.91
975.223	-2.99
975.651	-4.69
976.078	0.21
976.505	1.21
976.932	6.81
977.359	13.61
977.786	13.81
978.214	3.81
978.641	-3.69
979.068	-3.99
979.495	-0.59
979.922	-0.69
980.349	-3.29
980.776	1.41
981.202	-1.29
981.629	5.41
982.056	3.71
982.483	-3.39
982.91	2.51
983.337	-1.39
983.763	-3.29
984.19	-9.59
984.617	-4.59
985.043	-8.49
985.47	0.11
985.897	1.91
986.323	-8.79
986.75	4.31
987.176	1.21
987.603	-4.49
988.029	1.91
988.456	-0.79
988.882	7.71
989.308	-1.09
989.735	-4.49
990.161	4.01
990.587	-4.19
991.014	-1.69
991.44	1.01
991.866	-0.59
992.292	-6.79
992.719	0.01
993.145	5.31
993.571	-6.29
993.997	-1.39
994.423	-3.59
994.849	-2.69
995.275	4.01
995.701	1.71
996.127	-5.39
996.553	0.91
996.979	-4.59
997.405	-0.19
997.83	-4.99
998.256	-5.99
998.682	-5.19
999.108	-10.59
999.534	-6.19
999.959	-5.79
1000.385	-6.09
1000.811	3.81
1001.236	-9.59
1001.662	-4.89
1002.087	-9.59
1002.513	-2.19
1002.938	-1.99
1003.364	-0.29
1003.789	-1.39
1004.215	3.11
1004.64	0.31
1005.066	-3.09
1005.491	-1.79
1005.916	3.61
1006.342	-5.29
1006.767	-4.49
1007.192	3.31
1007.617	-7.69
1008.042	-5.59
1008.468	-7.09
1008.893	-4.29
1009.318	-3.09
1009.743	4.01
1010.168	2.11
1010.593	-2.29
1011.018	-2.89
1011.443	-2.09
1011.868	0.31
1012.293	2.11
1012.718	-6.39
1013.143	0.41
1013.567	4.41
1013.992	-2.39
1014.417	-15.69
1014.842	5.21
1015.267	-3.49
1015.691	0.51
1016.116	1.61
1016.541	-1.29
1016.965	5.91
1017.39	1.61
1017.814	-3.19
1018.239	-1.29
1018.663	-4.89
1019.088	-10.29
1019.512	-5.19
1019.937	1.51
1020.361	-3.89
1020.785	-13.59
1021.21	-3.19
1021.634	-3.39
1022.058	-2.69
1022.483	4.91
1022.907	-6.99
1023.331	-0.39
1023.755	-4.99
1024.179	1.11
1024.604	-2.59
1025.028	-6.69
1025.452	-4.49
1025.876	-3.89
1026.3	1.31
1026.724	-12.79
1027.148	-12.99
1027.572	-14.49
1027.996	1.21
1028.42	-4.49
1028.843	-4.89
1029.267	-2.99
1029.691	1.11
1030.115	-6.49
1030.539	-7.39
1030.962	-8.09
1031.386	-5.09
1031.81	0.51
1032.233	-4.99
1032.657	-9.69
1033.08	-0.99
1033.504	-3.19
1033.927	-2.79
1034.351	-0.79
1034.774	-2.69
1035.198	-2.79
1035.621	-2.49
1036.045	-5.59
1036.468	-1.49
1036.891	-12.19
1037.315	-11.39
1037.738	-15.79
1038.161	1.11
1038.584	-9.89
1039.008	-7.29
1039.431	-2.49
1039.854	-7.29
1040.277	-11.59
1040.7	-12.79
1041.123	1.81
1041.546	-9.49
1041.969	-2.69
1042.392	-4.29
1042.815	-1.29
1043.238	-2.09
1043.661	0.81
1044.084	-3.49
1044.507	-8.09
1044.93	-3.79
1045.352	-5.29
1045.775	-4.39
1046.198	1.51
1046.621	-8.19
1047.043	-4.99
1047.466	9.01
1047.889	2.21
1048.311	-5.69
1048.734	-2.49
1049.156	-3.99
1049.579	-0.49
1050.001	-4.49
1050.424	-1.79
1050.846	0.71
1051.269	-4.89
1051.691	-10.59
1052.113	-2.29
1052.536	-0.39
1052.958	-4.09
1053.38	-1.29
1053.802	-10.69
1054.225	-2.99
1054.647	-9.69
1055.069	-6.89
1055.491	0.81
1055.913	-8.29
1056.335	-3.99
1056.757	-3.59
1057.179	-6.19
1057.601	-8.79
1058.023	0.31
1058.445	-3.99
1058.867	-4.69
1059.289	-6.19
1059.711	-6.09
1060.133	-1.49
1060.555	-9.19
1060.976	-3.59
1061.398	-9.59
1061.82	-4.69
1062.241	-8.29
1062.663	-5.59
1063.085	2.91
1063.506	-3.09
1063.928	-5.59
1064.35	1.81
1064.771	-11.49
1065.193	-4.49
1065.614	-5.49
1066.035	-5.89
1066.457	0.01
1066.878	-1.29
1067.3	-4.99
1067.721	-4.09
1068.142	-10.49
1068.564	-3.89
1068.985	-1.59
1069.406	-12.79
1069.827	-2.69
1070.248	-1.49
1070.67	0.21
1071.091	-3.29
1071.512	-2.19
1071.933	-4.29
1072.354	-1.29
1072.775	-8.89
1073.196	-6.49
1073.617	-6.89
1074.038	-9.69
1074.459	-5.59
1074.88	-7.89
1075.3	-0.19
1075.721	-8.89
1076.142	2.21
1076.563	0.31
1076.983	-9.29
1077.404	-6.49
1077.825	-7.69
1078.246	-4.99
1078.666	-8.39
1079.087	-6.69
1079.507	-6.99
1079.928	-2.59
1080.348	-1.19
1080.769	-3.59
1081.189	-1.19
1081.61	-3.39
1082.03	-7.99
1082.451	-7.29
1082.871	-5.29
1083.291	-4.19
1083.711	-7.49
1084.132	-6.39
1084.552	-7.09
1084.972	-4.99
1085.392	-5.59
1085.813	-4.69
1086.233	-7.09
1086.653	-6.09
1087.073	1.71
1087.493	-6.99
1087.913	-9.79
1088.333	-13.49
1088.753	-3.29
1089.173	2.81
1089.593	-5.49
1090.013	1.11
1090.433	-3.99
1090.852	-3.29
1091.272	1.51
1091.692	-2.09
1092.112	-1.59
1092.531	-7.69
1092.951	-18.99
1093.371	-5.89
1093.79	0.51
1094.21	-5.69
1094.63	-5.29
1095.049	-2.99
1095.469	-1.19
1095.888	-3.19
1096.308	3.21
1096.727	1.51
1097.146	-5.39
1097.566	6.51
1097.985	-10.59
1098.405	-2.69
1098.824	-2.19
1099.243	-5.89
1099.662	-7.09
1100.082	-4.49
1100.501	-5.59
1100.92	-8.69
1101.339	-8.99
1101.758	-5.59
