Data from 20171114-ORNL-Ar_H_NY_Subt18_08-08-39-952.txt Node
Date: Tue Nov 14 08:08:39 EST 2017
User: Ender
Spectrometer: HR+D1039
Trigger mode: 0
Integration Time (sec): 2.730000E-2
Scans to average: 10
Electric dark correction enabled: true
Nonlinearity correction enabled: false
Boxcar width: 0
XAxis mode: Wavelengths
Number of Pixels in Spectrum: 2048
>>>>>Begin Spectral Data<<<<<
187.836	-7.69
188.309	-7.69
188.782	-7.69
189.255	4.31
189.728	-2.59
190.201	7.71
190.674	4.91
191.147	9.31
191.619	-7.19
192.092	-4.89
192.565	2.11
193.038	0.61
193.511	-1.79
193.984	-3.59
194.456	0.51
194.929	0.41
195.402	-3.59
195.874	1.51
196.347	-6.19
196.82	-3.19
197.292	5.21
197.765	-5.19
198.237	-9.39
198.71	0.11
199.182	0.41
199.655	4.01
200.127	4.21
200.6	-1.49
201.072	-0.69
201.544	-3.09
202.017	1.91
202.489	6.11
202.961	-3.59
203.433	-0.29
203.906	-6.29
204.378	-4.59
204.85	1.61
205.322	-12.89
205.794	-3.39
206.266	-0.59
206.739	-5.29
207.211	0.81
207.683	-11.49
208.155	-6.79
208.627	-8.09
209.099	-2.89
209.57	-6.59
210.042	-1.49
210.514	-1.49
210.986	-0.19
211.458	-12.59
211.93	-2.19
212.402	0.71
212.873	-6.79
213.345	-7.09
213.817	-8.89
214.288	-2.29
214.76	-9.29
215.232	-4.99
215.703	-4.29
216.175	-0.79
216.646	-6.89
217.118	-1.49
217.589	-7.89
218.061	-6.29
218.532	-7.39
219.004	-4.49
219.475	-4.09
219.946	2.61
220.418	-7.69
220.889	-0.79
221.36	-1.79
221.832	-6.19
222.303	-6.39
222.774	1.11
223.245	-9.39
223.717	-6.19
224.188	-4.89
224.659	-7.19
225.13	-4.39
225.601	-2.79
226.072	-0.79
226.543	-4.39
227.014	-4.19
227.485	-3.99
227.956	-4.99
228.427	1.71
228.898	1.31
229.369	2.01
229.839	-5.69
230.31	-9.69
230.781	1.61
231.252	-5.99
231.722	-4.89
232.193	-5.09
232.664	-2.79
233.135	5.61
233.605	-8.09
234.076	-6.99
234.546	-0.99
235.017	5.81
235.487	-1.19
235.958	0.71
236.428	-2.19
236.899	-1.09
237.369	1.51
237.84	-8.39
238.31	3.01
238.78	-0.69
239.251	-5.69
239.721	-1.09
240.191	-2.49
240.662	-5.19
241.132	-2.59
241.602	-6.59
242.072	-3.99
242.542	4.11
243.013	-6.99
243.483	4.71
243.953	5.11
244.423	2.21
244.893	-3.39
245.363	2.01
245.833	0.61
246.303	-4.79
246.773	5.31
247.243	-5.59
247.712	-3.89
248.182	1.51
248.652	8.11
249.122	-7.99
249.592	1.81
250.061	10.71
250.531	17.81
251.001	15.61
251.471	7.61
251.94	7.31
252.41	1.01
252.879	0.61
253.349	8.21
253.818	7.21
254.288	5.11
254.757	0.61
255.227	3.11
255.696	0.21
256.166	1.91
256.635	5.01
257.105	1.61
257.574	-1.39
258.043	4.21
258.513	1.51
258.982	8.91
259.451	2.01
259.92	2.61
260.389	-0.99
260.859	13.01
261.328	3.71
261.797	9.41
262.266	3.61
262.735	5.81
263.204	0.61
263.673	-7.69
264.142	1.61
264.611	-6.49
265.08	-0.39
265.549	-2.69
266.018	1.41
266.487	-3.89
266.955	-6.39
267.424	-0.29
267.893	6.01
268.362	6.51
268.83	4.41
269.299	7.41
269.768	3.21
270.236	3.11
270.705	-0.99
271.174	0.81
271.642	-3.59
272.111	5.11
272.579	7.61
273.048	15.01
273.516	9.41
273.985	14.81
274.453	11.41
274.922	16.11
275.39	8.11
275.858	-6.89
276.327	8.31
276.795	8.41
277.263	5.31
277.731	24.01
278.2	34.91
278.668	33.51
279.136	33.11
279.604	3.41
280.072	10.01
280.54	7.81
281.008	0.41
281.477	5.61
281.945	6.61
282.413	9.01
282.881	12.31
283.348	9.31
283.816	14.01
284.284	16.31
284.752	19.51
285.22	6.31
285.688	12.21
286.156	16.81
286.623	29.81
287.091	31.71
287.559	15.31
288.026	15.51
288.494	12.01
288.962	-0.29
289.429	6.51
289.897	18.41
290.364	10.01
290.832	13.21
291.3	12.51
291.767	8.81
292.234	19.51
292.702	12.01
293.169	15.81
293.637	18.81
294.104	19.51
294.571	8.61
295.039	10.71
295.506	7.21
295.973	11.31
296.44	11.61
296.908	14.71
297.375	14.71
297.842	13.21
298.309	17.71
298.776	8.51
299.243	11.91
299.71	6.61
300.177	14.71
300.644	15.41
301.111	12.01
301.578	23.71
302.045	11.81
302.512	16.31
302.979	18.01
303.446	19.01
303.913	11.91
304.379	10.01
304.846	23.31
305.313	17.51
305.78	15.81
306.246	17.31
306.713	27.21
307.18	18.31
307.646	17.61
308.113	20.21
308.579	14.81
309.046	19.11
309.512	26.11
309.979	11.51
310.445	24.41
310.912	27.61
311.378	21.01
311.845	25.81
312.311	26.51
312.777	23.51
313.244	25.11
313.71	29.41
314.176	27.81
314.642	26.71
315.109	26.41
315.575	30.01
316.041	30.01
316.507	27.71
316.973	31.21
317.439	30.01
317.905	27.81
318.371	33.21
318.837	27.61
319.303	33.61
319.769	25.21
320.235	29.81
320.701	30.81
321.167	31.41
321.633	23.71
322.099	35.11
322.564	34.81
323.03	30.11
323.496	31.71
323.962	31.71
324.427	30.51
324.893	39.51
325.359	29.71
325.824	28.71
326.29	26.51
326.755	31.91
327.221	31.51
327.686	39.21
328.152	36.91
328.617	37.81
329.083	40.31
329.548	40.51
330.014	36.21
330.479	30.71
330.944	36.31
331.41	38.21
331.875	37.01
332.34	35.71
332.805	39.31
333.271	41.51
333.736	34.21
334.201	45.21
334.666	40.91
335.131	46.81
335.596	40.51
336.061	41.51
336.526	34.41
336.991	43.91
337.456	48.51
337.921	38.71
338.386	39.41
338.851	44.41
339.316	49.41
339.781	39.31
340.246	46.61
340.711	40.71
341.175	45.01
341.64	41.41
342.105	49.51
342.569	52.71
343.034	49.61
343.499	49.61
343.963	46.31
344.428	65.81
344.893	48.41
345.357	50.51
345.822	57.61
346.286	63.21
346.751	64.61
347.215	60.21
347.679	63.71
348.144	82.21
348.608	73.71
349.073	63.71
349.537	71.21
350.001	71.21
350.465	77.41
350.93	64.91
351.394	75.21
351.858	61.11
352.322	76.01
352.786	76.01
353.25	86.61
353.715	98.41
354.179	88.21
354.643	104.51
355.107	112.11
355.571	94.31
356.035	96.01
356.498	108.21
356.962	105.11
357.426	111.91
357.89	105.71
358.354	76.51
358.818	76.11
359.281	68.01
359.745	62.41
360.209	68.61
360.673	63.51
361.136	74.91
361.6	73.91
362.064	82.71
362.527	76.21
362.991	82.91
363.454	72.51
363.918	69.91
364.381	72.11
364.845	79.51
365.308	85.61
365.772	77.91
366.235	81.41
366.698	73.31
367.162	80.91
367.625	74.91
368.088	81.81
368.552	84.41
369.015	85.41
369.478	81.41
369.941	92.41
370.404	95.01
370.867	98.91
371.331	96.81
371.794	103.11
372.257	100.31
372.72	105.71
373.183	97.11
373.646	91.61
374.109	94.01
374.572	103.41
375.035	93.91
375.497	96.61
375.96	102.91
376.423	99.61
376.886	109.91
377.349	102.81
377.811	92.71
378.274	98.81
378.737	104.81
379.199	103.61
379.662	104.01
380.125	108.31
380.587	110.01
381.05	113.31
381.512	120.71
381.975	126.01
382.437	117.91
382.9	118.11
383.362	117.71
383.825	131.81
384.287	131.51
384.75	121.71
385.212	123.81
385.674	128.41
386.136	126.41
386.599	116.41
387.061	122.91
387.523	117.61
387.985	126.21
388.447	135.01
388.91	132.21
389.372	145.01
389.834	140.61
390.296	132.81
390.758	142.91
391.22	149.71
391.682	188.61
392.144	242.81
392.606	192.11
393.068	149.81
393.529	155.01
393.991	146.61
394.453	139.31
394.915	147.11
395.377	170.71
395.838	184.21
396.3	150.01
396.762	134.51
397.224	126.91
397.685	119.91
398.147	138.41
398.608	130.91
399.07	126.91
399.531	132.71
399.993	132.41
400.454	151.91
400.916	143.11
401.377	148.21
401.839	144.11
402.3	149.61
402.762	161.91
403.223	172.91
403.684	166.91
404.145	161.31
404.607	155.71
405.068	160.01
405.529	161.21
405.99	179.41
406.451	170.91
406.913	174.31
407.374	163.11
407.835	163.01
408.296	166.51
408.757	177.11
409.218	181.41
409.679	172.31
410.14	172.81
410.601	180.91
411.062	172.11
411.522	185.11
411.983	183.81
412.444	173.21
412.905	180.41
413.366	184.81
413.826	195.61
414.287	220.31
414.748	264.01
415.208	247.91
415.669	206.11
416.13	204.41
416.59	205.51
417.051	212.11
417.511	217.61
417.972	235.91
418.432	242.81
418.893	289.81
419.353	252.31
419.814	200.11
420.274	178.51
420.734	181.31
421.195	197.31
421.655	194.31
422.115	192.91
422.576	194.61
423.036	203.11
423.496	208.01
423.956	222.01
424.416	232.61
424.876	266.81
425.336	266.11
425.797	264.51
426.257	258.41
426.717	239.01
427.177	238.31
427.637	224.81
428.097	232.91
428.556	240.11
429.016	265.11
429.476	262.41
429.936	274.11
430.396	273.71
430.856	287.71
431.315	312.91
431.775	339.81
432.235	380.11
432.694	354.01
433.154	358.61
433.614	388.21
434.073	326.41
434.533	279.71
434.993	272.51
435.452	284.21
435.912	289.31
436.371	281.01
436.83	276.11
437.29	267.71
437.749	248.91
438.209	244.21
438.668	274.71
439.127	286.91
439.587	263.21
440.046	239.01
440.505	258.71
440.964	273.51
441.424	313.61
441.883	311.61
442.342	258.01
442.801	222.91
443.26	224.51
443.719	227.41
444.178	222.11
444.637	219.21
445.096	226.51
445.555	224.31
446.014	230.51
446.473	235.61
446.932	232.61
447.391	218.51
447.849	232.81
448.308	221.11
448.767	226.41
449.226	233.21
449.685	241.91
450.143	251.51
450.602	243.71
451.061	234.91
451.519	235.11
451.978	235.51
452.436	230.21
452.895	243.71
453.353	259.01
453.812	247.11
454.27	251.51
454.729	245.31
455.187	240.41
455.646	242.21
456.104	253.01
456.562	257.11
457.021	267.81
457.479	262.81
457.937	279.21
458.395	266.11
458.854	253.51
459.312	259.61
459.77	275.51
460.228	264.91
460.686	245.71
461.144	256.11
461.602	253.81
462.06	249.11
462.518	255.41
462.976	262.21
463.434	262.81
463.892	265.11
464.35	277.21
464.808	291.21
465.266	261.91
465.724	277.31
466.181	269.11
466.639	279.21
467.097	289.31
467.555	312.11
468.012	307.41
468.47	309.81
468.928	326.01
469.385	353.11
469.843	346.31
470.3	349.51
470.758	369.31
471.215	388.11
471.673	409.51
472.13	403.41
472.588	427.91
473.045	370.41
473.503	390.51
473.96	404.01
474.417	405.31
474.875	436.51
475.332	481.21
475.789	475.61
476.246	467.31
476.704	490.11
477.161	505.91
477.618	529.11
478.075	564.71
478.532	619.51
478.989	691.71
479.446	800.21
479.903	769.91
480.36	804.01
480.817	853.41
481.274	938.91
481.731	1048.21
482.188	1128.51
482.645	1253.01
483.102	1370.01
483.558	1481.21
484.015	1527.01
484.472	1505.01
484.929	1455.31
485.385	1406.51
485.842	1366.11
486.299	1310.41
486.755	1262.21
487.212	1077.21
487.668	921.51
488.125	841.91
488.582	768.81
489.038	739.51
489.494	699.51
489.951	685.01
490.407	659.11
490.864	641.41
491.32	651.31
491.776	644.61
492.233	652.91
492.689	618.01
493.145	606.91
493.602	597.71
494.058	613.11
494.514	617.21
494.97	634.01
495.426	644.11
495.882	621.51
496.338	620.11
496.794	633.11
497.251	624.31
497.707	637.41
498.163	635.61
498.618	646.51
499.074	638.51
499.53	685.51
499.986	684.21
500.442	657.41
500.898	631.51
501.354	630.01
501.809	633.71
502.265	646.11
502.721	659.71
503.177	666.41
503.632	671.01
504.088	669.01
504.543	704.21
504.999	703.81
505.455	662.01
505.91	636.11
506.366	639.91
506.821	636.41
507.277	638.61
507.732	630.71
508.187	633.81
508.643	642.71
509.098	656.31
509.553	665.31
510.009	671.21
510.464	680.71
510.919	698.71
511.375	701.21
511.83	713.51
512.285	738.91
512.74	764.61
513.195	786.31
513.65	772.51
514.105	772.01
514.56	774.61
515.015	798.71
515.47	812.91
515.925	794.91
516.38	797.41
516.835	794.51
517.29	784.81
517.745	783.31
518.2	767.91
518.655	759.21
519.109	743.81
519.564	745.11
520.019	734.01
520.474	728.51
520.928	735.61
521.383	726.01
521.838	729.71
522.292	718.41
522.747	717.01
523.201	716.01
523.656	710.31
524.11	706.81
524.565	700.81
525.019	702.81
525.474	698.11
525.928	707.21
526.382	700.81
526.837	697.41
527.291	716.11
527.745	701.31
528.2	713.11
528.654	712.41
529.108	696.31
529.562	699.01
530.016	695.11
530.47	692.41
530.925	701.91
531.379	703.41
531.833	714.71
532.287	705.61
532.741	707.21
533.195	706.11
533.649	707.71
534.103	707.41
534.556	719.81
535.01	707.21
535.464	711.61
535.918	718.21
536.372	718.61
536.826	723.81
537.279	705.61
537.733	726.71
538.187	724.01
538.64	714.01
539.094	725.11
539.548	733.11
540.001	735.51
540.455	736.51
540.908	741.71
541.362	752.21
541.815	757.41
542.269	773.51
542.722	776.41
543.175	785.91
543.629	789.81
544.082	792.41
544.536	800.71
544.989	798.41
545.442	802.91
545.895	798.81
546.349	807.61
546.802	802.51
547.255	809.71
547.708	820.61
548.161	825.81
548.614	828.11
549.067	839.11
549.52	829.21
549.973	819.21
550.426	827.01
550.879	805.11
551.332	817.11
551.785	818.21
552.238	823.31
552.691	824.81
553.144	841.51
553.596	865.41
554.049	875.81
554.502	913.31
554.955	917.01
555.407	925.61
555.86	910.31
556.313	902.81
556.765	898.61
557.218	896.71
557.67	894.81
558.123	890.81
558.576	877.71
559.028	881.91
559.48	904.21
559.933	883.61
560.385	855.01
560.838	821.31
561.29	794.61
561.742	794.41
562.195	789.61
562.647	776.61
563.099	786.31
563.551	792.81
564.004	803.21
564.456	784.31
564.908	773.61
565.36	754.61
565.812	756.01
566.264	735.61
566.716	726.91
567.168	721.61
567.62	728.51
568.072	709.01
568.524	710.71
568.976	708.21
569.428	688.51
569.88	681.01
570.332	700.81
570.784	698.91
571.235	697.91
571.687	699.91
572.139	713.01
572.59	722.31
573.042	722.61
573.494	722.21
573.945	717.11
574.397	699.31
574.849	694.01
575.3	704.61
575.752	697.41
576.203	686.71
576.655	696.61
577.106	684.81
577.557	682.21
578.009	681.51
578.46	677.21
578.912	674.01
579.363	685.71
579.814	669.21
580.265	674.61
580.717	693.41
581.168	684.01
581.619	685.61
582.07	691.61
582.521	689.21
582.972	683.81
583.423	685.11
583.875	682.41
584.326	700.81
584.777	745.01
585.227	808.31
585.678	863.11
586.129	939.51
586.58	979.41
587.031	1029.81
587.482	1139.71
587.933	1266.11
588.384	1139.21
588.834	912.31
589.285	802.01
589.736	797.41
590.186	787.81
590.637	777.21
591.088	765.11
591.538	752.41
591.989	747.31
592.439	748.31
592.89	736.81
593.34	715.51
593.791	719.01
594.241	720.11
594.692	725.51
595.142	723.31
595.593	713.81
596.043	728.11
596.493	732.51
596.943	728.71
597.394	732.31
597.844	730.41
598.294	751.11
598.744	778.41
599.195	795.91
599.645	835.91
600.095	884.91
600.545	945.61
600.995	987.11
601.445	1051.71
601.895	1113.41
602.345	1156.21
602.795	1144.11
603.245	1096.71
603.695	1033.11
604.145	978.91
604.594	926.01
605.044	880.81
605.494	818.81
605.944	767.01
606.393	757.61
606.843	744.41
607.293	751.41
607.743	743.31
608.192	761.81
608.642	768.01
609.091	782.01
609.541	783.61
609.99	789.01
610.44	783.01
610.889	740.91
611.339	709.91
611.788	702.11
612.238	710.31
612.687	725.41
613.136	720.41
613.586	739.21
614.035	735.11
614.484	761.21
614.933	750.91
615.383	744.21
615.832	730.31
616.281	732.91
616.73	694.11
617.179	685.91
617.628	661.61
618.077	644.71
618.526	638.71
618.975	634.71
619.424	631.51
619.873	634.71
620.322	633.31
620.771	616.91
621.22	620.21
621.669	608.61
622.118	604.91
622.567	593.61
623.015	576.61
623.464	575.51
623.913	580.81
624.361	564.51
624.81	567.41
625.259	563.11
625.707	564.41
626.156	572.01
626.604	578.81
627.053	572.71
627.501	580.71
627.95	579.61
628.398	601.51
628.847	578.91
629.295	584.11
629.744	581.01
630.192	584.21
630.64	580.61
631.089	568.61
631.537	577.41
631.985	585.61
632.433	602.21
632.881	585.61
633.33	634.91
633.778	618.91
634.226	567.51
634.674	574.61
635.122	579.71
635.57	589.51
636.018	613.91
636.466	593.71
636.914	573.81
637.362	580.91
637.81	584.41
638.258	599.41
638.705	595.31
639.153	638.21
639.601	642.61
640.049	666.01
640.497	689.61
640.944	702.11
641.392	653.91
641.84	626.91
642.287	599.31
642.735	580.71
643.182	586.71
643.63	587.81
644.078	588.41
644.525	597.41
644.973	605.21
645.42	608.51
645.867	631.31
646.315	650.71
646.762	670.21
647.21	702.91
647.657	725.31
648.104	768.01
648.551	779.11
648.999	850.91
649.446	935.01
649.893	1017.61
650.34	1164.21
650.787	1390.01
651.234	1730.41
651.682	2251.51
652.129	3090.81
652.576	4421.71
653.023	6497.71
653.47	8785.81
653.917	10879.11
654.363	12444.71
654.81	13636.71
655.257	12980.41
655.704	8533.01
656.151	5112.71
656.598	3339.71
657.044	2377.11
657.491	1834.41
657.938	1477.31
658.385	1237.41
658.831	1085.91
659.278	970.91
659.724	861.21
660.171	789.61
660.618	722.41
661.064	694.41
661.511	672.01
661.957	660.91
662.404	652.41
662.85	659.51
663.296	630.81
663.743	574.61
664.189	551.91
664.635	546.11
665.082	536.71
665.528	543.91
665.974	528.31
666.42	528.61
666.867	514.81
667.313	506.51
667.759	489.91
668.205	481.31
668.651	482.71
669.097	473.81
669.543	482.31
669.989	480.81
670.435	461.31
670.881	456.61
671.327	466.61
671.773	475.61
672.219	511.21
672.665	572.51
673.11	612.91
673.556	649.51
674.002	687.41
674.448	669.01
674.893	557.31
675.339	487.41
675.785	442.91
676.23	427.31
676.676	393.71
677.122	390.01
677.567	383.41
678.013	378.01
678.458	367.81
678.904	371.21
679.349	359.61
679.794	363.21
680.24	359.11
680.685	363.41
681.131	361.61
681.576	364.21
682.021	369.51
682.466	365.31
682.912	362.81
683.357	368.61
683.802	400.01
684.247	424.61
684.692	476.01
685.137	510.61
685.583	551.21
686.028	572.01
686.473	534.31
686.918	462.31
687.363	424.31
687.807	410.61
688.252	378.31
688.697	364.81
689.142	347.41
689.587	340.01
690.032	340.11
690.477	354.31
690.921	364.61
691.366	398.31
691.811	414.81
692.255	447.91
692.7	476.91
693.145	530.31
693.589	741.01
694.034	1196.81
694.478	1611.21
694.923	1781.51
695.367	2317.71
695.812	1232.61
696.256	513.61
696.701	383.31
697.145	358.71
697.59	348.31
698.034	330.71
698.478	343.51
698.922	335.11
699.367	336.31
699.811	344.11
700.255	363.41
700.699	398.01
701.143	437.41
701.588	489.01
702.032	522.01
702.476	530.51
702.92	517.01
703.364	513.01
703.808	683.91
704.252	1107.11
704.696	1532.31
705.14	1726.91
705.584	2179.31
706.027	1099.21
706.471	544.51
706.915	419.11
707.359	366.61
707.803	326.81
708.246	322.11
708.69	323.71
709.134	323.91
709.577	325.41
710.021	335.51
710.465	323.31
710.908	313.01
711.352	310.71
711.795	319.91
712.239	364.71
712.682	397.81
713.126	429.51
713.569	476.41
714.012	377.01
714.456	316.41
714.899	301.31
715.342	283.71
715.786	271.61
716.229	274.61
716.672	262.21
717.115	261.81
717.558	262.31
718.002	267.31
718.445	273.31
718.888	294.31
719.331	303.51
719.774	316.21
720.217	313.21
720.66	291.61
721.103	272.91
721.546	266.71
721.989	248.51
722.432	241.81
722.874	241.41
723.317	239.91
723.76	254.41
724.203	266.31
724.645	339.11
725.088	464.51
725.531	608.01
725.974	661.91
726.416	557.41
726.859	312.51
727.301	257.51
727.744	239.41
728.187	241.31
728.629	245.71
729.071	248.71
729.514	261.61
729.956	290.51
730.399	292.71
730.841	293.71
731.283	283.21
731.726	271.81
732.168	268.11
732.61	272.41
733.053	291.91
733.495	327.71
733.937	365.61
734.379	417.71
734.821	453.41
735.263	571.31
735.705	898.01
736.148	1705.21
736.59	2707.31
737.032	3131.21
737.474	2546.51
737.916	850.41
738.357	449.71
738.799	327.91
739.241	308.81
739.683	303.21
740.125	308.31
740.567	317.01
741.008	329.31
741.45	322.51
741.892	329.71
742.334	366.91
742.775	372.91
743.217	354.51
743.658	278.11
744.1	266.81
744.542	279.41
744.983	326.51
745.425	352.01
745.866	347.71
746.307	291.81
746.749	286.71
747.19	345.01
747.632	492.01
748.073	963.41
748.514	1997.81
748.956	2980.41
749.397	3749.31
749.838	3093.01
750.279	3047.31
750.72	1540.31
751.162	564.21
751.603	331.41
752.044	260.51
752.485	230.41
752.926	225.11
753.367	215.21
753.808	208.71
754.249	196.21
754.69	196.91
755.131	187.41
755.572	188.71
756.013	189.21
756.453	192.21
756.894	197.01
757.335	201.41
757.776	201.91
758.216	195.11
758.657	203.41
759.098	208.61
759.538	230.91
759.979	283.61
760.42	396.61
760.86	770.51
761.301	2011.51
761.741	4731.71
762.182	6544.61
762.622	4620.11
763.063	1356.81
763.503	555.21
763.943	355.11
764.384	319.71
764.824	359.61
765.264	363.91
765.705	278.51
766.145	206.31
766.585	191.91
767.025	181.91
767.465	185.61
767.906	226.41
768.346	276.21
768.786	300.41
769.226	257.71
769.666	338.11
770.106	667.41
770.546	1677.71
770.986	2724.11
771.426	2410.51
771.866	815.61
772.306	339.91
772.745	213.81
773.185	174.21
773.625	170.21
774.065	172.01
774.505	187.41
774.944	284.81
775.384	563.21
775.824	962.31
776.263	915.91
776.703	422.01
777.142	201.51
777.582	149.91
778.021	136.71
778.461	133.91
778.9	144.21
779.34	136.91
779.779	120.61
780.219	117.11
780.658	109.71
781.097	115.81
781.537	122.71
781.976	115.91
782.415	109.61
782.855	113.01
783.294	111.81
783.733	112.71
784.172	113.91
784.611	110.41
785.05	114.51
785.489	120.11
785.928	120.81
786.367	121.81
786.806	128.11
787.245	133.51
787.684	134.61
788.123	151.11
788.562	139.81
789.001	130.51
789.44	126.31
789.879	121.41
790.317	124.41
790.756	135.71
791.195	131.91
791.634	159.41
792.072	215.41
792.511	394.81
792.95	1102.51
793.388	2206.21
793.827	1957.81
794.265	695.81
794.704	293.41
795.142	191.21
795.581	156.51
796.019	145.61
796.458	128.61
796.896	129.51
797.334	141.61
797.773	165.11
798.211	240.01
798.649	476.81
799.087	1073.11
799.526	1669.81
799.964	2106.81
800.402	2042.21
800.84	773.51
801.278	313.51
801.716	191.41
802.154	161.51
802.592	155.71
803.03	140.71
803.468	139.91
803.906	149.91
804.344	164.21
804.782	142.71
805.22	137.41
805.658	130.31
806.096	156.01
806.533	166.11
806.971	179.91
807.409	232.01
807.847	337.41
808.284	737.51
808.722	2013.41
809.16	3386.51
809.597	3338.01
810.035	5686.81
810.472	5828.51
810.91	2142.31
811.347	836.01
811.785	423.41
812.222	263.11
812.66	203.51
813.097	174.41
813.535	148.71
813.972	130.71
814.409	128.41
814.846	110.91
815.284	111.91
815.721	104.21
816.158	110.01
816.595	121.01
817.032	170.11
817.47	189.91
817.907	152.21
818.344	128.71
818.781	113.91
819.218	104.21
819.655	129.91
820.092	200.01
820.529	221.61
820.966	175.21
821.403	130.41
821.839	115.11
822.276	98.31
822.713	127.61
823.15	140.61
823.587	125.41
824.023	152.01
824.46	330.01
824.897	949.71
825.333	1383.21
825.77	596.21
826.206	241.31
826.643	139.31
827.08	104.81
827.516	81.01
827.953	78.71
828.389	79.11
828.825	75.91
829.262	73.01
829.698	69.21
830.135	66.31
830.571	61.51
831.007	64.51
831.443	64.21
831.88	59.41
832.316	53.21
832.752	65.31
833.188	68.41
833.624	65.71
834.06	66.41
834.497	65.11
834.933	75.51
835.369	73.71
835.805	71.41
836.241	77.91
836.677	83.11
837.112	88.81
837.548	109.41
837.984	142.21
838.42	211.41
838.856	538.31
839.292	1598.91
839.727	2355.81
840.163	1115.91
840.599	987.11
841.034	2140.81
841.47	2138.51
841.906	802.31
842.341	347.51
842.777	231.31
843.212	273.61
843.648	262.91
844.083	135.01
844.519	89.31
844.954	77.11
845.39	56.51
845.825	58.61
846.261	60.11
846.696	53.41
847.131	52.31
847.566	57.41
848.002	58.61
848.437	58.11
848.872	60.31
849.307	63.01
849.742	85.71
850.177	198.11
850.613	582.81
851.048	902.01
851.483	388.91
851.918	162.61
852.353	91.41
852.788	59.91
853.223	58.61
853.657	54.91
854.092	48.51
854.527	43.01
854.962	41.31
855.397	47.01
855.832	47.51
856.266	39.21
856.701	43.91
857.136	38.51
857.57	37.21
858.005	45.31
858.44	64.51
858.874	42.01
859.309	52.31
859.743	38.71
860.178	45.71
860.612	41.91
861.047	49.51
861.481	71.61
861.915	75.41
862.35	53.31
862.784	35.41
863.218	38.31
863.653	37.11
864.087	47.01
864.521	55.41
864.955	74.61
865.39	156.81
865.824	179.71
866.258	123.01
866.692	174.61
867.126	181.71
867.56	103.61
867.994	56.01
868.428	39.21
868.862	55.51
869.296	54.81
869.73	60.01
870.164	57.21
870.598	53.11
871.031	44.71
871.465	31.21
871.899	35.31
872.333	22.01
872.766	25.81
873.2	21.31
873.634	32.91
874.067	28.31
874.501	23.21
874.935	34.01
875.368	30.61
875.802	27.11
876.235	23.21
876.669	23.11
877.102	17.91
877.535	29.21
877.969	22.11
878.402	26.31
878.836	17.91
879.269	24.61
879.702	25.21
880.135	20.51
880.569	19.81
881.002	26.81
881.435	25.31
881.868	15.41
882.301	27.01
882.734	22.81
883.167	24.31
883.601	21.11
884.034	23.71
884.467	17.31
884.899	20.71
885.332	14.61
885.765	16.11
886.198	15.01
886.631	22.31
887.064	24.51
887.497	23.51
887.929	20.81
888.362	20.11
888.795	12.21
889.228	21.61
889.66	16.81
890.093	17.41
890.526	12.21
890.958	15.41
891.391	20.51
891.823	21.31
892.256	19.91
892.688	15.31
893.121	22.51
893.553	17.01
893.985	25.71
894.418	17.31
894.85	17.21
895.282	12.01
895.715	22.51
896.147	18.51
896.579	17.21
897.011	11.51
897.444	18.31
897.876	13.81
898.308	17.01
898.74	16.51
899.172	15.71
899.604	21.31
900.036	18.01
900.468	18.71
900.9	18.81
901.332	18.71
901.764	13.11
902.196	19.81
902.628	20.61
903.06	20.01
903.491	34.71
903.923	28.01
904.355	24.61
904.787	28.71
905.218	20.11
905.65	19.61
906.082	13.81
906.513	14.01
906.945	18.41
907.376	15.41
907.808	19.71
908.239	20.61
908.671	22.61
909.102	23.31
909.534	26.31
909.965	48.91
910.397	103.51
910.828	337.01
911.259	482.01
911.691	229.71
912.122	113.01
912.553	50.61
912.984	37.61
913.415	26.81
913.847	23.61
914.278	15.31
914.709	12.01
915.14	22.31
915.571	20.11
916.002	9.01
916.433	20.31
916.864	15.21
917.295	18.31
917.726	21.81
918.157	15.81
918.587	32.01
919.018	19.31
919.449	18.81
919.88	27.51
920.311	33.41
920.741	56.71
921.172	180.71
921.603	155.41
922.033	67.31
922.464	46.11
922.895	20.81
923.325	22.01
923.756	13.71
924.186	17.61
924.617	23.41
925.047	32.61
925.478	40.61
925.908	37.21
926.338	21.81
926.769	10.91
927.199	24.61
927.629	2.41
928.06	12.61
928.49	15.31
928.92	14.71
929.35	10.11
929.78	8.71
930.21	11.21
930.641	11.81
931.071	8.91
931.501	4.71
931.931	15.91
932.361	10.91
932.791	7.61
933.221	7.41
933.651	4.91
934.08	17.71
934.51	31.01
934.94	13.31
935.37	4.41
935.8	11.01
936.229	6.41
936.659	7.51
937.089	3.71
937.519	17.31
937.948	24.51
938.378	23.61
938.807	9.81
939.237	1.21
939.666	8.61
940.096	-5.59
940.525	1.91
940.955	0.41
941.384	4.31
941.814	-7.79
942.243	2.51
942.672	6.71
943.102	-5.19
943.531	2.11
943.96	4.71
944.39	3.01
944.819	2.21
945.248	0.21
945.677	2.81
946.106	8.01
946.535	7.51
946.964	4.11
947.393	7.31
947.822	-2.19
948.251	-4.49
948.68	4.91
949.109	1.81
949.538	7.51
949.967	-3.59
950.396	-0.19
950.825	-0.59
951.254	-1.09
951.682	-9.59
952.111	4.01
952.54	4.21
952.969	-3.59
953.397	-8.49
953.826	1.51
954.254	0.71
954.683	1.81
955.112	-3.09
955.54	3.11
955.969	2.61
956.397	0.31
956.826	-1.49
957.254	-0.49
957.682	3.71
958.111	8.11
958.539	-2.39
958.967	7.11
959.396	-7.69
959.824	4.01
960.252	-1.19
960.68	0.31
961.109	-2.79
961.537	-2.49
961.965	-3.09
962.393	-3.69
962.821	0.81
963.249	1.41
963.677	5.01
964.105	5.01
964.533	44.61
964.961	44.61
965.389	24.51
965.817	13.61
966.245	2.81
966.672	4.41
967.1	-8.99
967.528	4.31
967.956	-0.59
968.383	-0.39
968.811	-3.19
969.239	-0.89
969.666	-8.29
970.094	-2.09
970.522	-0.99
970.949	-4.19
971.377	-7.99
971.804	-0.79
972.232	1.91
972.659	-0.09
973.087	1.11
973.514	1.41
973.941	-7.89
974.369	7.01
974.796	4.31
975.223	-1.09
975.651	0.81
976.078	2.61
976.505	-1.19
976.932	6.51
977.359	13.81
977.786	15.31
978.214	-3.09
978.641	-3.39
979.068	-4.89
979.495	0.21
979.922	-0.39
980.349	-3.79
980.776	2.01
981.202	-0.89
981.629	1.21
982.056	4.61
982.483	-1.49
982.91	4.91
983.337	-8.39
983.763	6.61
984.19	-7.49
984.617	1.41
985.043	-2.99
985.47	-4.79
985.897	-6.49
986.323	-6.49
986.75	2.41
987.176	-3.79
987.603	-2.19
988.029	-0.69
988.456	-1.69
988.882	3.11
989.308	-4.19
989.735	-7.19
990.161	-1.09
990.587	-5.89
991.014	0.51
991.44	4.41
991.866	-1.79
992.292	-1.49
992.719	-1.09
993.145	2.61
993.571	-8.59
993.997	-1.39
994.423	-0.79
994.849	-3.49
995.275	3.51
995.701	1.71
996.127	-7.09
996.553	1.31
996.979	-3.09
997.405	-3.99
997.83	-5.09
998.256	-6.09
998.682	-7.29
999.108	1.61
999.534	1.61
999.959	-3.89
1000.385	-4.29
1000.811	-2.29
1001.236	-8.79
1001.662	-10.99
1002.087	-9.09
1002.513	3.01
1002.938	-0.89
1003.364	-2.69
1003.789	-0.09
1004.215	2.01
1004.64	-4.99
1005.066	7.51
1005.491	-1.39
1005.916	1.81
1006.342	-2.09
1006.767	-7.59
1007.192	2.71
1007.617	-3.69
1008.042	-5.89
1008.468	-7.59
1008.893	-3.39
1009.318	-5.39
1009.743	-3.29
1010.168	3.21
1010.593	4.21
1011.018	-12.79
1011.443	-5.99
1011.868	0.21
1012.293	-3.39
1012.718	1.61
1013.143	0.31
1013.567	4.21
1013.992	0.31
1014.417	-6.39
1014.842	4.01
1015.267	-5.99
1015.691	-1.19
1016.116	1.71
1016.541	-0.09
1016.965	3.21
1017.39	5.21
1017.814	-5.29
1018.239	-4.59
1018.663	-9.79
1019.088	-8.79
1019.512	-1.19
1019.937	-0.79
1020.361	-6.79
1020.785	-8.49
1021.21	-0.29
1021.634	-1.69
1022.058	-3.69
1022.483	1.11
1022.907	-1.39
1023.331	-3.89
1023.755	-0.69
1024.179	0.91
1024.604	-14.79
1025.028	-4.09
1025.452	-4.89
1025.876	-4.99
1026.3	4.31
1026.724	-14.39
1027.148	-5.19
1027.572	-7.89
1027.996	-8.29
1028.42	-3.29
1028.843	-1.99
1029.267	-6.49
1029.691	-2.59
1030.115	-4.09
1030.539	-8.29
1030.962	4.21
1031.386	-7.79
1031.81	-2.69
1032.233	-6.09
1032.657	-3.09
1033.08	-0.39
1033.504	-1.29
1033.927	-2.39
1034.351	1.31
1034.774	-10.99
1035.198	-11.09
1035.621	-8.49
1036.045	-9.89
1036.468	3.01
1036.891	-9.39
1037.315	-6.59
1037.738	-13.59
1038.161	0.81
1038.584	-4.49
1039.008	-6.49
1039.431	-0.39
1039.854	-3.39
1040.277	-4.69
1040.7	-13.69
1041.123	0.11
1041.546	-11.09
1041.969	-7.19
1042.392	-12.89
1042.815	-1.79
1043.238	2.91
1043.661	3.11
1044.084	-7.19
1044.507	-7.59
1044.93	-2.99
1045.352	-4.19
1045.775	0.51
1046.198	-0.69
1046.621	-0.29
1047.043	-1.69
1047.466	7.51
1047.889	2.21
1048.311	-6.29
1048.734	5.01
1049.156	-2.09
1049.579	-1.79
1050.001	-2.39
1050.424	-0.29
1050.846	-5.59
1051.269	-6.79
1051.691	-7.79
1052.113	-6.09
1052.536	-1.99
1052.958	1.91
1053.38	-6.19
1053.802	-10.29
1054.225	-1.69
1054.647	-7.29
1055.069	-0.69
1055.491	2.31
1055.913	-7.19
1056.335	2.31
1056.757	-10.59
1057.179	-6.39
1057.601	-11.09
1058.023	-3.89
1058.445	-5.49
1058.867	0.11
1059.289	1.11
1059.711	-4.89
1060.133	-3.49
1060.555	-5.59
1060.976	-7.39
1061.398	-6.69
1061.82	-8.49
1062.241	-0.09
1062.663	-13.49
1063.085	-1.59
1063.506	-0.19
1063.928	-1.99
1064.35	1.01
1064.771	-7.29
1065.193	-6.19
1065.614	-11.69
1066.035	-3.99
1066.457	0.71
1066.878	1.71
1067.3	-10.09
1067.721	-5.79
1068.142	-10.09
1068.564	-1.19
1068.985	-7.79
1069.406	-6.69
1069.827	-6.99
1070.248	2.61
1070.67	-4.19
1071.091	-13.09
1071.512	-2.49
1071.933	-10.99
1072.354	-10.89
1072.775	-1.29
1073.196	-8.29
1073.617	-4.09
1074.038	-0.79
1074.459	-0.89
1074.88	-9.09
1075.3	0.51
1075.721	-12.09
1076.142	0.31
1076.563	-1.69
1076.983	-5.69
1077.404	-3.69
1077.825	-8.19
1078.246	-5.29
1078.666	-8.69
1079.087	-4.69
1079.507	-7.69
1079.928	0.41
1080.348	-4.29
1080.769	-12.59
1081.189	-5.09
1081.61	-6.69
1082.03	-5.49
1082.451	-9.89
1082.871	-2.69
1083.291	-4.89
1083.711	-5.59
1084.132	-7.29
1084.552	-4.79
1084.972	-3.79
1085.392	-6.99
1085.813	-11.29
1086.233	-7.19
1086.653	-8.29
1087.073	-2.09
1087.493	-3.29
1087.913	-6.69
1088.333	-1.69
1088.753	-3.79
1089.173	-4.39
1089.593	0.61
1090.013	5.41
1090.433	0.31
1090.852	-8.39
1091.272	-3.29
1091.692	-8.29
1092.112	-11.49
1092.531	-7.59
1092.951	-10.59
1093.371	-5.19
1093.79	-3.29
1094.21	-5.79
1094.63	-6.99
1095.049	-4.59
1095.469	-7.19
1095.888	-1.89
1096.308	5.41
1096.727	3.91
1097.146	-3.09
1097.566	-3.49
1097.985	-0.99
1098.405	0.71
1098.824	-7.59
1099.243	-8.39
1099.662	-6.29
1100.082	-5.49
1100.501	-7.69
1100.92	-7.79
1101.339	-7.89
1101.758	-10.59
