Data from 20171114-ORNL-Ar_H_NY_Subt18_08-07-32-527.txt Node
Date: Tue Nov 14 08:07:32 EST 2017
User: Ender
Spectrometer: HR+D1039
Trigger mode: 0
Integration Time (sec): 2.730000E-2
Scans to average: 10
Electric dark correction enabled: true
Nonlinearity correction enabled: false
Boxcar width: 0
XAxis mode: Wavelengths
Number of Pixels in Spectrum: 2048
>>>>>Begin Spectral Data<<<<<
187.836	-3.23
188.309	-3.23
188.782	-3.23
189.255	1.67
189.728	3.47
190.201	6.97
190.674	2.27
191.147	1.67
191.619	-12.13
192.092	2.27
192.565	6.27
193.038	2.67
193.511	1.77
193.984	-2.03
194.456	-3.83
194.929	-1.33
195.402	-4.83
195.874	-1.63
196.347	-1.73
196.82	-8.73
197.292	12.27
197.765	-5.93
198.237	-12.03
198.71	2.67
199.182	-1.23
199.655	2.27
200.127	2.07
200.6	1.47
201.072	-3.23
201.544	-4.73
202.017	-4.23
202.489	3.47
202.961	-6.83
203.433	-4.13
203.906	-5.03
204.378	-7.03
204.85	0.27
205.322	-10.63
205.794	-0.73
206.266	0.07
206.739	-12.93
207.211	2.47
207.683	-3.83
208.155	-7.03
208.627	-6.43
209.099	-7.33
209.57	-6.43
210.042	-4.03
210.514	2.77
210.986	-3.83
211.458	-11.33
211.93	0.37
212.402	2.17
212.873	-1.23
213.345	-9.73
213.817	-14.13
214.288	2.67
214.76	-11.73
215.232	-3.63
215.703	-6.43
216.175	-1.23
216.646	-6.53
217.118	-3.13
217.589	-10.23
218.061	-7.23
218.532	-4.03
219.004	-1.33
219.475	-0.43
219.946	-0.33
220.418	-3.73
220.889	-0.03
221.36	-0.73
221.832	-8.53
222.303	-4.93
222.774	1.77
223.245	-12.03
223.717	-5.43
224.188	-2.33
224.659	-7.23
225.13	-8.03
225.601	1.87
226.072	-0.33
226.543	-2.03
227.014	1.27
227.485	0.07
227.956	-1.43
228.427	-1.33
228.898	0.97
229.369	-2.53
229.839	-9.33
230.31	-7.13
230.781	-0.03
231.252	-2.43
231.722	-6.63
232.193	-3.53
232.664	-1.33
233.135	0.67
233.605	-1.93
234.076	-1.23
234.546	2.97
235.017	-2.23
235.487	-2.83
235.958	-3.63
236.428	-2.53
236.899	-0.83
237.369	-1.93
237.84	-2.63
238.31	1.57
238.78	3.87
239.251	-3.93
239.721	3.37
240.191	-3.73
240.662	-7.53
241.132	-1.83
241.602	-3.23
242.072	-2.93
242.542	10.27
243.013	0.47
243.483	5.87
243.953	2.77
244.423	1.87
244.893	-6.93
245.363	10.17
245.833	4.97
246.303	-6.33
246.773	4.87
247.243	-1.13
247.712	0.77
248.182	7.77
248.652	5.07
249.122	-5.33
249.592	9.27
250.061	14.07
250.531	22.77
251.001	15.87
251.471	14.87
251.94	14.97
252.41	2.67
252.879	-0.43
253.349	10.67
253.818	9.17
254.288	-1.73
254.757	5.57
255.227	-4.93
255.696	3.17
256.166	7.77
256.635	1.47
257.105	5.07
257.574	3.57
258.043	11.67
258.513	8.97
258.982	14.17
259.451	0.07
259.92	7.17
260.389	3.97
260.859	8.97
261.328	10.77
261.797	14.27
262.266	5.57
262.735	3.77
263.204	0.87
263.673	-0.03
264.142	1.87
264.611	-1.53
265.08	-6.53
265.549	-1.73
266.018	-1.63
266.487	-5.53
266.955	-5.03
267.424	-5.03
267.893	-4.33
268.362	-1.63
268.83	2.07
269.299	8.87
269.768	4.57
270.236	7.67
270.705	-1.23
271.174	4.37
271.642	4.97
272.111	8.27
272.579	8.57
273.048	18.37
273.516	21.57
273.985	21.37
274.453	20.07
274.922	17.07
275.39	9.97
275.858	4.27
276.327	8.57
276.795	7.87
277.263	4.87
277.731	19.37
278.2	45.37
278.668	46.57
279.136	36.67
279.604	8.77
280.072	10.17
280.54	11.87
281.008	5.87
281.477	14.97
281.945	10.67
282.413	4.37
282.881	9.57
283.348	-3.03
283.816	12.27
284.284	9.07
284.752	15.07
285.22	5.57
285.688	8.17
286.156	16.37
286.623	30.97
287.091	41.47
287.559	26.67
288.026	11.97
288.494	10.37
288.962	5.77
289.429	5.97
289.897	15.37
290.364	12.37
290.832	10.97
291.3	6.87
291.767	13.37
292.234	15.97
292.702	7.77
293.169	11.57
293.637	14.47
294.104	15.07
294.571	2.17
295.039	9.47
295.506	8.17
295.973	12.57
296.44	9.07
296.908	14.67
297.375	11.97
297.842	9.87
298.309	15.37
298.776	8.17
299.243	14.87
299.71	13.97
300.177	14.37
300.644	11.47
301.111	15.97
301.578	21.77
302.045	10.17
302.512	20.27
302.979	14.77
303.446	17.97
303.913	15.47
304.379	14.97
304.846	22.77
305.313	14.87
305.78	16.87
306.246	21.17
306.713	21.17
307.18	18.37
307.646	20.97
308.113	25.67
308.579	17.87
309.046	17.47
309.512	22.17
309.979	13.87
310.445	17.47
310.912	21.37
311.378	28.07
311.845	20.77
312.311	23.17
312.777	27.47
313.244	21.27
313.71	32.07
314.176	24.67
314.642	21.67
315.109	19.57
315.575	29.07
316.041	33.37
316.507	23.27
316.973	30.07
317.439	27.97
317.905	27.17
318.371	30.77
318.837	21.77
319.303	23.87
319.769	26.87
320.235	31.07
320.701	28.97
321.167	29.97
321.633	24.67
322.099	32.37
322.564	33.37
323.03	28.67
323.496	30.37
323.962	35.77
324.427	29.77
324.893	33.77
325.359	30.07
325.824	27.27
326.29	28.57
326.755	37.07
327.221	32.47
327.686	29.67
328.152	33.37
328.617	35.77
329.083	37.17
329.548	45.37
330.014	34.47
330.479	34.17
330.944	38.57
331.41	36.27
331.875	34.67
332.34	34.17
332.805	31.87
333.271	40.37
333.736	36.97
334.201	45.97
334.666	43.87
335.131	41.77
335.596	41.67
336.061	41.07
336.526	34.97
336.991	37.57
337.456	44.47
337.921	40.07
338.386	36.67
338.851	34.87
339.316	37.47
339.781	36.77
340.246	42.17
340.711	34.77
341.175	44.57
341.64	35.97
342.105	40.47
342.569	47.07
343.034	47.47
343.499	50.47
343.963	50.47
344.428	55.47
344.893	50.07
345.357	50.67
345.822	45.37
346.286	54.27
346.751	55.07
347.215	54.17
347.679	59.77
348.144	72.07
348.608	67.17
349.073	61.07
349.537	61.47
350.001	63.47
350.465	66.37
350.93	66.07
351.394	74.57
351.858	62.87
352.322	70.37
352.786	67.97
353.25	80.87
353.715	86.37
354.179	78.57
354.643	96.17
355.107	105.17
355.571	94.47
356.035	81.07
356.498	90.47
356.962	103.87
357.426	102.27
357.89	97.97
358.354	75.57
358.818	71.47
359.281	64.87
359.745	59.37
360.209	55.17
360.673	58.87
361.136	66.17
361.6	70.47
362.064	63.67
362.527	69.87
362.991	74.77
363.454	64.97
363.918	58.47
364.381	68.87
364.845	59.27
365.308	68.57
365.772	76.67
366.235	75.27
366.698	74.17
367.162	77.17
367.625	75.07
368.088	77.07
368.552	77.37
369.015	71.07
369.478	87.97
369.941	81.57
370.404	81.37
370.867	85.37
371.331	93.17
371.794	92.87
372.257	85.67
372.72	99.97
373.183	94.57
373.646	91.77
374.109	93.67
374.572	96.37
375.035	96.17
375.497	93.47
375.96	92.37
376.423	88.97
376.886	95.27
377.349	96.17
377.811	92.07
378.274	91.17
378.737	97.77
379.199	96.87
379.662	99.57
380.125	106.47
380.587	104.37
381.05	107.37
381.512	113.97
381.975	122.77
382.437	113.37
382.9	107.67
383.362	112.77
383.825	125.87
384.287	128.97
384.75	127.77
385.212	126.57
385.674	129.57
386.136	121.17
386.599	111.97
387.061	117.07
387.523	116.17
387.985	119.67
388.447	128.77
388.91	133.37
389.372	144.07
389.834	133.67
390.296	133.07
390.758	143.17
391.22	145.77
391.682	189.87
392.144	275.07
392.606	211.77
393.068	149.87
393.529	146.97
393.991	143.27
394.453	137.07
394.915	146.87
395.377	170.27
395.838	188.17
396.3	138.47
396.762	131.97
397.224	115.77
397.685	116.57
398.147	119.47
398.608	112.77
399.07	119.77
399.531	123.77
399.993	128.57
400.454	132.77
400.916	131.17
401.377	129.57
401.839	133.87
402.3	134.17
402.762	150.37
403.223	168.67
403.684	153.17
404.145	144.87
404.607	150.87
405.068	147.77
405.529	150.37
405.99	167.97
406.451	159.47
406.913	160.37
407.374	149.57
407.835	150.97
408.296	153.97
408.757	158.77
409.218	175.67
409.679	165.97
410.14	163.47
410.601	161.47
411.062	164.07
411.522	169.17
411.983	172.37
412.444	162.77
412.905	166.87
413.366	170.77
413.826	176.17
414.287	197.57
414.748	244.87
415.208	228.37
415.669	198.67
416.13	188.07
416.59	187.47
417.051	197.77
417.511	204.97
417.972	221.07
418.432	222.37
418.893	270.27
419.353	230.27
419.814	184.37
420.274	172.57
420.734	166.57
421.195	181.67
421.655	174.67
422.115	177.37
422.576	177.47
423.036	184.27
423.496	190.67
423.956	202.57
424.416	214.77
424.876	246.27
425.336	237.17
425.797	244.57
426.257	234.17
426.717	219.77
427.177	220.27
427.637	207.97
428.097	223.27
428.556	231.17
429.016	250.17
429.476	246.57
429.936	253.77
430.396	265.77
430.856	275.27
431.315	291.57
431.775	329.57
432.235	352.87
432.694	323.67
433.154	333.67
433.614	366.37
434.073	316.97
434.533	269.67
434.993	250.07
435.452	263.87
435.912	279.17
436.371	269.57
436.83	255.97
437.29	244.07
437.749	238.47
438.209	224.27
438.668	253.87
439.127	268.47
439.587	247.37
440.046	232.67
440.505	242.17
440.964	254.17
441.424	294.67
441.883	290.67
442.342	242.07
442.801	211.77
443.26	212.87
443.719	206.97
444.178	202.17
444.637	194.87
445.096	211.07
445.555	207.77
446.014	208.27
446.473	206.87
446.932	221.87
447.391	213.87
447.849	214.37
448.308	209.77
448.767	207.07
449.226	219.27
449.685	221.57
450.143	238.17
450.602	221.57
451.061	218.67
451.519	223.97
451.978	222.47
452.436	223.57
452.895	231.27
453.353	233.07
453.812	228.67
454.27	223.87
454.729	226.07
455.187	228.77
455.646	232.67
456.104	246.37
456.562	240.47
457.021	255.27
457.479	249.27
457.937	257.47
458.395	248.27
458.854	240.27
459.312	243.57
459.77	256.27
460.228	242.07
460.686	229.77
461.144	237.17
461.602	234.47
462.06	228.17
462.518	232.47
462.976	240.67
463.434	250.87
463.892	250.47
464.35	255.97
464.808	270.27
465.266	248.17
465.724	257.57
466.181	264.07
466.639	257.87
467.097	277.67
467.555	286.97
468.012	288.67
468.47	300.67
468.928	309.37
469.385	323.47
469.843	325.47
470.3	334.27
470.758	349.17
471.215	368.37
471.673	381.87
472.13	387.47
472.588	399.47
473.045	365.27
473.503	358.27
473.96	376.67
474.417	391.37
474.875	414.47
475.332	453.07
475.789	446.67
476.246	446.87
476.704	465.57
477.161	486.47
477.618	491.07
478.075	538.97
478.532	590.27
478.989	657.17
479.446	771.27
479.903	742.67
480.36	771.57
480.817	828.27
481.274	938.57
481.731	1027.07
482.188	1116.27
482.645	1237.17
483.102	1352.67
483.558	1474.57
484.015	1524.17
484.472	1507.27
484.929	1464.77
485.385	1399.27
485.842	1358.27
486.299	1288.97
486.755	1247.27
487.212	1033.87
487.668	882.47
488.125	811.27
488.582	741.47
489.038	720.47
489.494	678.67
489.951	664.47
490.407	646.07
490.864	623.67
491.32	618.27
491.776	611.17
492.233	619.87
492.689	591.17
493.145	579.17
493.602	574.47
494.058	588.77
494.514	589.57
494.97	618.47
495.426	615.27
495.882	596.47
496.338	586.37
496.794	597.77
497.251	592.27
497.707	613.07
498.163	603.67
498.618	623.27
499.074	621.77
499.53	650.97
499.986	655.47
500.442	621.17
500.898	612.17
501.354	603.67
501.809	619.17
502.265	629.67
502.721	630.47
503.177	642.27
503.632	640.97
504.088	658.17
504.543	683.07
504.999	685.37
505.455	633.77
505.91	604.27
506.366	596.87
506.821	610.87
507.277	598.77
507.732	597.67
508.187	601.27
508.643	608.57
509.098	608.27
509.553	635.97
510.009	646.77
510.464	654.47
510.919	671.57
511.375	676.37
511.83	674.97
512.285	699.47
512.74	733.37
513.195	754.07
513.65	747.57
514.105	734.87
514.56	750.57
515.015	762.77
515.47	778.47
515.925	765.17
516.38	752.17
516.835	770.77
517.29	761.47
517.745	749.07
518.2	737.67
518.655	726.37
519.109	722.07
519.564	711.27
520.019	702.87
520.474	702.87
520.928	703.27
521.383	693.17
521.838	691.97
522.292	684.17
522.747	689.97
523.201	679.97
523.656	681.07
524.11	671.47
524.565	671.47
525.019	670.87
525.474	684.47
525.928	682.07
526.382	684.77
526.837	670.97
527.291	676.07
527.745	676.47
528.2	676.77
528.654	677.07
529.108	666.27
529.562	667.57
530.016	675.97
530.47	675.87
530.925	678.77
531.379	669.87
531.833	679.17
532.287	681.27
532.741	683.87
533.195	679.57
533.649	689.17
534.103	688.87
534.556	684.97
535.01	684.27
535.464	687.37
535.918	691.07
536.372	698.67
536.826	695.37
537.279	692.97
537.733	690.77
538.187	698.97
538.64	700.37
539.094	699.17
539.548	711.87
540.001	701.57
540.455	711.57
540.908	712.57
541.362	726.67
541.815	724.37
542.269	744.97
542.722	738.47
543.175	748.97
543.629	741.47
544.082	766.77
544.536	769.07
544.989	762.97
545.442	775.57
545.895	763.87
546.349	773.17
546.802	772.27
547.255	784.87
547.708	783.87
548.161	795.37
548.614	795.67
549.067	804.77
549.52	797.57
549.973	788.97
550.426	781.87
550.879	783.07
551.332	787.47
551.785	781.57
552.238	780.77
552.691	794.47
553.144	808.87
553.596	827.97
554.049	846.77
554.502	883.07
554.955	891.27
555.407	878.77
555.86	874.87
556.313	882.87
556.765	872.87
557.218	856.17
557.67	862.27
558.123	850.77
558.576	849.97
559.028	851.87
559.48	862.57
559.933	847.87
560.385	814.87
560.838	792.67
561.29	761.67
561.742	768.37
562.195	761.57
562.647	739.97
563.099	766.17
563.551	764.47
564.004	766.17
564.456	759.97
564.908	747.27
565.36	727.07
565.812	716.37
566.264	712.47
566.716	708.47
567.168	702.47
567.62	717.47
568.072	691.97
568.524	680.27
568.976	674.87
569.428	658.87
569.88	658.37
570.332	664.07
570.784	682.37
571.235	670.07
571.687	682.37
572.139	687.77
572.59	690.67
573.042	690.07
573.494	697.47
573.945	687.67
574.397	672.37
574.849	677.37
575.3	677.87
575.752	666.77
576.203	659.67
576.655	670.47
577.106	658.87
577.557	653.47
578.009	655.57
578.46	653.67
578.912	648.37
579.363	658.47
579.814	652.97
580.265	645.87
580.717	660.07
581.168	654.27
581.619	666.37
582.07	673.47
582.521	664.67
582.972	659.07
583.423	670.17
583.875	673.57
584.326	692.97
584.777	738.87
585.227	813.07
585.678	905.27
586.129	988.17
586.58	1048.37
587.031	1134.67
587.482	1269.37
587.933	1451.27
588.384	1262.47
588.834	961.97
589.285	796.27
589.736	765.97
590.186	754.97
590.637	759.57
591.088	729.97
591.538	728.87
591.989	731.47
592.439	722.47
592.89	712.87
593.34	700.87
593.791	708.47
594.241	689.87
594.692	697.07
595.142	687.57
595.593	684.57
596.043	693.17
596.493	700.57
596.943	707.67
597.394	708.07
597.844	703.37
598.294	720.17
598.744	737.57
599.195	771.17
599.645	806.57
600.095	851.67
600.545	907.77
600.995	960.87
601.445	1003.37
601.895	1066.47
602.345	1119.77
602.795	1087.67
603.245	1050.87
603.695	983.47
604.145	941.87
604.594	900.47
605.044	847.77
605.494	777.07
605.944	726.97
606.393	731.87
606.843	721.17
607.293	724.07
607.743	714.67
608.192	729.07
608.642	741.47
609.091	749.17
609.541	765.87
609.99	753.97
610.44	749.97
610.889	702.47
611.339	691.17
611.788	677.47
612.238	691.27
612.687	708.87
613.136	717.07
613.586	729.77
614.035	732.17
614.484	737.67
614.933	743.87
615.383	741.27
615.832	726.87
616.281	715.57
616.73	674.37
617.179	655.87
617.628	642.17
618.077	628.07
618.526	619.77
618.975	607.87
619.424	612.97
619.873	605.27
620.322	605.07
620.771	595.27
621.22	603.27
621.669	590.07
622.118	590.67
622.567	566.47
623.015	558.37
623.464	564.37
623.913	548.97
624.361	543.47
624.81	539.17
625.259	544.97
625.707	543.17
626.156	557.37
626.604	560.27
627.053	547.27
627.501	549.17
627.95	565.77
628.398	576.97
628.847	564.07
629.295	559.97
629.744	563.47
630.192	558.27
630.64	557.17
631.089	547.87
631.537	573.47
631.985	570.87
632.433	590.97
632.881	597.67
633.33	650.17
633.778	633.67
634.226	563.47
634.674	560.07
635.122	577.67
635.57	589.07
636.018	626.17
636.466	569.37
636.914	553.77
637.362	566.47
637.81	562.77
638.258	566.77
638.705	565.77
639.153	610.37
639.601	610.37
640.049	631.47
640.497	654.77
640.944	687.07
641.392	638.57
641.84	605.87
642.287	573.67
642.735	550.37
643.182	559.77
643.63	566.57
644.078	572.87
644.525	583.27
644.973	594.37
645.42	594.77
645.867	613.27
646.315	630.67
646.762	656.37
647.21	685.87
647.657	702.37
648.104	730.97
648.551	760.07
648.999	824.17
649.446	893.57
649.893	994.17
650.34	1151.07
650.787	1374.47
651.234	1703.27
651.682	2239.27
652.129	3080.57
652.576	4436.77
653.023	6558.47
653.47	8971.67
653.917	11125.47
654.363	12832.67
654.81	14123.67
655.257	13421.37
655.704	8768.57
656.151	5208.17
656.598	3373.57
657.044	2380.67
657.491	1829.17
657.938	1468.67
658.385	1232.37
658.831	1070.17
659.278	952.77
659.724	840.17
660.171	778.27
660.618	711.47
661.064	683.27
661.511	656.97
661.957	659.97
662.404	648.37
662.85	644.77
663.296	618.17
663.743	556.37
664.189	536.57
664.635	522.47
665.082	528.17
665.528	522.07
665.974	514.27
666.42	506.47
666.867	507.87
667.313	485.77
667.759	479.07
668.205	471.27
668.651	480.37
669.097	479.27
669.543	495.87
669.989	468.27
670.435	450.37
670.881	436.67
671.327	439.07
671.773	461.87
672.219	486.67
672.665	544.97
673.11	586.37
673.556	625.17
674.002	668.67
674.448	645.37
674.893	525.87
675.339	463.57
675.785	435.27
676.23	408.57
676.676	387.17
677.122	377.97
677.567	362.37
678.013	363.37
678.458	351.27
678.904	355.17
679.349	339.07
679.794	346.67
680.24	343.97
680.685	338.57
681.131	348.17
681.576	344.17
682.021	351.27
682.466	343.57
682.912	345.37
683.357	347.77
683.802	374.47
684.247	402.07
684.692	456.07
685.137	484.27
685.583	529.57
686.028	550.27
686.473	503.67
686.918	438.67
687.363	410.97
687.807	394.07
688.252	357.27
688.697	355.67
689.142	328.17
689.587	327.27
690.032	316.67
690.477	332.87
690.921	348.07
691.366	375.47
691.811	391.97
692.255	418.97
692.7	451.67
693.145	497.37
693.589	691.77
694.034	1134.07
694.478	1525.37
694.923	1713.67
695.367	2235.07
695.812	1181.87
696.256	494.47
696.701	370.67
697.145	339.67
697.59	324.77
698.034	315.57
698.478	322.37
698.922	322.57
699.367	320.67
699.811	339.37
700.255	349.47
700.699	378.07
701.143	416.47
701.588	471.37
702.032	504.87
702.476	504.07
702.92	483.37
703.364	495.87
703.808	648.27
704.252	1037.27
704.696	1444.67
705.14	1643.67
705.584	2092.17
706.027	1041.27
706.471	510.27
706.915	389.47
707.359	349.87
707.803	313.37
708.246	308.67
708.69	305.67
709.134	307.27
709.577	305.77
710.021	308.57
710.465	296.97
710.908	299.27
711.352	294.57
711.795	307.87
712.239	347.17
712.682	387.97
713.126	409.77
713.569	468.97
714.012	359.87
714.456	313.27
714.899	295.87
715.342	270.37
715.786	262.77
716.229	251.97
716.672	250.27
717.115	245.87
717.558	249.47
718.002	252.27
718.445	256.97
718.888	282.57
719.331	285.77
719.774	309.87
720.217	307.77
720.66	290.17
721.103	261.87
721.546	252.57
721.989	244.17
722.432	236.67
722.874	237.97
723.317	231.17
723.76	231.57
724.203	248.97
724.645	316.87
725.088	441.07
725.531	563.07
725.974	620.17
726.416	542.27
726.859	307.47
727.301	239.97
727.744	230.97
728.187	229.57
728.629	231.37
729.071	238.77
729.514	257.87
729.956	267.57
730.399	276.57
730.841	279.47
731.283	265.07
731.726	263.77
732.168	262.27
732.61	261.07
733.053	278.37
733.495	309.97
733.937	345.47
734.379	398.17
734.821	425.47
735.263	545.77
735.705	847.27
736.148	1589.47
736.59	2562.07
737.032	2993.37
737.474	2434.57
737.916	790.37
738.357	418.97
738.799	330.77
739.241	298.97
739.683	281.77
740.125	285.47
740.567	295.47
741.008	307.57
741.45	311.17
741.892	313.67
742.334	344.37
742.775	354.17
743.217	335.67
743.658	264.67
744.1	248.57
744.542	256.97
744.983	310.07
745.425	333.17
745.866	333.57
746.307	278.17
746.749	282.87
747.19	321.07
747.632	464.77
748.073	887.07
748.514	1863.77
748.956	2810.57
749.397	3534.37
749.838	2939.87
750.279	2904.37
750.72	1468.07
751.162	541.57
751.603	318.97
752.044	247.57
752.485	215.67
752.926	204.97
753.367	197.07
753.808	193.37
754.249	188.67
754.69	187.07
755.131	177.87
755.572	185.77
756.013	175.27
756.453	176.17
756.894	191.97
757.335	183.27
757.776	193.97
758.216	192.07
758.657	200.47
759.098	201.37
759.538	229.77
759.979	263.67
760.42	371.87
760.86	710.77
761.301	1843.37
761.741	4426.17
762.182	6304.17
762.622	4438.37
763.063	1295.97
763.503	541.87
763.943	345.37
764.384	342.47
764.824	395.37
765.264	424.47
765.705	299.47
766.145	197.47
766.585	188.07
767.025	176.67
767.465	185.87
767.906	239.57
768.346	312.47
768.786	330.47
769.226	250.17
769.666	319.57
770.106	634.97
770.546	1559.07
770.986	2610.47
771.426	2323.57
771.866	783.77
772.306	327.17
772.745	206.97
773.185	171.37
773.625	168.17
774.065	157.77
774.505	194.07
774.944	304.97
775.384	663.17
775.824	1182.27
776.263	1143.87
776.703	490.77
777.142	217.57
777.582	155.27
778.021	135.47
778.461	140.87
778.9	135.97
779.34	131.97
779.779	116.87
780.219	110.67
780.658	104.47
781.097	114.17
781.537	114.77
781.976	106.97
782.415	103.37
782.855	105.17
783.294	106.97
783.733	109.67
784.172	102.87
784.611	105.07
785.05	110.77
785.489	112.17
785.928	120.37
786.367	120.67
786.806	111.77
787.245	128.27
787.684	135.17
788.123	150.87
788.562	126.57
789.001	126.77
789.44	118.37
789.879	116.77
790.317	124.17
790.756	125.57
791.195	126.37
791.634	148.67
792.072	205.77
792.511	375.87
792.95	1022.17
793.388	2099.07
793.827	1885.97
794.265	672.27
794.704	278.37
795.142	184.97
795.581	144.77
796.019	136.47
796.458	133.47
796.896	123.17
797.334	129.77
797.773	157.07
798.211	214.67
798.649	450.27
799.087	1027.67
799.526	1581.27
799.964	2007.87
800.402	1969.57
800.84	756.57
801.278	298.67
801.716	181.97
802.154	146.97
802.592	144.37
803.03	134.87
803.468	131.37
803.906	142.27
804.344	149.97
804.782	131.87
805.22	132.17
805.658	128.87
806.096	141.57
806.533	158.97
806.971	168.57
807.409	217.27
807.847	319.77
808.284	667.97
808.722	1867.67
809.16	3246.17
809.597	3128.07
810.035	5376.87
810.472	5624.07
810.91	2041.67
811.347	795.07
811.785	398.97
812.222	249.17
812.66	189.07
813.097	171.07
813.535	142.77
813.972	127.77
814.409	112.17
814.846	110.87
815.284	106.77
815.721	103.47
816.158	107.37
816.595	123.87
817.032	167.57
817.47	191.57
817.907	159.47
818.344	146.87
818.781	119.47
819.218	102.87
819.655	121.57
820.092	184.27
820.529	213.07
820.966	170.67
821.403	122.17
821.839	103.47
822.276	102.17
822.713	120.07
823.15	129.07
823.587	116.67
824.023	143.37
824.46	305.27
824.897	905.07
825.333	1334.67
825.77	569.67
826.206	229.67
826.643	134.67
827.08	106.27
827.516	84.87
827.953	80.57
828.389	82.87
828.825	64.17
829.262	70.27
829.698	60.37
830.135	62.37
830.571	62.57
831.007	62.47
831.443	62.67
831.88	63.37
832.316	61.87
832.752	57.27
833.188	63.87
833.624	59.47
834.06	61.77
834.497	67.37
834.933	67.17
835.369	74.97
835.805	73.67
836.241	74.67
836.677	82.97
837.112	87.67
837.548	101.97
837.984	133.57
838.42	198.17
838.856	500.67
839.292	1515.37
839.727	2262.97
840.163	1053.07
840.599	927.67
841.034	2023.87
841.47	2061.77
841.906	763.97
842.341	327.87
842.777	223.27
843.212	309.37
843.648	294.87
844.083	157.17
844.519	96.07
844.954	72.77
845.39	62.77
845.825	65.37
846.261	53.67
846.696	56.37
847.131	49.57
847.566	64.17
848.002	50.67
848.437	50.77
848.872	56.17
849.307	53.77
849.742	85.57
850.177	176.27
850.613	554.37
851.048	856.77
851.483	373.57
851.918	149.57
852.353	84.57
852.788	64.17
853.223	55.77
853.657	59.17
854.092	49.67
854.527	40.37
854.962	35.47
855.397	46.37
855.832	47.27
856.266	47.97
856.701	40.67
857.136	33.67
857.57	41.97
858.005	51.97
858.44	57.87
858.874	43.77
859.309	48.77
859.743	39.87
860.178	45.77
860.612	43.57
861.047	52.47
861.481	70.47
861.915	67.07
862.35	53.27
862.784	40.47
863.218	36.77
863.653	38.37
864.087	47.47
864.521	54.17
864.955	73.17
865.39	165.17
865.824	175.07
866.258	113.77
866.692	162.87
867.126	174.57
867.56	97.37
867.994	48.47
868.428	40.37
868.862	45.47
869.296	52.67
869.73	54.77
870.164	49.57
870.598	40.27
871.031	36.87
871.465	27.17
871.899	30.87
872.333	25.87
872.766	21.97
873.2	28.47
873.634	28.77
874.067	25.57
874.501	27.87
874.935	34.37
875.368	27.77
875.802	29.77
876.235	24.87
876.669	21.97
877.102	21.57
877.535	25.17
877.969	22.77
878.402	22.37
878.836	14.87
879.269	25.97
879.702	28.57
880.135	18.57
880.569	16.27
881.002	32.37
881.435	17.87
881.868	13.77
882.301	19.57
882.734	18.37
883.167	22.17
883.601	21.77
884.034	21.17
884.467	11.37
884.899	18.57
885.332	18.07
885.765	11.67
886.198	16.27
886.631	16.97
887.064	20.07
887.497	22.37
887.929	22.07
888.362	12.37
888.795	9.67
889.228	16.57
889.66	20.57
890.093	16.07
890.526	19.17
890.958	10.37
891.391	12.47
891.823	23.57
892.256	16.07
892.688	11.97
893.121	15.97
893.553	14.27
893.985	18.97
894.418	10.27
894.85	9.77
895.282	13.87
895.715	20.17
896.147	18.77
896.579	19.37
897.011	9.17
897.444	16.77
897.876	13.47
898.308	14.97
898.74	19.17
899.172	15.47
899.604	29.77
900.036	19.77
900.468	14.57
900.9	10.77
901.332	19.97
901.764	11.67
902.196	19.27
902.628	16.47
903.06	13.47
903.491	28.67
903.923	24.87
904.355	17.17
904.787	23.67
905.218	17.77
905.65	15.37
906.082	10.77
906.513	12.07
906.945	10.27
907.376	15.17
907.808	17.37
908.239	25.87
908.671	18.07
909.102	23.17
909.534	24.07
909.965	46.97
910.397	92.27
910.828	314.97
911.259	463.57
911.691	211.47
912.122	105.77
912.553	52.37
912.984	39.17
913.415	26.67
913.847	16.97
914.278	22.27
914.709	17.07
915.14	18.27
915.571	16.67
916.002	5.07
916.433	14.87
916.864	16.47
917.295	17.27
917.726	23.77
918.157	18.87
918.587	25.47
919.018	21.27
919.449	18.07
919.88	27.07
920.311	35.87
920.741	47.57
921.172	171.07
921.603	148.57
922.033	64.27
922.464	48.17
922.895	27.97
923.325	20.27
923.756	14.17
924.186	20.07
924.617	22.97
925.047	42.37
925.478	51.27
925.908	45.17
926.338	24.67
926.769	20.17
927.199	20.57
927.629	9.77
928.06	20.87
928.49	13.67
928.92	9.57
929.35	12.87
929.78	14.07
930.21	6.07
930.641	6.17
931.071	6.17
931.501	3.47
931.931	9.17
932.361	7.47
932.791	2.17
933.221	3.77
933.651	8.47
934.08	23.27
934.51	33.47
934.94	6.67
935.37	8.17
935.8	12.07
936.229	11.77
936.659	8.47
937.089	-0.63
937.519	7.77
937.948	32.37
938.378	14.87
938.807	5.07
939.237	4.47
939.666	12.57
940.096	2.47
940.525	1.57
940.955	2.57
941.384	5.07
941.814	-8.13
942.243	-7.03
942.672	4.97
943.102	-3.83
943.531	2.37
943.96	9.97
944.39	5.57
944.819	-2.93
945.248	-1.03
945.677	0.87
946.106	1.87
946.535	4.77
946.964	-1.03
947.393	2.67
947.822	5.07
948.251	0.87
948.68	3.27
949.109	3.57
949.538	6.77
949.967	1.17
950.396	-4.53
950.825	-3.43
951.254	-0.23
951.682	-7.63
952.111	6.97
952.54	3.77
952.969	-10.43
953.397	-5.03
953.826	2.07
954.254	-6.43
954.683	1.37
955.112	-1.33
955.54	5.17
955.969	-3.43
956.397	4.57
956.826	1.27
957.254	3.87
957.682	1.37
958.111	3.17
958.539	-3.03
958.967	-1.73
959.396	-3.43
959.824	-0.23
960.252	5.47
960.68	-4.83
961.109	-4.33
961.537	-2.93
961.965	2.77
962.393	-1.13
962.821	-3.63
963.249	-0.63
963.677	6.57
964.105	10.47
964.533	45.67
964.961	41.07
965.389	15.17
965.817	6.47
966.245	6.87
966.672	-2.83
967.1	-13.73
967.528	1.87
967.956	-4.13
968.383	4.67
968.811	-4.13
969.239	-2.43
969.666	-5.63
970.094	-0.43
970.522	0.97
970.949	1.77
971.377	-3.33
971.804	-3.03
972.232	-2.83
972.659	-2.43
973.087	-9.93
973.514	-3.13
973.941	-5.23
974.369	0.67
974.796	-3.83
975.223	0.17
975.651	1.07
976.078	5.27
976.505	-0.13
976.932	3.57
977.359	14.57
977.786	11.87
978.214	2.67
978.641	1.77
979.068	-5.43
979.495	-2.63
979.922	5.47
980.349	-6.13
980.776	-1.93
981.202	-0.23
981.629	5.07
982.056	-0.03
982.483	-4.83
982.91	-1.03
983.337	-7.83
983.763	3.27
984.19	-6.23
984.617	-3.43
985.043	-2.43
985.47	-5.03
985.897	-3.03
986.323	-8.83
986.75	3.07
987.176	-5.23
987.603	-5.23
988.029	0.37
988.456	-5.43
988.882	2.87
989.308	-4.83
989.735	-7.53
990.161	1.87
990.587	-6.63
991.014	-6.13
991.44	2.17
991.866	-6.73
992.292	-5.23
992.719	0.47
993.145	2.27
993.571	-9.53
993.997	-2.33
994.423	-7.83
994.849	-5.93
995.275	0.17
995.701	1.27
996.127	-4.73
996.553	1.87
996.979	-0.63
997.405	-0.53
997.83	-12.43
998.256	-1.13
998.682	-7.73
999.108	-8.93
999.534	-0.43
999.959	-8.93
1000.385	0.77
1000.811	-4.33
1001.236	-14.63
1001.662	-15.43
1002.087	-10.53
1002.513	-4.43
1002.938	-1.83
1003.364	-5.03
1003.789	-1.63
1004.215	5.77
1004.64	-3.23
1005.066	-0.73
1005.491	-5.63
1005.916	-2.53
1006.342	-5.83
1006.767	-3.73
1007.192	3.87
1007.617	-6.03
1008.042	-5.63
1008.468	-5.53
1008.893	-3.93
1009.318	-4.43
1009.743	-3.03
1010.168	-2.43
1010.593	-2.73
1011.018	-8.73
1011.443	-8.43
1011.868	0.17
1012.293	-0.63
1012.718	-6.53
1013.143	-0.93
1013.567	1.77
1013.992	-2.13
1014.417	-14.43
1014.842	2.37
1015.267	-2.83
1015.691	-7.03
1016.116	3.17
1016.541	-2.13
1016.965	5.07
1017.39	-7.73
1017.814	-4.53
1018.239	-0.93
1018.663	-8.43
1019.088	-8.63
1019.512	-2.83
1019.937	-0.33
1020.361	-0.73
1020.785	-8.63
1021.21	-3.23
1021.634	4.97
1022.058	-0.33
1022.483	4.27
1022.907	-4.13
1023.331	-3.13
1023.755	-5.13
1024.179	0.77
1024.604	-6.23
1025.028	-7.63
1025.452	-5.23
1025.876	-4.13
1026.3	-5.03
1026.724	-11.13
1027.148	-8.23
1027.572	-6.73
1027.996	-7.83
1028.42	-6.43
1028.843	-3.93
1029.267	-5.43
1029.691	-3.63
1030.115	-6.73
1030.539	-4.93
1030.962	-4.63
1031.386	-13.53
1031.81	-0.03
1032.233	-0.63
1032.657	-1.73
1033.08	-8.43
1033.504	0.47
1033.927	-5.33
1034.351	-1.23
1034.774	-4.53
1035.198	-4.73
1035.621	-11.73
1036.045	-10.33
1036.468	-1.03
1036.891	-10.43
1037.315	-7.83
1037.738	-6.03
1038.161	0.37
1038.584	-3.33
1039.008	-8.03
1039.431	-3.63
1039.854	-7.13
1040.277	-8.43
1040.7	-8.73
1041.123	1.47
1041.546	-8.73
1041.969	-3.43
1042.392	-5.63
1042.815	1.47
1043.238	-0.23
1043.661	-0.13
1044.084	-12.83
1044.507	-4.33
1044.93	-10.23
1045.352	-9.13
1045.775	-3.93
1046.198	-5.73
1046.621	0.87
1047.043	3.57
1047.466	5.87
1047.889	-8.93
1048.311	-5.63
1048.734	-4.93
1049.156	-0.33
1049.579	-3.93
1050.001	-2.23
1050.424	-2.93
1050.846	-2.43
1051.269	-2.43
1051.691	-10.23
1052.113	-6.83
1052.536	-0.53
1052.958	-7.73
1053.38	-4.03
1053.802	-14.83
1054.225	-0.23
1054.647	-8.03
1055.069	-5.33
1055.491	3.77
1055.913	-8.53
1056.335	-1.73
1056.757	-9.33
1057.179	-3.03
1057.601	-3.93
1058.023	-2.33
1058.445	-0.33
1058.867	-6.73
1059.289	-2.93
1059.711	-5.23
1060.133	1.37
1060.555	-4.23
1060.976	-7.43
1061.398	-13.13
1061.82	-4.43
1062.241	-4.93
1062.663	-5.53
1063.085	-2.83
1063.506	-4.93
1063.928	-3.53
1064.35	0.47
1064.771	-13.83
1065.193	-10.73
1065.614	-8.73
1066.035	-5.03
1066.457	-10.23
1066.878	2.67
1067.3	-2.53
1067.721	-4.93
1068.142	1.77
1068.564	-4.23
1068.985	-2.53
1069.406	-4.33
1069.827	-7.43
1070.248	0.57
1070.67	-7.73
1071.091	-8.43
1071.512	-5.93
1071.933	-8.93
1072.354	-10.83
1072.775	-7.53
1073.196	-7.93
1073.617	-12.83
1074.038	-9.23
1074.459	-4.83
1074.88	-12.33
1075.3	-1.63
1075.721	-9.63
1076.142	-3.93
1076.563	-6.63
1076.983	-8.23
1077.404	-7.83
1077.825	-13.13
1078.246	4.37
1078.666	-12.63
1079.087	-6.93
1079.507	-6.53
1079.928	-6.03
1080.348	-4.73
1080.769	-7.43
1081.189	-5.33
1081.61	-6.63
1082.03	-9.33
1082.451	-10.23
1082.871	-4.73
1083.291	-2.63
1083.711	-5.93
1084.132	-6.13
1084.552	-4.73
1084.972	-5.53
1085.392	-14.43
1085.813	-7.53
1086.233	-12.33
1086.653	-9.63
1087.073	-0.93
1087.493	-3.33
1087.913	-10.93
1088.333	-7.23
1088.753	-5.33
1089.173	1.87
1089.593	-1.93
1090.013	-2.23
1090.433	-5.53
1090.852	-5.63
1091.272	-2.13
1091.692	-1.73
1092.112	-2.53
1092.531	-12.03
1092.951	-15.23
1093.371	-3.43
1093.79	-2.13
1094.21	-5.43
1094.63	-8.23
1095.049	-3.23
1095.469	-3.63
1095.888	-0.83
1096.308	-4.73
1096.727	4.77
1097.146	-10.33
1097.566	-1.83
1097.985	-7.43
1098.405	-4.23
1098.824	-6.03
1099.243	-2.93
1099.662	-7.13
1100.082	-9.63
1100.501	-3.33
1100.92	-6.03
1101.339	-5.33
1101.758	-4.33
