Data from 20171114-ORNL-Ar_H_NY_Subt18_08-08-04-738.txt Node
Date: Tue Nov 14 08:08:04 EST 2017
User: Ender
Spectrometer: HR+D1039
Trigger mode: 0
Integration Time (sec): 2.730000E-2
Scans to average: 10
Electric dark correction enabled: true
Nonlinearity correction enabled: false
Boxcar width: 0
XAxis mode: Wavelengths
Number of Pixels in Spectrum: 2048
>>>>>Begin Spectral Data<<<<<
187.836	-10.69
188.309	-10.69
188.782	-10.69
189.255	-2.69
189.728	-1.69
190.201	5.21
190.674	1.51
191.147	5.01
191.619	-3.79
192.092	4.61
192.565	7.71
193.038	-2.69
193.511	-0.19
193.984	-0.79
194.456	0.01
194.929	4.81
195.402	-4.59
195.874	-1.79
196.347	-2.59
196.82	-3.19
197.292	6.21
197.765	-0.89
198.237	-3.69
198.71	0.71
199.182	-0.89
199.655	-1.09
200.127	2.51
200.6	-3.19
201.072	-4.89
201.544	-6.59
202.017	-0.89
202.489	2.71
202.961	-4.59
203.433	-5.59
203.906	-7.29
204.378	-4.39
204.85	-0.49
205.322	-9.19
205.794	0.51
206.266	-0.49
206.739	-9.59
207.211	-0.29
207.683	-1.29
208.155	-2.89
208.627	-3.19
209.099	-0.89
209.57	-5.89
210.042	-3.09
210.514	-4.19
210.986	1.81
211.458	-4.09
211.93	-7.29
212.402	1.51
212.873	-4.49
213.345	-7.69
213.817	-13.89
214.288	-4.99
214.76	-9.19
215.232	-0.19
215.703	-2.99
216.175	1.11
216.646	-8.29
217.118	-5.69
217.589	-6.99
218.061	-6.29
218.532	-0.79
219.004	1.11
219.475	-4.19
219.946	-1.49
220.418	-0.49
220.889	-1.29
221.36	3.81
221.832	-2.79
222.303	-10.09
222.774	2.21
223.245	-7.29
223.717	-7.99
224.188	-8.09
224.659	-4.39
225.13	-7.59
225.601	-8.49
226.072	-3.09
226.543	-0.19
227.014	0.81
227.485	-4.89
227.956	-6.99
228.427	-4.79
228.898	4.91
229.369	1.21
229.839	0.21
230.31	-0.89
230.781	2.11
231.252	-2.59
231.722	-7.39
232.193	-2.69
232.664	-4.89
233.135	2.01
233.605	0.11
234.076	-2.89
234.546	1.01
235.017	7.91
235.487	1.71
235.958	5.21
236.428	-1.49
236.899	6.01
237.369	1.01
237.84	-5.89
238.31	9.81
238.78	5.51
239.251	-0.59
239.721	3.31
240.191	-1.89
240.662	-1.49
241.132	1.71
241.602	-3.19
242.072	2.51
242.542	2.71
243.013	3.61
243.483	4.81
243.953	-4.19
244.423	1.21
244.893	2.21
245.363	4.41
245.833	1.81
246.303	4.61
246.773	5.71
247.243	5.11
247.712	3.81
248.182	10.11
248.652	4.11
249.122	1.11
249.592	9.51
250.061	20.31
250.531	25.01
251.001	15.71
251.471	22.51
251.94	13.41
252.41	11.31
252.879	0.81
253.349	12.11
253.818	10.31
254.288	2.81
254.757	5.41
255.227	3.31
255.696	2.21
256.166	4.51
256.635	4.41
257.105	6.31
257.574	9.31
258.043	9.61
258.513	15.81
258.982	17.71
259.451	7.21
259.92	14.91
260.389	12.91
260.859	15.41
261.328	15.91
261.797	12.41
262.266	8.91
262.735	16.81
263.204	4.01
263.673	-0.09
264.142	0.21
264.611	-5.39
265.08	1.21
265.549	-1.49
266.018	8.21
266.487	-5.39
266.955	-0.09
267.424	-0.39
267.893	10.71
268.362	4.51
268.83	7.21
269.299	9.01
269.768	8.91
270.236	7.41
270.705	6.71
271.174	12.31
271.642	7.61
272.111	13.11
272.579	16.21
273.048	18.71
273.516	27.41
273.985	23.51
274.453	27.21
274.922	18.41
275.39	11.61
275.858	1.91
276.327	7.01
276.795	17.41
277.263	11.51
277.731	30.51
278.2	50.91
278.668	58.21
279.136	40.81
279.604	22.51
280.072	17.31
280.54	14.01
281.008	2.21
281.477	14.51
281.945	12.71
282.413	13.61
282.881	14.31
283.348	11.11
283.816	16.91
284.284	12.21
284.752	21.21
285.22	16.81
285.688	21.91
286.156	26.11
286.623	45.31
287.091	57.21
287.559	24.41
288.026	22.91
288.494	20.71
288.962	0.91
289.429	7.21
289.897	20.81
290.364	13.51
290.832	16.91
291.3	12.11
291.767	18.71
292.234	13.81
292.702	16.11
293.169	18.61
293.637	19.61
294.104	19.81
294.571	9.71
295.039	12.81
295.506	18.41
295.973	19.51
296.44	17.91
296.908	16.71
297.375	24.41
297.842	17.61
298.309	17.61
298.776	17.21
299.243	20.81
299.71	9.71
300.177	22.01
300.644	13.21
301.111	15.61
301.578	19.81
302.045	12.01
302.512	28.71
302.979	21.41
303.446	21.31
303.913	18.91
304.379	19.01
304.846	28.81
305.313	17.01
305.78	24.31
306.246	24.11
306.713	25.21
307.18	29.71
307.646	30.61
308.113	27.81
308.579	22.51
309.046	17.61
309.512	20.91
309.979	20.91
310.445	28.71
310.912	29.91
311.378	37.51
311.845	26.81
312.311	27.61
312.777	29.81
313.244	28.71
313.71	34.91
314.176	27.11
314.642	24.71
315.109	35.71
315.575	36.21
316.041	35.21
316.507	33.21
316.973	36.51
317.439	39.41
317.905	32.21
318.371	32.71
318.837	28.21
319.303	34.21
319.769	31.21
320.235	32.11
320.701	31.41
321.167	34.01
321.633	32.71
322.099	40.71
322.564	44.51
323.03	40.11
323.496	32.71
323.962	41.71
324.427	44.11
324.893	41.11
325.359	40.11
325.824	33.61
326.29	38.31
326.755	39.51
327.221	40.21
327.686	39.81
328.152	45.81
328.617	44.41
329.083	49.31
329.548	53.61
330.014	46.11
330.479	36.31
330.944	37.91
331.41	40.51
331.875	41.81
332.34	42.21
332.805	43.71
333.271	44.01
333.736	44.31
334.201	50.81
334.666	47.71
335.131	47.41
335.596	48.91
336.061	52.31
336.526	40.71
336.991	45.31
337.456	52.71
337.921	44.91
338.386	42.81
338.851	42.11
339.316	48.21
339.781	44.01
340.246	47.51
340.711	47.41
341.175	45.71
341.64	45.71
342.105	51.21
342.569	48.61
343.034	55.91
343.499	51.31
343.963	53.21
344.428	66.21
344.893	63.71
345.357	57.31
345.822	60.71
346.286	65.51
346.751	71.11
347.215	67.11
347.679	72.41
348.144	92.21
348.608	77.21
349.073	70.41
349.537	75.81
350.001	76.91
350.465	86.11
350.93	70.51
351.394	80.51
351.858	78.01
352.322	84.31
352.786	82.21
353.25	98.31
353.715	110.11
354.179	95.21
354.643	122.71
355.107	121.31
355.571	100.11
356.035	103.31
356.498	115.41
356.962	121.31
357.426	131.11
357.89	117.71
358.354	88.11
358.818	79.91
359.281	85.71
359.745	78.91
360.209	85.51
360.673	80.71
361.136	88.51
361.6	81.11
362.064	85.01
362.527	83.31
362.991	89.81
363.454	82.51
363.918	81.31
364.381	74.21
364.845	85.21
365.308	86.91
365.772	84.21
366.235	85.81
366.698	77.11
367.162	84.01
367.625	89.71
368.088	91.01
368.552	88.11
369.015	86.01
369.478	105.71
369.941	99.61
370.404	92.01
370.867	101.01
371.331	110.41
371.794	120.71
372.257	112.21
372.72	116.41
373.183	111.21
373.646	106.91
374.109	106.21
374.572	102.61
375.035	104.31
375.497	115.71
375.96	106.41
376.423	102.91
376.886	110.11
377.349	107.61
377.811	103.51
378.274	111.51
378.737	108.21
379.199	112.51
379.662	110.71
380.125	109.01
380.587	124.61
381.05	127.61
381.512	127.31
381.975	135.11
382.437	128.11
382.9	131.31
383.362	136.21
383.825	144.11
384.287	145.91
384.75	138.11
385.212	138.61
385.674	139.51
386.136	143.81
386.599	124.01
387.061	141.31
387.523	131.01
387.985	140.21
388.447	146.71
388.91	145.41
389.372	161.01
389.834	157.51
390.296	150.11
390.758	164.61
391.22	178.31
391.682	216.91
392.144	319.41
392.606	235.71
393.068	172.01
393.529	176.91
393.991	158.41
394.453	150.41
394.915	162.51
395.377	205.21
395.838	224.81
396.3	159.71
396.762	142.81
397.224	136.31
397.685	128.91
398.147	135.31
398.608	135.11
399.07	133.51
399.531	129.91
399.993	137.01
400.454	151.61
400.916	143.01
401.377	147.71
401.839	155.21
402.3	149.91
402.762	164.51
403.223	182.31
403.684	169.51
404.145	160.31
404.607	165.11
405.068	171.71
405.529	179.11
405.99	193.21
406.451	177.41
406.913	172.71
407.374	162.71
407.835	158.31
408.296	162.81
408.757	181.71
409.218	188.41
409.679	181.51
410.14	176.21
410.601	175.91
411.062	185.11
411.522	195.31
411.983	194.21
412.444	176.21
412.905	188.91
413.366	182.11
413.826	193.11
414.287	218.31
414.748	264.31
415.208	245.31
415.669	212.21
416.13	213.31
416.59	203.31
417.051	211.81
417.511	224.31
417.972	240.91
418.432	247.31
418.893	290.21
419.353	249.21
419.814	198.41
420.274	185.41
420.734	181.21
421.195	201.41
421.655	192.31
422.115	195.31
422.576	195.91
423.036	199.21
423.496	208.61
423.956	218.11
424.416	229.21
424.876	262.21
425.336	261.71
425.797	262.71
426.257	258.51
426.717	241.11
427.177	234.61
427.637	228.91
428.097	237.11
428.556	246.91
429.016	275.31
429.476	266.31
429.936	284.31
430.396	280.11
430.856	296.21
431.315	317.71
431.775	355.01
432.235	389.91
432.694	363.61
433.154	373.51
433.614	397.01
434.073	347.31
434.533	295.41
434.993	270.81
435.452	283.01
435.912	299.11
436.371	293.71
436.83	294.31
437.29	275.71
437.749	245.21
438.209	255.21
438.668	276.91
439.127	292.51
439.587	259.31
440.046	249.41
440.505	264.11
440.964	277.81
441.424	327.21
441.883	308.91
442.342	263.81
442.801	224.81
443.26	223.11
443.719	217.81
444.178	220.81
444.637	203.01
445.096	221.71
445.555	223.61
446.014	223.41
446.473	233.01
446.932	236.71
447.391	223.21
447.849	228.11
448.308	222.51
448.767	222.61
449.226	237.81
449.685	233.71
450.143	241.41
450.602	240.81
451.061	230.11
451.519	234.81
451.978	229.21
452.436	227.31
452.895	241.01
453.353	254.11
453.812	245.21
454.27	240.51
454.729	233.81
455.187	240.61
455.646	247.11
456.104	254.21
456.562	261.81
457.021	275.31
457.479	264.51
457.937	274.21
458.395	261.11
458.854	247.31
459.312	256.01
459.77	280.21
460.228	255.11
460.686	242.61
461.144	257.21
461.602	252.21
462.06	248.11
462.518	258.81
462.976	255.21
463.434	261.81
463.892	260.71
464.35	280.61
464.808	286.61
465.266	272.11
465.724	261.31
466.181	269.61
466.639	276.51
467.097	292.41
467.555	296.31
468.012	300.61
468.47	307.01
468.928	322.41
469.385	335.61
469.843	355.21
470.3	349.21
470.758	364.51
471.215	376.81
471.673	411.71
472.13	406.11
472.588	420.61
473.045	372.51
473.503	380.81
473.96	394.31
474.417	408.61
474.875	430.21
475.332	472.51
475.789	470.21
476.246	459.31
476.704	482.91
477.161	510.81
477.618	525.61
478.075	566.11
478.532	614.21
478.989	690.81
479.446	811.91
479.903	779.11
480.36	819.61
480.817	866.71
481.274	965.11
481.731	1060.71
482.188	1166.11
482.645	1309.11
483.102	1400.61
483.558	1547.81
484.015	1587.91
484.472	1563.01
484.929	1528.21
485.385	1484.41
485.842	1420.81
486.299	1359.11
486.755	1306.11
487.212	1096.31
487.668	933.61
488.125	855.31
488.582	776.81
489.038	749.31
489.494	703.21
489.951	679.61
490.407	665.01
490.864	643.51
491.32	643.81
491.776	633.21
492.233	644.01
492.689	604.51
493.145	608.51
493.602	598.41
494.058	614.81
494.514	615.51
494.97	633.71
495.426	650.61
495.882	621.11
496.338	610.61
496.794	621.91
497.251	621.41
497.707	624.71
498.163	638.31
498.618	639.81
499.074	644.41
499.53	669.21
499.986	671.71
500.442	652.91
500.898	626.71
501.354	622.91
501.809	635.91
502.265	641.11
502.721	653.61
503.177	679.51
503.632	667.31
504.088	674.31
504.543	716.51
504.999	708.01
505.455	656.81
505.91	632.51
506.366	628.91
506.821	625.11
507.277	626.81
507.732	615.51
508.187	623.41
508.643	624.11
509.098	624.91
509.553	652.41
510.009	660.31
510.464	653.41
510.919	686.71
511.375	684.81
511.83	700.51
512.285	714.61
512.74	758.71
513.195	784.21
513.65	768.61
514.105	760.61
514.56	766.21
515.015	798.81
515.47	799.41
515.925	794.21
516.38	789.61
516.835	775.61
517.29	782.01
517.745	773.31
518.2	759.41
518.655	741.61
519.109	745.51
519.564	732.11
520.019	725.61
520.474	713.71
520.928	724.41
521.383	710.91
521.838	700.61
522.292	703.71
522.747	702.61
523.201	708.11
523.656	689.71
524.11	701.51
524.565	686.61
525.019	684.51
525.474	697.61
525.928	698.41
526.382	692.71
526.837	698.01
527.291	693.41
527.745	689.11
528.2	690.41
528.654	689.51
529.108	677.81
529.562	683.81
530.016	698.01
530.47	691.61
530.925	682.61
531.379	695.91
531.833	695.01
532.287	692.51
532.741	687.31
533.195	700.61
533.649	704.71
534.103	718.71
534.556	708.81
535.01	706.31
535.464	705.71
535.918	707.81
536.372	712.41
536.826	709.01
537.279	692.31
537.733	706.51
538.187	706.31
538.64	708.91
539.094	713.81
539.548	722.71
540.001	724.61
540.455	720.31
540.908	729.71
541.362	729.41
541.815	745.31
542.269	761.11
542.722	752.51
543.175	764.31
543.629	767.21
544.082	780.51
544.536	780.81
544.989	780.61
545.442	794.61
545.895	785.91
546.349	787.81
546.802	787.41
547.255	786.31
547.708	805.01
548.161	817.91
548.614	813.01
549.067	830.31
549.52	807.41
549.973	803.41
550.426	798.51
550.879	786.51
551.332	799.41
551.785	803.61
552.238	805.71
552.691	806.61
553.144	834.81
553.596	852.31
554.049	862.41
554.502	887.91
554.955	903.71
555.407	889.41
555.86	889.61
556.313	891.21
556.765	880.21
557.218	867.81
557.67	872.81
558.123	870.71
558.576	860.01
559.028	864.81
559.48	872.61
559.933	855.21
560.385	830.71
560.838	816.61
561.29	779.01
561.742	777.41
562.195	765.21
562.647	766.81
563.099	779.11
563.551	768.71
564.004	774.41
564.456	766.11
564.908	750.41
565.36	747.51
565.812	734.51
566.264	721.91
566.716	709.51
567.168	720.41
567.62	731.91
568.072	704.71
568.524	699.91
568.976	693.11
569.428	673.41
569.88	668.61
570.332	673.01
570.784	666.71
571.235	672.81
571.687	685.91
572.139	698.81
572.59	705.81
573.042	704.81
573.494	705.01
573.945	697.91
574.397	674.31
574.849	685.41
575.3	685.51
575.752	674.61
576.203	669.81
576.655	678.51
577.106	667.21
577.557	666.61
578.009	672.71
578.46	666.81
578.912	655.21
579.363	664.31
579.814	674.91
580.265	661.41
580.717	664.71
581.168	667.31
581.619	675.01
582.07	678.51
582.521	675.01
582.972	665.61
583.423	681.81
583.875	677.31
584.326	709.51
584.777	757.61
585.227	842.31
585.678	934.71
586.129	1035.61
586.58	1100.01
587.031	1207.11
587.482	1361.81
587.933	1547.91
588.384	1336.81
588.834	993.91
589.285	809.41
589.736	783.71
590.186	775.31
590.637	764.41
591.088	741.81
591.538	743.11
591.989	739.31
592.439	724.81
592.89	722.91
593.34	709.81
593.791	707.41
594.241	713.51
594.692	706.01
595.142	711.51
595.593	697.81
596.043	715.61
596.493	723.01
596.943	722.11
597.394	727.61
597.844	712.61
598.294	732.11
598.744	758.21
599.195	780.41
599.645	814.71
600.095	851.21
600.545	923.91
600.995	974.71
601.445	1022.71
601.895	1080.01
602.345	1127.61
602.795	1112.21
603.245	1061.81
603.695	1008.51
604.145	960.61
604.594	900.61
605.044	857.91
605.494	801.81
605.944	753.41
606.393	745.71
606.843	719.51
607.293	727.61
607.743	732.81
608.192	745.61
608.642	766.51
609.091	771.61
609.541	776.11
609.99	767.01
610.44	779.31
610.889	725.91
611.339	705.01
611.788	686.81
612.238	700.61
612.687	728.41
613.136	726.61
613.586	740.01
614.035	749.51
614.484	759.91
614.933	760.61
615.383	761.61
615.832	751.61
616.281	723.11
616.73	688.81
617.179	670.21
617.628	648.11
618.077	634.11
618.526	619.21
618.975	621.41
619.424	609.91
619.873	619.01
620.322	615.01
620.771	602.01
621.22	611.31
621.669	591.71
622.118	594.41
622.567	581.71
623.015	571.01
623.464	571.41
623.913	561.81
624.361	554.91
624.81	557.81
625.259	549.91
625.707	547.91
626.156	560.91
626.604	576.61
627.053	568.31
627.501	574.31
627.95	570.81
628.398	584.61
628.847	569.81
629.295	573.41
629.744	584.91
630.192	577.61
630.64	575.41
631.089	570.81
631.537	589.11
631.985	601.61
632.433	609.01
632.881	621.41
633.33	689.51
633.778	664.71
634.226	586.41
634.674	591.91
635.122	587.31
635.57	602.91
636.018	632.01
636.466	580.31
636.914	563.21
637.362	571.11
637.81	578.61
638.258	586.41
638.705	593.61
639.153	606.61
639.601	615.91
640.049	645.51
640.497	667.11
640.944	687.11
641.392	645.91
641.84	618.21
642.287	589.51
642.735	581.11
643.182	576.01
643.63	589.01
644.078	585.51
644.525	591.31
644.973	596.01
645.42	608.81
645.867	628.61
646.315	647.21
646.762	663.51
647.21	699.91
647.657	720.81
648.104	753.01
648.551	779.31
648.999	851.51
649.446	931.31
649.893	1015.31
650.34	1174.61
650.787	1422.41
651.234	1759.41
651.682	2295.71
652.129	3190.01
652.576	4608.21
653.023	6778.91
653.47	9281.91
653.917	11514.61
654.363	13233.51
654.81	14525.61
655.257	13828.21
655.704	9047.51
656.151	5325.61
656.598	3430.61
657.044	2433.31
657.491	1877.21
657.938	1494.51
658.385	1259.21
658.831	1085.61
659.278	967.21
659.724	852.81
660.171	791.61
660.618	730.71
661.064	690.81
661.511	679.81
661.957	654.11
662.404	651.91
662.85	660.11
663.296	632.11
663.743	564.91
664.189	542.51
664.635	544.31
665.082	530.81
665.528	517.71
665.974	524.21
666.42	519.51
666.867	507.51
667.313	498.81
667.759	484.51
668.205	489.21
668.651	497.21
669.097	498.41
669.543	507.31
669.989	477.51
670.435	459.81
670.881	439.71
671.327	452.71
671.773	468.31
672.219	492.81
672.665	545.11
673.11	591.01
673.556	633.91
674.002	666.81
674.448	665.61
674.893	548.11
675.339	480.51
675.785	440.11
676.23	422.61
676.676	404.41
677.122	380.21
677.567	380.21
678.013	366.91
678.458	368.61
678.904	356.11
679.349	348.21
679.794	362.41
680.24	358.91
680.685	350.81
681.131	354.41
681.576	355.61
682.021	357.91
682.466	347.21
682.912	356.41
683.357	352.91
683.802	382.71
684.247	406.41
684.692	462.61
685.137	503.91
685.583	540.21
686.028	565.01
686.473	517.31
686.918	443.01
687.363	419.51
687.807	389.41
688.252	359.31
688.697	359.31
689.142	335.71
689.587	337.21
690.032	330.81
690.477	344.01
690.921	353.71
691.366	384.41
691.811	413.11
692.255	432.61
692.7	458.61
693.145	513.31
693.589	713.41
694.034	1140.81
694.478	1549.11
694.923	1721.31
695.367	2243.71
695.812	1196.51
696.256	493.21
696.701	374.01
697.145	345.41
697.59	333.11
698.034	331.01
698.478	334.11
698.922	330.51
699.367	332.51
699.811	340.81
700.255	356.31
700.699	393.91
701.143	433.51
701.588	481.11
702.032	513.61
702.476	508.31
702.92	490.21
703.364	492.61
703.808	654.01
704.252	1058.01
704.696	1465.21
705.14	1654.91
705.584	2095.51
706.027	1049.01
706.471	515.21
706.915	396.01
707.359	351.11
707.803	314.01
708.246	311.01
708.69	313.41
709.134	317.81
709.577	312.01
710.021	318.11
710.465	303.81
710.908	304.61
711.352	301.51
711.795	328.91
712.239	352.81
712.682	389.01
713.126	421.41
713.569	462.41
714.012	368.41
714.456	327.91
714.899	298.61
715.342	276.31
715.786	260.71
716.229	255.21
716.672	258.11
717.115	248.01
717.558	255.61
718.002	256.31
718.445	265.71
718.888	286.81
719.331	303.11
719.774	315.01
720.217	308.81
720.66	291.01
721.103	271.11
721.546	258.31
721.989	243.21
722.432	237.21
722.874	245.31
723.317	232.01
723.76	231.71
724.203	268.71
724.645	332.91
725.088	452.71
725.531	572.61
725.974	646.41
726.416	536.21
726.859	306.81
727.301	246.71
727.744	241.51
728.187	233.81
728.629	241.41
729.071	243.81
729.514	268.01
729.956	280.41
730.399	277.41
730.841	292.91
731.283	274.41
731.726	272.31
732.168	257.21
732.61	275.91
733.053	289.31
733.495	316.41
733.937	354.31
734.379	397.01
734.821	431.81
735.263	545.91
735.705	852.81
736.148	1607.81
736.59	2592.71
737.032	3016.81
737.474	2453.01
737.916	803.31
738.357	424.41
738.799	327.81
739.241	296.91
739.683	284.41
740.125	295.81
740.567	300.81
741.008	317.41
741.45	321.41
741.892	325.91
742.334	354.31
742.775	357.41
743.217	331.01
743.658	276.01
744.1	259.31
744.542	266.91
744.983	314.21
745.425	345.41
745.866	345.91
746.307	289.11
746.749	289.81
747.19	327.51
747.632	462.41
748.073	902.61
748.514	1896.91
748.956	2825.41
749.397	3558.81
749.838	2951.41
750.279	2906.51
750.72	1487.71
751.162	547.21
751.603	322.11
752.044	257.51
752.485	222.61
752.926	214.31
753.367	202.71
753.808	195.01
754.249	191.51
754.69	185.51
755.131	184.81
755.572	186.51
756.013	183.01
756.453	179.71
756.894	189.11
757.335	190.81
757.776	194.71
758.216	198.31
758.657	200.91
759.098	204.41
759.538	230.71
759.979	275.11
760.42	382.81
760.86	725.71
761.301	1888.91
761.741	4462.51
762.182	6302.71
762.622	4418.61
763.063	1296.91
763.503	535.31
763.943	349.11
764.384	359.01
764.824	426.21
765.264	464.41
765.705	317.51
766.145	212.61
766.585	190.31
767.025	191.31
767.465	188.11
767.906	251.71
768.346	332.61
768.786	359.21
769.226	271.51
769.666	330.71
770.106	647.91
770.546	1612.31
770.986	2612.51
771.426	2312.21
771.866	780.21
772.306	332.71
772.745	214.31
773.185	181.41
773.625	178.91
774.065	165.01
774.505	202.81
774.944	328.21
775.384	739.71
775.824	1293.51
776.263	1239.21
776.703	532.21
777.142	231.31
777.582	168.41
778.021	148.31
778.461	148.01
778.9	147.01
779.34	135.31
779.779	119.61
780.219	111.51
780.658	108.11
781.097	114.61
781.537	113.41
781.976	110.71
782.415	105.81
782.855	104.61
783.294	107.81
783.733	110.41
784.172	111.91
784.611	101.61
785.05	113.21
785.489	117.41
785.928	120.41
786.367	115.11
786.806	122.11
787.245	136.11
787.684	140.71
788.123	152.01
788.562	136.11
789.001	132.91
789.44	121.21
789.879	121.11
790.317	115.81
790.756	133.61
791.195	129.31
791.634	149.11
792.072	210.51
792.511	386.61
792.95	1045.91
793.388	2133.41
793.827	1891.11
794.265	677.91
794.704	285.61
795.142	182.91
795.581	155.71
796.019	147.41
796.458	128.41
796.896	127.81
797.334	135.51
797.773	160.91
798.211	224.71
798.649	451.21
799.087	1042.71
799.526	1610.41
799.964	2004.71
800.402	1963.31
800.84	746.41
801.278	303.61
801.716	186.61
802.154	155.51
802.592	142.91
803.03	139.51
803.468	133.71
803.906	143.21
804.344	152.51
804.782	145.91
805.22	132.31
805.658	122.11
806.096	151.41
806.533	158.81
806.971	173.41
807.409	216.81
807.847	317.41
808.284	681.01
808.722	1909.71
809.16	3250.71
809.597	3158.01
810.035	5398.41
810.472	5627.41
810.91	2047.51
811.347	788.91
811.785	407.41
812.222	256.71
812.66	201.41
813.097	166.81
813.535	139.31
813.972	131.91
814.409	116.51
814.846	110.31
815.284	111.71
815.721	100.11
816.158	105.21
816.595	127.41
817.032	187.11
817.47	202.11
817.907	160.21
818.344	162.91
818.781	118.41
819.218	104.21
819.655	127.81
820.092	189.91
820.529	207.01
820.966	172.51
821.403	130.91
821.839	111.21
822.276	101.11
822.713	122.21
823.15	135.01
823.587	121.01
824.023	153.71
824.46	316.81
824.897	906.51
825.333	1341.11
825.77	574.31
826.206	235.11
826.643	135.11
827.08	103.81
827.516	84.51
827.953	77.31
828.389	78.01
828.825	72.61
829.262	73.11
829.698	65.41
830.135	66.11
830.571	66.81
831.007	65.01
831.443	61.41
831.88	55.61
832.316	60.51
832.752	65.81
833.188	64.81
833.624	63.11
834.06	65.31
834.497	66.61
834.933	70.61
835.369	76.61
835.805	71.61
836.241	77.91
836.677	84.31
837.112	91.81
837.548	100.61
837.984	138.61
838.42	207.91
838.856	509.21
839.292	1533.71
839.727	2263.31
840.163	1059.01
840.599	940.11
841.034	2024.81
841.47	2068.21
841.906	761.11
842.341	339.01
842.777	238.51
843.212	334.81
843.648	318.91
844.083	158.51
844.519	95.91
844.954	79.61
845.39	61.91
845.825	63.11
846.261	63.11
846.696	59.91
847.131	55.61
847.566	62.51
848.002	52.61
848.437	56.21
848.872	58.11
849.307	61.11
849.742	83.51
850.177	185.71
850.613	567.91
851.048	865.61
851.483	377.51
851.918	154.91
852.353	89.01
852.788	62.51
853.223	56.41
853.657	58.41
854.092	52.31
854.527	45.61
854.962	46.21
855.397	38.91
855.832	49.51
856.266	36.91
856.701	37.01
857.136	39.01
857.57	48.41
858.005	55.61
858.44	61.01
858.874	45.41
859.309	51.21
859.743	40.31
860.178	49.31
860.612	40.91
861.047	51.61
861.481	65.91
861.915	71.21
862.35	51.11
862.784	30.21
863.218	38.81
863.653	32.11
864.087	42.11
864.521	53.11
864.955	76.41
865.39	153.01
865.824	182.41
866.258	113.51
866.692	158.81
867.126	171.81
867.56	103.31
867.994	57.01
868.428	44.21
868.862	48.41
869.296	54.71
869.73	56.31
870.164	55.81
870.598	47.61
871.031	38.21
871.465	32.71
871.899	33.91
872.333	26.81
872.766	24.41
873.2	22.11
873.634	33.11
874.067	28.11
874.501	30.51
874.935	31.41
875.368	30.11
875.802	25.21
876.235	23.71
876.669	24.41
877.102	18.21
877.535	25.01
877.969	23.11
878.402	26.71
878.836	19.21
879.269	24.91
879.702	29.31
880.135	17.11
880.569	22.31
881.002	27.01
881.435	25.11
881.868	18.01
882.301	19.61
882.734	14.01
883.167	18.41
883.601	24.51
884.034	22.21
884.467	10.21
884.899	12.91
885.332	20.31
885.765	15.21
886.198	22.21
886.631	18.51
887.064	15.41
887.497	24.61
887.929	26.41
888.362	11.81
888.795	20.81
889.228	17.21
889.66	17.91
890.093	17.81
890.526	16.41
890.958	12.11
891.391	17.81
891.823	22.71
892.256	14.21
892.688	16.61
893.121	20.91
893.553	13.51
893.985	21.11
894.418	19.41
894.85	10.91
895.282	22.11
895.715	21.01
896.147	20.21
896.579	16.61
897.011	14.11
897.444	18.21
897.876	17.61
898.308	20.91
898.74	14.11
899.172	11.41
899.604	26.21
900.036	18.51
900.468	18.31
900.9	13.61
901.332	19.81
901.764	15.61
902.196	16.31
902.628	18.51
903.06	9.81
903.491	29.11
903.923	21.21
904.355	20.71
904.787	25.91
905.218	22.81
905.65	19.91
906.082	12.01
906.513	14.11
906.945	14.21
907.376	16.01
907.808	24.31
908.239	18.91
908.671	21.21
909.102	22.71
909.534	28.31
909.965	49.31
910.397	87.81
910.828	308.01
911.259	460.61
911.691	215.01
912.122	108.01
912.553	53.11
912.984	29.01
913.415	25.21
913.847	25.81
914.278	12.91
914.709	15.31
915.14	19.91
915.571	18.71
916.002	19.41
916.433	23.61
916.864	18.41
917.295	17.51
917.726	21.01
918.157	25.31
918.587	28.31
919.018	21.41
919.449	27.11
919.88	25.81
920.311	31.21
920.741	48.71
921.172	167.91
921.603	146.81
922.033	68.81
922.464	46.71
922.895	21.91
923.325	23.11
923.756	15.01
924.186	17.11
924.617	28.21
925.047	43.11
925.478	53.81
925.908	40.31
926.338	32.01
926.769	22.01
927.199	25.21
927.629	12.11
928.06	13.91
928.49	12.81
928.92	16.81
929.35	10.91
929.78	13.71
930.21	11.91
930.641	8.81
931.071	6.71
931.501	6.41
931.931	3.91
932.361	4.01
932.791	-1.49
933.221	4.01
933.651	12.11
934.08	18.61
934.51	27.91
934.94	11.81
935.37	9.81
935.8	12.51
936.229	2.71
936.659	13.71
937.089	9.01
937.519	15.91
937.948	26.41
938.378	13.31
938.807	5.41
939.237	0.81
939.666	7.91
940.096	-10.79
940.525	-0.49
940.955	2.71
941.384	1.61
941.814	-3.09
942.243	-1.29
942.672	3.41
943.102	-2.49
943.531	-1.29
943.96	4.81
944.39	6.11
944.819	0.81
945.248	1.81
945.677	3.21
946.106	5.51
946.535	6.91
946.964	4.61
947.393	1.21
947.822	-2.69
948.251	-5.79
948.68	2.01
949.109	3.21
949.538	8.81
949.967	-2.19
950.396	-0.79
950.825	3.71
951.254	0.31
951.682	-4.39
952.111	1.11
952.54	2.71
952.969	-1.99
953.397	-2.79
953.826	0.91
954.254	-4.69
954.683	8.31
955.112	-6.39
955.54	5.91
955.969	-0.79
956.397	2.71
956.826	-1.79
957.254	-0.39
957.682	4.91
958.111	7.61
958.539	4.41
958.967	-0.69
959.396	4.81
959.824	5.21
960.252	4.41
960.68	-5.59
961.109	0.91
961.537	-2.29
961.965	2.21
962.393	2.91
962.821	-2.39
963.249	-2.09
963.677	6.11
964.105	3.01
964.533	41.81
964.961	37.51
965.389	23.41
965.817	6.81
966.245	6.31
966.672	-2.19
967.1	-5.59
967.528	2.01
967.956	-2.09
968.383	-1.69
968.811	-1.49
969.239	-1.09
969.666	-6.59
970.094	2.91
970.522	0.51
970.949	-0.79
971.377	-7.69
971.804	-2.99
972.232	1.91
972.659	1.31
973.087	0.41
973.514	-0.29
973.941	-5.19
974.369	7.01
974.796	2.01
975.223	2.01
975.651	-8.39
976.078	6.41
976.505	-1.69
976.932	0.91
977.359	17.71
977.786	16.01
978.214	6.51
978.641	-1.99
979.068	-3.09
979.495	-5.59
979.922	-6.09
980.349	2.11
980.776	2.21
981.202	0.21
981.629	9.61
982.056	1.51
982.483	0.91
982.91	4.61
983.337	-5.49
983.763	6.21
984.19	-2.89
984.617	5.41
985.043	-3.29
985.47	-4.09
985.897	-0.59
986.323	-4.09
986.75	-0.49
987.176	1.01
987.603	-2.49
988.029	0.41
988.456	3.71
988.882	0.41
989.308	-9.79
989.735	-2.89
990.161	2.61
990.587	-5.09
991.014	0.91
991.44	6.41
991.866	-0.39
992.292	-2.99
992.719	-2.49
993.145	7.31
993.571	-7.19
993.997	-3.19
994.423	-3.69
994.849	-4.49
995.275	0.81
995.701	-2.09
996.127	1.11
996.553	2.71
996.979	2.41
997.405	2.41
997.83	-2.29
998.256	-2.79
998.682	-2.29
999.108	-10.99
999.534	-1.19
999.959	-3.19
1000.385	-3.29
1000.811	-2.19
1001.236	-12.09
1001.662	-5.69
1002.087	-7.69
1002.513	0.41
1002.938	3.81
1003.364	-1.49
1003.789	-0.39
1004.215	10.01
1004.64	-4.59
1005.066	2.21
1005.491	-0.29
1005.916	4.71
1006.342	-2.89
1006.767	-1.59
1007.192	0.61
1007.617	-2.69
1008.042	-7.29
1008.468	-12.69
1008.893	-3.49
1009.318	-5.79
1009.743	-0.09
1010.168	2.51
1010.593	-2.79
1011.018	-8.39
1011.443	-4.29
1011.868	2.61
1012.293	-4.59
1012.718	-8.59
1013.143	-2.19
1013.567	2.11
1013.992	-2.49
1014.417	-13.69
1014.842	2.61
1015.267	-5.89
1015.691	-4.19
1016.116	3.61
1016.541	1.31
1016.965	4.11
1017.39	0.51
1017.814	2.21
1018.239	-7.49
1018.663	-6.69
1019.088	-6.39
1019.512	-2.79
1019.937	1.21
1020.361	-7.49
1020.785	-13.19
1021.21	-0.99
1021.634	-5.79
1022.058	-1.79
1022.483	4.01
1022.907	-3.29
1023.331	-5.39
1023.755	1.61
1024.179	-5.59
1024.604	-8.89
1025.028	-2.29
1025.452	-3.29
1025.876	-0.89
1026.3	-0.59
1026.724	-12.29
1027.148	-8.59
1027.572	-5.49
1027.996	-6.99
1028.42	-4.49
1028.843	-8.69
1029.267	0.31
1029.691	2.41
1030.115	-7.39
1030.539	-7.39
1030.962	-6.79
1031.386	-4.79
1031.81	-2.69
1032.233	0.01
1032.657	2.81
1033.08	0.21
1033.504	-1.19
1033.927	-1.79
1034.351	-0.89
1034.774	-4.89
1035.198	-5.19
1035.621	-3.39
1036.045	-5.19
1036.468	2.91
1036.891	-10.09
1037.315	-9.39
1037.738	-6.09
1038.161	0.21
1038.584	-6.49
1039.008	-3.29
1039.431	0.21
1039.854	-0.49
1040.277	-6.49
1040.7	-18.69
1041.123	2.51
1041.546	-7.79
1041.969	-5.69
1042.392	-2.99
1042.815	3.01
1043.238	3.21
1043.661	-3.79
1044.084	-10.69
1044.507	-3.49
1044.93	-5.59
1045.352	-5.19
1045.775	-3.19
1046.198	-2.09
1046.621	-6.29
1047.043	-0.19
1047.466	3.41
1047.889	0.01
1048.311	-4.49
1048.734	-4.39
1049.156	-2.19
1049.579	0.41
1050.001	-5.79
1050.424	-0.19
1050.846	-5.99
1051.269	-3.59
1051.691	-7.09
1052.113	-5.79
1052.536	-6.59
1052.958	-5.49
1053.38	0.91
1053.802	-7.49
1054.225	4.61
1054.647	-4.39
1055.069	-6.39
1055.491	2.81
1055.913	-6.19
1056.335	-2.59
1056.757	-4.29
1057.179	-6.59
1057.601	-6.49
1058.023	-3.29
1058.445	-1.59
1058.867	-0.19
1059.289	0.71
1059.711	-5.09
1060.133	0.91
1060.555	-2.79
1060.976	-0.29
1061.398	-8.19
1061.82	-0.79
1062.241	-8.99
1062.663	-7.59
1063.085	-4.49
1063.506	-5.29
1063.928	-6.99
1064.35	1.81
1064.771	-9.09
1065.193	-2.69
1065.614	-5.49
1066.035	-5.69
1066.457	-1.59
1066.878	7.41
1067.3	-0.69
1067.721	-4.19
1068.142	-6.49
1068.564	-0.59
1068.985	-6.49
1069.406	-3.29
1069.827	-5.39
1070.248	-2.39
1070.67	-7.09
1071.091	-2.09
1071.512	-1.39
1071.933	-2.79
1072.354	-4.19
1072.775	-4.99
1073.196	-11.69
1073.617	-1.79
1074.038	-7.79
1074.459	-4.29
1074.88	-6.89
1075.3	0.81
1075.721	-1.89
1076.142	-1.39
1076.563	-5.29
1076.983	-8.89
1077.404	-6.09
1077.825	-11.29
1078.246	-4.39
1078.666	-10.79
1079.087	-3.59
1079.507	-3.09
1079.928	4.01
1080.348	3.11
1080.769	-2.79
1081.189	-2.39
1081.61	-0.59
1082.03	-4.99
1082.451	-9.89
1082.871	-2.19
1083.291	-5.59
1083.711	-6.39
1084.132	-3.69
1084.552	-4.89
1084.972	-1.79
1085.392	-13.39
1085.813	-7.69
1086.233	-6.59
1086.653	-1.59
1087.073	-5.79
1087.493	-5.49
1087.913	-3.69
1088.333	-9.39
1088.753	-2.99
1089.173	-2.09
1089.593	-0.39
1090.013	-0.59
1090.433	3.21
1090.852	-3.19
1091.272	0.61
1091.692	-3.99
1092.112	-2.89
1092.531	-10.69
1092.951	-12.19
1093.371	-5.69
1093.79	0.41
1094.21	-3.79
1094.63	-3.19
1095.049	-3.89
1095.469	-1.69
1095.888	-4.89
1096.308	-2.59
1096.727	1.41
1097.146	-7.59
1097.566	3.51
1097.985	-5.49
1098.405	-5.99
1098.824	-7.19
1099.243	-11.09
1099.662	-2.49
1100.082	-3.89
1100.501	0.41
1100.92	-4.79
1101.339	-4.19
1101.758	-5.19
