Data from 20171114-ORNL-Ar_H_NY_Subt18_08-09-10-857.txt Node
Date: Tue Nov 14 08:09:10 EST 2017
User: Ender
Spectrometer: HR+D1039
Trigger mode: 0
Integration Time (sec): 2.730000E-2
Scans to average: 10
Electric dark correction enabled: true
Nonlinearity correction enabled: false
Boxcar width: 0
XAxis mode: Wavelengths
Number of Pixels in Spectrum: 2048
>>>>>Begin Spectral Data<<<<<
187.836	-3.98
188.309	-3.98
188.782	-3.98
189.255	3.82
189.728	-2.28
190.201	5.12
190.674	5.22
191.147	2.92
191.619	-7.98
192.092	1.82
192.565	2.32
193.038	-2.38
193.511	-1.48
193.984	6.12
194.456	-7.48
194.929	4.72
195.402	-6.78
195.874	0.32
196.347	-1.48
196.82	-10.18
197.292	1.62
197.765	-2.98
198.237	-8.68
198.71	-2.48
199.182	1.02
199.655	1.62
200.127	4.22
200.6	-4.38
201.072	-6.58
201.544	-3.78
202.017	-5.68
202.489	1.22
202.961	-1.28
203.433	-4.28
203.906	-6.08
204.378	-8.48
204.85	-11.68
205.322	-12.58
205.794	-2.08
206.266	-13.18
206.739	-11.38
207.211	1.42
207.683	-9.48
208.155	-7.98
208.627	-9.48
209.099	-1.48
209.57	-9.88
210.042	-5.78
210.514	-4.28
210.986	0.72
211.458	-11.48
211.93	-8.68
212.402	0.62
212.873	-8.18
213.345	-14.48
213.817	-10.38
214.288	-10.08
214.76	-6.38
215.232	-6.28
215.703	-5.08
216.175	-1.58
216.646	-3.68
217.118	-11.28
217.589	-4.88
218.061	-5.78
218.532	-7.48
219.004	-2.08
219.475	-8.68
219.946	-2.28
220.418	-9.28
220.889	-0.28
221.36	-0.28
221.832	2.32
222.303	-3.18
222.774	-4.38
223.245	-5.98
223.717	-4.38
224.188	-7.08
224.659	-7.28
225.13	-3.68
225.601	0.82
226.072	-0.08
226.543	-5.68
227.014	-5.58
227.485	-8.38
227.956	-8.18
228.427	-0.48
228.898	-5.68
229.369	3.32
229.839	-2.68
230.31	-7.88
230.781	5.82
231.252	0.22
231.722	-7.98
232.193	-2.48
232.664	-3.58
233.135	-5.58
233.605	-4.78
234.076	-6.48
234.546	4.52
235.017	0.12
235.487	-4.78
235.958	-2.58
236.428	-7.88
236.899	-2.28
237.369	-1.68
237.84	-1.98
238.31	0.92
238.78	-0.28
239.251	-4.48
239.721	-1.38
240.191	-3.58
240.662	-4.08
241.132	-4.28
241.602	-10.38
242.072	0.62
242.542	4.52
243.013	-5.78
243.483	-1.28
243.953	-0.18
244.423	1.22
244.893	-6.18
245.363	1.42
245.833	1.92
246.303	-6.28
246.773	5.62
247.243	-6.58
247.712	-6.08
248.182	2.42
248.652	1.72
249.122	-8.78
249.592	-0.98
250.061	2.42
250.531	8.82
251.001	-3.58
251.471	2.02
251.94	4.32
252.41	0.02
252.879	-5.38
253.349	3.22
253.818	-1.18
254.288	1.52
254.757	1.62
255.227	-2.38
255.696	-0.38
256.166	2.62
256.635	1.82
257.105	4.02
257.574	-1.28
258.043	-0.48
258.513	-6.88
258.982	3.42
259.451	-7.78
259.92	0.62
260.389	-3.38
260.859	5.42
261.328	1.32
261.797	2.42
262.266	-5.68
262.735	3.72
263.204	-0.98
263.673	-3.68
264.142	-5.88
264.611	-11.28
265.08	-6.18
265.549	0.22
266.018	1.22
266.487	-3.78
266.955	-7.98
267.424	-7.78
267.893	3.72
268.362	-1.78
268.83	-4.18
269.299	0.52
269.768	-2.58
270.236	3.32
270.705	-3.58
271.174	4.22
271.642	-3.48
272.111	-0.88
272.579	0.72
273.048	7.02
273.516	-0.88
273.985	7.82
274.453	9.02
274.922	7.72
275.39	0.02
275.858	-6.78
276.327	0.52
276.795	7.62
277.263	0.62
277.731	16.72
278.2	9.72
278.668	15.32
279.136	12.62
279.604	-2.98
280.072	5.22
280.54	1.42
281.008	0.02
281.477	9.32
281.945	9.02
282.413	9.52
282.881	11.22
283.348	2.82
283.816	7.42
284.284	11.92
284.752	8.32
285.22	5.92
285.688	6.12
286.156	4.42
286.623	16.32
287.091	13.92
287.559	11.12
288.026	7.72
288.494	8.82
288.962	-0.58
289.429	4.42
289.897	13.22
290.364	8.12
290.832	14.82
291.3	7.52
291.767	9.22
292.234	9.52
292.702	6.42
293.169	10.42
293.637	15.62
294.104	16.62
294.571	-0.38
295.039	8.02
295.506	7.12
295.973	15.12
296.44	7.12
296.908	7.32
297.375	6.02
297.842	12.42
298.309	12.62
298.776	6.42
299.243	9.12
299.71	6.42
300.177	10.52
300.644	10.62
301.111	13.42
301.578	19.12
302.045	5.72
302.512	20.92
302.979	19.32
303.446	9.02
303.913	13.02
304.379	6.02
304.846	15.92
305.313	13.12
305.78	19.12
306.246	19.12
306.713	12.32
307.18	17.82
307.646	21.12
308.113	18.02
308.579	10.32
309.046	15.32
309.512	24.12
309.979	12.62
310.445	16.02
310.912	22.02
311.378	22.32
311.845	24.02
312.311	21.92
312.777	24.62
313.244	19.12
313.71	29.82
314.176	15.42
314.642	17.02
315.109	18.82
315.575	20.82
316.041	27.02
316.507	22.62
316.973	27.12
317.439	24.82
317.905	27.22
318.371	26.22
318.837	17.02
319.303	15.12
319.769	21.92
320.235	20.42
320.701	28.82
321.167	24.52
321.633	24.12
322.099	19.02
322.564	26.22
323.03	28.12
323.496	25.22
323.962	28.12
324.427	28.92
324.893	22.02
325.359	25.72
325.824	25.62
326.29	27.62
326.755	29.12
327.221	27.12
327.686	30.02
328.152	36.42
328.617	30.72
329.083	35.02
329.548	44.12
330.014	36.32
330.479	30.22
330.944	31.62
331.41	27.92
331.875	40.52
332.34	34.12
332.805	31.72
333.271	31.82
333.736	28.12
334.201	41.22
334.666	37.02
335.131	40.32
335.596	36.12
336.061	35.22
336.526	30.32
336.991	38.12
337.456	45.32
337.921	33.92
338.386	33.62
338.851	40.52
339.316	36.72
339.781	36.32
340.246	35.12
340.711	26.22
341.175	40.82
341.64	34.92
342.105	35.62
342.569	45.92
343.034	40.52
343.499	44.02
343.963	39.92
344.428	50.02
344.893	53.62
345.357	46.32
345.822	49.62
346.286	47.32
346.751	51.92
347.215	50.12
347.679	58.32
348.144	68.02
348.608	63.12
349.073	53.52
349.537	59.62
350.001	63.32
350.465	66.12
350.93	59.42
351.394	62.72
351.858	52.72
352.322	69.52
352.786	62.12
353.25	69.72
353.715	86.62
354.179	82.32
354.643	94.42
355.107	98.82
355.571	80.12
356.035	78.22
356.498	92.52
356.962	90.72
357.426	97.82
357.89	91.12
358.354	73.92
358.818	67.42
359.281	68.32
359.745	68.32
360.209	66.92
360.673	56.72
361.136	65.42
361.6	65.12
362.064	63.22
362.527	69.32
362.991	71.22
363.454	60.32
363.918	63.82
364.381	62.42
364.845	67.62
365.308	76.62
365.772	74.92
366.235	73.72
366.698	75.32
367.162	68.52
367.625	74.42
368.088	76.32
368.552	65.72
369.015	74.42
369.478	79.62
369.941	79.22
370.404	81.82
370.867	83.22
371.331	87.32
371.794	94.82
372.257	81.42
372.72	88.82
373.183	87.62
373.646	75.72
374.109	88.52
374.572	90.02
375.035	86.52
375.497	94.82
375.96	94.72
376.423	85.22
376.886	95.02
377.349	94.82
377.811	89.32
378.274	94.62
378.737	95.72
379.199	95.42
379.662	93.12
380.125	93.02
380.587	94.02
381.05	98.32
381.512	103.42
381.975	113.62
382.437	105.92
382.9	105.72
383.362	115.72
383.825	121.32
384.287	115.22
384.75	114.52
385.212	112.92
385.674	117.62
386.136	123.42
386.599	116.52
387.061	112.22
387.523	116.82
387.985	115.52
388.447	121.92
388.91	116.52
389.372	128.62
389.834	123.32
390.296	115.92
390.758	122.32
391.22	127.02
391.682	152.12
392.144	168.92
392.606	152.12
393.068	131.82
393.529	143.42
393.991	133.82
394.453	113.72
394.915	125.72
395.377	137.22
395.838	140.72
396.3	128.62
396.762	125.92
397.224	120.82
397.685	114.82
398.147	120.12
398.608	118.32
399.07	120.02
399.531	119.72
399.993	137.72
400.454	143.72
400.916	137.72
401.377	135.12
401.839	136.42
402.3	139.92
402.762	155.02
403.223	170.02
403.684	159.42
404.145	146.02
404.607	152.02
405.068	160.72
405.529	154.72
405.99	177.62
406.451	160.22
406.913	162.12
407.374	152.82
407.835	151.32
408.296	160.02
408.757	167.32
409.218	174.22
409.679	166.22
410.14	168.72
410.601	163.22
411.062	170.92
411.522	165.82
411.983	167.72
412.444	159.82
412.905	165.22
413.366	170.82
413.826	179.92
414.287	208.42
414.748	255.42
415.208	245.52
415.669	204.82
416.13	204.42
416.59	193.32
417.051	201.92
417.511	210.22
417.972	229.82
418.432	236.62
418.893	287.22
419.353	240.42
419.814	196.22
420.274	173.82
420.734	180.32
421.195	196.12
421.655	185.82
422.115	186.12
422.576	189.22
423.036	198.42
423.496	205.12
423.956	209.42
424.416	217.62
424.876	252.52
425.336	252.62
425.797	255.62
426.257	238.82
426.717	232.12
427.177	222.12
427.637	219.22
428.097	222.72
428.556	226.42
429.016	253.92
429.476	250.32
429.936	261.42
430.396	260.92
430.856	275.92
431.315	287.62
431.775	327.22
432.235	353.82
432.694	329.12
433.154	338.12
433.614	364.42
434.073	314.42
434.533	266.12
434.993	246.42
435.452	261.62
435.912	265.12
436.371	270.52
436.83	265.22
437.29	242.22
437.749	240.52
438.209	242.42
438.668	261.92
439.127	272.52
439.587	254.12
440.046	240.52
440.505	250.12
440.964	270.92
441.424	303.52
441.883	290.82
442.342	260.02
442.801	226.62
443.26	221.32
443.719	211.02
444.178	213.62
444.637	209.12
445.096	218.22
445.555	217.62
446.014	220.62
446.473	222.22
446.932	231.72
447.391	225.72
447.849	226.02
448.308	219.32
448.767	214.72
449.226	238.12
449.685	233.72
450.143	250.72
450.602	239.52
451.061	219.02
451.519	228.52
451.978	224.32
452.436	234.92
452.895	237.82
453.353	257.02
453.812	237.42
454.27	240.02
454.729	237.32
455.187	244.72
455.646	244.02
456.104	249.22
456.562	248.42
457.021	264.92
457.479	255.92
457.937	277.62
458.395	257.32
458.854	249.92
459.312	259.12
459.77	274.12
460.228	250.72
460.686	248.12
461.144	255.32
461.602	245.52
462.06	246.12
462.518	259.22
462.976	260.42
463.434	259.82
463.892	261.72
464.35	269.92
464.808	285.42
465.266	274.02
465.724	269.62
466.181	276.82
466.639	269.32
467.097	292.02
467.555	304.22
468.012	305.62
468.47	312.82
468.928	317.82
469.385	330.52
469.843	341.12
470.3	347.12
470.758	346.92
471.215	380.52
471.673	406.02
472.13	402.02
472.588	412.92
473.045	373.92
473.503	374.32
473.96	385.02
474.417	394.52
474.875	430.22
475.332	465.02
475.789	450.92
476.246	458.02
476.704	480.62
477.161	495.12
477.618	514.02
478.075	553.72
478.532	617.72
478.989	672.92
479.446	772.42
479.903	740.92
480.36	780.92
480.817	829.02
481.274	918.92
481.731	998.92
482.188	1080.32
482.645	1197.52
483.102	1296.92
483.558	1404.62
484.015	1436.52
484.472	1427.62
484.929	1382.72
485.385	1350.02
485.842	1296.62
486.299	1250.82
486.755	1211.82
487.212	1033.52
487.668	880.52
488.125	817.42
488.582	754.32
489.038	725.52
489.494	695.92
489.951	672.62
490.407	651.42
490.864	639.62
491.32	635.62
491.776	625.92
492.233	638.22
492.689	601.72
493.145	601.32
493.602	599.92
494.058	604.12
494.514	609.22
494.97	636.62
495.426	639.92
495.882	619.62
496.338	598.92
496.794	615.22
497.251	609.12
497.707	627.12
498.163	623.32
498.618	631.12
499.074	630.22
499.53	669.92
499.986	657.42
500.442	640.72
500.898	623.42
501.354	610.52
501.809	626.52
502.265	626.32
502.721	637.62
503.177	639.02
503.632	651.62
504.088	644.42
504.543	671.22
504.999	686.82
505.455	648.22
505.91	631.82
506.366	640.62
506.821	639.92
507.277	637.62
507.732	630.32
508.187	633.92
508.643	649.92
509.098	641.82
509.553	668.82
510.009	674.12
510.464	673.92
510.919	696.32
511.375	700.22
511.83	713.72
512.285	729.72
512.74	765.92
513.195	776.42
513.65	761.12
514.105	764.12
514.56	767.82
515.015	795.62
515.47	805.32
515.925	787.72
516.38	786.32
516.835	791.12
517.29	773.92
517.745	777.22
518.2	774.22
518.655	753.42
519.109	753.32
519.564	742.72
520.019	731.92
520.474	718.42
520.928	728.12
521.383	723.02
521.838	717.92
522.292	712.22
522.747	710.52
523.201	719.22
523.656	702.72
524.11	699.02
524.565	696.82
525.019	693.62
525.474	707.32
525.928	698.72
526.382	696.12
526.837	704.22
527.291	706.02
527.745	709.62
528.2	692.32
528.654	696.92
529.108	698.72
529.562	698.72
530.016	693.02
530.47	707.32
530.925	689.42
531.379	694.22
531.833	707.12
532.287	701.32
532.741	701.52
533.195	709.42
533.649	713.12
534.103	722.22
534.556	703.12
535.01	712.22
535.464	705.02
535.918	722.62
536.372	721.02
536.826	722.32
537.279	705.72
537.733	714.22
538.187	725.52
538.64	702.82
539.094	723.22
539.548	734.32
540.001	726.62
540.455	735.72
540.908	741.12
541.362	748.12
541.815	747.32
542.269	767.62
542.722	766.42
543.175	775.82
543.629	777.22
544.082	806.42
544.536	804.32
544.989	788.22
545.442	810.02
545.895	791.32
546.349	809.02
546.802	800.32
547.255	814.22
547.708	817.52
548.161	831.02
548.614	840.22
549.067	834.72
549.52	838.02
549.973	827.02
550.426	818.72
550.879	808.62
551.332	808.22
551.785	816.92
552.238	820.02
552.691	846.12
553.144	854.82
553.596	860.62
554.049	873.22
554.502	904.02
554.955	922.62
555.407	923.42
555.86	917.42
556.313	912.22
556.765	893.62
557.218	898.22
557.67	898.22
558.123	892.32
558.576	884.82
559.028	895.32
559.48	891.22
559.933	888.52
560.385	854.92
560.838	824.72
561.29	802.52
561.742	807.22
562.195	782.82
562.647	781.52
563.099	787.82
563.551	783.62
564.004	792.62
564.456	787.82
564.908	777.52
565.36	758.92
565.812	741.92
566.264	734.12
566.716	730.52
567.168	718.42
567.62	723.92
568.072	711.32
568.524	703.42
568.976	709.32
569.428	686.52
569.88	693.52
570.332	697.12
570.784	704.72
571.235	696.62
571.687	711.12
572.139	715.32
572.59	729.42
573.042	739.62
573.494	719.52
573.945	722.12
574.397	694.82
574.849	706.02
575.3	703.52
575.752	697.22
576.203	690.72
576.655	702.12
577.106	683.92
577.557	682.92
578.009	680.32
578.46	678.32
578.912	685.02
579.363	681.52
579.814	686.82
580.265	677.32
580.717	679.02
581.168	683.52
581.619	698.42
582.07	689.02
582.521	687.12
582.972	680.82
583.423	685.82
583.875	690.72
584.326	704.92
584.777	714.82
585.227	770.02
585.678	787.02
586.129	817.42
586.58	849.42
587.031	892.12
587.482	939.12
587.933	1000.12
588.384	948.02
588.834	842.52
589.285	789.32
589.736	792.02
590.186	790.32
590.637	780.22
591.088	767.72
591.538	753.62
591.989	743.12
592.439	734.12
592.89	731.02
593.34	718.82
593.791	720.22
594.241	715.92
594.692	716.12
595.142	721.12
595.593	712.62
596.043	724.82
596.493	727.52
596.943	725.52
597.394	735.62
597.844	734.42
598.294	746.92
598.744	776.42
599.195	800.72
599.645	843.22
600.095	887.22
600.545	951.32
600.995	995.42
601.445	1056.32
601.895	1122.22
602.345	1165.42
602.795	1157.62
603.245	1104.82
603.695	1052.02
604.145	980.12
604.594	944.92
605.044	887.12
605.494	826.42
605.944	779.92
606.393	764.92
606.843	748.32
607.293	746.12
607.743	745.32
608.192	763.22
608.642	772.12
609.091	778.02
609.541	789.52
609.99	785.02
610.44	780.42
610.889	736.52
611.339	717.02
611.788	699.42
612.238	707.92
612.687	719.22
613.136	715.92
613.586	739.22
614.035	720.02
614.484	734.02
614.933	735.62
615.383	736.92
615.832	728.32
616.281	722.52
616.73	690.02
617.179	674.92
617.628	665.62
618.077	646.92
618.526	643.12
618.975	630.52
619.424	623.62
619.873	629.42
620.322	637.32
620.771	634.62
621.22	616.92
621.669	606.52
622.118	602.92
622.567	604.32
623.015	579.12
623.464	581.42
623.913	574.92
624.361	563.02
624.81	564.32
625.259	571.92
625.707	570.02
626.156	567.92
626.604	578.02
627.053	579.72
627.501	568.62
627.95	589.52
628.398	595.52
628.847	588.72
629.295	593.02
629.744	587.82
630.192	585.02
630.64	576.72
631.089	568.32
631.537	568.32
631.985	559.72
632.433	562.22
632.881	557.52
633.33	578.02
633.778	557.52
634.226	550.12
634.674	561.12
635.122	560.52
635.57	571.92
636.018	590.12
636.466	587.72
636.914	571.42
637.362	590.82
637.81	600.62
638.258	591.82
638.705	605.72
639.153	633.42
639.601	640.42
640.049	658.02
640.497	692.32
640.944	726.12
641.392	666.52
641.84	631.92
642.287	600.22
642.735	570.92
643.182	579.42
643.63	582.22
644.078	573.62
644.525	591.82
644.973	595.72
645.42	607.52
645.867	636.12
646.315	653.12
646.762	669.62
647.21	695.72
647.657	712.22
648.104	760.62
648.551	770.72
648.999	832.42
649.446	906.82
649.893	1005.42
650.34	1141.82
650.787	1362.92
651.234	1692.22
651.682	2193.52
652.129	2997.52
652.576	4286.22
653.023	6246.72
653.47	8413.22
653.917	10398.92
654.363	11870.02
654.81	13023.52
655.257	12311.82
655.704	8139.92
656.151	4896.82
656.598	3200.02
657.044	2285.92
657.491	1776.12
657.938	1440.62
658.385	1208.02
658.831	1052.82
659.278	952.52
659.724	852.62
660.171	783.92
660.618	725.32
661.064	683.22
661.511	674.52
661.957	665.42
662.404	648.32
662.85	649.32
663.296	628.92
663.743	570.32
664.189	544.42
664.635	542.32
665.082	536.62
665.528	547.82
665.974	534.32
666.42	524.22
666.867	518.72
667.313	499.62
667.759	482.12
668.205	475.52
668.651	473.62
669.097	466.92
669.543	467.12
669.989	468.92
670.435	464.52
670.881	468.92
671.327	467.72
671.773	487.22
672.219	515.82
672.665	568.22
673.11	606.12
673.556	667.92
674.002	695.52
674.448	686.12
674.893	572.42
675.339	494.92
675.785	461.32
676.23	436.52
676.676	409.12
677.122	404.82
677.567	381.52
678.013	384.82
678.458	378.92
678.904	378.82
679.349	365.62
679.794	372.32
680.24	362.42
680.685	366.62
681.131	366.72
681.576	370.12
682.021	382.82
682.466	365.42
682.912	357.12
683.357	367.72
683.802	404.12
684.247	435.42
684.692	479.32
685.137	516.32
685.583	552.92
686.028	582.92
686.473	549.92
686.918	473.82
687.363	432.62
687.807	409.72
688.252	382.62
688.697	369.82
689.142	351.22
689.587	342.62
690.032	344.82
690.477	352.52
690.921	364.62
691.366	398.02
691.811	426.72
692.255	450.72
692.7	479.62
693.145	540.22
693.589	760.92
694.034	1222.32
694.478	1642.72
694.923	1808.12
695.367	2348.02
695.812	1246.42
696.256	520.12
696.701	385.32
697.145	361.22
697.59	341.12
698.034	337.92
698.478	342.52
698.922	339.12
699.367	339.12
699.811	350.62
700.255	370.02
700.699	401.32
701.143	445.12
701.588	498.92
702.032	535.72
702.476	533.92
702.92	515.42
703.364	517.32
703.808	710.02
704.252	1137.92
704.696	1555.12
705.14	1757.62
705.584	2231.32
706.027	1118.72
706.471	551.72
706.915	417.02
707.359	368.32
707.803	338.32
708.246	325.62
708.69	325.42
709.134	325.82
709.577	328.22
710.021	332.12
710.465	326.02
710.908	318.52
711.352	305.52
711.795	330.22
712.239	377.82
712.682	403.02
713.126	431.32
713.569	481.32
714.012	383.72
714.456	314.82
714.899	303.62
715.342	282.22
715.786	269.12
716.229	268.02
716.672	265.92
717.115	256.82
717.558	258.32
718.002	263.92
718.445	272.22
718.888	300.32
719.331	313.32
719.774	324.72
720.217	314.62
720.66	299.02
721.103	284.12
721.546	270.32
721.989	262.92
722.432	239.52
722.874	248.22
723.317	247.82
723.76	247.92
724.203	274.12
724.645	341.32
725.088	482.52
725.531	610.12
725.974	673.42
726.416	574.82
726.859	325.62
727.301	254.02
727.744	252.92
728.187	237.32
728.629	251.62
729.071	250.02
729.514	261.62
729.956	286.92
730.399	298.02
730.841	307.82
731.283	287.72
731.726	283.22
732.168	275.92
732.61	287.22
733.053	301.72
733.495	330.62
733.937	376.72
734.379	424.32
734.821	466.92
735.263	590.82
735.705	917.62
736.148	1743.52
736.59	2786.32
737.032	3186.32
737.474	2576.12
737.916	862.02
738.357	459.02
738.799	340.52
739.241	311.32
739.683	298.22
740.125	306.42
740.567	305.82
741.008	326.82
741.45	327.22
741.892	335.62
742.334	365.82
742.775	377.02
743.217	366.92
743.658	284.72
744.1	273.52
744.542	280.32
744.983	336.22
745.425	365.72
745.866	362.52
746.307	297.02
746.749	299.02
747.19	347.62
747.632	508.32
748.073	998.72
748.514	2050.32
748.956	3045.52
749.397	3844.52
749.838	3162.02
750.279	3070.22
750.72	1582.42
751.162	587.72
751.603	333.22
752.044	265.82
752.485	230.32
752.926	221.42
753.367	215.52
753.808	203.12
754.249	195.82
754.69	192.02
755.131	195.72
755.572	194.82
756.013	188.02
756.453	190.72
756.894	196.12
757.335	197.32
757.776	197.52
758.216	200.02
758.657	211.32
759.098	217.72
759.538	233.92
759.979	284.62
760.42	411.22
760.86	797.22
761.301	2097.32
761.741	4882.12
762.182	6708.22
762.622	4717.02
763.063	1392.52
763.503	581.42
763.943	352.22
764.384	297.02
764.824	283.92
765.264	290.12
765.705	233.62
766.145	189.22
766.585	185.12
767.025	178.52
767.465	177.62
767.906	203.12
768.346	228.62
768.786	234.12
769.226	242.02
769.666	340.72
770.106	692.72
770.546	1735.92
770.986	2775.12
771.426	2450.22
771.866	838.22
772.306	349.32
772.745	214.92
773.185	175.42
773.625	169.32
774.065	160.92
774.505	181.52
774.944	235.12
775.384	452.62
775.824	716.72
776.263	703.82
776.703	333.12
777.142	178.62
777.582	143.82
778.021	129.42
778.461	133.32
778.9	137.02
779.34	130.72
779.779	122.72
780.219	114.42
780.658	110.72
781.097	108.72
781.537	115.22
781.976	111.42
782.415	105.42
782.855	104.02
783.294	104.82
783.733	116.72
784.172	113.22
784.611	106.22
785.05	113.02
785.489	115.02
785.928	125.82
786.367	124.12
786.806	126.72
787.245	129.32
787.684	144.32
788.123	151.22
788.562	138.92
789.001	131.82
789.44	128.42
789.879	120.52
790.317	126.62
790.756	135.82
791.195	138.72
791.634	160.92
792.072	219.22
792.511	406.62
792.95	1125.82
793.388	2263.02
793.827	1970.22
794.265	711.02
794.704	295.12
795.142	194.32
795.581	156.72
796.019	141.52
796.458	140.92
796.896	129.52
797.334	140.92
797.773	172.12
798.211	243.02
798.649	493.02
799.087	1116.12
799.526	1720.42
799.964	2151.62
800.402	2073.52
800.84	800.32
801.278	327.12
801.716	205.02
802.154	162.92
802.592	153.62
803.03	147.42
803.468	139.32
803.906	149.52
804.344	162.12
804.782	143.82
805.22	147.92
805.658	137.22
806.096	157.72
806.533	168.62
806.971	191.52
807.409	246.62
807.847	348.62
808.284	751.82
808.722	2073.32
809.16	3482.02
809.597	3457.82
810.035	5873.32
810.472	5970.22
810.91	2207.12
811.347	851.22
811.785	431.82
812.222	274.62
812.66	212.32
813.097	180.72
813.535	149.02
813.972	135.12
814.409	125.82
814.846	111.92
815.284	113.12
815.721	103.82
816.158	112.02
816.595	120.82
817.032	171.42
817.47	185.32
817.907	140.02
818.344	106.02
818.781	101.02
819.218	103.42
819.655	131.82
820.092	196.72
820.529	219.52
820.966	180.92
821.403	132.42
821.839	110.22
822.276	103.82
822.713	127.22
823.15	141.92
823.587	129.72
824.023	163.22
824.46	343.22
824.897	985.32
825.333	1415.42
825.77	611.22
826.206	239.42
826.643	146.12
827.08	109.82
827.516	90.92
827.953	77.52
828.389	80.82
828.825	76.92
829.262	66.32
829.698	69.72
830.135	70.72
830.571	63.02
831.007	63.32
831.443	62.12
831.88	61.82
832.316	56.92
832.752	62.22
833.188	76.12
833.624	67.72
834.06	71.02
834.497	74.82
834.933	79.32
835.369	84.32
835.805	72.22
836.241	84.02
836.677	91.02
837.112	94.32
837.548	119.72
837.984	142.82
838.42	219.42
838.856	557.92
839.292	1671.12
839.727	2384.42
840.163	1132.22
840.599	1037.42
841.034	2189.72
841.47	2194.92
841.906	820.92
842.341	358.22
842.777	212.22
843.212	235.72
843.648	217.12
844.083	129.42
844.519	87.12
844.954	67.22
845.39	54.22
845.825	58.82
846.261	57.22
846.696	55.02
847.131	55.52
847.566	62.22
848.002	55.92
848.437	55.82
848.872	65.52
849.307	68.22
849.742	92.72
850.177	203.82
850.613	609.62
851.048	919.42
851.483	397.82
851.918	166.42
852.353	90.72
852.788	64.72
853.223	48.82
853.657	54.92
854.092	45.62
854.527	38.92
854.962	42.12
855.397	48.62
855.832	52.72
856.266	46.42
856.701	40.22
857.136	42.22
857.57	41.32
858.005	49.72
858.44	56.22
858.874	48.52
859.309	56.02
859.743	43.62
860.178	51.72
860.612	42.22
861.047	55.92
861.481	76.22
861.915	80.32
862.35	56.82
862.784	37.92
863.218	38.62
863.653	37.42
864.087	47.22
864.521	57.12
864.955	75.52
865.39	171.62
865.824	193.12
866.258	126.22
866.692	176.32
867.126	189.52
867.56	110.42
867.994	58.02
868.428	45.22
868.862	47.82
869.296	58.72
869.73	63.32
870.164	61.12
870.598	47.72
871.031	44.52
871.465	33.52
871.899	32.72
872.333	28.92
872.766	29.92
873.2	24.82
873.634	23.52
874.067	24.52
874.501	29.32
874.935	36.02
875.368	32.42
875.802	29.42
876.235	23.72
876.669	23.72
877.102	21.12
877.535	26.32
877.969	24.52
878.402	23.12
878.836	20.52
879.269	23.32
879.702	24.92
880.135	24.52
880.569	23.42
881.002	34.82
881.435	24.82
881.868	16.42
882.301	25.52
882.734	17.32
883.167	28.42
883.601	19.22
884.034	30.82
884.467	9.02
884.899	18.62
885.332	15.82
885.765	16.12
886.198	17.52
886.631	20.12
887.064	16.72
887.497	18.02
887.929	16.72
888.362	14.72
888.795	12.22
889.228	14.82
889.66	20.12
890.093	14.42
890.526	20.02
890.958	16.02
891.391	18.62
891.823	18.82
892.256	19.22
892.688	11.52
893.121	15.12
893.553	19.92
893.985	26.22
894.418	16.12
894.85	18.82
895.282	14.22
895.715	16.32
896.147	21.52
896.579	21.92
897.011	13.02
897.444	20.62
897.876	15.02
898.308	16.32
898.74	15.52
899.172	11.02
899.604	14.42
900.036	13.72
900.468	17.42
900.9	17.42
901.332	22.22
901.764	19.52
902.196	19.92
902.628	15.92
903.06	15.22
903.491	27.32
903.923	22.62
904.355	22.62
904.787	24.02
905.218	21.42
905.65	23.52
906.082	15.42
906.513	12.32
906.945	16.42
907.376	12.72
907.808	17.22
908.239	21.02
908.671	20.42
909.102	21.82
909.534	28.22
909.965	49.92
910.397	101.02
910.828	340.02
911.259	499.02
911.691	230.02
912.122	118.02
912.553	53.52
912.984	31.62
913.415	29.62
913.847	24.42
914.278	15.32
914.709	9.62
915.14	20.32
915.571	14.32
916.002	13.02
916.433	18.42
916.864	16.82
917.295	13.32
917.726	18.92
918.157	17.42
918.587	29.82
919.018	26.92
919.449	23.32
919.88	24.32
920.311	31.72
920.741	50.42
921.172	177.72
921.603	159.52
922.033	75.82
922.464	48.62
922.895	19.32
923.325	17.72
923.756	13.52
924.186	11.62
924.617	22.82
925.047	23.92
925.478	30.92
925.908	29.72
926.338	11.22
926.769	14.02
927.199	22.22
927.629	11.12
928.06	16.62
928.49	10.12
928.92	17.62
929.35	15.72
929.78	11.32
930.21	7.22
930.641	6.72
931.071	5.22
931.501	8.62
931.931	9.82
932.361	8.32
932.791	7.12
933.221	3.72
933.651	9.22
934.08	19.82
934.51	30.42
934.94	7.32
935.37	6.72
935.8	-0.48
936.229	8.72
936.659	10.92
937.089	5.72
937.519	13.12
937.948	24.82
938.378	18.02
938.807	7.22
939.237	2.72
939.666	10.62
940.096	-3.48
940.525	6.22
940.955	7.52
941.384	1.12
941.814	-9.68
942.243	2.32
942.672	5.02
943.102	-6.48
943.531	-3.48
943.96	-1.28
944.39	5.72
944.819	-1.28
945.248	0.32
945.677	3.12
946.106	6.52
946.535	0.02
946.964	1.72
947.393	-2.88
947.822	-1.68
948.251	-2.78
948.68	2.82
949.109	10.32
949.538	4.22
949.967	1.12
950.396	2.62
950.825	-0.18
951.254	0.12
951.682	-8.08
952.111	1.92
952.54	1.62
952.969	-2.78
953.397	-6.38
953.826	2.12
954.254	-7.48
954.683	3.02
955.112	-1.38
955.54	3.02
955.969	-2.28
956.397	0.22
956.826	-6.68
957.254	6.32
957.682	4.82
958.111	3.12
958.539	4.22
958.967	-1.28
959.396	-3.78
959.824	4.62
960.252	2.72
960.68	-7.98
961.109	-2.18
961.537	-4.78
961.965	0.52
962.393	-0.88
962.821	-3.78
963.249	1.42
963.677	0.92
964.105	1.62
964.533	52.52
964.961	42.42
965.389	19.82
965.817	7.42
966.245	0.12
966.672	-1.68
967.1	-5.38
967.528	0.22
967.956	0.62
968.383	5.42
968.811	0.22
969.239	-3.88
969.666	-4.18
970.094	2.32
970.522	1.72
970.949	2.42
971.377	-1.58
971.804	0.72
972.232	1.32
972.659	-5.48
973.087	-4.28
973.514	-0.28
973.941	-7.68
974.369	3.22
974.796	1.92
975.223	-1.58
975.651	-8.28
976.078	0.02
976.505	2.72
976.932	5.42
977.359	13.02
977.786	16.12
978.214	-0.98
978.641	-10.68
979.068	-5.98
979.495	-8.18
979.922	2.72
980.349	-6.58
980.776	2.02
981.202	-4.48
981.629	-1.58
982.056	5.52
982.483	0.02
982.91	-1.88
983.337	-4.18
983.763	1.42
984.19	-1.78
984.617	-4.98
985.043	-11.78
985.47	-2.28
985.897	-4.58
986.323	-5.88
986.75	8.62
987.176	2.02
987.603	-2.28
988.029	3.12
988.456	-0.28
988.882	4.42
989.308	-5.38
989.735	-10.78
990.161	-3.38
990.587	-3.28
991.014	0.32
991.44	3.42
991.866	1.72
992.292	-8.08
992.719	-3.08
993.145	0.22
993.571	-7.88
993.997	-1.38
994.423	-3.88
994.849	-5.28
995.275	-0.78
995.701	-0.58
996.127	-3.38
996.553	-1.08
996.979	-3.68
997.405	-5.68
997.83	-6.98
998.256	-10.78
998.682	-7.68
999.108	-8.38
999.534	-1.18
999.959	0.82
1000.385	-8.18
1000.811	-0.08
1001.236	-9.58
1001.662	-2.38
1002.087	-9.38
1002.513	2.42
1002.938	4.12
1003.364	1.22
1003.789	1.82
1004.215	2.52
1004.64	-3.98
1005.066	3.72
1005.491	-1.08
1005.916	-4.48
1006.342	-6.28
1006.767	-9.68
1007.192	5.62
1007.617	-9.48
1008.042	-3.48
1008.468	-3.68
1008.893	-0.48
1009.318	1.92
1009.743	-6.88
1010.168	2.12
1010.593	0.82
1011.018	-5.98
1011.443	-2.98
1011.868	6.02
1012.293	-3.98
1012.718	-7.98
1013.143	-1.38
1013.567	0.32
1013.992	-3.08
1014.417	-9.08
1014.842	2.12
1015.267	-5.98
1015.691	0.62
1016.116	3.32
1016.541	-7.98
1016.965	-2.18
1017.39	0.92
1017.814	-1.58
1018.239	2.32
1018.663	-10.28
1019.088	-9.98
1019.512	-0.88
1019.937	-3.58
1020.361	-7.38
1020.785	-13.28
1021.21	0.02
1021.634	-0.08
1022.058	-2.28
1022.483	6.62
1022.907	-5.38
1023.331	-2.28
1023.755	1.62
1024.179	1.02
1024.604	-11.98
1025.028	-4.78
1025.452	-2.88
1025.876	-0.08
1026.3	-2.48
1026.724	-6.98
1027.148	-6.28
1027.572	-8.48
1027.996	-5.18
1028.42	-0.68
1028.843	-2.08
1029.267	-7.48
1029.691	-3.88
1030.115	-7.68
1030.539	-7.98
1030.962	-9.08
1031.386	-9.08
1031.81	-1.08
1032.233	-1.28
1032.657	-12.78
1033.08	-3.18
1033.504	-6.08
1033.927	-3.28
1034.351	3.42
1034.774	-5.08
1035.198	2.32
1035.621	-5.48
1036.045	-9.58
1036.468	-1.18
1036.891	-9.08
1037.315	-7.38
1037.738	-9.08
1038.161	-1.08
1038.584	-4.88
1039.008	-11.88
1039.431	-5.08
1039.854	-2.38
1040.277	-8.78
1040.7	-12.58
1041.123	-1.18
1041.546	-10.98
1041.969	-5.08
1042.392	-8.78
1042.815	1.72
1043.238	1.82
1043.661	0.42
1044.084	-8.48
1044.507	-5.68
1044.93	-8.58
1045.352	-7.78
1045.775	-1.28
1046.198	-2.38
1046.621	-3.68
1047.043	0.22
1047.466	3.72
1047.889	-9.68
1048.311	-5.28
1048.734	-3.88
1049.156	-10.48
1049.579	-1.18
1050.001	-3.38
1050.424	1.22
1050.846	-3.48
1051.269	-4.38
1051.691	-3.48
1052.113	-7.28
1052.536	-2.08
1052.958	-2.48
1053.38	-2.48
1053.802	-7.98
1054.225	0.22
1054.647	-12.78
1055.069	-7.78
1055.491	-2.58
1055.913	-6.48
1056.335	-0.48
1056.757	-3.78
1057.179	-9.88
1057.601	-5.58
1058.023	-4.48
1058.445	-6.58
1058.867	-3.48
1059.289	-0.48
1059.711	-9.58
1060.133	-8.98
1060.555	-9.58
1060.976	-9.08
1061.398	-5.38
1061.82	-14.38
1062.241	-4.88
1062.663	-9.18
1063.085	-6.28
1063.506	-6.38
1063.928	-8.98
1064.35	-6.28
1064.771	-9.38
1065.193	-3.38
1065.614	-6.58
1066.035	-5.68
1066.457	-3.18
1066.878	-6.08
1067.3	-4.38
1067.721	-7.98
1068.142	-4.58
1068.564	-3.68
1068.985	-8.18
1069.406	-9.08
1069.827	-6.38
1070.248	-4.78
1070.67	-9.78
1071.091	-9.08
1071.512	-1.08
1071.933	-6.88
1072.354	-7.78
1072.775	-9.68
1073.196	-12.48
1073.617	-6.78
1074.038	-5.28
1074.459	-4.08
1074.88	-6.88
1075.3	-1.38
1075.721	-9.18
1076.142	-3.88
1076.563	-7.68
1076.983	-5.68
1077.404	-6.78
1077.825	-15.58
1078.246	-9.38
1078.666	-11.28
1079.087	-2.28
1079.507	-8.58
1079.928	1.62
1080.348	-2.08
1080.769	-5.98
1081.189	1.02
1081.61	-7.68
1082.03	-16.28
1082.451	-7.18
1082.871	-5.88
1083.291	-2.48
1083.711	-17.08
1084.132	-12.08
1084.552	-2.68
1084.972	-3.68
1085.392	-12.18
1085.813	-8.28
1086.233	-7.48
1086.653	-9.78
1087.073	-0.68
1087.493	-13.28
1087.913	-13.78
1088.333	-7.58
1088.753	-6.98
1089.173	1.22
1089.593	-5.18
1090.013	2.72
1090.433	-1.58
1090.852	-6.38
1091.272	0.92
1091.692	-2.68
1092.112	-6.08
1092.531	-7.38
1092.951	-8.48
1093.371	-3.58
1093.79	-3.28
1094.21	-9.38
1094.63	-1.98
1095.049	-5.08
1095.469	-11.68
1095.888	-5.08
1096.308	-4.38
1096.727	0.12
1097.146	-13.68
1097.566	1.92
1097.985	-10.98
1098.405	-4.28
1098.824	-4.38
1099.243	-8.48
1099.662	-12.68
1100.082	-6.18
1100.501	-5.38
1100.92	-4.78
1101.339	-1.78
1101.758	-3.48
