Data from 20171114-ORNL-Ar_H_NY_Subt18_08-08-33-127.txt Node
Date: Tue Nov 14 08:08:33 EST 2017
User: Ender
Spectrometer: HR+D1039
Trigger mode: 0
Integration Time (sec): 2.730000E-2
Scans to average: 10
Electric dark correction enabled: true
Nonlinearity correction enabled: false
Boxcar width: 0
XAxis mode: Wavelengths
Number of Pixels in Spectrum: 2048
>>>>>Begin Spectral Data<<<<<
187.836	0.37
188.309	0.37
188.782	0.37
189.255	3.77
189.728	-0.03
190.201	5.17
190.674	-1.33
191.147	2.97
191.619	-15.03
192.092	-2.13
192.565	9.87
193.038	1.37
193.511	0.87
193.984	-1.83
194.456	-2.63
194.929	0.07
195.402	-0.13
195.874	-1.33
196.347	1.27
196.82	-3.33
197.292	4.87
197.765	-1.23
198.237	-10.73
198.71	7.67
199.182	-1.43
199.655	3.87
200.127	6.57
200.6	-2.53
201.072	-1.53
201.544	-6.23
202.017	0.47
202.489	0.97
202.961	3.27
203.433	1.77
203.906	-9.83
204.378	-7.73
204.85	-9.83
205.322	-10.23
205.794	-0.43
206.266	-1.13
206.739	-12.13
207.211	4.97
207.683	-6.73
208.155	-4.73
208.627	-9.13
209.099	-5.13
209.57	-7.43
210.042	-5.23
210.514	-7.13
210.986	-5.33
211.458	-7.53
211.93	-4.33
212.402	0.67
212.873	-0.23
213.345	-5.13
213.817	-12.03
214.288	-7.93
214.76	-17.23
215.232	-5.23
215.703	-1.93
216.175	-1.43
216.646	-8.23
217.118	-9.23
217.589	-4.83
218.061	-7.63
218.532	-4.63
219.004	-2.13
219.475	-3.23
219.946	2.07
220.418	-6.93
220.889	2.67
221.36	-1.33
221.832	-2.03
222.303	-1.73
222.774	-0.73
223.245	-7.83
223.717	-10.43
224.188	-7.83
224.659	-5.83
225.13	-4.33
225.601	-3.23
226.072	1.57
226.543	-1.63
227.014	5.87
227.485	0.67
227.956	-9.73
228.427	-3.23
228.898	0.77
229.369	4.67
229.839	-0.23
230.31	-8.23
230.781	3.67
231.252	-2.63
231.722	-5.63
232.193	-4.03
232.664	1.87
233.135	-4.33
233.605	-0.53
234.076	-8.43
234.546	0.77
235.017	4.97
235.487	1.27
235.958	-0.83
236.428	-6.03
236.899	-3.83
237.369	-4.83
237.84	-3.73
238.31	-0.83
238.78	1.07
239.251	-1.53
239.721	-1.93
240.191	-0.13
240.662	-5.93
241.132	-3.43
241.602	-4.43
242.072	1.37
242.542	6.17
243.013	-8.03
243.483	1.37
243.953	1.47
244.423	-0.73
244.893	-1.93
245.363	6.67
245.833	2.07
246.303	-6.63
246.773	0.47
247.243	0.27
247.712	0.17
248.182	2.87
248.652	2.67
249.122	-5.43
249.592	7.07
250.061	14.27
250.531	18.87
251.001	6.07
251.471	10.37
251.94	14.17
252.41	3.87
252.879	-0.43
253.349	10.47
253.818	4.87
254.288	-3.33
254.757	8.37
255.227	-0.73
255.696	1.07
256.166	0.87
256.635	0.77
257.105	2.77
257.574	-1.53
258.043	3.07
258.513	4.17
258.982	7.27
259.451	3.07
259.92	3.07
260.389	4.97
260.859	7.57
261.328	2.57
261.797	11.37
262.266	3.17
262.735	3.47
263.204	6.87
263.673	-2.53
264.142	8.27
264.611	-4.83
265.08	2.17
265.549	-0.13
266.018	4.17
266.487	-2.43
266.955	-6.73
267.424	-0.83
267.893	2.87
268.362	0.17
268.83	4.77
269.299	11.97
269.768	3.47
270.236	4.07
270.705	-2.23
271.174	5.17
271.642	4.57
272.111	-0.93
272.579	6.87
273.048	6.77
273.516	8.07
273.985	12.07
274.453	6.17
274.922	11.97
275.39	6.57
275.858	-2.93
276.327	9.77
276.795	11.97
277.263	4.77
277.731	21.87
278.2	26.57
278.668	26.97
279.136	28.97
279.604	9.87
280.072	9.87
280.54	11.27
281.008	5.87
281.477	16.87
281.945	9.17
282.413	9.87
282.881	2.57
283.348	5.17
283.816	6.57
284.284	13.17
284.752	21.67
285.22	4.07
285.688	13.47
286.156	12.97
286.623	25.97
287.091	20.97
287.559	20.07
288.026	12.67
288.494	11.87
288.962	0.27
289.429	-0.23
289.897	17.57
290.364	13.57
290.832	10.57
291.3	9.47
291.767	16.97
292.234	10.37
292.702	15.77
293.169	14.67
293.637	17.57
294.104	18.87
294.571	8.07
295.039	9.27
295.506	7.47
295.973	17.47
296.44	10.77
296.908	10.27
297.375	12.37
297.842	19.97
298.309	10.27
298.776	11.67
299.243	12.37
299.71	11.77
300.177	22.97
300.644	21.57
301.111	18.67
301.578	19.47
302.045	13.57
302.512	22.37
302.979	19.97
303.446	18.87
303.913	18.27
304.379	14.07
304.846	23.97
305.313	16.67
305.78	11.37
306.246	22.87
306.713	24.67
307.18	26.67
307.646	19.37
308.113	26.87
308.579	25.47
309.046	23.57
309.512	23.67
309.979	12.27
310.445	25.57
310.912	26.67
311.378	28.17
311.845	27.27
312.311	26.27
312.777	25.17
313.244	23.87
313.71	32.97
314.176	26.67
314.642	23.27
315.109	25.17
315.575	26.27
316.041	33.67
316.507	24.97
316.973	35.27
317.439	30.47
317.905	32.17
318.371	27.77
318.837	32.87
319.303	32.27
319.769	33.27
320.235	26.17
320.701	29.17
321.167	32.87
321.633	28.17
322.099	34.87
322.564	32.37
323.03	40.47
323.496	35.07
323.962	34.57
324.427	32.37
324.893	42.27
325.359	33.17
325.824	33.67
326.29	31.37
326.755	32.17
327.221	43.37
327.686	34.57
328.152	43.27
328.617	40.47
329.083	42.77
329.548	46.07
330.014	46.27
330.479	36.77
330.944	36.97
331.41	36.07
331.875	43.37
332.34	39.47
332.805	36.57
333.271	43.77
333.736	42.97
334.201	44.07
334.666	52.97
335.131	41.27
335.596	47.87
336.061	45.67
336.526	43.17
336.991	47.27
337.456	50.07
337.921	51.67
338.386	40.77
338.851	40.77
339.316	42.47
339.781	48.17
340.246	46.67
340.711	46.97
341.175	49.67
341.64	42.47
342.105	45.27
342.569	50.17
343.034	53.77
343.499	53.87
343.963	48.37
344.428	62.87
344.893	52.77
345.357	56.57
345.822	64.27
346.286	60.17
346.751	68.97
347.215	67.27
347.679	69.87
348.144	86.77
348.608	79.77
349.073	68.07
349.537	75.37
350.001	73.47
350.465	80.87
350.93	76.87
351.394	79.57
351.858	62.57
352.322	89.77
352.786	81.67
353.25	98.37
353.715	102.67
354.179	98.77
354.643	114.07
355.107	115.47
355.571	100.27
356.035	97.17
356.498	111.27
356.962	110.57
357.426	120.37
357.89	106.07
358.354	84.37
358.818	76.57
359.281	77.87
359.745	75.87
360.209	77.17
360.673	70.07
361.136	77.67
361.6	80.77
362.064	82.47
362.527	84.27
362.991	92.17
363.454	84.97
363.918	75.67
364.381	76.47
364.845	83.77
365.308	85.27
365.772	84.17
366.235	85.67
366.698	85.17
367.162	84.57
367.625	81.47
368.088	84.27
368.552	85.97
369.015	81.87
369.478	92.37
369.941	95.07
370.404	92.87
370.867	101.07
371.331	104.67
371.794	113.07
372.257	109.47
372.72	111.77
373.183	103.97
373.646	92.57
374.109	100.37
374.572	105.07
375.035	107.27
375.497	106.47
375.96	110.07
376.423	104.17
376.886	111.07
377.349	109.87
377.811	98.37
378.274	110.87
378.737	105.57
379.199	108.57
379.662	116.47
380.125	113.27
380.587	112.37
381.05	117.37
381.512	116.77
381.975	126.37
382.437	118.67
382.9	122.17
383.362	124.77
383.825	133.57
384.287	136.47
384.75	130.67
385.212	131.87
385.674	138.47
386.136	140.37
386.599	123.57
387.061	131.47
387.523	131.97
387.985	131.17
388.447	136.87
388.91	135.57
389.372	151.87
389.834	145.57
390.296	143.57
390.758	154.37
391.22	154.17
391.682	181.47
392.144	248.17
392.606	204.47
393.068	158.07
393.529	165.87
393.991	156.67
394.453	143.97
394.915	149.37
395.377	175.37
395.838	185.27
396.3	154.77
396.762	144.07
397.224	138.47
397.685	134.17
398.147	134.27
398.608	134.07
399.07	136.77
399.531	143.27
399.993	148.77
400.454	162.37
400.916	153.67
401.377	146.07
401.839	155.97
402.3	149.97
402.762	168.57
403.223	183.07
403.684	178.17
404.145	168.17
404.607	162.47
405.068	163.77
405.529	174.17
405.99	190.47
406.451	183.57
406.913	178.77
407.374	174.27
407.835	163.57
408.296	169.37
408.757	171.77
409.218	193.87
409.679	179.97
410.14	185.97
410.601	182.07
411.062	188.17
411.522	189.47
411.983	189.37
412.444	189.17
412.905	186.37
413.366	190.17
413.826	199.17
414.287	229.97
414.748	280.07
415.208	254.77
415.669	228.37
416.13	221.47
416.59	217.17
417.051	223.17
417.511	229.57
417.972	246.17
418.432	255.87
418.893	307.17
419.353	255.27
419.814	205.97
420.274	195.37
420.734	197.37
421.195	206.27
421.655	206.37
422.115	206.67
422.576	198.17
423.036	208.87
423.496	221.17
423.956	223.67
424.416	240.47
424.876	281.97
425.336	272.37
425.797	276.57
426.257	264.77
426.717	249.97
427.177	242.57
427.637	228.37
428.097	238.77
428.556	246.17
429.016	271.97
429.476	272.47
429.936	281.47
430.396	283.47
430.856	296.57
431.315	319.17
431.775	357.17
432.235	391.97
432.694	361.27
433.154	367.37
433.614	405.97
434.073	352.87
434.533	295.47
434.993	275.07
435.452	284.17
435.912	298.87
436.371	291.97
436.83	286.17
437.29	275.57
437.749	259.17
438.209	259.77
438.668	293.47
439.127	291.37
439.587	273.37
440.046	259.37
440.505	270.67
440.964	287.87
441.424	329.97
441.883	319.67
442.342	277.67
442.801	233.47
443.26	232.97
443.719	238.97
444.178	226.17
444.637	220.67
445.096	231.27
445.555	242.97
446.014	233.37
446.473	239.47
446.932	249.77
447.391	235.87
447.849	238.67
448.308	233.57
448.767	228.57
449.226	244.07
449.685	251.27
450.143	260.37
450.602	249.67
451.061	235.77
451.519	246.87
451.978	250.17
452.436	246.47
452.895	254.97
453.353	266.97
453.812	254.67
454.27	256.57
454.729	245.77
455.187	248.97
455.646	255.37
456.104	251.57
456.562	272.47
457.021	273.57
457.479	276.27
457.937	291.87
458.395	274.17
458.854	262.77
459.312	264.27
459.77	278.67
460.228	275.07
460.686	256.07
461.144	265.27
461.602	256.67
462.06	261.17
462.518	266.37
462.976	266.87
463.434	275.77
463.892	272.87
464.35	289.27
464.808	297.37
465.266	274.27
465.724	281.17
466.181	292.57
466.639	278.97
467.097	305.97
467.555	305.37
468.012	319.37
468.47	330.77
468.928	348.97
469.385	364.87
469.843	369.87
470.3	369.97
470.758	375.77
471.215	400.87
471.673	419.07
472.13	432.97
472.588	441.27
473.045	392.87
473.503	394.47
473.96	411.97
474.417	425.67
474.875	447.87
475.332	496.47
475.789	479.47
476.246	483.17
476.704	501.37
477.161	524.27
477.618	542.87
478.075	581.37
478.532	632.27
478.989	708.27
479.446	820.27
479.903	785.37
480.36	828.17
480.817	869.47
481.274	970.97
481.731	1064.77
482.188	1148.27
482.645	1272.17
483.102	1373.27
483.558	1499.37
484.015	1554.67
484.472	1526.37
484.929	1476.17
485.385	1423.67
485.842	1392.67
486.299	1349.87
486.755	1288.87
487.212	1092.57
487.668	935.27
488.125	857.77
488.582	778.57
489.038	761.27
489.494	726.57
489.951	699.27
490.407	684.97
490.864	664.77
491.32	650.77
491.776	660.77
492.233	662.87
492.689	629.57
493.145	626.67
493.602	614.97
494.058	628.17
494.514	639.27
494.97	657.17
495.426	662.07
495.882	636.67
496.338	616.97
496.794	633.77
497.251	625.47
497.707	651.57
498.163	654.17
498.618	653.37
499.074	650.67
499.53	679.67
499.986	689.07
500.442	669.37
500.898	641.67
501.354	637.27
501.809	648.47
502.265	659.77
502.721	667.07
503.177	678.37
503.632	671.57
504.088	677.37
504.543	701.47
504.999	725.27
505.455	677.17
505.91	650.27
506.366	654.57
506.821	643.27
507.277	654.67
507.732	645.97
508.187	655.17
508.643	660.57
509.098	667.17
509.553	676.87
510.009	679.57
510.464	704.07
510.919	705.37
511.375	719.67
511.83	720.77
512.285	740.57
512.74	778.17
513.195	802.67
513.65	786.47
514.105	781.17
514.56	792.37
515.015	809.27
515.47	822.67
515.925	803.07
516.38	805.77
516.835	818.47
517.29	798.57
517.745	806.17
518.2	794.37
518.655	773.77
519.109	757.67
519.564	775.67
520.019	749.37
520.474	748.17
520.928	749.57
521.383	743.97
521.838	743.47
522.292	727.37
522.747	727.77
523.201	716.27
523.656	726.47
524.11	720.57
524.565	710.07
525.019	715.87
525.474	723.77
525.928	725.77
526.382	721.97
526.837	724.37
527.291	719.87
527.745	717.27
528.2	715.87
528.654	708.17
529.108	703.07
529.562	708.27
530.016	710.97
530.47	707.37
530.925	718.97
531.379	706.07
531.833	730.57
532.287	719.27
532.741	720.47
533.195	718.47
533.649	724.97
534.103	735.07
534.556	723.17
535.01	723.97
535.464	726.57
535.918	735.47
536.372	738.27
536.826	724.27
537.279	712.07
537.733	727.47
538.187	736.87
538.64	735.77
539.094	749.87
539.548	747.77
540.001	745.67
540.455	745.27
540.908	752.87
541.362	757.87
541.815	764.77
542.269	779.97
542.722	784.97
543.175	784.17
543.629	791.97
544.082	808.87
544.536	814.17
544.989	812.87
545.442	814.87
545.895	812.87
546.349	812.67
546.802	815.37
547.255	819.17
547.708	837.57
548.161	843.17
548.614	854.97
549.067	850.17
549.52	842.27
549.973	843.87
550.426	828.57
550.879	832.17
551.332	826.57
551.785	819.37
552.238	825.57
552.691	837.17
553.144	860.47
553.596	866.07
554.049	891.77
554.502	918.97
554.955	929.17
555.407	926.27
555.86	929.47
556.313	915.27
556.765	906.77
557.218	910.17
557.67	902.67
558.123	901.07
558.576	895.47
559.028	902.07
559.48	907.47
559.933	899.57
560.385	864.67
560.838	838.57
561.29	797.27
561.742	812.37
562.195	792.37
562.647	782.57
563.099	805.27
563.551	796.27
564.004	796.27
564.456	779.87
564.908	787.37
565.36	761.57
565.812	747.57
566.264	736.77
566.716	742.37
567.168	723.87
567.62	735.87
568.072	718.27
568.524	723.77
568.976	720.37
569.428	695.47
569.88	698.47
570.332	710.17
570.784	707.27
571.235	701.97
571.687	716.57
572.139	721.07
572.59	727.07
573.042	734.77
573.494	732.57
573.945	721.37
574.397	702.87
574.849	709.77
575.3	716.77
575.752	696.97
576.203	701.97
576.655	707.27
577.106	687.17
577.557	673.17
578.009	693.97
578.46	686.47
578.912	675.27
579.363	690.07
579.814	693.07
580.265	677.47
580.717	687.87
581.168	695.07
581.619	697.27
582.07	695.87
582.521	700.87
582.972	690.77
583.423	695.37
583.875	693.17
584.326	717.27
584.777	749.37
585.227	786.67
585.678	836.77
586.129	889.97
586.58	932.67
587.031	981.27
587.482	1078.87
587.933	1178.77
588.384	1070.67
588.834	898.97
589.285	805.87
589.736	791.87
590.186	797.97
590.637	784.97
591.088	764.17
591.538	762.07
591.989	750.17
592.439	744.17
592.89	751.67
593.34	724.47
593.791	725.77
594.241	715.17
594.692	723.77
595.142	725.37
595.593	709.07
596.043	718.97
596.493	727.17
596.943	716.27
597.394	749.47
597.844	746.97
598.294	753.97
598.744	785.27
599.195	800.37
599.645	839.27
600.095	880.37
600.545	953.87
600.995	1013.97
601.445	1053.97
601.895	1120.47
602.345	1158.87
602.795	1146.97
603.245	1101.67
603.695	1030.57
604.145	979.77
604.594	945.87
605.044	888.77
605.494	823.47
605.944	789.37
606.393	754.47
606.843	744.77
607.293	746.67
607.743	756.57
608.192	766.87
608.642	783.87
609.091	781.37
609.541	792.97
609.99	784.57
610.44	785.67
610.889	743.87
611.339	714.67
611.788	705.77
612.238	716.07
612.687	732.27
613.136	721.97
613.586	737.57
614.035	741.97
614.484	751.37
614.933	743.77
615.383	750.07
615.832	751.07
616.281	732.57
616.73	700.77
617.179	677.27
617.628	661.17
618.077	647.37
618.526	641.77
618.975	643.57
619.424	633.47
619.873	629.97
620.322	631.07
620.771	621.87
621.22	622.07
621.669	614.77
622.118	607.47
622.567	591.67
623.015	583.37
623.464	588.47
623.913	582.67
624.361	567.87
624.81	559.07
625.259	571.87
625.707	578.67
626.156	581.77
626.604	584.87
627.053	578.67
627.501	578.37
627.95	592.67
628.398	595.97
628.847	606.57
629.295	591.67
629.744	591.67
630.192	586.87
630.64	582.07
631.089	568.47
631.537	573.57
631.985	573.87
632.433	572.57
632.881	576.67
633.33	594.27
633.778	592.87
634.226	559.27
634.674	566.07
635.122	576.77
635.57	591.67
636.018	614.07
636.466	587.97
636.914	574.77
637.362	588.27
637.81	584.27
638.258	597.07
638.705	600.57
639.153	627.37
639.601	644.17
640.049	662.77
640.497	699.97
640.944	710.17
641.392	657.57
641.84	631.57
642.287	602.37
642.735	581.77
643.182	579.07
643.63	583.37
644.078	587.97
644.525	594.17
644.973	613.57
645.42	626.77
645.867	635.87
646.315	648.07
646.762	680.87
647.21	707.07
647.657	723.97
648.104	763.77
648.551	782.57
648.999	849.17
649.446	920.97
649.893	1009.67
650.34	1171.87
650.787	1398.57
651.234	1723.77
651.682	2243.67
652.129	3056.97
652.576	4368.17
653.023	6411.17
653.47	8651.07
653.917	10681.47
654.363	12251.87
654.81	13448.47
655.257	12774.77
655.704	8419.77
656.151	5028.17
656.598	3297.97
657.044	2341.67
657.491	1821.17
657.938	1471.27
658.385	1229.37
658.831	1076.57
659.278	962.57
659.724	858.27
660.171	791.67
660.618	733.27
661.064	701.57
661.511	675.77
661.957	666.57
662.404	657.37
662.85	661.57
663.296	631.97
663.743	569.07
664.189	551.37
664.635	539.47
665.082	540.07
665.528	544.47
665.974	532.67
666.42	535.17
666.867	514.87
667.313	498.67
667.759	492.07
668.205	475.47
668.651	475.97
669.097	475.67
669.543	471.37
669.989	468.97
670.435	465.07
670.881	464.57
671.327	454.57
671.773	483.57
672.219	511.07
672.665	558.17
673.11	608.47
673.556	652.37
674.002	682.27
674.448	671.37
674.893	574.37
675.339	493.07
675.785	450.07
676.23	433.37
676.676	410.87
677.122	396.87
677.567	380.07
678.013	379.57
678.458	378.47
678.904	369.47
679.349	359.87
679.794	362.37
680.24	361.57
680.685	368.47
681.131	363.67
681.576	363.37
682.021	366.37
682.466	356.67
682.912	357.97
683.357	364.57
683.802	391.07
684.247	426.07
684.692	477.07
685.137	512.57
685.583	550.27
686.028	587.27
686.473	532.77
686.918	462.57
687.363	434.97
687.807	413.67
688.252	375.57
688.697	363.77
689.142	347.67
689.587	347.67
690.032	341.67
690.477	354.07
690.921	368.67
691.366	398.87
691.811	420.77
692.255	446.77
692.7	482.67
693.145	529.47
693.589	751.37
694.034	1198.07
694.478	1622.27
694.923	1801.77
695.367	2331.87
695.812	1237.77
696.256	521.77
696.701	382.37
697.145	357.77
697.59	337.77
698.034	330.97
698.478	333.07
698.922	342.87
699.367	331.97
699.811	351.07
700.255	359.37
700.699	398.77
701.143	444.97
701.588	496.77
702.032	540.17
702.476	521.37
702.92	507.37
703.364	516.27
703.808	671.87
704.252	1095.27
704.696	1530.17
705.14	1729.37
705.584	2193.57
706.027	1103.87
706.471	540.17
706.915	408.87
707.359	364.87
707.803	329.27
708.246	325.67
708.69	318.97
709.134	321.87
709.577	323.87
710.021	325.27
710.465	314.47
710.908	308.27
711.352	310.07
711.795	317.57
712.239	372.87
712.682	398.47
713.126	429.87
713.569	473.37
714.012	374.37
714.456	325.37
714.899	306.27
715.342	281.27
715.786	276.07
716.229	267.67
716.672	261.97
717.115	256.27
717.558	258.57
718.002	263.67
718.445	269.77
718.888	292.27
719.331	300.37
719.774	318.17
720.217	318.57
720.66	284.47
721.103	269.57
721.546	261.57
721.989	256.57
722.432	239.87
722.874	250.17
723.317	233.77
723.76	245.57
724.203	268.67
724.645	332.87
725.088	475.07
725.531	592.87
725.974	659.57
726.416	563.97
726.859	316.67
727.301	250.87
727.744	242.77
728.187	242.87
728.629	246.07
729.071	244.17
729.514	269.27
729.956	277.37
730.399	293.77
730.841	300.07
731.283	287.87
731.726	267.77
732.168	270.77
732.61	275.87
733.053	301.17
733.495	321.77
733.937	370.37
734.379	409.77
734.821	464.17
735.263	574.37
735.705	896.57
736.148	1689.87
736.59	2712.27
737.032	3146.87
737.474	2564.07
737.916	846.77
738.357	433.77
738.799	334.77
739.241	309.77
739.683	297.77
740.125	306.77
740.567	307.77
741.008	323.17
741.45	328.37
741.892	333.97
742.334	363.87
742.775	373.27
743.217	355.67
743.658	272.77
744.1	266.67
744.542	276.67
744.983	324.87
745.425	365.17
745.866	355.57
746.307	295.57
746.749	290.47
747.19	335.67
747.632	485.57
748.073	968.87
748.514	2012.37
748.956	2974.57
749.397	3741.77
749.838	3090.77
750.279	3036.67
750.72	1563.47
751.162	573.67
751.603	334.17
752.044	260.27
752.485	221.47
752.926	219.77
753.367	214.37
753.808	201.37
754.249	202.47
754.69	196.77
755.131	185.67
755.572	190.77
756.013	194.17
756.453	193.37
756.894	191.67
757.335	202.47
757.776	207.67
758.216	206.67
758.657	206.87
759.098	212.07
759.538	238.87
759.979	278.67
760.42	398.27
760.86	763.87
761.301	2010.27
761.741	4723.27
762.182	6563.37
762.622	4647.17
763.063	1373.87
763.503	566.57
763.943	354.07
764.384	314.47
764.824	335.47
765.264	338.17
765.705	252.77
766.145	201.97
766.585	188.87
767.025	179.57
767.465	180.37
767.906	217.57
768.346	264.77
768.786	280.97
769.226	248.27
769.666	330.27
770.106	671.87
770.546	1685.47
770.986	2718.47
771.426	2406.47
771.866	829.27
772.306	341.57
772.745	214.77
773.185	181.77
773.625	175.37
774.065	166.57
774.505	188.47
774.944	264.77
775.384	519.57
775.824	890.87
776.263	863.77
776.703	398.47
777.142	200.47
777.582	151.17
778.021	134.27
778.461	134.17
778.9	133.97
779.34	132.07
779.779	121.77
780.219	110.67
780.658	112.37
781.097	116.07
781.537	110.57
781.976	115.87
782.415	113.37
782.855	104.67
783.294	103.27
783.733	102.27
784.172	111.47
784.611	107.37
785.05	114.67
785.489	113.07
785.928	124.87
786.367	126.17
786.806	113.97
787.245	135.37
787.684	142.97
788.123	160.07
788.562	138.97
789.001	128.17
789.44	119.87
789.879	121.87
790.317	120.17
790.756	129.87
791.195	132.77
791.634	155.97
792.072	217.77
792.511	385.47
792.95	1086.87
793.388	2218.57
793.827	1957.37
794.265	711.47
794.704	296.57
795.142	190.77
795.581	154.67
796.019	141.07
796.458	130.87
796.896	127.57
797.334	138.47
797.773	166.07
798.211	235.07
798.649	474.07
799.087	1088.67
799.526	1677.67
799.964	2115.27
800.402	2063.87
800.84	786.87
801.278	319.17
801.716	191.47
802.154	163.87
802.592	151.77
803.03	152.47
803.468	135.97
803.906	153.17
804.344	153.87
804.782	152.67
805.22	145.37
805.658	136.67
806.096	155.47
806.533	165.47
806.971	183.27
807.409	229.87
807.847	348.47
808.284	723.77
808.722	2001.37
809.16	3412.87
809.597	3349.77
810.035	5697.97
810.472	5901.87
810.91	2176.67
811.347	837.57
811.785	422.37
812.222	269.67
812.66	204.37
813.097	164.37
813.535	144.57
813.972	139.47
814.409	125.47
814.846	117.07
815.284	115.97
815.721	101.37
816.158	105.87
816.595	108.47
817.032	169.37
817.47	185.87
817.907	143.27
818.344	126.27
818.781	112.07
819.218	98.07
819.655	131.17
820.092	194.07
820.529	224.07
820.966	180.07
821.403	132.07
821.839	109.77
822.276	102.47
822.713	124.17
823.15	138.47
823.587	129.47
824.023	159.07
824.46	327.57
824.897	959.57
825.333	1384.77
825.77	597.27
826.206	241.37
826.643	145.37
827.08	110.87
827.516	96.07
827.953	75.07
828.389	93.27
828.825	74.27
829.262	71.07
829.698	64.07
830.135	66.57
830.571	66.67
831.007	63.17
831.443	68.07
831.88	65.17
832.316	62.87
832.752	65.77
833.188	64.47
833.624	67.57
834.06	66.57
834.497	74.67
834.933	72.17
835.369	78.17
835.805	72.67
836.241	79.47
836.677	78.07
837.112	97.67
837.548	115.47
837.984	142.27
838.42	217.77
838.856	549.47
839.292	1620.37
839.727	2368.27
840.163	1105.67
840.599	999.67
841.034	2145.87
841.47	2164.77
841.906	800.37
842.341	351.57
842.777	222.17
843.212	266.07
843.648	247.47
844.083	137.47
844.519	91.37
844.954	77.47
845.39	58.47
845.825	58.67
846.261	58.67
846.696	59.07
847.131	53.87
847.566	59.67
848.002	55.47
848.437	55.87
848.872	68.07
849.307	64.27
849.742	89.67
850.177	194.67
850.613	592.77
851.048	906.77
851.483	389.37
851.918	161.47
852.353	91.07
852.788	59.57
853.223	51.47
853.657	58.27
854.092	47.67
854.527	38.67
854.962	42.07
855.397	47.37
855.832	56.77
856.266	38.47
856.701	35.47
857.136	36.97
857.57	40.87
858.005	54.57
858.44	60.17
858.874	43.67
859.309	49.97
859.743	38.57
860.178	44.97
860.612	49.47
861.047	60.37
861.481	75.97
861.915	80.07
862.35	56.17
862.784	42.77
863.218	37.57
863.653	34.47
864.087	52.17
864.521	52.37
864.955	78.77
865.39	167.67
865.824	184.17
866.258	120.17
866.692	174.37
867.126	189.57
867.56	115.47
867.994	53.27
868.428	36.17
868.862	52.77
869.296	54.97
869.73	59.77
870.164	62.87
870.598	48.17
871.031	30.17
871.465	32.87
871.899	32.37
872.333	23.87
872.766	25.57
873.2	26.57
873.634	29.07
874.067	21.87
874.501	29.47
874.935	36.17
875.368	37.77
875.802	26.87
876.235	19.07
876.669	30.17
877.102	24.07
877.535	27.67
877.969	24.87
878.402	30.47
878.836	16.37
879.269	27.17
879.702	23.37
880.135	24.47
880.569	21.37
881.002	24.77
881.435	20.17
881.868	20.17
882.301	27.77
882.734	15.47
883.167	21.67
883.601	17.57
884.034	27.37
884.467	14.77
884.899	17.17
885.332	16.37
885.765	17.47
886.198	10.87
886.631	13.27
887.064	18.97
887.497	20.87
887.929	22.37
888.362	14.47
888.795	15.27
889.228	17.87
889.66	21.17
890.093	15.17
890.526	14.27
890.958	21.27
891.391	20.07
891.823	23.97
892.256	9.57
892.688	12.97
893.121	16.27
893.553	21.67
893.985	20.67
894.418	16.27
894.85	17.57
895.282	12.17
895.715	20.67
896.147	15.07
896.579	16.17
897.011	14.87
897.444	19.87
897.876	15.27
898.308	16.47
898.74	14.57
899.172	9.47
899.604	20.67
900.036	17.77
900.468	14.17
900.9	13.47
901.332	15.47
901.764	12.17
902.196	18.77
902.628	25.77
903.06	18.07
903.491	30.37
903.923	24.57
904.355	17.37
904.787	23.57
905.218	21.07
905.65	22.07
906.082	10.87
906.513	12.27
906.945	18.17
907.376	17.47
907.808	25.27
908.239	20.17
908.671	22.87
909.102	19.77
909.534	27.17
909.965	46.97
910.397	104.57
910.828	327.17
911.259	485.07
911.691	226.67
912.122	102.37
912.553	51.07
912.984	35.07
913.415	25.97
913.847	20.27
914.278	18.47
914.709	13.47
915.14	20.37
915.571	15.17
916.002	11.47
916.433	19.37
916.864	17.37
917.295	12.07
917.726	19.37
918.157	15.67
918.587	29.27
919.018	25.77
919.449	18.47
919.88	23.77
920.311	30.57
920.741	51.07
921.172	168.87
921.603	153.97
922.033	75.77
922.464	51.47
922.895	23.17
923.325	20.17
923.756	20.17
924.186	11.97
924.617	27.87
925.047	35.67
925.478	34.47
925.908	31.77
926.338	12.67
926.769	14.07
927.199	17.47
927.629	8.57
928.06	11.07
928.49	9.87
928.92	20.57
929.35	9.67
929.78	10.77
930.21	11.27
930.641	6.97
931.071	14.67
931.501	9.57
931.931	12.37
932.361	7.67
932.791	2.67
933.221	6.97
933.651	6.17
934.08	20.27
934.51	27.87
934.94	6.67
935.37	6.07
935.8	15.67
936.229	3.67
936.659	6.87
937.089	8.27
937.519	12.97
937.948	25.57
938.378	15.87
938.807	4.97
939.237	8.77
939.666	9.97
940.096	-8.43
940.525	1.17
940.955	0.97
941.384	5.57
941.814	-6.73
942.243	-0.13
942.672	3.87
943.102	2.87
943.531	2.57
943.96	3.27
944.39	8.27
944.819	3.67
945.248	4.07
945.677	-3.23
946.106	1.27
946.535	2.77
946.964	0.27
947.393	6.17
947.822	1.27
948.251	-2.83
948.68	6.77
949.109	7.57
949.538	5.17
949.967	6.07
950.396	-1.43
950.825	-0.73
951.254	-1.43
951.682	0.37
952.111	5.17
952.54	5.57
952.969	-3.63
953.397	-6.33
953.826	5.37
954.254	-6.23
954.683	3.57
955.112	-0.43
955.54	0.97
955.969	-0.03
956.397	4.27
956.826	-7.23
957.254	-1.13
957.682	-0.23
958.111	1.97
958.539	3.57
958.967	2.07
959.396	-3.93
959.824	3.07
960.252	3.77
960.68	-4.43
961.109	0.47
961.537	1.87
961.965	-2.43
962.393	0.27
962.821	-2.33
963.249	0.67
963.677	5.97
964.105	8.27
964.533	50.87
964.961	45.67
965.389	20.67
965.817	7.37
966.245	5.57
966.672	4.27
967.1	-4.43
967.528	-2.63
967.956	0.37
968.383	-2.33
968.811	3.27
969.239	1.77
969.666	-2.83
970.094	-1.53
970.522	-1.93
970.949	2.27
971.377	-4.03
971.804	-3.83
972.232	-0.83
972.659	-0.63
973.087	-4.13
973.514	-6.33
973.941	-6.63
974.369	2.97
974.796	-0.33
975.223	-0.03
975.651	-3.53
976.078	-0.43
976.505	3.37
976.932	3.27
977.359	12.97
977.786	16.87
978.214	2.37
978.641	-1.93
979.068	-3.13
979.495	-4.63
979.922	-3.23
980.349	-6.83
980.776	0.67
981.202	0.87
981.629	10.47
982.056	0.97
982.483	-7.03
982.91	-2.53
983.337	-1.93
983.763	4.67
984.19	-1.23
984.617	-5.13
985.043	-6.23
985.47	3.87
985.897	-6.83
986.323	-6.63
986.75	3.17
987.176	-2.63
987.603	2.17
988.029	-2.63
988.456	-1.13
988.882	4.57
989.308	-7.53
989.735	-2.93
990.161	0.07
990.587	-2.63
991.014	-2.33
991.44	10.77
991.866	-4.73
992.292	1.97
992.719	-4.33
993.145	1.77
993.571	-10.33
993.997	-1.13
994.423	-4.73
994.849	-1.53
995.275	2.67
995.701	-1.23
996.127	-1.83
996.553	-1.13
996.979	-4.33
997.405	-3.53
997.83	-4.93
998.256	-7.13
998.682	-3.73
999.108	-7.93
999.534	1.67
999.959	-2.53
1000.385	1.17
1000.811	-0.83
1001.236	-4.93
1001.662	-10.03
1002.087	-10.23
1002.513	5.97
1002.938	1.77
1003.364	-0.23
1003.789	-3.73
1004.215	9.47
1004.64	1.27
1005.066	1.27
1005.491	3.57
1005.916	0.17
1006.342	-3.43
1006.767	-7.23
1007.192	7.37
1007.617	-2.23
1008.042	-7.63
1008.468	-5.83
1008.893	-4.03
1009.318	-2.93
1009.743	-4.13
1010.168	5.47
1010.593	8.27
1011.018	-8.33
1011.443	2.77
1011.868	2.97
1012.293	-0.03
1012.718	-7.73
1013.143	-4.93
1013.567	1.17
1013.992	-9.63
1014.417	-12.83
1014.842	4.97
1015.267	-5.33
1015.691	-6.63
1016.116	2.57
1016.541	-3.03
1016.965	2.17
1017.39	-5.53
1017.814	-0.13
1018.239	0.87
1018.663	-8.73
1019.088	-8.53
1019.512	-4.93
1019.937	-3.63
1020.361	-9.23
1020.785	-9.43
1021.21	-3.53
1021.634	-0.03
1022.058	-3.63
1022.483	7.87
1022.907	-2.53
1023.331	-5.73
1023.755	-2.83
1024.179	-6.83
1024.604	-3.13
1025.028	-5.23
1025.452	-5.83
1025.876	-3.23
1026.3	-3.43
1026.724	-8.33
1027.148	-8.03
1027.572	-2.43
1027.996	-6.03
1028.42	-3.33
1028.843	-4.03
1029.267	-4.73
1029.691	0.17
1030.115	-7.93
1030.539	-7.33
1030.962	-8.83
1031.386	-7.83
1031.81	-4.53
1032.233	-1.53
1032.657	-5.33
1033.08	-3.03
1033.504	-2.53
1033.927	-1.73
1034.351	-1.53
1034.774	-7.33
1035.198	-6.43
1035.621	-7.73
1036.045	-7.93
1036.468	1.57
1036.891	-11.43
1037.315	-12.53
1037.738	-11.43
1038.161	4.97
1038.584	-4.13
1039.008	-8.63
1039.431	-1.73
1039.854	-6.53
1040.277	-6.93
1040.7	-15.13
1041.123	-2.03
1041.546	-10.03
1041.969	-3.83
1042.392	-9.73
1042.815	-5.43
1043.238	-0.33
1043.661	5.47
1044.084	-9.13
1044.507	-5.93
1044.93	-9.13
1045.352	-3.83
1045.775	-0.63
1046.198	-7.33
1046.621	-2.43
1047.043	0.87
1047.466	5.77
1047.889	-6.93
1048.311	-4.13
1048.734	-5.33
1049.156	-3.73
1049.579	-4.03
1050.001	-0.43
1050.424	-1.13
1050.846	1.77
1051.269	-0.43
1051.691	-5.93
1052.113	-0.63
1052.536	0.47
1052.958	-1.43
1053.38	-7.83
1053.802	-7.23
1054.225	-0.93
1054.647	-11.33
1055.069	-2.93
1055.491	-1.63
1055.913	-7.53
1056.335	-0.33
1056.757	-6.93
1057.179	-9.03
1057.601	-4.53
1058.023	-4.63
1058.445	-7.33
1058.867	-8.63
1059.289	-4.73
1059.711	-3.13
1060.133	-3.83
1060.555	-2.13
1060.976	-8.23
1061.398	-7.93
1061.82	-8.43
1062.241	-5.93
1062.663	-5.93
1063.085	-8.23
1063.506	-1.03
1063.928	-6.43
1064.35	-5.33
1064.771	-12.83
1065.193	-4.03
1065.614	-12.93
1066.035	-5.53
1066.457	-9.23
1066.878	1.37
1067.3	-3.13
1067.721	-3.33
1068.142	-5.83
1068.564	-1.33
1068.985	-8.23
1069.406	-4.83
1069.827	-4.83
1070.248	1.97
1070.67	-6.83
1071.091	-4.43
1071.512	0.07
1071.933	-4.03
1072.354	-3.23
1072.775	-4.73
1073.196	-5.63
1073.617	-4.13
1074.038	-12.43
1074.459	-4.93
1074.88	-4.83
1075.3	2.67
1075.721	-8.53
1076.142	0.87
1076.563	-6.53
1076.983	-11.73
1077.404	-8.33
1077.825	-3.63
1078.246	-10.73
1078.666	-12.93
1079.087	-7.03
1079.507	-8.13
1079.928	-5.93
1080.348	-1.03
1080.769	-2.23
1081.189	5.87
1081.61	-9.93
1082.03	-11.93
1082.451	-5.73
1082.871	-7.93
1083.291	-7.13
1083.711	-2.13
1084.132	-6.73
1084.552	-3.13
1084.972	-0.13
1085.392	-6.03
1085.813	-11.03
1086.233	-6.63
1086.653	-6.13
1087.073	-7.43
1087.493	-9.03
1087.913	-5.83
1088.333	-4.03
1088.753	-2.03
1089.173	0.47
1089.593	-3.23
1090.013	-3.93
1090.433	0.57
1090.852	-4.43
1091.272	-6.23
1091.692	-1.23
1092.112	-9.63
1092.531	-10.53
1092.951	-12.33
1093.371	-1.93
1093.79	1.47
1094.21	-8.73
1094.63	-0.13
1095.049	-2.33
1095.469	-6.03
1095.888	-6.63
1096.308	2.87
1096.727	4.47
1097.146	-9.53
1097.566	1.17
1097.985	-4.93
1098.405	-3.03
1098.824	-8.33
1099.243	-4.93
1099.662	-6.63
1100.082	-8.03
1100.501	-2.13
1100.92	-8.23
1101.339	-3.23
1101.758	-5.73
