Data from 20171114-ORNL-Ar_H_NY_Subt18_08-07-36-348.txt Node
Date: Tue Nov 14 08:07:36 EST 2017
User: Ender
Spectrometer: HR+D1039
Trigger mode: 0
Integration Time (sec): 2.730000E-2
Scans to average: 10
Electric dark correction enabled: true
Nonlinearity correction enabled: false
Boxcar width: 0
XAxis mode: Wavelengths
Number of Pixels in Spectrum: 2048
>>>>>Begin Spectral Data<<<<<
187.836	-2.17
188.309	-2.17
188.782	-2.17
189.255	5.82
189.728	0.63
190.201	0.83
190.674	1.62
191.147	3.32
191.619	-7.18
192.092	-1.97
192.565	3.02
193.038	1.62
193.511	1.12
193.984	-1.67
194.456	-3.67
194.929	-3.07
195.402	-0.88
195.874	2.62
196.347	-1.08
196.82	-6.88
197.292	6.02
197.765	-3.67
198.237	-5.77
198.71	1.52
199.182	-1.77
199.655	4.02
200.127	2.42
200.6	-5.48
201.072	-4.68
201.544	-4.67
202.017	-8.88
202.489	3.12
202.961	-0.07
203.433	-1.77
203.906	-11.67
204.378	-5.87
204.85	-5.08
205.322	-3.88
205.794	1.42
206.266	-8.07
206.739	-11.07
207.211	3.12
207.683	-7.17
208.155	-6.48
208.627	-8.07
209.099	-2.48
209.57	-9.47
210.042	-0.27
210.514	-4.57
210.986	1.53
211.458	-8.27
211.93	-2.18
212.402	1.12
212.873	-6.38
213.345	-12.27
213.817	-12.58
214.288	-5.68
214.76	-13.17
215.232	-6.37
215.703	-6.17
216.175	-7.07
216.646	-0.67
217.118	-8.38
217.589	-5.67
218.061	-0.68
218.532	-4.67
219.004	-3.57
219.475	-5.38
219.946	-4.17
220.418	-2.67
220.889	-0.67
221.36	-3.27
221.832	-1.48
222.303	-8.17
222.774	-5.27
223.245	-12.37
223.717	-5.58
224.188	-1.47
224.659	-10.77
225.13	-10.17
225.601	-4.18
226.072	-0.88
226.543	-2.27
227.014	2.42
227.485	-1.58
227.956	-2.97
228.427	-6.47
228.898	0.62
229.369	4.73
229.839	-5.17
230.31	-7.98
230.781	1.43
231.252	1.02
231.722	-6.08
232.193	-3.37
232.664	2.93
233.135	-0.67
233.605	-0.97
234.076	-6.08
234.546	0.23
235.017	0.33
235.487	-0.17
235.958	-4.77
236.428	-1.57
236.899	8.33
237.369	-1.67
237.84	-3.27
238.31	8.92
238.78	3.83
239.251	-3.17
239.721	2.53
240.191	0.53
240.662	-0.47
241.132	2.83
241.602	-3.88
242.072	2.43
242.542	6.53
243.013	-3.48
243.483	1.03
243.953	-2.77
244.423	-6.87
244.893	-4.38
245.363	4.92
245.833	-1.88
246.303	-2.67
246.773	4.23
247.243	1.62
247.712	-2.68
248.182	7.42
248.652	4.33
249.122	0.02
249.592	4.52
250.061	15.43
250.531	28.53
251.001	11.83
251.471	21.12
251.94	15.82
252.41	5.23
252.879	-2.17
253.349	6.52
253.818	5.73
254.288	5.43
254.757	-1.17
255.227	-1.47
255.696	0.92
256.166	0.53
256.635	5.73
257.105	9.03
257.574	5.92
258.043	5.43
258.513	5.73
258.982	13.13
259.451	6.73
259.92	6.73
260.389	7.12
260.859	13.33
261.328	5.33
261.797	15.33
262.266	6.33
262.735	7.53
263.204	4.42
263.673	0.62
264.142	2.53
264.611	-6.88
265.08	-3.77
265.549	-0.87
266.018	1.23
266.487	2.82
266.955	-3.77
267.424	0.93
267.893	7.43
268.362	3.93
268.83	1.83
269.299	5.53
269.768	0.42
270.236	6.83
270.705	-1.67
271.174	3.63
271.642	2.62
272.111	9.43
272.579	11.62
273.048	14.32
273.516	19.43
273.985	18.33
274.453	19.83
274.922	16.23
275.39	12.12
275.858	-1.57
276.327	7.52
276.795	12.73
277.263	4.52
277.731	21.32
278.2	50.73
278.668	51.03
279.136	37.93
279.604	16.53
280.072	13.33
280.54	2.62
281.008	6.52
281.477	12.42
281.945	9.93
282.413	12.62
282.881	12.43
283.348	7.73
283.816	12.23
284.284	19.62
284.752	18.12
285.22	3.53
285.688	9.73
286.156	17.23
286.623	37.62
287.091	47.53
287.559	18.43
288.026	12.12
288.494	11.93
288.962	2.12
289.429	9.92
289.897	18.53
290.364	10.92
290.832	10.03
291.3	12.73
291.767	12.83
292.234	14.52
292.702	3.03
293.169	13.43
293.637	17.33
294.104	16.83
294.571	5.23
295.039	4.83
295.506	8.33
295.973	9.62
296.44	11.33
296.908	10.83
297.375	12.43
297.842	15.83
298.309	7.73
298.776	9.43
299.243	18.32
299.71	7.92
300.177	17.53
300.644	18.73
301.111	18.63
301.578	15.23
302.045	12.62
302.512	16.23
302.979	18.33
303.446	23.02
303.913	13.53
304.379	11.43
304.846	22.73
305.313	17.12
305.78	17.23
306.246	17.23
306.713	15.12
307.18	25.03
307.646	23.02
308.113	21.23
308.579	17.33
309.046	23.53
309.512	25.83
309.979	12.73
310.445	20.73
310.912	23.12
311.378	29.12
311.845	26.03
312.311	26.33
312.777	27.62
313.244	24.93
313.71	28.33
314.176	23.73
314.642	23.02
315.109	23.73
315.575	34.53
316.041	32.83
316.507	29.73
316.973	36.23
317.439	28.62
317.905	30.33
318.371	29.52
318.837	27.13
319.303	27.23
319.769	31.83
320.235	32.62
320.701	25.62
321.167	29.32
321.633	27.33
322.099	32.82
322.564	42.02
323.03	29.83
323.496	30.62
323.962	34.63
324.427	30.52
324.893	37.02
325.359	33.92
325.824	28.33
326.29	30.02
326.755	34.12
327.221	30.92
327.686	37.23
328.152	42.33
328.617	31.33
329.083	41.83
329.548	46.12
330.014	42.83
330.479	40.62
330.944	35.82
331.41	37.33
331.875	41.23
332.34	38.03
332.805	35.73
333.271	44.52
333.736	36.12
334.201	40.83
334.666	48.73
335.131	47.33
335.596	45.73
336.061	43.12
336.526	36.92
336.991	38.93
337.456	48.23
337.921	47.02
338.386	39.43
338.851	40.23
339.316	39.33
339.781	42.03
340.246	42.62
340.711	39.12
341.175	41.93
341.64	38.62
342.105	48.62
342.569	45.02
343.034	52.02
343.499	44.23
343.963	46.63
344.428	57.03
344.893	56.23
345.357	49.42
345.822	54.92
346.286	59.52
346.751	63.73
347.215	59.73
347.679	62.93
348.144	81.02
348.608	68.12
349.073	56.73
349.537	69.12
350.001	69.33
350.465	73.73
350.93	73.43
351.394	71.62
351.858	63.93
352.322	72.73
352.786	67.33
353.25	87.02
353.715	93.53
354.179	86.62
354.643	105.23
355.107	109.12
355.571	94.73
356.035	94.62
356.498	100.62
356.962	111.12
357.426	118.42
357.89	103.12
358.354	82.83
358.818	76.23
359.281	72.43
359.745	69.83
360.209	67.93
360.673	64.03
361.136	68.13
361.6	74.92
362.064	79.83
362.527	79.32
362.991	81.23
363.454	70.43
363.918	69.12
364.381	75.02
364.845	79.73
365.308	80.42
365.772	81.73
366.235	78.93
366.698	69.62
367.162	77.23
367.625	80.12
368.088	78.33
368.552	84.12
369.015	77.33
369.478	93.23
369.941	91.33
370.404	87.42
370.867	87.83
371.331	93.92
371.794	102.73
372.257	97.62
372.72	110.42
373.183	102.93
373.646	103.02
374.109	91.03
374.572	104.12
375.035	100.73
375.497	103.92
375.96	102.73
376.423	98.52
376.886	103.63
377.349	102.42
377.811	93.43
378.274	99.53
378.737	104.33
379.199	107.53
379.662	103.23
380.125	115.13
380.587	115.12
381.05	117.63
381.512	125.52
381.975	126.12
382.437	120.93
382.9	119.42
383.362	122.12
383.825	129.03
384.287	138.93
384.75	133.62
385.212	132.12
385.674	127.62
386.136	131.43
386.599	119.83
387.061	126.13
387.523	123.23
387.985	122.12
388.447	144.52
388.91	142.23
389.372	153.83
389.834	148.12
390.296	140.23
390.758	149.43
391.22	158.43
391.682	199.12
392.144	272.53
392.606	218.93
393.068	160.93
393.529	163.42
393.991	147.93
394.453	144.52
394.915	154.42
395.377	187.62
395.838	210.62
396.3	151.23
396.762	137.73
397.224	129.02
397.685	127.02
398.147	121.43
398.608	126.23
399.07	126.33
399.531	126.43
399.993	139.43
400.454	140.62
400.916	133.02
401.377	144.03
401.839	136.73
402.3	147.62
402.762	156.52
403.223	177.73
403.684	166.42
404.145	152.73
404.607	151.23
405.068	157.33
405.529	164.23
405.99	182.03
406.451	168.32
406.913	162.02
407.374	159.83
407.835	158.33
408.296	156.53
408.757	170.02
409.218	182.73
409.679	170.83
410.14	170.43
410.601	167.83
411.062	176.83
411.522	186.03
411.983	179.92
412.444	172.93
412.905	180.03
413.366	172.93
413.826	186.12
414.287	206.23
414.748	253.33
415.208	236.23
415.669	209.82
416.13	200.42
416.59	199.42
417.051	204.32
417.511	208.73
417.972	230.63
418.432	242.12
418.893	275.03
419.353	242.02
419.814	190.62
420.274	176.02
420.734	173.92
421.195	197.42
421.655	192.03
422.115	186.12
422.576	189.02
423.036	194.73
423.496	202.02
423.956	217.93
424.416	225.32
424.876	261.93
425.336	259.62
425.797	249.63
426.257	252.73
426.717	233.93
427.177	227.53
427.637	213.93
428.097	227.62
428.556	239.92
429.016	271.53
429.476	258.82
429.936	269.73
430.396	271.53
430.856	292.43
431.315	310.02
431.775	337.32
432.235	381.62
432.694	344.02
433.154	351.83
433.614	381.12
434.073	334.02
434.533	278.93
434.993	268.83
435.452	268.53
435.912	287.32
436.371	277.02
436.83	280.23
437.29	259.82
437.749	240.12
438.209	243.83
438.668	271.83
439.127	284.42
439.587	259.63
440.046	241.92
440.505	252.83
440.964	265.23
441.424	315.82
441.883	296.43
442.342	249.83
442.801	220.53
443.26	217.53
443.719	225.12
444.178	221.53
444.637	207.52
445.096	223.93
445.555	220.12
446.014	216.02
446.473	222.12
446.932	229.02
447.391	221.12
447.849	228.63
448.308	219.62
448.767	217.73
449.226	235.13
449.685	228.33
450.143	242.92
450.602	235.43
451.061	225.12
451.519	231.93
451.978	235.53
452.436	230.53
452.895	241.93
453.353	242.32
453.812	235.43
454.27	237.72
454.729	234.93
455.187	235.42
455.646	244.32
456.104	246.92
456.562	253.23
457.021	261.12
457.479	254.03
457.937	265.93
458.395	250.73
458.854	244.23
459.312	254.33
459.77	269.83
460.228	250.12
460.686	239.03
461.144	248.03
461.602	237.02
462.06	242.82
462.518	246.02
462.976	250.73
463.434	249.83
463.892	254.53
464.35	271.43
464.808	278.42
465.266	259.62
465.724	272.73
466.181	273.03
466.639	265.62
467.097	286.12
467.555	295.92
468.012	294.42
468.47	295.53
468.928	323.02
469.385	342.63
469.843	343.42
470.3	344.73
470.758	357.23
471.215	376.83
471.673	402.03
472.13	401.82
472.588	409.83
473.045	368.63
473.503	379.13
473.96	386.33
474.417	401.42
474.875	427.02
475.332	462.12
475.789	457.32
476.246	460.93
476.704	474.93
477.161	496.23
477.618	516.72
478.075	554.13
478.532	605.92
478.989	683.62
479.446	796.73
479.903	765.43
480.36	797.72
480.817	848.32
481.274	952.93
481.731	1046.22
482.188	1151.22
482.645	1276.22
483.102	1385.93
483.558	1514.92
484.015	1564.03
484.472	1533.42
484.929	1496.62
485.385	1441.02
485.842	1403.72
486.299	1340.52
486.755	1279.12
487.212	1082.32
487.668	914.73
488.125	838.92
488.582	767.63
489.038	732.42
489.494	699.82
489.951	676.12
490.407	659.52
490.864	641.82
491.32	633.83
491.776	633.33
492.233	636.12
492.689	602.73
493.145	601.73
493.602	593.92
494.058	608.62
494.514	603.73
494.97	633.13
495.426	640.73
495.882	610.33
496.338	596.62
496.794	618.23
497.251	609.42
497.707	621.93
498.163	623.03
498.618	632.12
499.074	631.92
499.53	665.82
499.986	658.43
500.442	650.52
500.898	628.02
501.354	623.12
501.809	626.12
502.265	638.03
502.721	649.82
503.177	667.02
503.632	663.92
504.088	674.63
504.543	701.52
504.999	701.42
505.455	647.23
505.91	634.23
506.366	632.62
506.821	626.62
507.277	626.43
507.732	627.43
508.187	624.03
508.643	637.23
509.098	632.42
509.553	653.52
510.009	665.63
510.464	664.42
510.919	683.73
511.375	695.13
511.83	693.82
512.285	725.32
512.74	747.62
513.195	778.92
513.65	769.93
514.105	763.02
514.56	761.73
515.015	785.02
515.47	799.03
515.925	786.73
516.38	782.83
516.835	791.92
517.29	783.93
517.745	766.02
518.2	755.02
518.655	745.73
519.109	738.33
519.564	732.73
520.019	733.33
520.474	709.83
520.928	727.63
521.383	714.43
521.838	706.22
522.292	700.23
522.747	704.83
523.201	698.12
523.656	690.42
524.11	686.33
524.565	693.92
525.019	694.02
525.474	699.42
525.928	697.52
526.382	691.12
526.837	694.73
527.291	704.83
527.745	692.12
528.2	689.23
528.654	678.53
529.108	694.42
529.562	694.92
530.016	692.02
530.47	678.72
530.925	697.42
531.379	692.12
531.833	700.43
532.287	699.23
532.741	704.52
533.195	700.73
533.649	706.22
534.103	718.53
534.556	698.12
535.01	705.73
535.464	693.53
535.918	719.13
536.372	717.52
536.826	711.63
537.279	712.02
537.733	710.42
538.187	714.22
538.64	713.73
539.094	716.23
539.548	735.32
540.001	717.93
540.455	721.52
540.908	725.83
541.362	734.33
541.815	747.62
542.269	756.32
542.722	752.83
543.175	762.03
543.629	762.32
544.082	788.12
544.536	785.53
544.989	790.73
545.442	793.62
545.895	779.02
546.349	785.13
546.802	791.02
547.255	793.42
547.708	795.73
548.161	809.32
548.614	812.73
549.067	826.42
549.52	817.83
549.973	808.33
550.426	804.02
550.879	784.62
551.332	784.63
551.785	800.62
552.238	807.42
552.691	819.63
553.144	826.62
553.596	842.02
554.049	858.33
554.502	887.72
554.955	900.12
555.407	903.72
555.86	889.62
556.313	885.03
556.765	878.43
557.218	877.82
557.67	880.32
558.123	874.73
558.576	872.12
559.028	877.13
559.48	878.23
559.933	863.03
560.385	836.93
560.838	809.32
561.29	779.22
561.742	784.13
562.195	771.12
562.647	773.02
563.099	772.93
563.551	769.62
564.004	787.93
564.456	774.02
564.908	762.93
565.36	755.83
565.812	729.82
566.264	729.02
566.716	728.93
567.168	716.02
567.62	724.43
568.072	702.12
568.524	701.63
568.976	686.82
569.428	677.12
569.88	677.03
570.332	682.83
570.784	689.32
571.235	690.13
571.687	703.12
572.139	704.73
572.59	701.43
573.042	714.82
573.494	722.73
573.945	697.82
574.397	679.62
574.849	690.62
575.3	695.12
575.752	681.03
576.203	676.73
576.655	683.23
577.106	670.33
577.557	659.93
578.009	666.43
578.46	663.52
578.912	660.32
579.363	668.83
579.814	663.23
580.265	660.02
580.717	672.12
581.168	676.03
581.619	676.23
582.07	681.13
582.521	679.02
582.972	677.23
583.423	681.32
583.875	682.92
584.326	700.12
584.777	743.02
585.227	818.92
585.678	906.03
586.129	986.22
586.58	1064.92
587.031	1128.03
587.482	1281.52
587.933	1444.82
588.384	1265.82
588.834	955.03
589.285	810.82
589.736	785.03
590.186	778.32
590.637	768.03
591.088	743.23
591.538	733.83
591.989	728.42
592.439	729.43
592.89	727.02
593.34	715.03
593.791	715.73
594.241	711.23
594.692	704.73
595.142	701.92
595.593	703.73
596.043	711.43
596.493	709.73
596.943	718.02
597.394	723.83
597.844	714.33
598.294	734.63
598.744	758.53
599.195	787.92
599.645	813.23
600.095	863.32
600.545	908.93
600.995	974.43
601.445	1035.02
601.895	1086.42
602.345	1147.62
602.795	1108.53
603.245	1065.53
603.695	1010.03
604.145	949.23
604.594	903.23
605.044	857.92
605.494	801.82
605.944	745.72
606.393	737.13
606.843	715.83
607.293	738.63
607.743	719.42
608.192	745.62
608.642	757.53
609.091	765.52
609.541	774.72
609.99	766.02
610.44	762.63
610.889	728.02
611.339	704.23
611.788	691.93
612.238	704.73
612.687	716.32
613.136	718.23
613.586	740.43
614.035	742.02
614.484	753.62
614.933	755.62
615.383	740.73
615.832	740.13
616.281	718.02
616.73	686.33
617.179	672.13
617.628	648.82
618.077	633.42
618.526	629.02
618.975	616.32
619.424	620.82
619.873	611.93
620.322	618.83
620.771	608.33
621.22	608.82
621.669	595.43
622.118	590.32
622.567	591.63
623.015	572.53
623.464	567.72
623.913	570.82
624.361	554.93
624.81	548.92
625.259	549.93
625.707	556.52
626.156	557.33
626.604	569.32
627.053	555.12
627.501	560.32
627.95	576.13
628.398	585.23
628.847	571.63
629.295	572.42
629.744	572.13
630.192	568.93
630.64	572.73
631.089	566.23
631.537	579.62
631.985	585.83
632.433	601.62
632.881	613.73
633.33	658.52
633.778	651.83
634.226	569.63
634.674	567.73
635.122	579.82
635.57	609.23
636.018	628.62
636.466	584.03
636.914	562.12
637.362	564.13
637.81	574.23
638.258	576.02
638.705	586.03
639.153	619.33
639.601	607.33
640.049	630.93
640.497	686.52
640.944	703.82
641.392	641.53
641.84	620.43
642.287	583.53
642.735	572.43
643.182	574.93
643.63	569.12
644.078	580.23
644.525	596.43
644.973	590.22
645.42	603.52
645.867	623.62
646.315	642.33
646.762	671.43
647.21	694.93
647.657	720.62
648.104	752.62
648.551	767.73
648.999	842.53
649.446	923.42
649.893	1015.93
650.34	1167.43
650.787	1400.12
651.234	1739.53
651.682	2269.82
652.129	3110.22
652.576	4487.93
653.023	6599.43
653.47	9020.73
653.917	11187.82
654.363	12897.93
654.81	14145.83
655.257	13537.93
655.704	8828.82
656.151	5235.12
656.598	3402.23
657.044	2407.43
657.491	1837.43
657.938	1482.53
658.385	1236.52
658.831	1070.42
659.278	951.52
659.724	846.82
660.171	779.12
660.618	716.72
661.064	689.83
661.511	659.83
661.957	659.63
662.404	637.12
662.85	646.13
663.296	623.62
663.743	560.82
664.189	543.23
664.635	533.72
665.082	521.72
665.528	533.02
665.974	519.42
666.42	508.73
666.867	513.22
667.313	489.83
667.759	483.32
668.205	489.82
668.651	482.52
669.097	485.23
669.543	502.73
669.989	468.33
670.435	446.83
670.881	442.63
671.327	448.22
671.773	470.82
672.219	489.62
672.665	545.93
673.11	578.62
673.556	627.42
674.002	672.12
674.448	651.73
674.893	541.92
675.339	478.23
675.785	432.53
676.23	419.82
676.676	395.33
677.122	395.13
677.567	376.62
678.013	378.12
678.458	367.83
678.904	360.02
679.349	354.33
679.794	359.03
680.24	352.23
680.685	352.53
681.131	348.22
681.576	346.23
682.021	352.62
682.466	341.32
682.912	345.32
683.357	357.92
683.802	383.43
684.247	408.73
684.692	460.43
685.137	495.22
685.583	532.33
686.028	558.62
686.473	521.63
686.918	458.32
687.363	412.23
687.807	396.02
688.252	358.93
688.697	355.63
689.142	336.12
689.587	342.23
690.032	327.73
690.477	345.02
690.921	354.93
691.366	384.22
691.811	403.52
692.255	430.53
692.7	469.23
693.145	519.73
693.589	717.43
694.034	1153.53
694.478	1549.52
694.923	1724.82
695.367	2255.93
695.812	1199.93
696.256	492.52
696.701	372.13
697.145	347.83
697.59	327.12
698.034	313.43
698.478	326.43
698.922	320.33
699.367	330.23
699.811	341.72
700.255	357.13
700.699	395.73
701.143	430.83
701.588	481.52
702.032	515.62
702.476	510.63
702.92	494.83
703.364	501.82
703.808	654.43
704.252	1043.93
704.696	1467.02
705.14	1684.52
705.584	2114.62
706.027	1056.42
706.471	512.93
706.915	399.32
707.359	355.42
707.803	317.12
708.246	309.52
708.69	309.63
709.134	316.53
709.577	311.92
710.021	318.93
710.465	303.52
710.908	300.03
711.352	297.03
711.795	314.82
712.239	354.23
712.682	386.23
713.126	417.52
713.569	468.12
714.012	371.12
714.456	320.83
714.899	294.73
715.342	280.83
715.786	259.03
716.229	261.32
716.672	254.33
717.115	247.92
717.558	247.13
718.002	250.13
718.445	263.92
718.888	288.93
719.331	293.73
719.774	309.42
720.217	303.42
720.66	287.32
721.103	267.13
721.546	254.23
721.989	257.73
722.432	232.42
722.874	242.23
723.317	220.73
723.76	233.72
724.203	256.52
724.645	325.83
725.088	447.62
725.531	590.32
725.974	644.62
726.416	545.43
726.859	302.82
727.301	247.33
727.744	237.83
728.187	230.23
728.629	242.93
729.071	240.73
729.514	263.42
729.956	270.32
730.399	286.83
730.841	285.73
731.283	271.33
731.726	271.33
732.168	259.53
732.61	265.52
733.053	285.23
733.495	315.52
733.937	350.43
734.379	401.32
734.821	441.73
735.263	547.63
735.705	854.92
736.148	1615.43
736.59	2613.02
737.032	3043.82
737.474	2481.52
737.916	807.62
738.357	430.83
738.799	329.22
739.241	304.83
739.683	285.62
740.125	292.72
740.567	289.72
741.008	319.93
741.45	316.53
741.892	320.92
742.334	352.52
742.775	360.93
743.217	345.12
743.658	271.93
744.1	253.52
744.542	261.03
744.983	305.23
745.425	345.43
745.866	346.42
746.307	280.03
746.749	284.83
747.19	330.23
747.632	463.83
748.073	912.02
748.514	1892.42
748.956	2868.42
749.397	3624.83
749.838	2990.52
750.279	2952.82
750.72	1490.62
751.162	543.12
751.603	316.02
752.044	247.02
752.485	211.92
752.926	208.43
753.367	203.02
753.808	192.92
754.249	194.43
754.69	190.33
755.131	180.73
755.572	187.43
756.013	173.83
756.453	180.73
756.894	188.93
757.335	195.93
757.776	188.73
758.216	193.73
758.657	196.23
759.098	202.83
759.538	225.53
759.979	272.52
760.42	385.42
760.86	722.92
761.301	1882.42
761.741	4504.23
762.182	6407.73
762.622	4482.02
763.063	1314.92
763.503	538.73
763.943	344.43
764.384	338.02
764.824	395.33
765.264	427.92
765.705	293.63
766.145	213.03
766.585	188.02
767.025	179.62
767.465	190.62
767.906	249.12
768.346	310.02
768.786	323.43
769.226	260.33
769.666	316.73
770.106	637.12
770.546	1601.03
770.986	2651.23
771.426	2356.23
771.866	799.93
772.306	330.33
772.745	212.83
773.185	177.12
773.625	164.52
774.065	170.52
774.505	198.82
774.944	301.23
775.384	656.13
775.824	1159.52
776.263	1120.82
776.703	482.43
777.142	215.42
777.582	155.12
778.021	142.53
778.461	134.33
778.9	135.52
779.34	134.73
779.779	118.93
780.219	102.83
780.658	108.03
781.097	116.93
781.537	115.33
781.976	113.32
782.415	101.62
782.855	104.33
783.294	106.73
783.733	109.12
784.172	109.02
784.611	114.52
785.05	114.02
785.489	113.53
785.928	116.33
786.367	119.43
786.806	115.23
787.245	130.92
787.684	137.42
788.123	145.02
788.562	131.73
789.001	130.13
789.44	117.83
789.879	118.12
790.317	121.83
790.756	130.12
791.195	130.33
791.634	147.03
792.072	208.63
792.511	372.23
792.95	1041.72
793.388	2158.62
793.827	1922.72
794.265	674.22
794.704	286.73
795.142	184.33
795.581	149.92
796.019	134.52
796.458	122.43
796.896	125.62
797.334	133.02
797.773	156.12
798.211	222.53
798.649	451.62
799.087	1028.73
799.526	1601.12
799.964	2038.53
800.402	1997.12
800.84	758.43
801.278	307.62
801.716	187.33
802.154	151.73
802.592	149.23
803.03	144.23
803.468	139.83
803.906	139.73
804.344	154.83
804.782	142.93
805.22	133.32
805.658	130.02
806.096	151.13
806.533	157.02
806.971	175.73
807.409	216.52
807.847	327.52
808.284	682.13
808.722	1905.02
809.16	3301.82
809.597	3190.43
810.035	5488.93
810.472	5747.43
810.91	2087.43
811.347	802.63
811.785	404.73
812.222	260.82
812.66	197.63
813.097	163.02
813.535	145.42
813.972	124.73
814.409	119.33
814.846	110.33
815.284	111.73
815.721	104.02
816.158	108.03
816.595	122.23
817.032	169.62
817.47	198.83
817.907	156.83
818.344	149.73
818.781	121.73
819.218	102.33
819.655	119.33
820.092	183.02
820.529	206.82
820.966	170.63
821.403	130.23
821.839	110.83
822.276	99.53
822.713	118.12
823.15	132.53
823.587	119.23
824.023	145.33
824.46	312.63
824.897	922.42
825.333	1355.43
825.77	577.93
826.206	232.62
826.643	132.73
827.08	104.83
827.516	80.83
827.953	76.23
828.389	85.02
828.825	68.02
829.262	74.83
829.698	64.83
830.135	64.83
830.571	67.23
831.007	63.53
831.443	63.33
831.88	57.83
832.316	60.83
832.752	60.73
833.188	63.23
833.624	62.13
834.06	65.83
834.497	72.33
834.933	74.73
835.369	70.83
835.805	69.62
836.241	81.92
836.677	79.73
837.112	91.42
837.548	94.43
837.984	138.43
838.42	209.33
838.856	514.83
839.292	1542.82
839.727	2292.62
840.163	1071.93
840.599	945.73
841.034	2053.72
841.47	2101.53
841.906	781.93
842.341	335.62
842.777	231.52
843.212	305.73
843.648	291.62
844.083	151.12
844.519	94.03
844.954	79.23
845.39	63.12
845.825	54.33
846.261	59.23
846.696	59.52
847.131	56.33
847.566	56.73
848.002	45.43
848.437	59.62
848.872	60.53
849.307	62.83
849.742	82.23
850.177	185.83
850.613	569.73
851.048	880.52
851.483	382.13
851.918	153.42
852.353	90.62
852.788	60.62
853.223	50.82
853.657	50.82
854.092	44.83
854.527	41.62
854.962	44.12
855.397	40.62
855.832	45.43
856.266	35.93
856.701	40.23
857.136	32.62
857.57	42.63
858.005	45.43
858.44	53.62
858.874	41.03
859.309	49.63
859.743	41.23
860.178	47.52
860.612	43.33
861.047	51.73
861.481	70.62
861.915	70.83
862.35	54.52
862.784	30.62
863.218	39.02
863.653	31.83
864.087	47.23
864.521	57.12
864.955	61.53
865.39	161.92
865.824	173.63
866.258	119.23
866.692	162.73
867.126	165.62
867.56	98.23
867.994	54.62
868.428	36.12
868.862	42.43
869.296	56.73
869.73	54.23
870.164	57.83
870.598	42.03
871.031	37.02
871.465	27.62
871.899	30.83
872.333	23.33
872.766	24.53
873.2	28.02
873.634	30.23
874.067	26.93
874.501	24.23
874.935	34.62
875.368	34.02
875.802	18.02
876.235	19.33
876.669	22.73
877.102	23.73
877.535	24.83
877.969	21.62
878.402	21.52
878.836	20.73
879.269	23.23
879.702	24.92
880.135	27.73
880.569	20.92
881.002	29.23
881.435	20.92
881.868	16.93
882.301	19.23
882.734	19.33
883.167	28.33
883.601	19.53
884.034	23.62
884.467	12.23
884.899	24.43
885.332	15.53
885.765	14.03
886.198	17.33
886.631	20.23
887.064	19.12
887.497	15.73
887.929	22.12
888.362	15.23
888.795	17.73
889.228	17.83
889.66	23.73
890.093	16.82
890.526	14.42
890.958	25.43
891.391	14.53
891.823	21.43
892.256	16.62
892.688	6.83
893.121	10.73
893.553	11.62
893.985	18.92
894.418	23.42
894.85	10.73
895.282	12.92
895.715	16.73
896.147	18.03
896.579	21.12
897.011	22.03
897.444	19.62
897.876	14.73
898.308	20.52
898.74	13.33
899.172	9.53
899.604	19.03
900.036	14.02
900.468	16.23
900.9	13.62
901.332	18.52
901.764	14.73
902.196	19.43
902.628	14.83
903.06	14.02
903.491	30.73
903.923	24.52
904.355	21.73
904.787	21.42
905.218	23.03
905.65	24.02
906.082	12.92
906.513	11.62
906.945	18.12
907.376	15.52
907.808	22.33
908.239	19.83
908.671	23.62
909.102	29.12
909.534	25.93
909.965	48.12
910.397	95.52
910.828	315.72
911.259	473.33
911.691	217.12
912.122	109.63
912.553	55.62
912.984	33.93
913.415	29.83
913.847	23.83
914.278	17.23
914.709	17.92
915.14	14.73
915.571	13.12
916.002	10.52
916.433	14.63
916.864	20.92
917.295	14.52
917.726	22.33
918.157	20.32
918.587	31.23
919.018	21.63
919.449	22.53
919.88	28.02
920.311	35.62
920.741	52.92
921.172	162.23
921.603	151.82
922.033	73.73
922.464	45.03
922.895	27.23
923.325	21.53
923.756	19.23
924.186	14.53
924.617	29.53
925.047	39.73
925.478	49.43
925.908	44.93
926.338	29.03
926.769	21.93
927.199	22.23
927.629	9.33
928.06	18.02
928.49	18.23
928.92	10.43
929.35	8.33
929.78	3.83
930.21	5.92
930.641	8.12
931.071	9.52
931.501	6.23
931.931	5.73
932.361	13.53
932.791	2.73
933.221	6.43
933.651	7.33
934.08	15.42
934.51	27.23
934.94	8.62
935.37	10.13
935.8	10.83
936.229	6.42
936.659	3.32
937.089	4.03
937.519	17.12
937.948	14.62
938.378	17.62
938.807	9.82
939.237	6.13
939.666	11.23
940.096	-0.67
940.525	1.62
940.955	3.83
941.384	8.93
941.814	-1.08
942.243	-2.27
942.672	1.93
943.102	-6.27
943.531	-1.88
943.96	5.43
944.39	1.02
944.819	6.62
945.248	2.52
945.677	2.93
946.106	3.43
946.535	9.73
946.964	-0.88
947.393	2.62
947.822	-0.87
948.251	-7.77
948.68	7.43
949.109	3.12
949.538	3.33
949.967	0.23
950.396	-2.08
950.825	-3.98
951.254	-2.57
951.682	-4.48
952.111	-3.47
952.54	0.73
952.969	-2.77
953.397	-4.98
953.826	-0.67
954.254	-3.67
954.683	2.32
955.112	-0.07
955.54	-0.97
955.969	0.33
956.397	3.23
956.826	-5.97
957.254	3.23
957.682	9.62
958.111	3.73
958.539	-1.27
958.967	-0.17
959.396	-7.77
959.824	1.73
960.252	1.42
960.68	-9.38
961.109	0.32
961.537	-5.57
961.965	0.42
962.393	-2.77
962.821	-6.07
963.249	2.92
963.677	0.83
964.105	0.12
964.533	45.73
964.961	45.32
965.389	20.33
965.817	12.42
966.245	0.83
966.672	0.03
967.1	-6.57
967.528	-2.58
967.956	0.03
968.383	-0.77
968.811	-0.27
969.239	-1.68
969.666	-5.07
970.094	1.62
970.522	-2.48
970.949	-3.38
971.377	-6.67
971.804	-0.27
972.232	-1.88
972.659	0.83
973.087	-4.18
973.514	-2.77
973.941	-4.17
974.369	3.42
974.796	-2.97
975.223	-1.68
975.651	-1.67
976.078	-1.67
976.505	2.42
976.932	0.12
977.359	18.83
977.786	17.83
978.214	4.92
978.641	-4.58
979.068	1.73
979.495	-9.27
979.922	-5.98
980.349	-7.57
980.776	-2.88
981.202	-4.58
981.629	3.02
982.056	5.62
982.483	-4.17
982.91	-2.38
983.337	-5.67
983.763	4.73
984.19	-2.98
984.617	-2.67
985.043	-0.27
985.47	3.73
985.897	-5.27
986.323	-10.17
986.75	-0.37
987.176	6.12
987.603	-7.68
988.029	1.32
988.456	-4.08
988.882	2.43
989.308	-7.08
989.735	-2.27
990.161	-0.38
990.587	-3.48
991.014	-0.67
991.44	7.02
991.866	-1.07
992.292	-4.47
992.719	-9.27
993.145	3.03
993.571	-6.77
993.997	-3.38
994.423	-0.07
994.849	-2.58
995.275	1.83
995.701	5.62
996.127	-4.18
996.553	1.03
996.979	-1.67
997.405	-5.27
997.83	-2.27
998.256	-3.68
998.682	-8.57
999.108	-8.68
999.534	-4.48
999.959	-10.27
1000.385	-0.98
1000.811	0.82
1001.236	-5.18
1001.662	-9.17
1002.087	-5.57
1002.513	-0.18
1002.938	-2.57
1003.364	-8.27
1003.789	-0.97
1004.215	-1.47
1004.64	-5.77
1005.066	2.53
1005.491	0.03
1005.916	-5.68
1006.342	-8.77
1006.767	-10.47
1007.192	5.23
1007.617	-8.98
1008.042	-3.97
1008.468	-15.38
1008.893	-1.97
1009.318	-1.67
1009.743	-8.38
1010.168	-1.98
1010.593	1.23
1011.018	-3.77
1011.443	-4.17
1011.868	1.23
1012.293	-4.37
1012.718	-4.47
1013.143	2.32
1013.567	-1.98
1013.992	0.12
1014.417	-14.08
1014.842	-2.88
1015.267	-6.67
1015.691	-8.17
1016.116	-0.58
1016.541	-2.57
1016.965	-0.08
1017.39	1.92
1017.814	0.03
1018.239	-1.88
1018.663	-8.17
1019.088	-12.98
1019.512	-3.98
1019.937	-4.38
1020.361	-0.38
1020.785	-13.68
1021.21	-0.57
1021.634	-0.57
1022.058	7.92
1022.483	2.12
1022.907	-7.17
1023.331	-6.57
1023.755	-8.48
1024.179	-2.57
1024.604	-6.07
1025.028	-7.68
1025.452	-5.48
1025.876	-4.48
1026.3	-0.67
1026.724	-11.17
1027.148	-7.27
1027.572	-14.47
1027.996	-1.88
1028.42	-0.38
1028.843	-3.38
1029.267	-11.08
1029.691	-6.48
1030.115	-5.67
1030.539	-7.27
1030.962	-6.27
1031.386	-8.37
1031.81	1.63
1032.233	-2.88
1032.657	-3.77
1033.08	-5.07
1033.504	-8.48
1033.927	-4.77
1034.351	-0.37
1034.774	-4.77
1035.198	0.83
1035.621	-7.87
1036.045	-6.67
1036.468	-0.38
1036.891	-13.08
1037.315	-12.27
1037.738	-5.57
1038.161	1.52
1038.584	-4.17
1039.008	-2.67
1039.431	-3.67
1039.854	-6.18
1040.277	-14.17
1040.7	-11.27
1041.123	-5.58
1041.546	-6.67
1041.969	-7.97
1042.392	-10.88
1042.815	-3.58
1043.238	2.02
1043.661	5.33
1044.084	-3.38
1044.507	-4.67
1044.93	-1.57
1045.352	-8.17
1045.775	-4.77
1046.198	-2.17
1046.621	-3.67
1047.043	2.93
1047.466	8.62
1047.889	-1.67
1048.311	-8.07
1048.734	-6.48
1049.156	-0.47
1049.579	-0.68
1050.001	-5.67
1050.424	0.12
1050.846	-8.48
1051.269	-9.07
1051.691	-2.37
1052.113	-5.27
1052.536	-1.07
1052.958	-4.48
1053.38	-8.58
1053.802	-5.48
1054.225	-0.67
1054.647	-12.77
1055.069	-8.38
1055.491	-2.27
1055.913	-10.27
1056.335	-1.58
1056.757	-4.27
1057.179	-4.17
1057.601	-1.17
1058.023	-9.07
1058.445	-5.98
1058.867	-3.77
1059.289	-5.58
1059.711	-7.57
1060.133	-8.08
1060.555	-1.38
1060.976	-5.08
1061.398	-7.07
1061.82	-9.27
1062.241	-3.98
1062.663	-11.38
1063.085	-8.07
1063.506	-1.87
1063.928	-9.18
1064.35	-3.67
1064.771	-7.88
1065.193	-7.48
1065.614	-9.88
1066.035	-3.67
1066.457	-3.27
1066.878	2.52
1067.3	-9.48
1067.721	-3.48
1068.142	-6.38
1068.564	-3.38
1068.985	-4.17
1069.406	-7.97
1069.827	-5.38
1070.248	-0.57
1070.67	-5.07
1071.091	-0.17
1071.512	-3.38
1071.933	-9.08
1072.354	-5.37
1072.775	-3.38
1073.196	-6.97
1073.617	-5.77
1074.038	-5.27
1074.459	-3.67
1074.88	-5.97
1075.3	-1.48
1075.721	-7.68
1076.142	1.23
1076.563	-0.88
1076.983	-10.27
1077.404	-6.77
1077.825	-5.47
1078.246	-1.77
1078.666	-11.18
1079.087	-8.37
1079.507	-7.48
1079.928	2.12
1080.348	-0.17
1080.769	-2.27
1081.189	2.63
1081.61	2.93
1082.03	-5.48
1082.451	-4.98
1082.871	1.13
1083.291	-5.77
1083.711	-5.97
1084.132	-7.97
1084.552	-1.27
1084.972	-0.88
1085.392	-10.08
1085.813	-8.38
1086.233	-10.27
1086.653	-7.07
1087.073	-3.27
1087.493	-6.98
1087.913	-4.68
1088.333	-4.98
1088.753	1.12
1089.173	-0.58
1089.593	-4.37
1090.013	-2.67
1090.433	-2.98
1090.852	-3.67
1091.272	-4.17
1091.692	-9.67
1092.112	-8.27
1092.531	-10.58
1092.951	-13.17
1093.371	-3.18
1093.79	-1.17
1094.21	-5.47
1094.63	-5.17
1095.049	-6.07
1095.469	-7.77
1095.888	-3.67
1096.308	0.23
1096.727	0.12
1097.146	-5.17
1097.566	-5.17
1097.985	-4.98
1098.405	-1.57
1098.824	-10.17
1099.243	-9.17
1099.662	-6.88
1100.082	-7.67
1100.501	0.42
1100.92	-2.58
1101.339	-3.48
1101.758	-8.27
