Data from 20171114-ORNL-Ar_H_NY_Subt18_08-04-29-360.txt Node
Date: Tue Nov 14 08:04:29 EST 2017
User: Ender
Spectrometer: HR+D1039
Trigger mode: 0
Integration Time (sec): 2.730000E-2
Scans to average: 10
Electric dark correction enabled: true
Nonlinearity correction enabled: false
Boxcar width: 0
XAxis mode: Wavelengths
Number of Pixels in Spectrum: 2048
>>>>>Begin Spectral Data<<<<<
187.836	-7.16
188.309	-7.16
188.782	-7.16
189.255	-5.56
189.728	0.34
190.201	1.84
190.674	0.74
191.147	2.84
191.619	-3.26
192.092	7.54
192.565	7.84
193.038	0.04
193.511	2.74
193.984	0.34
194.456	-4.06
194.929	-5.06
195.402	-0.66
195.874	1.44
196.347	0.54
196.82	-8.56
197.292	2.64
197.765	-4.86
198.237	-3.66
198.71	-3.56
199.182	-6.36
199.655	-4.96
200.127	3.54
200.6	3.24
201.072	-2.46
201.544	-0.86
202.017	-0.76
202.489	-0.66
202.961	-3.06
203.433	0.44
203.906	-10.76
204.378	-4.96
204.85	1.44
205.322	-4.06
205.794	0.64
206.266	-3.16
206.739	-4.86
207.211	2.84
207.683	-8.76
208.155	-6.66
208.627	2.74
209.099	-1.16
209.57	-6.56
210.042	-10.56
210.514	-5.26
210.986	-4.26
211.458	-8.16
211.93	-1.76
212.402	-0.56
212.873	-8.06
213.345	-4.16
213.817	-6.86
214.288	5.14
214.76	-7.56
215.232	3.14
215.703	-6.26
216.175	-4.26
216.646	-6.36
217.118	-5.76
217.589	-1.46
218.061	1.54
218.532	-5.36
219.004	-3.76
219.475	-4.66
219.946	-6.46
220.418	-5.86
220.889	-2.06
221.36	-1.16
221.832	-5.56
222.303	-8.26
222.774	3.94
223.245	-11.26
223.717	-4.96
224.188	-3.86
224.659	-10.56
225.13	-9.06
225.601	-11.26
226.072	-2.26
226.543	-0.76
227.014	2.24
227.485	-0.46
227.956	-2.86
228.427	-1.56
228.898	-0.86
229.369	3.24
229.839	-0.46
230.31	-4.06
230.781	4.44
231.252	-0.96
231.722	-2.06
232.193	-5.46
232.664	0.64
233.135	1.94
233.605	-0.96
234.076	0.44
234.546	-0.56
235.017	-0.36
235.487	5.64
235.958	-1.06
236.428	-4.36
236.899	3.94
237.369	7.64
237.84	-4.16
238.31	12.34
238.78	3.34
239.251	-2.56
239.721	2.14
240.191	5.34
240.662	2.74
241.132	6.94
241.602	-0.76
242.072	5.04
242.542	5.74
243.013	4.54
243.483	3.24
243.953	-0.26
244.423	1.34
244.893	-2.86
245.363	7.24
245.833	10.14
246.303	2.64
246.773	10.44
247.243	3.84
247.712	7.64
248.182	11.74
248.652	10.64
249.122	5.14
249.592	13.24
250.061	24.24
250.531	38.54
251.001	17.54
251.471	27.34
251.94	22.74
252.41	9.24
252.879	4.54
253.349	13.64
253.818	9.64
254.288	4.24
254.757	7.44
255.227	4.24
255.696	5.14
256.166	4.24
256.635	11.04
257.105	7.54
257.574	12.24
258.043	9.24
258.513	11.44
258.982	23.14
259.451	6.34
259.92	12.54
260.389	12.34
260.859	17.94
261.328	18.34
261.797	26.94
262.266	9.54
262.735	16.84
263.204	3.14
263.673	-0.86
264.142	3.94
264.611	-0.16
265.08	5.24
265.549	2.94
266.018	8.64
266.487	-0.76
266.955	-1.26
267.424	-2.16
267.893	11.84
268.362	2.94
268.83	7.44
269.299	15.54
269.768	6.14
270.236	6.64
270.705	0.44
271.174	5.54
271.642	7.04
272.111	4.34
272.579	15.04
273.048	20.14
273.516	29.14
273.985	32.04
274.453	26.14
274.922	22.64
275.39	4.74
275.858	3.44
276.327	14.84
276.795	25.84
277.263	9.64
277.731	26.74
278.2	53.04
278.668	57.84
279.136	47.24
279.604	25.54
280.072	15.14
280.54	13.54
281.008	14.34
281.477	16.54
281.945	16.54
282.413	19.54
282.881	23.44
283.348	14.74
283.816	17.64
284.284	15.44
284.752	23.34
285.22	20.54
285.688	14.84
286.156	17.94
286.623	47.84
287.091	49.74
287.559	30.34
288.026	19.64
288.494	16.84
288.962	4.44
289.429	9.64
289.897	21.84
290.364	15.84
290.832	15.84
291.3	17.14
291.767	25.04
292.234	18.54
292.702	10.34
293.169	26.24
293.637	24.44
294.104	19.04
294.571	11.84
295.039	13.84
295.506	19.34
295.973	18.94
296.44	15.74
296.908	15.84
297.375	23.84
297.842	23.54
298.309	12.84
298.776	11.44
299.243	24.54
299.71	13.14
300.177	19.24
300.644	22.84
301.111	22.04
301.578	19.54
302.045	17.04
302.512	21.14
302.979	17.84
303.446	24.44
303.913	18.64
304.379	19.94
304.846	24.84
305.313	29.04
305.78	28.84
306.246	23.64
306.713	25.64
307.18	22.24
307.646	26.84
308.113	34.04
308.579	26.14
309.046	21.14
309.512	31.64
309.979	22.74
310.445	31.44
310.912	29.64
311.378	34.94
311.845	26.14
312.311	28.24
312.777	36.14
313.244	37.84
313.71	37.04
314.176	31.74
314.642	27.84
315.109	33.34
315.575	37.54
316.041	44.24
316.507	32.54
316.973	39.34
317.439	33.04
317.905	38.84
318.371	36.94
318.837	34.14
319.303	26.54
319.769	33.14
320.235	33.64
320.701	31.24
321.167	31.14
321.633	32.64
322.099	43.74
322.564	45.24
323.03	45.14
323.496	39.64
323.962	43.24
324.427	39.84
324.893	42.34
325.359	36.94
325.824	37.84
326.29	34.54
326.755	44.04
327.221	39.94
327.686	38.24
328.152	46.14
328.617	44.84
329.083	39.34
329.548	49.84
330.014	46.44
330.479	40.64
330.944	39.34
331.41	43.34
331.875	47.54
332.34	48.34
332.805	45.24
333.271	46.24
333.736	43.84
334.201	54.74
334.666	48.94
335.131	52.74
335.596	47.34
336.061	51.84
336.526	43.84
336.991	49.14
337.456	52.64
337.921	49.84
338.386	45.74
338.851	44.04
339.316	46.24
339.781	50.24
340.246	53.04
340.711	45.24
341.175	44.04
341.64	48.74
342.105	52.84
342.569	53.94
343.034	59.14
343.499	55.14
343.963	55.44
344.428	62.04
344.893	64.34
345.357	61.54
345.822	57.94
346.286	70.84
346.751	69.84
347.215	71.94
347.679	72.84
348.144	95.34
348.608	79.14
349.073	70.04
349.537	74.04
350.001	78.34
350.465	88.14
350.93	74.94
351.394	81.44
351.858	68.14
352.322	85.14
352.786	79.64
353.25	95.14
353.715	105.04
354.179	94.94
354.643	113.14
355.107	122.74
355.571	102.34
356.035	97.94
356.498	112.84
356.962	114.14
357.426	124.84
357.89	112.34
358.354	83.64
358.818	79.34
359.281	75.14
359.745	72.74
360.209	75.24
360.673	77.34
361.136	80.14
361.6	83.44
362.064	82.54
362.527	83.64
362.991	86.64
363.454	81.44
363.918	75.44
364.381	73.94
364.845	78.04
365.308	76.84
365.772	86.54
366.235	85.54
366.698	79.34
367.162	83.64
367.625	85.24
368.088	88.74
368.552	81.34
369.015	85.24
369.478	90.14
369.941	91.14
370.404	89.44
370.867	93.64
371.331	101.74
371.794	104.34
372.257	107.74
372.72	108.74
373.183	105.94
373.646	98.54
374.109	99.64
374.572	102.34
375.035	102.94
375.497	105.34
375.96	100.04
376.423	99.34
376.886	101.54
377.349	103.74
377.811	100.54
378.274	102.14
378.737	101.24
379.199	101.24
379.662	104.74
380.125	110.34
380.587	115.54
381.05	110.94
381.512	126.44
381.975	122.24
382.437	119.24
382.9	118.14
383.362	128.14
383.825	127.84
384.287	135.24
384.75	128.94
385.212	124.04
385.674	126.44
386.136	133.34
386.599	118.54
387.061	115.14
387.523	117.04
387.985	128.54
388.447	134.14
388.91	133.14
389.372	145.94
389.834	138.34
390.296	136.74
390.758	145.34
391.22	149.14
391.682	191.24
392.144	270.14
392.606	209.04
393.068	153.14
393.529	161.04
393.991	141.64
394.453	138.34
394.915	144.84
395.377	167.94
395.838	190.24
396.3	143.64
396.762	132.54
397.224	125.94
397.685	116.44
398.147	122.04
398.608	121.84
399.07	114.94
399.531	124.04
399.993	135.24
400.454	141.14
400.916	136.74
401.377	132.34
401.839	142.54
402.3	148.84
402.762	149.44
403.223	169.04
403.684	160.94
404.145	144.74
404.607	151.44
405.068	152.84
405.529	156.44
405.99	173.24
406.451	165.04
406.913	160.84
407.374	158.04
407.835	154.14
408.296	146.64
408.757	164.24
409.218	164.94
409.679	163.14
410.14	160.44
410.601	165.54
411.062	166.04
411.522	177.54
411.983	173.54
412.444	164.34
412.905	169.74
413.366	168.94
413.826	184.54
414.287	202.64
414.748	239.74
415.208	225.14
415.669	195.04
416.13	193.94
416.59	185.64
417.051	204.64
417.511	200.34
417.972	214.94
418.432	231.04
418.893	264.84
419.353	233.54
419.814	183.74
420.274	169.64
420.734	170.34
421.195	186.04
421.655	181.54
422.115	182.04
422.576	178.04
423.036	177.94
423.496	193.74
423.956	199.44
424.416	212.54
424.876	242.44
425.336	240.34
425.797	238.44
426.257	235.84
426.717	221.14
427.177	214.74
427.637	197.84
428.097	218.84
428.556	228.04
429.016	247.34
429.476	240.44
429.936	254.94
430.396	254.14
430.856	269.24
431.315	283.94
431.775	316.04
432.235	346.14
432.694	321.54
433.154	327.24
433.614	352.24
434.073	304.04
434.533	251.44
434.993	242.14
435.452	252.74
435.912	273.54
436.371	263.74
436.83	251.54
437.29	242.74
437.749	227.64
438.209	229.74
438.668	246.44
439.127	255.74
439.587	233.94
440.046	226.24
440.505	236.54
440.964	258.34
441.424	292.84
441.883	283.54
442.342	240.34
442.801	213.84
443.26	208.54
443.719	206.54
444.178	197.34
444.637	195.44
445.096	200.14
445.555	205.14
446.014	203.54
446.473	204.44
446.932	217.34
447.391	206.04
447.849	214.94
448.308	197.04
448.767	203.64
449.226	217.24
449.685	214.44
450.143	227.94
450.602	218.84
451.061	204.74
451.519	216.04
451.978	218.24
452.436	218.84
452.895	217.84
453.353	230.94
453.812	217.84
454.27	217.84
454.729	226.24
455.187	220.84
455.646	224.64
456.104	232.94
456.562	239.24
457.021	241.44
457.479	238.34
457.937	249.54
458.395	241.34
458.854	221.44
459.312	238.24
459.77	248.64
460.228	233.74
460.686	229.94
461.144	229.84
461.602	220.54
462.06	215.04
462.518	235.64
462.976	238.14
463.434	243.34
463.892	245.54
464.35	255.44
464.808	269.34
465.266	250.04
465.724	244.24
466.181	249.24
466.639	250.44
467.097	266.44
467.555	270.94
468.012	271.04
468.47	283.24
468.928	304.64
469.385	314.84
469.843	308.84
470.3	316.84
470.758	328.24
471.215	346.44
471.673	369.64
472.13	362.04
472.588	376.94
473.045	338.24
473.503	346.24
473.96	356.64
474.417	368.14
474.875	390.44
475.332	435.54
475.789	425.04
476.246	425.84
476.704	452.64
477.161	469.44
477.618	476.94
478.075	521.44
478.532	556.74
478.989	634.74
479.446	724.94
479.903	703.54
480.36	745.64
480.817	793.04
481.274	891.64
481.731	990.84
482.188	1073.84
482.645	1196.24
483.102	1299.24
483.558	1418.44
484.015	1479.44
484.472	1448.34
484.929	1411.34
485.385	1355.84
485.842	1330.84
486.299	1260.24
486.755	1180.14
487.212	1007.54
487.668	850.24
488.125	789.84
488.582	714.44
489.038	690.34
489.494	652.64
489.951	627.44
490.407	619.54
490.864	597.04
491.32	596.64
491.776	581.84
492.233	596.34
492.689	570.54
493.145	562.84
493.602	557.34
494.058	558.64
494.514	574.54
494.97	574.34
495.426	599.24
495.882	575.74
496.338	570.34
496.794	577.64
497.251	566.84
497.707	589.44
498.163	588.74
498.618	597.74
499.074	589.64
499.53	622.94
499.986	622.34
500.442	596.84
500.898	579.64
501.354	566.64
501.809	593.24
502.265	602.54
502.721	606.54
503.177	616.04
503.632	609.84
504.088	612.64
504.543	643.34
504.999	652.04
505.455	612.04
505.91	587.24
506.366	591.84
506.821	575.44
507.277	570.24
507.732	572.04
508.187	566.64
508.643	584.24
509.098	584.64
509.553	603.54
510.009	603.54
510.464	609.24
510.919	634.44
511.375	641.84
511.83	643.24
512.285	658.34
512.74	699.84
513.195	722.54
513.65	712.74
514.105	713.74
514.56	715.34
515.015	729.84
515.47	738.64
515.925	728.64
516.38	725.54
516.835	737.24
517.29	720.94
517.745	711.14
518.2	701.04
518.655	688.04
519.109	689.14
519.564	677.84
520.019	680.94
520.474	671.34
520.928	665.94
521.383	664.84
521.838	651.74
522.292	648.54
522.747	643.74
523.201	645.54
523.656	638.94
524.11	636.14
524.565	635.34
525.019	623.74
525.474	647.34
525.928	631.04
526.382	631.44
526.837	641.14
527.291	638.84
527.745	643.84
528.2	634.04
528.654	641.54
529.108	629.84
529.562	620.84
530.016	617.64
530.47	628.04
530.925	628.54
531.379	636.14
531.833	646.74
532.287	643.34
532.741	660.74
533.195	640.74
533.649	649.34
534.103	660.84
534.556	646.94
535.01	659.64
535.464	648.84
535.918	654.64
536.372	669.14
536.826	660.64
537.279	645.04
537.733	645.74
538.187	652.04
538.64	649.14
539.094	656.94
539.548	664.64
540.001	653.34
540.455	648.24
540.908	665.74
541.362	666.34
541.815	683.24
542.269	690.34
542.722	687.14
543.175	694.64
543.629	704.24
544.082	718.34
544.536	709.64
544.989	712.04
545.442	718.24
545.895	715.34
546.349	708.44
546.802	727.14
547.255	716.34
547.708	730.14
548.161	733.24
548.614	744.94
549.067	746.44
549.52	742.74
549.973	737.34
550.426	739.54
550.879	710.14
551.332	721.24
551.785	730.04
552.238	732.24
552.691	740.54
553.144	753.54
553.596	774.14
554.049	781.54
554.502	808.44
554.955	824.94
555.407	819.84
555.86	804.54
556.313	808.14
556.765	790.94
557.218	795.04
557.67	794.54
558.123	792.64
558.576	784.84
559.028	784.24
559.48	791.74
559.933	785.04
560.385	754.54
560.838	725.64
561.29	716.84
561.742	701.24
562.195	687.04
562.647	686.94
563.099	695.84
563.551	695.14
564.004	707.74
564.456	692.54
564.908	688.84
565.36	674.44
565.812	664.04
566.264	646.94
566.716	647.94
567.168	635.44
567.62	651.94
568.072	630.14
568.524	617.64
568.976	614.94
569.428	594.14
569.88	607.74
570.332	607.84
570.784	607.04
571.235	608.44
571.687	621.44
572.139	627.24
572.59	639.34
573.042	635.04
573.494	636.14
573.945	631.24
574.397	608.24
574.849	606.74
575.3	618.84
575.752	620.24
576.203	608.24
576.655	611.74
577.106	595.84
577.557	592.44
578.009	589.94
578.46	581.44
578.912	596.24
579.363	594.44
579.814	594.54
580.265	585.84
580.717	589.74
581.168	595.54
581.619	596.24
582.07	606.94
582.521	601.54
582.972	591.34
583.423	593.24
583.875	601.24
584.326	614.84
584.777	654.84
585.227	720.54
585.678	802.34
586.129	882.84
586.58	941.84
587.031	1032.04
587.482	1157.24
587.933	1326.74
588.384	1150.34
588.834	864.94
589.285	709.14
589.736	694.64
590.186	685.54
590.637	686.44
591.088	653.34
591.538	652.74
591.989	646.54
592.439	644.74
592.89	628.84
593.34	622.74
593.791	623.74
594.241	616.44
594.692	628.54
595.142	619.14
595.593	608.84
596.043	613.74
596.493	621.24
596.943	621.64
597.394	637.94
597.844	619.04
598.294	629.94
598.744	657.74
599.195	677.84
599.645	706.74
600.095	746.24
600.545	801.74
600.995	833.54
601.445	902.94
601.895	950.04
602.345	985.44
602.795	969.64
603.245	930.04
603.695	876.44
604.145	832.44
604.594	793.54
605.044	753.34
605.494	706.64
605.944	655.24
606.393	647.34
606.843	630.94
607.293	643.84
607.743	643.64
608.192	642.34
608.642	652.84
609.091	658.14
609.541	664.64
609.99	664.54
610.44	658.84
610.889	622.74
611.339	604.94
611.788	597.64
612.238	595.44
612.687	624.54
613.136	619.94
613.586	635.04
614.035	620.74
614.484	646.84
614.933	655.24
615.383	652.94
615.832	642.74
616.281	626.04
616.73	588.94
617.179	564.54
617.628	558.64
618.077	548.24
618.526	541.24
618.975	534.04
619.424	527.14
619.873	528.24
620.322	537.54
620.771	525.64
621.22	521.34
621.669	514.54
622.118	503.14
622.567	503.24
623.015	486.44
623.464	487.84
623.913	475.94
624.361	470.14
624.81	471.94
625.259	473.74
625.707	478.54
626.156	478.74
626.604	482.54
627.053	487.14
627.501	479.94
627.95	485.04
628.398	492.04
628.847	486.24
629.295	486.04
629.744	495.94
630.192	486.14
630.64	490.44
631.089	483.74
631.537	482.94
631.985	489.94
632.433	508.14
632.881	507.74
633.33	543.94
633.778	535.04
634.226	483.04
634.674	484.04
635.122	492.34
635.57	505.84
636.018	532.64
636.466	498.74
636.914	472.54
637.362	487.94
637.81	485.44
638.258	489.34
638.705	491.34
639.153	518.84
639.601	521.44
640.049	549.74
640.497	570.24
640.944	583.34
641.392	544.34
641.84	520.54
642.287	494.44
642.735	482.84
643.182	479.54
643.63	495.34
644.078	490.24
644.525	507.84
644.973	512.04
645.42	511.94
645.867	521.34
646.315	539.04
646.762	560.04
647.21	590.64
647.657	600.44
648.104	632.64
648.551	646.44
648.999	706.24
649.446	771.44
649.893	851.54
650.34	975.24
650.787	1161.54
651.234	1437.64
651.682	1855.54
652.129	2536.34
652.576	3664.74
653.023	5416.04
653.47	7475.34
653.917	9434.64
654.363	11100.14
654.81	12460.64
655.257	11831.14
655.704	7685.14
656.151	4518.94
656.598	2924.24
657.044	2058.54
657.491	1572.14
657.938	1267.84
658.385	1061.14
658.831	914.64
659.278	812.34
659.724	723.74
660.171	670.74
660.618	607.44
661.064	586.14
661.511	562.44
661.957	544.74
662.404	527.14
662.85	529.64
663.296	514.24
663.743	474.44
664.189	449.34
664.635	447.04
665.082	439.74
665.528	439.34
665.974	439.54
666.42	426.64
666.867	427.24
667.313	406.74
667.759	402.84
668.205	399.54
668.651	406.94
669.097	404.54
669.543	416.84
669.989	397.74
670.435	380.54
670.881	371.44
671.327	379.74
671.773	387.24
672.219	411.24
672.665	451.14
673.11	476.44
673.556	525.54
674.002	556.44
674.448	540.44
674.893	466.14
675.339	402.34
675.785	376.34
676.23	346.94
676.676	333.94
677.122	321.74
677.567	305.34
678.013	309.34
678.458	296.84
678.904	299.44
679.349	280.64
679.794	290.14
680.24	289.44
680.685	289.74
681.131	293.64
681.576	290.14
682.021	297.64
682.466	284.54
682.912	287.94
683.357	291.84
683.802	315.64
684.247	338.14
684.692	382.54
685.137	419.14
685.583	444.64
686.028	467.54
686.473	436.24
686.918	371.64
687.363	348.04
687.807	327.04
688.252	299.04
688.697	293.24
689.142	281.64
689.587	279.44
690.032	265.44
690.477	272.84
690.921	286.24
691.366	320.64
691.811	335.14
692.255	357.04
692.7	383.64
693.145	410.64
693.589	562.34
694.034	911.24
694.478	1279.34
694.923	1469.54
695.367	1940.74
695.812	1003.84
696.256	412.64
696.701	310.84
697.145	282.94
697.59	281.94
698.034	264.54
698.478	272.24
698.922	265.44
699.367	274.04
699.811	280.94
700.255	298.14
700.699	320.14
701.143	353.04
701.588	392.54
702.032	428.64
702.476	429.44
702.92	406.24
703.364	401.44
703.808	512.74
704.252	824.44
704.696	1182.64
705.14	1399.94
705.584	1823.04
706.027	898.74
706.471	444.44
706.915	331.24
707.359	292.34
707.803	266.14
708.246	254.04
708.69	260.84
709.134	264.54
709.577	252.94
710.021	259.24
710.465	256.94
710.908	244.04
711.352	243.04
711.795	259.44
712.239	288.74
712.682	314.04
713.126	341.44
713.569	390.74
714.012	307.34
714.456	272.74
714.899	247.24
715.342	237.24
715.786	210.84
716.229	211.44
716.672	207.24
717.115	207.64
717.558	207.54
718.002	207.64
718.445	218.44
718.888	231.34
719.331	231.64
719.774	246.34
720.217	257.04
720.66	240.44
721.103	216.44
721.546	206.24
721.989	202.84
722.432	186.34
722.874	193.04
723.317	187.84
723.76	195.84
724.203	209.74
724.645	258.84
725.088	359.44
725.531	468.14
725.974	533.94
726.416	460.24
726.859	250.54
727.301	202.64
727.744	194.04
728.187	189.74
728.629	197.04
729.071	207.94
729.514	205.44
729.956	216.34
730.399	226.54
730.841	237.94
731.283	223.44
731.726	216.34
732.168	204.14
732.61	221.34
733.053	230.14
733.495	256.74
733.937	284.74
734.379	323.24
734.821	349.74
735.263	433.74
735.705	674.04
736.148	1249.24
736.59	2111.44
737.032	2586.44
737.474	2118.74
737.916	672.94
738.357	358.34
738.799	267.24
739.241	248.84
739.683	229.14
740.125	240.54
740.567	247.44
741.008	260.74
741.45	266.64
741.892	259.64
742.334	291.04
742.775	298.44
743.217	278.74
743.658	220.84
744.1	210.74
744.542	212.64
744.983	252.24
745.425	292.44
745.866	293.34
746.307	234.04
746.749	235.24
747.19	269.04
747.632	359.14
748.073	694.14
748.514	1492.44
748.956	2366.54
749.397	2945.34
749.838	2452.94
750.279	2520.04
750.72	1271.04
751.162	457.24
751.603	259.84
752.044	207.04
752.485	181.74
752.926	170.84
753.367	161.04
753.808	157.54
754.249	160.74
754.69	153.54
755.131	146.44
755.572	148.44
756.013	152.84
756.453	149.84
756.894	153.64
757.335	153.04
757.776	161.84
758.216	150.24
758.657	161.84
759.098	165.54
759.538	189.84
759.979	218.64
760.42	294.64
760.86	559.34
761.301	1446.24
761.741	3589.94
762.182	5529.04
762.622	3900.44
763.063	1095.64
763.503	448.14
763.943	276.24
764.384	272.54
764.824	328.74
765.264	368.34
765.705	247.84
766.145	172.44
766.585	154.04
767.025	144.94
767.465	150.74
767.906	196.24
768.346	258.74
768.786	282.84
769.226	211.24
769.666	253.24
770.106	486.64
770.546	1244.54
770.986	2230.84
771.426	2026.64
771.866	657.04
772.306	269.84
772.745	175.54
773.185	143.44
773.625	132.54
774.065	134.14
774.505	160.94
774.944	239.24
775.384	535.44
775.824	1014.44
776.263	1010.04
776.703	422.14
777.142	184.34
777.582	128.14
778.021	111.74
778.461	116.14
778.9	114.04
779.34	107.94
779.779	96.34
780.219	90.84
780.658	89.44
781.097	85.74
781.537	97.54
781.976	88.54
782.415	86.34
782.855	91.54
783.294	87.94
783.733	89.64
784.172	84.14
784.611	82.64
785.05	90.34
785.489	95.44
785.928	91.14
786.367	103.04
786.806	97.64
787.245	97.14
787.684	109.74
788.123	121.84
788.562	111.44
789.001	104.64
789.44	97.34
789.879	100.34
790.317	99.24
790.756	109.14
791.195	103.34
791.634	118.34
792.072	163.14
792.511	288.74
792.95	793.24
793.388	1783.24
793.827	1663.64
794.265	566.24
794.704	230.54
795.142	158.74
795.581	129.14
796.019	111.24
796.458	104.04
796.896	100.64
797.334	102.74
797.773	128.84
798.211	179.34
798.649	344.14
799.087	824.74
799.526	1312.74
799.964	1659.74
800.402	1726.34
800.84	636.94
801.278	249.24
801.716	156.24
802.154	123.74
802.592	113.94
803.03	111.44
803.468	109.34
803.906	120.54
804.344	124.84
804.782	118.54
805.22	107.24
805.658	101.04
806.096	121.84
806.533	130.74
806.971	146.44
807.409	176.24
807.847	250.04
808.284	524.74
808.722	1502.84
809.16	2768.34
809.597	2542.14
810.035	4513.84
810.472	5059.24
810.91	1786.24
811.347	665.24
811.785	342.04
812.222	216.44
812.66	155.24
813.097	135.24
813.535	117.94
813.972	106.74
814.409	99.54
814.846	83.44
815.284	87.84
815.721	82.24
816.158	82.54
816.595	97.14
817.032	143.84
817.47	168.14
817.907	135.74
818.344	122.94
818.781	94.24
819.218	83.34
819.655	99.34
820.092	161.14
820.529	182.74
820.966	148.84
821.403	111.44
821.839	91.34
822.276	81.14
822.713	112.94
823.15	111.04
823.587	93.84
824.023	126.74
824.46	229.54
824.897	732.64
825.333	1168.94
825.77	485.74
826.206	193.64
826.643	106.14
827.08	88.44
827.516	65.04
827.953	57.54
828.389	67.14
828.825	53.84
829.262	53.84
829.698	53.54
830.135	48.44
830.571	47.54
831.007	55.94
831.443	46.94
831.88	50.64
832.316	51.94
832.752	49.24
833.188	54.14
833.624	47.24
834.06	49.14
834.497	53.34
834.933	61.84
835.369	56.44
835.805	59.74
836.241	66.94
836.677	65.44
837.112	70.34
837.548	89.94
837.984	116.24
838.42	165.84
838.856	395.84
839.292	1240.84
839.727	1974.44
840.163	905.54
840.599	747.14
841.034	1678.94
841.47	1844.74
841.906	656.84
842.341	274.74
842.777	190.04
843.212	253.44
843.648	263.44
844.083	129.44
844.519	79.34
844.954	61.24
845.39	45.94
845.825	44.64
846.261	44.04
846.696	44.04
847.131	43.34
847.566	50.14
848.002	43.94
848.437	45.44
848.872	56.34
849.307	55.24
849.742	75.84
850.177	136.94
850.613	455.24
851.048	742.34
851.483	321.74
851.918	129.94
852.353	69.74
852.788	49.14
853.223	46.44
853.657	47.24
854.092	41.04
854.527	29.54
854.962	29.04
855.397	32.04
855.832	39.24
856.266	36.44
856.701	34.54
857.136	32.64
857.57	35.04
858.005	41.24
858.44	50.84
858.874	34.54
859.309	45.24
859.743	36.04
860.178	41.44
860.612	37.44
861.047	43.44
861.481	56.64
861.915	68.04
862.35	39.74
862.784	25.34
863.218	30.24
863.653	28.94
864.087	45.14
864.521	44.34
864.955	61.84
865.39	126.24
865.824	147.04
866.258	98.54
866.692	143.74
867.126	150.04
867.56	87.74
867.994	41.54
868.428	25.74
868.862	37.24
869.296	40.44
869.73	41.64
870.164	44.94
870.598	38.74
871.031	31.34
871.465	26.04
871.899	26.44
872.333	21.84
872.766	17.34
873.2	18.84
873.634	25.34
874.067	21.54
874.501	18.84
874.935	21.34
875.368	25.14
875.802	27.64
876.235	14.94
876.669	19.94
877.102	14.34
877.535	25.74
877.969	17.44
878.402	25.84
878.836	17.94
879.269	18.44
879.702	19.24
880.135	17.44
880.569	17.24
881.002	23.84
881.435	14.84
881.868	16.64
882.301	21.54
882.734	11.24
883.167	14.94
883.601	16.64
884.034	14.14
884.467	10.04
884.899	17.04
885.332	16.84
885.765	15.24
886.198	17.94
886.631	12.84
887.064	14.14
887.497	21.94
887.929	17.24
888.362	10.04
888.795	10.94
889.228	16.14
889.66	12.34
890.093	9.84
890.526	13.24
890.958	15.64
891.391	16.14
891.823	23.54
892.256	13.84
892.688	8.94
893.121	14.14
893.553	10.74
893.985	19.74
894.418	17.04
894.85	7.24
895.282	12.84
895.715	15.54
896.147	10.64
896.579	16.54
897.011	13.84
897.444	12.54
897.876	12.54
898.308	18.34
898.74	12.04
899.172	8.14
899.604	20.04
900.036	16.64
900.468	9.94
900.9	10.94
901.332	17.24
901.764	10.24
902.196	16.74
902.628	14.44
903.06	12.34
903.491	26.64
903.923	21.94
904.355	15.64
904.787	18.34
905.218	17.44
905.65	17.44
906.082	5.74
906.513	8.44
906.945	16.14
907.376	15.14
907.808	21.44
908.239	14.64
908.671	8.14
909.102	18.54
909.534	23.04
909.965	40.94
910.397	79.94
910.828	263.24
911.259	409.84
911.691	191.94
912.122	88.44
912.553	42.74
912.984	26.04
913.415	21.24
913.847	24.54
914.278	8.04
914.709	12.34
915.14	17.04
915.571	16.54
916.002	13.84
916.433	23.24
916.864	11.44
917.295	7.34
917.726	17.14
918.157	15.34
918.587	22.94
919.018	20.54
919.449	21.44
919.88	24.24
920.311	21.84
920.741	35.94
921.172	137.44
921.603	129.24
922.033	52.44
922.464	43.14
922.895	11.04
923.325	14.34
923.756	17.34
924.186	15.94
924.617	19.54
925.047	28.54
925.478	40.74
925.908	37.94
926.338	23.44
926.769	12.84
927.199	20.44
927.629	7.24
928.06	16.44
928.49	17.14
928.92	10.24
929.35	7.94
929.78	6.94
930.21	4.04
930.641	12.14
931.071	5.14
931.501	2.24
931.931	12.14
932.361	8.14
932.791	3.64
933.221	7.84
933.651	4.94
934.08	16.24
934.51	26.04
934.94	7.94
935.37	7.14
935.8	9.14
936.229	2.34
936.659	7.84
937.089	2.14
937.519	14.44
937.948	15.84
938.378	11.54
938.807	4.44
939.237	9.24
939.666	8.84
940.096	-9.06
940.525	4.24
940.955	1.14
941.384	5.04
941.814	-3.56
942.243	-3.16
942.672	8.24
943.102	3.94
943.531	3.34
943.96	2.84
944.39	3.14
944.819	2.34
945.248	0.64
945.677	-0.56
946.106	1.14
946.535	4.04
946.964	-1.56
947.393	1.94
947.822	-1.66
948.251	-4.46
948.68	2.34
949.109	4.14
949.538	6.84
949.967	1.64
950.396	4.44
950.825	-0.36
951.254	-1.36
951.682	-4.06
952.111	5.64
952.54	5.74
952.969	-2.76
953.397	-1.96
953.826	-2.36
954.254	-7.16
954.683	1.44
955.112	2.04
955.54	-4.66
955.969	-0.76
956.397	0.04
956.826	2.64
957.254	3.04
957.682	5.14
958.111	7.54
958.539	-1.26
958.967	3.34
959.396	2.94
959.824	2.54
960.252	4.34
960.68	-6.86
961.109	0.84
961.537	-5.66
961.965	0.74
962.393	-1.46
962.821	-1.66
963.249	0.44
963.677	-4.56
964.105	6.94
964.533	34.74
964.961	37.64
965.389	17.14
965.817	5.44
966.245	0.74
966.672	-1.46
967.1	-8.96
967.528	-3.66
967.956	2.04
968.383	0.24
968.811	-0.06
969.239	-4.36
969.666	-5.86
970.094	-4.16
970.522	2.14
970.949	-3.16
971.377	-5.06
971.804	-1.46
972.232	-1.96
972.659	-2.76
973.087	-3.66
973.514	-4.96
973.941	-9.36
974.369	4.34
974.796	0.54
975.223	-1.46
975.651	1.54
976.078	3.04
976.505	1.94
976.932	-1.06
977.359	8.94
977.786	13.64
978.214	3.24
978.641	-6.76
979.068	-1.76
979.495	-1.96
979.922	-4.26
980.349	2.24
980.776	3.44
981.202	2.94
981.629	4.04
982.056	0.14
982.483	-10.36
982.91	0.64
983.337	-5.26
983.763	1.14
984.19	-3.96
984.617	0.94
985.043	-1.56
985.47	0.24
985.897	-2.76
986.323	-6.76
986.75	3.94
987.176	-2.36
987.603	4.44
988.029	-0.26
988.456	-5.16
988.882	4.64
989.308	-6.16
989.735	-3.16
990.161	0.54
990.587	-4.46
991.014	1.14
991.44	5.94
991.866	-0.36
992.292	-4.46
992.719	-5.06
993.145	-0.76
993.571	-3.36
993.997	-2.66
994.423	-4.76
994.849	0.04
995.275	0.44
995.701	-0.06
996.127	-3.46
996.553	-0.66
996.979	1.24
997.405	-1.36
997.83	-9.46
998.256	-6.66
998.682	-2.46
999.108	-6.66
999.534	-1.56
999.959	-1.06
1000.385	-3.56
1000.811	-1.36
1001.236	-16.16
1001.662	-9.36
1002.087	-5.46
1002.513	-2.46
1002.938	7.54
1003.364	-2.26
1003.789	1.54
1004.215	3.14
1004.64	3.14
1005.066	3.04
1005.491	3.74
1005.916	-2.96
1006.342	-1.86
1006.767	-9.46
1007.192	10.14
1007.617	-7.16
1008.042	-6.96
1008.468	-7.36
1008.893	1.84
1009.318	-6.76
1009.743	-3.56
1010.168	7.64
1010.593	-0.66
1011.018	-10.66
1011.443	-2.46
1011.868	2.24
1012.293	-0.86
1012.718	-12.56
1013.143	-2.16
1013.567	1.04
1013.992	-0.26
1014.417	-10.56
1014.842	-2.16
1015.267	-3.06
1015.691	-2.56
1016.116	1.14
1016.541	1.44
1016.965	4.64
1017.39	-0.26
1017.814	-0.56
1018.239	-3.96
1018.663	-7.96
1019.088	-7.26
1019.512	1.04
1019.937	-2.36
1020.361	-7.06
1020.785	-10.76
1021.21	-7.16
1021.634	0.74
1022.058	5.44
1022.483	3.24
1022.907	-1.16
1023.331	0.64
1023.755	-4.16
1024.179	-4.66
1024.604	-3.46
1025.028	-4.36
1025.452	-2.86
1025.876	-2.16
1026.3	-4.16
1026.724	-8.06
1027.148	-2.66
1027.572	-4.16
1027.996	-8.76
1028.42	-2.66
1028.843	-0.66
1029.267	-2.26
1029.691	-4.66
1030.115	-3.16
1030.539	-6.76
1030.962	-6.86
1031.386	-7.26
1031.81	-0.66
1032.233	-3.46
1032.657	-5.66
1033.08	0.34
1033.504	-5.86
1033.927	-2.76
1034.351	0.64
1034.774	-1.16
1035.198	-3.56
1035.621	-7.96
1036.045	-6.16
1036.468	0.04
1036.891	-8.86
1037.315	-13.76
1037.738	-13.86
1038.161	6.44
1038.584	-3.36
1039.008	-6.26
1039.431	-3.56
1039.854	2.14
1040.277	-3.76
1040.7	-12.46
1041.123	-1.26
1041.546	-8.06
1041.969	-4.36
1042.392	-12.16
1042.815	-2.66
1043.238	-4.16
1043.661	6.24
1044.084	-4.16
1044.507	-8.56
1044.93	-5.26
1045.352	-8.36
1045.775	-2.96
1046.198	2.14
1046.621	2.74
1047.043	-0.66
1047.466	6.74
1047.889	0.54
1048.311	-3.66
1048.734	-2.66
1049.156	-2.86
1049.579	-3.46
1050.001	-1.66
1050.424	0.24
1050.846	-3.16
1051.269	-3.86
1051.691	-8.16
1052.113	-4.86
1052.536	-0.26
1052.958	-3.76
1053.38	-4.26
1053.802	-11.56
1054.225	3.44
1054.647	-11.36
1055.069	-6.96
1055.491	-1.86
1055.913	-5.76
1056.335	2.84
1056.757	0.74
1057.179	-8.46
1057.601	-5.16
1058.023	-5.36
1058.445	-3.56
1058.867	-4.66
1059.289	-0.26
1059.711	-4.26
1060.133	1.64
1060.555	-5.56
1060.976	-8.66
1061.398	-9.16
1061.82	-4.16
1062.241	-3.66
1062.663	-8.56
1063.085	-3.56
1063.506	-1.26
1063.928	-4.76
1064.35	-2.46
1064.771	-12.16
1065.193	-3.06
1065.614	-8.96
1066.035	-1.66
1066.457	0.14
1066.878	1.24
1067.3	-7.06
1067.721	-1.26
1068.142	3.64
1068.564	0.54
1068.985	-5.16
1069.406	-5.66
1069.827	-5.56
1070.248	2.64
1070.67	-7.66
1071.091	-3.36
1071.512	-2.86
1071.933	-3.26
1072.354	-11.46
1072.775	-4.16
1073.196	-10.96
1073.617	-1.16
1074.038	-7.96
1074.459	-3.46
1074.88	-5.56
1075.3	-3.56
1075.721	-2.26
1076.142	-2.16
1076.563	-2.56
1076.983	-7.66
1077.404	-6.36
1077.825	-5.56
1078.246	0.34
1078.666	-7.36
1079.087	-5.36
1079.507	-2.66
1079.928	2.54
1080.348	2.04
1080.769	-9.96
1081.189	-0.86
1081.61	-0.76
1082.03	-4.86
1082.451	-3.46
1082.871	1.64
1083.291	-3.46
1083.711	-7.26
1084.132	-9.16
1084.552	-2.56
1084.972	-3.56
1085.392	-12.76
1085.813	-8.76
1086.233	0.94
1086.653	-5.66
1087.073	-4.46
1087.493	-8.76
1087.913	-6.86
1088.333	-8.76
1088.753	-6.46
1089.173	2.64
1089.593	-9.86
1090.013	3.44
1090.433	0.64
1090.852	-3.06
1091.272	-4.26
1091.692	1.74
1092.112	-10.16
1092.531	-9.56
1092.951	-13.86
1093.371	-0.16
1093.79	-0.06
1094.21	-1.46
1094.63	-5.56
1095.049	-1.56
1095.469	-2.56
1095.888	-1.26
1096.308	3.94
1096.727	1.24
1097.146	-6.26
1097.566	1.84
1097.985	-2.56
1098.405	2.24
1098.824	-11.76
1099.243	-10.46
1099.662	-6.76
1100.082	0.44
1100.501	-1.66
1100.92	-5.56
1101.339	-1.36
1101.758	-2.86
