Data from 20171114-ORNL-Ar_H_NY_Subt18_08-05-20-952.txt Node
Date: Tue Nov 14 08:05:20 EST 2017
User: Ender
Spectrometer: HR+D1039
Trigger mode: 0
Integration Time (sec): 2.730000E-2
Scans to average: 10
Electric dark correction enabled: true
Nonlinearity correction enabled: false
Boxcar width: 0
XAxis mode: Wavelengths
Number of Pixels in Spectrum: 2048
>>>>>Begin Spectral Data<<<<<
187.836	-3.36
188.309	-3.36
188.782	-3.36
189.255	5.24
189.728	-0.76
190.201	4.14
190.674	1.84
191.147	0.84
191.619	-10.06
192.092	4.14
192.565	0.14
193.038	-0.36
193.511	3.14
193.984	-0.96
194.456	-0.26
194.929	-3.26
195.402	1.34
195.874	-1.76
196.347	1.74
196.82	-6.46
197.292	2.94
197.765	0.24
198.237	-9.06
198.71	4.44
199.182	-2.36
199.655	1.84
200.127	1.14
200.6	0.34
201.072	-1.06
201.544	-5.16
202.017	-0.96
202.489	5.44
202.961	-2.26
203.433	-6.96
203.906	-4.26
204.378	-6.76
204.85	-0.26
205.322	-6.76
205.794	-3.46
206.266	-0.46
206.739	-10.66
207.211	3.44
207.683	-4.66
208.155	-5.66
208.627	0.24
209.099	0.54
209.57	-6.96
210.042	-1.96
210.514	-3.36
210.986	-3.66
211.458	-6.26
211.93	-9.96
212.402	5.34
212.873	-2.06
213.345	-9.36
213.817	-11.46
214.288	1.24
214.76	-7.06
215.232	5.24
215.703	-2.56
216.175	-1.46
216.646	-7.96
217.118	-0.66
217.589	-0.36
218.061	-0.76
218.532	-3.16
219.004	-5.36
219.475	-4.96
219.946	-0.76
220.418	-3.86
220.889	2.14
221.36	0.04
221.832	-1.56
222.303	-1.76
222.774	-0.46
223.245	-3.56
223.717	-10.46
224.188	0.64
224.659	-4.76
225.13	-3.56
225.601	-2.56
226.072	5.54
226.543	4.34
227.014	3.94
227.485	-0.46
227.956	-2.66
228.427	5.84
228.898	-2.76
229.369	1.24
229.839	-6.96
230.31	-9.36
230.781	1.14
231.252	-5.26
231.722	-1.16
232.193	-5.96
232.664	3.54
233.135	1.24
233.605	5.74
234.076	-4.86
234.546	1.44
235.017	1.34
235.487	0.54
235.958	-2.46
236.428	-2.46
236.899	7.24
237.369	5.04
237.84	-2.16
238.31	9.34
238.78	7.04
239.251	1.54
239.721	5.84
240.191	1.44
240.662	0.94
241.132	-1.56
241.602	-1.96
242.072	1.84
242.542	7.04
243.013	3.74
243.483	3.54
243.953	3.34
244.423	6.64
244.893	-0.96
245.363	6.14
245.833	-0.16
246.303	4.74
246.773	6.74
247.243	4.64
247.712	6.84
248.182	12.14
248.652	12.04
249.122	0.34
249.592	14.44
250.061	21.34
250.531	33.64
251.001	19.04
251.471	23.54
251.94	22.14
252.41	15.94
252.879	2.34
253.349	15.84
253.818	9.54
254.288	3.04
254.757	10.54
255.227	3.34
255.696	2.04
256.166	1.04
256.635	12.54
257.105	9.74
257.574	10.24
258.043	7.54
258.513	11.44
258.982	26.74
259.451	8.94
259.92	20.64
260.389	16.84
260.859	21.04
261.328	9.84
261.797	20.04
262.266	11.24
262.735	12.74
263.204	3.14
263.673	2.74
264.142	9.94
264.611	2.84
265.08	5.14
265.549	6.34
266.018	7.94
266.487	3.34
266.955	-2.56
267.424	6.74
267.893	7.34
268.362	2.84
268.83	8.84
269.299	16.14
269.768	7.14
270.236	12.04
270.705	9.64
271.174	8.14
271.642	11.04
272.111	12.54
272.579	23.64
273.048	29.64
273.516	34.34
273.985	31.94
274.453	24.94
274.922	19.84
275.39	13.34
275.858	7.64
276.327	14.24
276.795	23.94
277.263	12.54
277.731	35.44
278.2	60.44
278.668	69.84
279.136	49.84
279.604	28.94
280.072	23.84
280.54	11.74
281.008	9.04
281.477	22.94
281.945	16.54
282.413	15.64
282.881	23.84
283.348	12.34
283.816	13.84
284.284	16.54
284.752	20.04
285.22	12.44
285.688	19.34
286.156	23.64
286.623	45.54
287.091	58.94
287.559	35.44
288.026	22.54
288.494	16.94
288.962	12.44
289.429	17.84
289.897	21.24
290.364	21.44
290.832	23.84
291.3	15.34
291.767	21.14
292.234	25.14
292.702	19.74
293.169	22.94
293.637	28.24
294.104	20.34
294.571	15.54
295.039	9.14
295.506	16.04
295.973	15.84
296.44	11.24
296.908	20.44
297.375	18.24
297.842	23.54
298.309	20.94
298.776	15.74
299.243	24.14
299.71	15.64
300.177	23.24
300.644	29.94
301.111	20.54
301.578	21.04
302.045	21.04
302.512	22.44
302.979	28.44
303.446	22.34
303.913	23.74
304.379	18.84
304.846	31.74
305.313	29.64
305.78	23.84
306.246	30.94
306.713	32.04
307.18	26.44
307.646	36.04
308.113	34.84
308.579	29.84
309.046	28.44
309.512	27.04
309.979	22.54
310.445	29.54
310.912	32.34
311.378	39.04
311.845	24.14
312.311	34.04
312.777	35.74
313.244	30.54
313.71	44.04
314.176	33.44
314.642	38.64
315.109	32.94
315.575	36.24
316.041	38.04
316.507	33.64
316.973	42.04
317.439	47.04
317.905	44.24
318.371	37.54
318.837	37.64
319.303	32.84
319.769	37.74
320.235	42.34
320.701	37.44
321.167	38.94
321.633	42.24
322.099	42.24
322.564	50.84
323.03	42.54
323.496	38.44
323.962	41.24
324.427	38.04
324.893	45.54
325.359	42.84
325.824	38.04
326.29	41.84
326.755	41.74
327.221	42.34
327.686	41.14
328.152	53.64
328.617	47.04
329.083	52.24
329.548	57.64
330.014	54.04
330.479	42.74
330.944	47.14
331.41	43.24
331.875	51.14
332.34	50.44
332.805	48.34
333.271	51.34
333.736	51.64
334.201	59.44
334.666	55.84
335.131	58.64
335.596	55.84
336.061	57.24
336.526	43.04
336.991	53.74
337.456	61.84
337.921	50.44
338.386	48.94
338.851	48.94
339.316	51.74
339.781	46.74
340.246	52.54
340.711	50.44
341.175	54.64
341.64	48.04
342.105	55.04
342.569	61.04
343.034	58.14
343.499	59.84
343.963	57.24
344.428	69.84
344.893	67.84
345.357	64.44
345.822	66.54
346.286	71.54
346.751	78.44
347.215	69.94
347.679	83.94
348.144	97.34
348.608	84.14
349.073	77.34
349.537	77.74
350.001	83.64
350.465	91.24
350.93	77.54
351.394	85.94
351.858	80.44
352.322	93.74
352.786	85.74
353.25	107.74
353.715	114.94
354.179	100.74
354.643	125.94
355.107	128.54
355.571	108.54
356.035	116.54
356.498	123.14
356.962	124.14
357.426	133.64
357.89	117.84
358.354	96.04
358.818	86.64
359.281	86.44
359.745	84.64
360.209	81.24
360.673	83.24
361.136	83.54
361.6	89.14
362.064	85.94
362.527	87.94
362.991	94.64
363.454	81.34
363.918	80.54
364.381	87.24
364.845	81.94
365.308	90.44
365.772	86.34
366.235	87.44
366.698	83.54
367.162	85.24
367.625	85.74
368.088	84.44
368.552	88.74
369.015	84.04
369.478	96.14
369.941	100.54
370.404	93.94
370.867	110.24
371.331	108.04
371.794	116.34
372.257	113.54
372.72	123.24
373.183	110.34
373.646	103.94
374.109	106.14
374.572	112.14
375.035	101.04
375.497	108.24
375.96	103.84
376.423	109.34
376.886	113.84
377.349	101.74
377.811	105.94
378.274	111.54
378.737	109.54
379.199	111.24
379.662	115.74
380.125	119.74
380.587	122.94
381.05	127.14
381.512	130.64
381.975	130.84
382.437	129.84
382.9	123.84
383.362	132.04
383.825	134.54
384.287	143.04
384.75	138.44
385.212	135.74
385.674	135.94
386.136	141.64
386.599	125.04
387.061	125.84
387.523	133.44
387.985	133.94
388.447	145.64
388.91	147.14
389.372	159.94
389.834	148.94
390.296	150.04
390.758	155.94
391.22	171.94
391.682	204.44
392.144	294.54
392.606	224.94
393.068	169.84
393.529	172.84
393.991	152.64
394.453	148.84
394.915	157.84
395.377	193.44
395.838	212.54
396.3	154.94
396.762	142.94
397.224	131.54
397.685	130.64
398.147	131.44
398.608	131.64
399.07	122.44
399.531	137.84
399.993	134.74
400.454	156.54
400.916	144.64
401.377	151.44
401.839	152.54
402.3	154.24
402.762	168.34
403.223	185.44
403.684	173.34
404.145	161.94
404.607	165.14
405.068	170.24
405.529	173.44
405.99	194.54
406.451	175.24
406.913	172.04
407.374	164.14
407.835	156.14
408.296	163.24
408.757	176.84
409.218	183.24
409.679	179.14
410.14	175.54
410.601	180.04
411.062	179.74
411.522	194.44
411.983	196.74
412.444	176.34
412.905	178.24
413.366	185.84
413.826	191.34
414.287	222.14
414.748	258.54
415.208	261.64
415.669	213.24
416.13	206.04
416.59	205.84
417.051	214.54
417.511	223.34
417.972	236.04
418.432	239.74
418.893	285.94
419.353	249.44
419.814	196.44
420.274	185.54
420.734	175.84
421.195	205.84
421.655	202.84
422.115	196.74
422.576	185.64
423.036	197.64
423.496	205.94
423.956	217.04
424.416	236.34
424.876	260.64
425.336	264.44
425.797	257.84
426.257	248.64
426.717	242.74
427.177	228.74
427.637	223.54
428.097	234.04
428.556	248.74
429.016	269.64
429.476	265.04
429.936	276.64
430.396	276.64
430.856	296.34
431.315	313.44
431.775	353.84
432.235	378.54
432.694	355.44
433.154	361.04
433.614	386.64
434.073	336.94
434.533	285.94
434.993	275.14
435.452	282.04
435.912	298.14
436.371	287.94
436.83	289.14
437.29	260.74
437.749	250.04
438.209	252.04
438.668	277.24
439.127	293.44
439.587	266.74
440.046	248.24
440.505	262.34
440.964	272.14
441.424	319.44
441.883	304.94
442.342	256.04
442.801	229.64
443.26	221.04
443.719	220.94
444.178	219.34
444.637	214.54
445.096	221.54
445.555	224.24
446.014	224.84
446.473	226.04
446.932	228.34
447.391	227.34
447.849	224.34
448.308	218.34
448.767	214.84
449.226	232.74
449.685	239.74
450.143	245.74
450.602	243.84
451.061	228.44
451.519	234.04
451.978	235.04
452.436	231.24
452.895	238.04
453.353	249.34
453.812	240.64
454.27	240.24
454.729	231.84
455.187	241.84
455.646	242.04
456.104	247.84
456.562	264.84
457.021	270.24
457.479	261.04
457.937	274.54
458.395	260.54
458.854	242.04
459.312	253.14
459.77	281.74
460.228	257.94
460.686	245.94
461.144	254.04
461.602	236.94
462.06	244.64
462.518	258.74
462.976	244.24
463.434	252.54
463.892	261.54
464.35	284.14
464.808	292.34
465.266	272.64
465.724	268.74
466.181	276.14
466.639	277.34
467.097	285.54
467.555	294.74
468.012	304.84
468.47	305.54
468.928	328.94
469.385	345.44
469.843	349.74
470.3	353.34
470.758	357.94
471.215	385.24
471.673	418.34
472.13	405.54
472.588	413.74
473.045	365.14
473.503	374.14
473.96	392.74
474.417	409.94
474.875	438.74
475.332	480.24
475.789	460.74
476.246	458.54
476.704	487.34
477.161	507.24
477.618	536.74
478.075	563.14
478.532	617.94
478.989	685.44
479.446	797.74
479.903	768.84
480.36	805.04
480.817	869.74
481.274	963.34
481.731	1072.14
482.188	1163.24
482.645	1300.54
483.102	1420.04
483.558	1562.14
484.015	1596.84
484.472	1578.94
484.929	1544.54
485.385	1492.04
485.842	1437.24
486.299	1381.64
486.755	1299.84
487.212	1097.94
487.668	920.54
488.125	846.24
488.582	782.74
489.038	749.14
489.494	708.84
489.951	693.74
490.407	663.84
490.864	647.84
491.32	646.84
491.776	647.44
492.233	641.94
492.689	621.54
493.145	611.84
493.602	601.54
494.058	610.44
494.514	609.44
494.97	637.24
495.426	643.24
495.882	628.04
496.338	615.04
496.794	622.04
497.251	629.04
497.707	635.24
498.163	644.34
498.618	654.94
499.074	652.44
499.53	676.34
499.986	678.94
500.442	651.64
500.898	633.74
501.354	633.04
501.809	631.94
502.265	643.44
502.721	663.44
503.177	684.34
503.632	668.14
504.088	678.14
504.543	708.94
504.999	716.04
505.455	654.14
505.91	630.24
506.366	636.34
506.821	622.44
507.277	619.64
507.732	620.64
508.187	631.54
508.643	633.34
509.098	629.54
509.553	665.14
510.009	664.84
510.464	666.94
510.919	679.34
511.375	697.24
511.83	709.74
512.285	724.64
512.74	761.14
513.195	782.24
513.65	780.54
514.105	771.54
514.56	785.04
515.015	796.44
515.47	812.04
515.925	800.14
516.38	800.04
516.835	783.94
517.29	776.94
517.745	781.54
518.2	761.74
518.655	748.94
519.109	748.54
519.564	750.74
520.019	730.24
520.474	724.64
520.928	731.84
521.383	727.74
521.838	708.54
522.292	707.14
522.747	706.44
523.201	698.24
523.656	695.24
524.11	688.64
524.565	699.44
525.019	678.04
525.474	699.24
525.928	705.24
526.382	696.24
526.837	704.44
527.291	698.94
527.745	697.94
528.2	698.54
528.654	694.24
529.108	684.44
529.562	686.74
530.016	684.44
530.47	695.64
530.925	691.64
531.379	693.14
531.833	698.14
532.287	707.84
532.741	709.84
533.195	696.44
533.649	708.44
534.103	714.04
534.556	714.04
535.01	715.34
535.464	706.34
535.918	723.34
536.372	720.34
536.826	715.74
537.279	704.64
537.733	716.14
538.187	717.64
538.64	710.94
539.094	723.54
539.548	718.44
540.001	728.64
540.455	725.14
540.908	723.14
541.362	725.24
541.815	739.94
542.269	765.84
542.722	759.44
543.175	760.04
543.629	775.14
544.082	770.94
544.536	783.54
544.989	785.04
545.442	782.94
545.895	789.04
546.349	794.24
546.802	778.94
547.255	794.74
547.708	799.34
548.161	820.34
548.614	815.54
549.067	826.44
549.52	815.54
549.973	794.34
550.426	797.14
550.879	787.34
551.332	795.54
551.785	801.74
552.238	798.34
552.691	805.14
553.144	825.04
553.596	832.74
554.049	863.54
554.502	883.34
554.955	904.14
555.407	900.34
555.86	897.84
556.313	886.24
556.765	870.74
557.218	876.64
557.67	869.94
558.123	866.34
558.576	862.34
559.028	874.04
559.48	874.14
559.933	857.34
560.385	827.14
560.838	794.24
561.29	775.14
561.742	775.54
562.195	752.04
562.647	758.64
563.099	770.74
563.551	758.24
564.004	772.14
564.456	767.14
564.908	753.94
565.36	745.84
565.812	731.44
566.264	716.54
566.716	725.94
567.168	722.04
567.62	724.34
568.072	697.24
568.524	681.44
568.976	676.74
569.428	662.34
569.88	666.14
570.332	675.94
570.784	674.24
571.235	675.84
571.687	693.94
572.139	691.64
572.59	696.14
573.042	701.84
573.494	702.64
573.945	689.54
574.397	681.54
574.849	683.94
575.3	682.04
575.752	673.04
576.203	668.34
576.655	676.54
577.106	668.04
577.557	657.64
578.009	650.74
578.46	654.74
578.912	644.34
579.363	660.54
579.814	655.54
580.265	649.24
580.717	659.74
581.168	660.54
581.619	671.14
582.07	674.14
582.521	668.04
582.972	656.94
583.423	674.44
583.875	672.44
584.326	691.14
584.777	729.14
585.227	811.94
585.678	896.84
586.129	985.04
586.58	1046.64
587.031	1129.74
587.482	1291.74
587.933	1472.94
588.384	1268.04
588.834	967.74
589.285	792.24
589.736	766.44
590.186	767.34
590.637	751.04
591.088	724.74
591.538	720.64
591.989	714.94
592.439	719.04
592.89	708.44
593.34	689.84
593.791	688.34
594.241	685.34
594.692	684.54
595.142	692.04
595.593	687.14
596.043	694.74
596.493	700.84
596.943	706.34
597.394	706.54
597.844	708.74
598.294	708.64
598.744	737.34
599.195	750.84
599.645	806.24
600.095	835.64
600.545	888.74
600.995	938.44
601.445	1001.34
601.895	1068.14
602.345	1110.14
602.795	1090.34
603.245	1046.64
603.695	988.34
604.145	925.14
604.594	892.74
605.044	842.34
605.494	777.04
605.944	723.04
606.393	724.04
606.843	708.34
607.293	714.64
607.743	714.74
608.192	724.04
608.642	737.94
609.091	747.24
609.541	752.64
609.99	752.44
610.44	743.44
610.889	704.24
611.339	675.44
611.788	661.84
612.238	684.74
612.687	699.34
613.136	700.24
613.586	719.04
614.035	715.44
614.484	736.04
614.933	732.94
615.383	715.84
615.832	714.04
616.281	703.44
616.73	668.64
617.179	641.54
617.628	631.44
618.077	615.34
618.526	608.34
618.975	597.54
619.424	588.14
619.873	594.14
620.322	591.74
620.771	589.74
621.22	587.14
621.669	572.74
622.118	562.34
622.567	559.94
623.015	547.14
623.464	556.24
623.913	543.34
624.361	533.94
624.81	537.54
625.259	534.74
625.707	532.04
626.156	535.04
626.604	544.24
627.053	544.24
627.501	534.64
627.95	549.04
628.398	562.04
628.847	550.94
629.295	541.64
629.744	556.04
630.192	544.44
630.64	551.84
631.089	551.94
631.537	552.14
631.985	569.44
632.433	575.54
632.881	586.34
633.33	635.74
633.778	618.94
634.226	537.94
634.674	548.44
635.122	565.04
635.57	574.54
636.018	595.84
636.466	554.04
636.914	539.34
637.362	547.24
637.81	552.44
638.258	555.74
638.705	554.44
639.153	576.94
639.601	592.14
640.049	623.24
640.497	637.74
640.944	664.04
641.392	615.84
641.84	585.14
642.287	563.94
642.735	550.74
643.182	546.54
643.63	551.54
644.078	543.84
644.525	556.64
644.973	575.04
645.42	582.14
645.867	601.84
646.315	613.34
646.762	639.74
647.21	666.74
647.657	681.64
648.104	712.94
648.551	731.04
648.999	794.04
649.446	867.74
649.893	971.44
650.34	1109.34
650.787	1332.54
651.234	1646.14
651.682	2122.54
652.129	2918.54
652.576	4219.34
653.023	6246.14
653.47	8567.14
653.917	10790.54
654.363	12546.84
654.81	13950.34
655.257	13301.54
655.704	8700.04
656.151	5132.74
656.598	3316.94
657.044	2347.54
657.491	1806.14
657.938	1426.14
658.385	1196.84
658.831	1033.94
659.278	917.34
659.724	825.34
660.171	756.74
660.618	699.94
661.064	659.54
661.511	645.34
661.957	629.54
662.404	617.94
662.85	626.44
663.296	598.24
663.743	547.04
664.189	516.84
664.635	508.24
665.082	501.94
665.528	498.54
665.974	496.94
666.42	487.44
666.867	492.34
667.313	462.34
667.759	456.44
668.205	458.14
668.651	468.24
669.097	467.14
669.543	476.04
669.989	452.84
670.435	421.84
670.881	423.44
671.327	422.34
671.773	441.74
672.219	461.34
672.665	517.84
673.11	546.74
673.556	595.94
674.002	637.04
674.448	622.94
674.893	528.74
675.339	450.14
675.785	417.14
676.23	402.24
676.676	377.74
677.122	359.44
677.567	352.64
678.013	355.54
678.458	342.74
678.904	345.24
679.349	327.74
679.794	339.84
680.24	341.24
680.685	327.44
681.131	331.94
681.576	328.34
682.021	332.04
682.466	328.04
682.912	328.24
683.357	331.44
683.802	359.14
684.247	386.14
684.692	427.94
685.137	467.64
685.583	503.74
686.028	524.84
686.473	486.34
686.918	418.84
687.363	391.94
687.807	375.34
688.252	349.84
688.697	337.24
689.142	320.14
689.587	313.34
690.032	307.14
690.477	328.54
690.921	332.14
691.366	359.64
691.811	383.44
692.255	409.84
692.7	437.84
693.145	469.94
693.589	640.44
694.034	1053.14
694.478	1432.14
694.923	1642.74
695.367	2146.34
695.812	1152.84
696.256	472.14
696.701	358.14
697.145	326.74
697.59	312.84
698.034	304.04
698.478	308.24
698.922	309.44
699.367	306.74
699.811	321.64
700.255	337.84
700.699	360.34
701.143	405.04
701.588	455.24
702.032	483.04
702.476	482.04
702.92	459.14
703.364	454.84
703.808	602.74
704.252	955.74
704.696	1345.94
705.14	1583.44
705.584	2019.74
706.027	1004.34
706.471	491.14
706.915	373.04
707.359	321.64
707.803	302.94
708.246	294.04
708.69	295.14
709.134	296.94
709.577	293.44
710.021	294.84
710.465	296.44
710.908	275.84
711.352	278.84
711.795	292.04
712.239	333.94
712.682	363.44
713.126	394.74
713.569	443.14
714.012	343.04
714.456	306.94
714.899	286.94
715.342	261.14
715.786	256.44
716.229	245.64
716.672	243.94
717.115	229.74
717.558	237.04
718.002	223.44
718.445	243.24
718.888	271.54
719.331	265.94
719.774	290.04
720.217	279.64
720.66	269.24
721.103	248.74
721.546	245.34
721.989	239.84
722.432	219.04
722.874	223.44
723.317	212.04
723.76	223.74
724.203	244.74
724.645	301.84
725.088	410.14
725.531	538.14
725.974	606.24
726.416	516.34
726.859	289.64
727.301	232.74
727.744	224.94
728.187	222.14
728.629	227.64
729.071	225.94
729.514	246.74
729.956	259.04
730.399	261.34
730.841	269.94
731.283	255.54
731.726	257.64
732.168	244.34
732.61	248.34
733.053	267.84
733.495	293.54
733.937	337.34
734.379	376.24
734.821	406.04
735.263	504.54
735.705	766.84
736.148	1442.04
736.59	2395.44
737.032	2904.04
737.474	2359.94
737.916	758.04
738.357	406.94
738.799	304.44
739.241	275.14
739.683	274.34
740.125	267.14
740.567	282.44
741.008	299.94
741.45	297.84
741.892	297.74
742.334	328.74
742.775	346.34
743.217	327.64
743.658	250.14
744.1	239.04
744.542	249.94
744.983	287.94
745.425	325.04
745.866	316.64
746.307	270.74
746.749	257.24
747.19	303.54
747.632	417.44
748.073	807.24
748.514	1707.74
748.956	2669.64
749.397	3322.14
749.838	2762.04
750.279	2816.14
750.72	1412.44
751.162	509.04
751.603	302.94
752.044	235.04
752.485	202.74
752.926	194.04
753.367	190.44
753.808	177.74
754.249	175.14
754.69	175.54
755.131	168.94
755.572	169.94
756.013	173.64
756.453	176.54
756.894	178.24
757.335	176.54
757.776	178.14
758.216	185.94
758.657	185.44
759.098	191.94
759.538	219.24
759.979	248.24
760.42	340.94
760.86	649.04
761.301	1649.84
761.741	4048.94
762.182	6130.94
762.622	4304.84
763.063	1218.94
763.503	502.74
763.943	317.74
764.384	310.54
764.824	374.64
765.264	415.74
765.705	288.74
766.145	198.74
766.585	174.54
767.025	169.34
767.465	166.44
767.906	232.24
768.346	302.94
768.786	319.44
769.226	245.94
769.666	294.04
770.106	562.74
770.546	1408.74
770.986	2472.14
771.426	2252.04
771.866	748.94
772.306	311.14
772.745	192.14
773.185	169.04
773.625	155.04
774.065	152.94
774.505	186.94
774.944	280.24
775.384	615.84
775.824	1154.74
776.263	1140.34
776.703	472.14
777.142	208.74
777.582	146.54
778.021	133.74
778.461	132.54
778.9	136.24
779.34	128.94
779.779	107.54
780.219	102.44
780.658	101.64
781.097	105.64
781.537	106.64
781.976	106.24
782.415	100.04
782.855	95.14
783.294	96.54
783.733	95.84
784.172	101.14
784.611	95.44
785.05	97.24
785.489	106.34
785.928	113.64
786.367	112.34
786.806	115.14
787.245	120.14
787.684	130.44
788.123	144.64
788.562	122.74
789.001	114.34
789.44	115.64
789.879	106.74
790.317	111.44
790.756	115.34
791.195	121.54
791.634	136.64
792.072	191.94
792.511	331.34
792.95	906.74
793.388	1995.84
793.827	1842.44
794.265	635.94
794.704	264.04
795.142	171.74
795.581	141.54
796.019	122.44
796.458	122.74
796.896	116.34
797.334	118.84
797.773	144.54
798.211	198.74
798.649	396.84
799.087	942.04
799.526	1475.34
799.964	1858.84
800.402	1918.54
800.84	717.14
801.278	283.64
801.716	172.74
802.154	147.54
802.592	138.14
803.03	131.94
803.468	127.74
803.906	132.24
804.344	142.84
804.782	129.64
805.22	122.84
805.658	122.74
806.096	134.34
806.533	153.34
806.971	166.44
807.409	198.44
807.847	281.14
808.284	592.24
808.722	1698.64
809.16	3087.04
809.597	2874.94
810.035	5024.74
810.472	5525.84
810.91	1962.74
811.347	750.54
811.785	377.24
812.222	237.24
812.66	185.24
813.097	155.74
813.535	137.94
813.972	114.14
814.409	116.94
814.846	99.24
815.284	107.04
815.721	101.64
816.158	105.14
816.595	117.64
817.032	169.84
817.47	188.64
817.907	154.44
818.344	139.94
818.781	112.34
819.218	95.24
819.655	114.84
820.092	177.24
820.529	196.44
820.966	170.44
821.403	126.54
821.839	99.14
822.276	94.74
822.713	110.54
823.15	128.74
823.587	107.84
824.023	137.94
824.46	269.84
824.897	821.44
825.333	1287.44
825.77	550.14
826.206	215.54
826.643	125.54
827.08	96.04
827.516	78.34
827.953	73.74
828.389	78.34
828.825	63.24
829.262	61.54
829.698	60.04
830.135	62.24
830.571	61.34
831.007	65.64
831.443	55.74
831.88	58.64
832.316	60.34
832.752	61.84
833.188	62.74
833.624	61.24
834.06	67.94
834.497	58.24
834.933	71.94
835.369	68.64
835.805	58.74
836.241	67.94
836.677	69.24
837.112	80.34
837.548	94.54
837.984	120.94
838.42	176.14
838.856	439.74
839.292	1381.54
839.727	2187.14
840.163	1006.74
840.599	846.44
841.034	1880.24
841.47	2009.84
841.906	732.14
842.341	313.84
842.777	212.44
843.212	299.34
843.648	297.84
844.083	145.24
844.519	94.94
844.954	73.54
845.39	50.44
845.825	51.84
846.261	59.04
846.696	54.14
847.131	53.64
847.566	53.04
848.002	49.44
848.437	51.84
848.872	59.64
849.307	56.74
849.742	79.64
850.177	162.84
850.613	507.24
851.048	825.24
851.483	361.24
851.918	142.34
852.353	77.94
852.788	56.34
853.223	53.24
853.657	49.04
854.092	42.64
854.527	46.04
854.962	40.34
855.397	41.14
855.832	45.04
856.266	39.34
856.701	34.54
857.136	39.34
857.57	40.04
858.005	43.44
858.44	63.14
858.874	39.44
859.309	52.44
859.743	33.04
860.178	50.04
860.612	33.24
861.047	49.54
861.481	59.94
861.915	72.44
862.35	50.64
862.784	32.54
863.218	36.64
863.653	29.84
864.087	39.64
864.521	47.34
864.955	67.74
865.39	146.94
865.824	171.14
866.258	108.74
866.692	154.54
867.126	173.74
867.56	102.14
867.994	53.74
868.428	37.74
868.862	41.74
869.296	53.14
869.73	53.84
870.164	49.24
870.598	46.04
871.031	39.24
871.465	27.44
871.899	32.24
872.333	20.74
872.766	19.84
873.2	25.44
873.634	35.84
874.067	25.64
874.501	18.34
874.935	29.94
875.368	27.34
875.802	27.14
876.235	23.64
876.669	22.34
877.102	22.14
877.535	22.74
877.969	24.64
878.402	23.84
878.836	17.24
879.269	16.74
879.702	22.34
880.135	20.94
880.569	22.34
881.002	27.44
881.435	23.34
881.868	15.74
882.301	25.44
882.734	16.94
883.167	21.24
883.601	25.14
884.034	22.24
884.467	10.64
884.899	22.14
885.332	27.04
885.765	12.74
886.198	12.94
886.631	14.94
887.064	16.44
887.497	19.74
887.929	24.24
888.362	14.34
888.795	10.54
889.228	17.04
889.66	26.04
890.093	15.34
890.526	16.04
890.958	18.24
891.391	25.34
891.823	22.44
892.256	16.84
892.688	7.94
893.121	16.74
893.553	13.04
893.985	25.44
894.418	23.94
894.85	8.24
895.282	17.44
895.715	10.54
896.147	20.54
896.579	19.64
897.011	18.34
897.444	18.44
897.876	13.64
898.308	16.54
898.74	19.24
899.172	15.54
899.604	20.14
900.036	20.44
900.468	10.34
900.9	14.44
901.332	13.44
901.764	16.54
902.196	13.74
902.628	20.94
903.06	13.24
903.491	21.94
903.923	20.34
904.355	18.34
904.787	23.74
905.218	23.64
905.65	21.94
906.082	16.44
906.513	16.14
906.945	16.64
907.376	9.64
907.808	21.64
908.239	18.74
908.671	17.44
909.102	18.74
909.534	20.14
909.965	41.84
910.397	82.54
910.828	296.34
911.259	447.74
911.691	206.64
912.122	101.94
912.553	49.34
912.984	39.14
913.415	26.04
913.847	25.64
914.278	15.34
914.709	18.14
915.14	19.44
915.571	15.44
916.002	13.74
916.433	23.74
916.864	16.14
917.295	10.74
917.726	20.24
918.157	17.44
918.587	29.84
919.018	19.04
919.449	22.54
919.88	19.04
920.311	32.44
920.741	48.94
921.172	161.94
921.603	145.84
922.033	65.74
922.464	39.74
922.895	23.04
923.325	23.84
923.756	18.54
924.186	17.44
924.617	23.24
925.047	35.64
925.478	53.04
925.908	38.94
926.338	23.84
926.769	17.24
927.199	21.24
927.629	7.04
928.06	17.24
928.49	11.64
928.92	13.44
929.35	8.14
929.78	10.24
930.21	5.34
930.641	4.54
931.071	16.04
931.501	8.34
931.931	12.44
932.361	6.04
932.791	7.34
933.221	9.74
933.651	9.54
934.08	18.64
934.51	25.14
934.94	11.34
935.37	10.84
935.8	15.14
936.229	5.94
936.659	8.04
937.089	1.14
937.519	13.94
937.948	28.24
938.378	15.54
938.807	5.14
939.237	-0.46
939.666	19.44
940.096	-5.96
940.525	1.74
940.955	1.04
941.384	8.14
941.814	6.04
942.243	1.44
942.672	5.94
943.102	-5.16
943.531	6.14
943.96	-0.56
944.39	4.84
944.819	2.44
945.248	7.44
945.677	6.34
946.106	2.74
946.535	6.44
946.964	-1.56
947.393	4.14
947.822	-0.46
948.251	-4.16
948.68	2.84
949.109	3.34
949.538	8.44
949.967	1.14
950.396	2.24
950.825	-0.86
951.254	3.24
951.682	-6.86
952.111	4.14
952.54	8.94
952.969	0.54
953.397	-2.56
953.826	-3.26
954.254	-1.36
954.683	3.04
955.112	2.44
955.54	-2.26
955.969	1.24
956.397	-1.26
956.826	0.04
957.254	3.84
957.682	0.44
958.111	3.64
958.539	2.64
958.967	4.44
959.396	-10.46
959.824	6.64
960.252	1.44
960.68	3.24
961.109	-0.16
961.537	-2.16
961.965	-2.06
962.393	-1.36
962.821	-2.66
963.249	1.94
963.677	6.44
964.105	12.04
964.533	44.54
964.961	35.84
965.389	17.54
965.817	8.34
966.245	-0.46
966.672	-0.76
967.1	-4.56
967.528	2.84
967.956	2.14
968.383	0.34
968.811	-2.36
969.239	0.24
969.666	-6.86
970.094	2.94
970.522	1.04
970.949	-4.56
971.377	-6.46
971.804	-0.16
972.232	0.84
972.659	-4.86
973.087	0.64
973.514	-3.26
973.941	-7.86
974.369	3.84
974.796	4.54
975.223	5.24
975.651	-0.96
976.078	5.84
976.505	-0.96
976.932	5.24
977.359	12.94
977.786	15.64
978.214	1.54
978.641	-6.66
979.068	-6.56
979.495	-6.06
979.922	5.44
980.349	-1.36
980.776	5.24
981.202	4.54
981.629	3.64
982.056	2.34
982.483	0.94
982.91	3.84
983.337	-7.86
983.763	0.44
984.19	-8.06
984.617	-7.26
985.043	-8.16
985.47	1.84
985.897	-4.96
986.323	-8.46
986.75	1.14
987.176	2.44
987.603	1.34
988.029	4.34
988.456	-4.16
988.882	6.14
989.308	1.94
989.735	-7.06
990.161	-3.66
990.587	-6.46
991.014	-1.56
991.44	5.64
991.866	-2.86
992.292	-7.36
992.719	-3.66
993.145	4.54
993.571	-6.06
993.997	-1.36
994.423	0.54
994.849	-10.46
995.275	5.64
995.701	-3.56
996.127	-6.86
996.553	0.64
996.979	2.64
997.405	-5.66
997.83	-3.06
998.256	-9.86
998.682	-6.66
999.108	-10.56
999.534	-2.86
999.959	-2.06
1000.385	-1.16
1000.811	1.04
1001.236	-5.86
1001.662	-7.76
1002.087	-11.76
1002.513	-1.96
1002.938	0.14
1003.364	1.44
1003.789	-1.66
1004.215	0.74
1004.64	3.64
1005.066	1.94
1005.491	-1.36
1005.916	-1.96
1006.342	-4.56
1006.767	-4.16
1007.192	6.44
1007.617	-4.86
1008.042	-2.66
1008.468	-5.16
1008.893	-4.66
1009.318	1.54
1009.743	1.64
1010.168	2.14
1010.593	1.44
1011.018	-9.86
1011.443	4.94
1011.868	0.14
1012.293	-4.66
1012.718	-6.06
1013.143	-2.46
1013.567	3.94
1013.992	-2.96
1014.417	-13.96
1014.842	-1.86
1015.267	-5.66
1015.691	-2.96
1016.116	2.64
1016.541	-5.46
1016.965	6.74
1017.39	6.64
1017.814	-1.26
1018.239	-4.26
1018.663	-0.06
1019.088	-9.56
1019.512	-2.06
1019.937	-3.06
1020.361	-6.66
1020.785	-11.26
1021.21	-6.66
1021.634	-5.96
1022.058	-0.46
1022.483	3.84
1022.907	1.24
1023.331	1.84
1023.755	2.64
1024.179	-6.06
1024.604	-6.96
1025.028	-0.46
1025.452	-3.56
1025.876	-0.66
1026.3	1.84
1026.724	-6.56
1027.148	-4.76
1027.572	-1.36
1027.996	-3.76
1028.42	2.94
1028.843	-4.86
1029.267	0.04
1029.691	-0.66
1030.115	-7.46
1030.539	-5.46
1030.962	-2.66
1031.386	-8.16
1031.81	-0.06
1032.233	4.84
1032.657	-2.76
1033.08	2.84
1033.504	1.54
1033.927	-3.06
1034.351	5.24
1034.774	-6.56
1035.198	3.04
1035.621	-0.96
1036.045	-8.26
1036.468	-0.66
1036.891	-3.86
1037.315	-7.66
1037.738	-7.86
1038.161	1.94
1038.584	-4.66
1039.008	-3.96
1039.431	-4.86
1039.854	-2.36
1040.277	-8.86
1040.7	-14.06
1041.123	2.64
1041.546	-10.26
1041.969	-2.36
1042.392	-6.06
1042.815	-6.16
1043.238	-4.26
1043.661	6.24
1044.084	-12.46
1044.507	-4.36
1044.93	-7.96
1045.352	-4.56
1045.775	-0.46
1046.198	-1.16
1046.621	-2.46
1047.043	0.24
1047.466	7.14
1047.889	-3.16
1048.311	-4.36
1048.734	-1.76
1049.156	0.14
1049.579	1.14
1050.001	-0.26
1050.424	3.84
1050.846	-7.66
1051.269	-0.36
1051.691	-2.46
1052.113	0.14
1052.536	-3.56
1052.958	4.84
1053.38	-8.16
1053.802	-7.96
1054.225	3.54
1054.647	-9.16
1055.069	-3.56
1055.491	-0.56
1055.913	-5.96
1056.335	2.04
1056.757	-1.76
1057.179	2.14
1057.601	-6.26
1058.023	-1.06
1058.445	-6.96
1058.867	-1.96
1059.289	-6.66
1059.711	-5.46
1060.133	-1.46
1060.555	-6.36
1060.976	-7.46
1061.398	-6.66
1061.82	-3.46
1062.241	-3.96
1062.663	-6.36
1063.085	-10.16
1063.506	4.04
1063.928	-8.86
1064.35	-4.86
1064.771	-11.16
1065.193	-2.96
1065.614	-13.16
1066.035	-4.76
1066.457	-1.86
1066.878	-0.96
1067.3	-2.46
1067.721	-7.56
1068.142	-1.76
1068.564	-5.26
1068.985	1.94
1069.406	-3.66
1069.827	-9.86
1070.248	-1.86
1070.67	-6.56
1071.091	-6.66
1071.512	-3.46
1071.933	-2.66
1072.354	5.04
1072.775	-3.56
1073.196	-6.46
1073.617	-0.66
1074.038	-3.36
1074.459	-1.76
1074.88	-1.86
1075.3	-1.66
1075.721	-3.86
1076.142	-2.06
1076.563	-0.76
1076.983	-6.86
1077.404	-5.56
1077.825	-7.26
1078.246	0.74
1078.666	-5.36
1079.087	-6.36
1079.507	-5.26
1079.928	0.74
1080.348	-0.06
1080.769	-2.66
1081.189	-1.26
1081.61	-3.86
1082.03	-1.86
1082.451	-2.86
1082.871	-2.26
1083.291	-4.86
1083.711	-7.26
1084.132	-4.16
1084.552	-4.26
1084.972	-4.96
1085.392	-6.86
1085.813	-14.36
1086.233	-7.46
1086.653	-7.56
1087.073	-0.76
1087.493	-7.96
1087.913	-1.16
1088.333	-6.86
1088.753	-3.46
1089.173	7.14
1089.593	-2.76
1090.013	3.44
1090.433	-4.56
1090.852	-0.86
1091.272	-2.76
1091.692	2.94
1092.112	2.34
1092.531	-4.46
1092.951	-12.56
1093.371	-0.26
1093.79	6.14
1094.21	-3.76
1094.63	3.24
1095.049	-7.76
1095.469	-3.26
1095.888	3.04
1096.308	4.24
1096.727	5.74
1097.146	-8.16
1097.566	2.84
1097.985	-6.16
1098.405	-6.46
1098.824	-4.66
1099.243	-4.56
1099.662	-7.06
1100.082	-0.06
1100.501	-0.46
1100.92	-9.26
1101.339	-0.96
1101.758	-3.56
