Data from 20171114-ORNL-Ar_H_NY_Subt18_08-04-10-525.txt Node
Date: Tue Nov 14 08:04:10 EST 2017
User: Ender
Spectrometer: HR+D1039
Trigger mode: 0
Integration Time (sec): 2.730000E-2
Scans to average: 10
Electric dark correction enabled: true
Nonlinearity correction enabled: false
Boxcar width: 0
XAxis mode: Wavelengths
Number of Pixels in Spectrum: 2048
>>>>>Begin Spectral Data<<<<<
187.836	-3.59
188.309	-3.59
188.782	-3.59
189.255	7.31
189.728	-5.39
190.201	9.51
190.674	-0.89
191.147	-0.69
191.619	-1.19
192.092	-1.59
192.565	3.71
193.038	-6.39
193.511	-0.39
193.984	2.61
194.456	-5.59
194.929	1.41
195.402	0.81
195.874	0.41
196.347	-1.89
196.82	-8.49
197.292	-2.39
197.765	-0.59
198.237	-10.89
198.71	0.61
199.182	-6.59
199.655	-1.29
200.127	1.71
200.6	2.41
201.072	-5.59
201.544	-7.79
202.017	0.21
202.489	-0.49
202.961	-3.69
203.433	-4.09
203.906	-11.69
204.378	-5.39
204.85	-8.79
205.322	-1.99
205.794	-2.09
206.266	-8.69
206.739	-9.69
207.211	-0.89
207.683	-11.69
208.155	-7.19
208.627	-5.39
209.099	-2.79
209.57	-3.19
210.042	-4.19
210.514	1.81
210.986	-0.89
211.458	-4.79
211.93	-1.79
212.402	1.61
212.873	-7.39
213.345	-14.19
213.817	-11.09
214.288	-1.49
214.76	-7.49
215.232	-8.29
215.703	-2.09
216.175	-2.29
216.646	0.51
217.118	-14.29
217.589	-8.99
218.061	-2.29
218.532	-7.39
219.004	-4.59
219.475	-8.19
219.946	-2.59
220.418	-7.09
220.889	-2.39
221.36	-3.39
221.832	1.41
222.303	-3.99
222.774	-4.59
223.245	-7.29
223.717	-10.69
224.188	-2.49
224.659	-10.19
225.13	-0.39
225.601	1.81
226.072	-1.49
226.543	1.51
227.014	-3.39
227.485	-2.99
227.956	-9.09
228.427	-4.29
228.898	-4.89
229.369	5.41
229.839	-5.69
230.31	-5.39
230.781	6.11
231.252	-2.29
231.722	-3.99
232.193	-3.09
232.664	0.91
233.135	1.61
233.605	-4.29
234.076	-9.89
234.546	1.51
235.017	4.41
235.487	3.51
235.958	-0.89
236.428	-3.09
236.899	3.21
237.369	5.91
237.84	-2.29
238.31	7.51
238.78	-2.09
239.251	2.51
239.721	4.71
240.191	0.31
240.662	-3.59
241.132	-2.29
241.602	-6.99
242.072	5.41
242.542	6.91
243.013	-6.49
243.483	2.21
243.953	0.41
244.423	-0.19
244.893	-7.39
245.363	-2.29
245.833	-1.99
246.303	-4.49
246.773	9.01
247.243	3.21
247.712	4.91
248.182	11.51
248.652	5.51
249.122	-8.39
249.592	7.31
250.061	13.61
250.531	26.11
251.001	10.41
251.471	14.91
251.94	15.31
252.41	4.21
252.879	-2.89
253.349	11.61
253.818	2.11
254.288	7.11
254.757	3.31
255.227	-1.09
255.696	4.61
256.166	4.41
256.635	2.71
257.105	4.71
257.574	1.01
258.043	5.81
258.513	12.21
258.982	13.81
259.451	4.01
259.92	9.31
260.389	-0.69
260.859	15.21
261.328	4.81
261.797	19.31
262.266	1.71
262.735	10.61
263.204	8.71
263.673	-1.59
264.142	6.41
264.611	-3.79
265.08	-2.39
265.549	0.61
266.018	-1.59
266.487	-7.99
266.955	-5.09
267.424	-4.59
267.893	3.31
268.362	2.41
268.83	-0.69
269.299	9.71
269.768	1.91
270.236	8.41
270.705	-0.59
271.174	8.71
271.642	7.91
272.111	3.81
272.579	8.71
273.048	11.41
273.516	23.21
273.985	16.81
274.453	19.01
274.922	21.21
275.39	6.11
275.858	4.71
276.327	14.61
276.795	14.91
277.263	9.51
277.731	27.71
278.2	40.71
278.668	39.11
279.136	41.31
279.604	13.61
280.072	14.41
280.54	6.01
281.008	5.91
281.477	7.81
281.945	13.31
282.413	8.81
282.881	9.81
283.348	0.51
283.816	7.21
284.284	12.31
284.752	11.71
285.22	10.81
285.688	14.11
286.156	17.31
286.623	34.21
287.091	34.21
287.559	20.91
288.026	7.81
288.494	9.11
288.962	1.51
289.429	8.51
289.897	17.11
290.364	13.11
290.832	14.01
291.3	13.31
291.767	14.01
292.234	11.61
292.702	6.61
293.169	9.01
293.637	24.01
294.104	14.71
294.571	-1.39
295.039	6.81
295.506	8.51
295.973	4.21
296.44	6.31
296.908	15.31
297.375	8.91
297.842	15.31
298.309	9.21
298.776	9.91
299.243	15.81
299.71	9.11
300.177	14.11
300.644	14.01
301.111	13.41
301.578	16.71
302.045	10.61
302.512	21.41
302.979	20.11
303.446	13.11
303.913	11.61
304.379	13.51
304.846	22.51
305.313	22.11
305.78	15.61
306.246	24.71
306.713	21.01
307.18	20.91
307.646	21.91
308.113	21.91
308.579	19.11
309.046	23.71
309.512	23.71
309.979	8.41
310.445	24.11
310.912	17.61
311.378	26.41
311.845	20.61
312.311	22.61
312.777	29.11
313.244	28.91
313.71	31.11
314.176	22.81
314.642	20.31
315.109	24.61
315.575	26.61
316.041	29.11
316.507	28.11
316.973	30.11
317.439	26.21
317.905	24.31
318.371	28.11
318.837	30.01
319.303	19.01
319.769	28.71
320.235	22.21
320.701	29.61
321.167	23.41
321.633	28.41
322.099	26.71
322.564	35.01
323.03	29.71
323.496	29.71
323.962	31.61
324.427	28.31
324.893	37.41
325.359	32.41
325.824	29.51
326.29	26.71
326.755	29.61
327.221	31.41
327.686	34.11
328.152	40.01
328.617	33.71
329.083	39.31
329.548	43.21
330.014	37.21
330.479	28.51
330.944	31.71
331.41	39.41
331.875	38.91
332.34	42.61
332.805	33.21
333.271	37.11
333.736	35.61
334.201	46.71
334.666	42.51
335.131	47.01
335.596	45.21
336.061	36.01
336.526	33.61
336.991	43.41
337.456	51.51
337.921	35.01
338.386	35.71
338.851	32.21
339.316	47.91
339.781	35.61
340.246	41.11
340.711	37.61
341.175	39.21
341.64	30.01
342.105	41.91
342.569	44.81
343.034	48.01
343.499	44.21
343.963	43.01
344.428	53.51
344.893	50.21
345.357	50.51
345.822	46.01
346.286	50.41
346.751	58.21
347.215	47.71
347.679	57.01
348.144	81.81
348.608	67.21
349.073	54.81
349.537	59.51
350.001	58.01
350.465	69.01
350.93	68.41
351.394	69.31
351.858	57.51
352.322	68.71
352.786	59.31
353.25	81.41
353.715	88.01
354.179	77.81
354.643	95.71
355.107	97.21
355.571	87.51
356.035	80.01
356.498	94.81
356.962	97.41
357.426	107.51
357.89	93.51
358.354	76.61
358.818	72.11
359.281	69.81
359.745	66.91
360.209	64.41
360.673	66.91
361.136	66.81
361.6	74.51
362.064	66.01
362.527	72.91
362.991	77.91
363.454	65.81
363.918	60.11
364.381	70.61
364.845	67.01
365.308	69.31
365.772	71.71
366.235	73.91
366.698	70.71
367.162	71.51
367.625	74.61
368.088	70.51
368.552	79.31
369.015	74.31
369.478	77.01
369.941	88.51
370.404	75.91
370.867	84.01
371.331	88.91
371.794	91.31
372.257	89.01
372.72	100.41
373.183	93.41
373.646	97.21
374.109	85.21
374.572	95.11
375.035	95.91
375.497	89.51
375.96	83.31
376.423	86.31
376.886	98.01
377.349	92.71
377.811	88.91
378.274	93.31
378.737	95.41
379.199	101.31
379.662	94.01
380.125	100.71
380.587	103.31
381.05	108.71
381.512	109.11
381.975	118.61
382.437	110.81
382.9	111.11
383.362	116.31
383.825	115.11
384.287	130.01
384.75	117.71
385.212	123.11
385.674	124.21
386.136	115.71
386.599	103.61
387.061	115.61
387.523	110.41
387.985	113.51
388.447	122.21
388.91	122.11
389.372	132.51
389.834	127.81
390.296	124.61
390.758	127.81
391.22	143.91
391.682	176.21
392.144	242.11
392.606	194.51
393.068	138.31
393.529	145.71
393.991	130.11
394.453	129.51
394.915	135.11
395.377	160.61
395.838	176.91
396.3	128.01
396.762	124.71
397.224	108.61
397.685	111.71
398.147	116.91
398.608	110.71
399.07	117.21
399.531	120.31
399.993	119.41
400.454	128.21
400.916	123.21
401.377	121.71
401.839	129.61
402.3	133.61
402.762	145.81
403.223	151.01
403.684	155.41
404.145	138.31
404.607	143.01
405.068	148.51
405.529	142.61
405.99	158.11
406.451	147.21
406.913	143.21
407.374	137.31
407.835	145.81
408.296	136.11
408.757	148.71
409.218	159.31
409.679	150.61
410.14	158.51
410.601	162.41
411.062	162.81
411.522	168.91
411.983	165.91
412.444	148.61
412.905	163.31
413.366	162.41
413.826	169.81
414.287	186.41
414.748	226.41
415.208	211.51
415.669	185.61
416.13	182.71
416.59	176.31
417.051	184.51
417.511	191.01
417.972	211.01
418.432	211.91
418.893	260.31
419.353	224.51
419.814	171.91
420.274	162.01
420.734	152.31
421.195	166.61
421.655	167.91
422.115	170.11
422.576	166.91
423.036	171.91
423.496	181.01
423.956	195.61
424.416	200.21
424.876	235.31
425.336	223.41
425.797	224.41
426.257	224.61
426.717	207.91
427.177	200.41
427.637	200.91
428.097	209.31
428.556	219.81
429.016	233.31
429.476	224.41
429.936	231.11
430.396	241.01
430.856	255.41
431.315	267.41
431.775	294.61
432.235	322.01
432.694	307.51
433.154	304.01
433.614	334.11
434.073	286.21
434.533	249.11
434.993	239.11
435.452	243.81
435.912	249.81
436.371	248.71
436.83	240.41
437.29	230.01
437.749	209.41
438.209	205.81
438.668	227.71
439.127	243.81
439.587	227.61
440.046	215.71
440.505	224.31
440.964	235.71
441.424	265.91
441.883	267.21
442.342	221.11
442.801	197.41
443.26	196.01
443.719	195.51
444.178	189.81
444.637	184.41
445.096	197.11
445.555	189.71
446.014	198.51
446.473	195.01
446.932	205.61
447.391	198.41
447.849	201.71
448.308	188.51
448.767	193.31
449.226	209.51
449.685	208.01
450.143	219.91
450.602	206.61
451.061	201.21
451.519	208.11
451.978	204.81
452.436	200.61
452.895	203.01
453.353	219.01
453.812	207.81
454.27	209.91
454.729	208.01
455.187	210.21
455.646	214.51
456.104	212.21
456.562	219.11
457.021	224.61
457.479	220.01
457.937	227.01
458.395	233.91
458.854	208.91
459.312	219.41
459.77	233.41
460.228	221.11
460.686	208.51
461.144	219.71
461.602	208.81
462.06	211.01
462.518	224.91
462.976	226.81
463.434	226.91
463.892	230.11
464.35	235.91
464.808	249.11
465.266	233.61
465.724	241.31
466.181	244.41
466.639	237.71
467.097	254.01
467.555	269.81
468.012	258.91
468.47	275.81
468.928	288.61
469.385	297.91
469.843	294.51
470.3	296.91
470.758	308.81
471.215	331.11
471.673	348.91
472.13	341.51
472.588	358.71
473.045	321.61
473.503	331.21
473.96	345.51
474.417	343.61
474.875	382.71
475.332	405.21
475.789	400.61
476.246	402.91
476.704	423.31
477.161	440.41
477.618	453.01
478.075	484.51
478.532	520.71
478.989	585.51
479.446	672.81
479.903	675.01
480.36	703.31
480.817	755.61
481.274	857.21
481.731	951.91
482.188	1025.21
482.645	1142.01
483.102	1243.41
483.558	1358.11
484.015	1414.91
484.472	1405.71
484.929	1347.81
485.385	1297.71
485.842	1274.91
486.299	1213.41
486.755	1134.61
487.212	973.61
487.668	819.21
488.125	763.51
488.582	697.51
489.038	654.61
489.494	627.31
489.951	605.71
490.407	589.71
490.864	568.21
491.32	563.61
491.776	559.31
492.233	560.11
492.689	530.51
493.145	522.51
493.602	519.81
494.058	537.61
494.514	544.01
494.97	547.11
495.426	551.31
495.882	544.41
496.338	536.31
496.794	543.81
497.251	527.91
497.707	550.81
498.163	558.01
498.618	563.51
499.074	554.41
499.53	579.61
499.986	575.21
500.442	565.31
500.898	546.11
501.354	543.11
501.809	543.31
502.265	560.71
502.721	579.51
503.177	589.21
503.632	573.91
504.088	584.91
504.543	611.71
504.999	597.91
505.455	570.11
505.91	559.71
506.366	556.71
506.821	553.41
507.277	543.21
507.732	547.61
508.187	538.01
508.643	548.41
509.098	552.31
509.553	575.21
510.009	576.41
510.464	579.71
510.919	597.31
511.375	603.31
511.83	617.31
512.285	622.81
512.74	662.71
513.195	681.01
513.65	672.51
514.105	667.61
514.56	676.01
515.015	691.71
515.47	705.51
515.925	687.61
516.38	691.91
516.835	701.71
517.29	685.51
517.745	682.21
518.2	660.91
518.655	648.71
519.109	639.21
519.564	646.81
520.019	633.81
520.474	628.81
520.928	625.01
521.383	615.41
521.838	608.71
522.292	613.61
522.747	617.41
523.201	609.21
523.656	601.01
524.11	599.61
524.565	594.51
525.019	594.21
525.474	606.51
525.928	612.41
526.382	595.91
526.837	598.61
527.291	608.21
527.745	607.91
528.2	596.31
528.654	596.31
529.108	587.11
529.562	592.21
530.016	587.31
530.47	597.11
530.925	590.31
531.379	600.01
531.833	620.01
532.287	605.11
532.741	612.71
533.195	601.41
533.649	614.11
534.103	616.51
534.556	613.01
535.01	616.81
535.464	603.01
535.918	615.01
536.372	619.51
536.826	616.61
537.279	599.91
537.733	593.11
538.187	603.51
538.64	604.61
539.094	619.81
539.548	627.91
540.001	617.01
540.455	617.31
540.908	620.41
541.362	628.01
541.815	634.11
542.269	647.81
542.722	652.21
543.175	667.81
543.629	662.41
544.082	672.61
544.536	669.31
544.989	668.91
545.442	676.11
545.895	681.11
546.349	672.91
546.802	686.11
547.255	685.51
547.708	686.21
548.161	696.91
548.614	696.31
549.067	706.51
549.52	694.71
549.973	684.01
550.426	689.81
550.879	665.51
551.332	679.01
551.785	683.91
552.238	693.41
552.691	691.71
553.144	705.81
553.596	724.91
554.049	729.31
554.502	754.81
554.955	780.11
555.407	774.21
555.86	757.21
556.313	751.31
556.765	747.21
557.218	745.01
557.67	744.11
558.123	739.61
558.576	735.91
559.028	734.01
559.48	744.81
559.933	744.81
560.385	716.11
560.838	679.01
561.29	659.91
561.742	652.81
562.195	640.21
562.647	634.81
563.099	658.31
563.551	648.11
564.004	668.81
564.456	650.91
564.908	646.51
565.36	630.91
565.812	611.21
566.264	605.61
566.716	612.41
567.168	599.71
567.62	603.91
568.072	595.51
568.524	583.11
568.976	576.31
569.428	561.11
569.88	553.01
570.332	568.81
570.784	563.71
571.235	556.41
571.687	571.91
572.139	584.31
572.59	594.21
573.042	589.11
573.494	596.21
573.945	595.71
574.397	565.61
574.849	574.41
575.3	581.21
575.752	556.41
576.203	557.11
576.655	566.51
577.106	564.31
577.557	547.81
578.009	559.01
578.46	550.91
578.912	545.41
579.363	542.41
579.814	554.81
580.265	549.51
580.717	551.21
581.168	552.21
581.619	565.51
582.07	552.21
582.521	564.71
582.972	556.01
583.423	558.21
583.875	564.51
584.326	582.01
584.777	615.71
585.227	680.51
585.678	749.81
586.129	830.51
586.58	901.61
587.031	981.11
587.482	1130.21
587.933	1276.91
588.384	1107.81
588.834	806.81
589.285	664.21
589.736	646.51
590.186	628.61
590.637	638.21
591.088	607.21
591.538	605.91
591.989	590.21
592.439	596.51
592.89	585.71
593.34	575.11
593.791	579.71
594.241	569.71
594.692	582.11
595.142	566.61
595.593	570.81
596.043	568.21
596.493	579.61
596.943	579.91
597.394	581.31
597.844	578.31
598.294	589.41
598.744	609.91
599.195	627.51
599.645	654.91
600.095	685.71
600.545	734.21
600.995	784.91
601.445	830.71
601.895	880.21
602.345	921.71
602.795	911.91
603.245	868.51
603.695	814.61
604.145	778.91
604.594	747.91
605.044	693.91
605.494	647.11
605.944	600.51
606.393	591.41
606.843	589.41
607.293	579.51
607.743	583.11
608.192	596.21
608.642	613.61
609.091	607.81
609.541	625.91
609.99	623.11
610.44	606.81
610.889	577.81
611.339	559.41
611.788	552.81
612.238	564.21
612.687	581.71
613.136	577.01
613.586	592.51
614.035	596.21
614.484	608.31
614.933	605.51
615.383	601.51
615.832	599.51
616.281	572.11
616.73	553.51
617.179	532.31
617.628	522.41
618.077	509.81
618.526	494.61
618.975	492.01
619.424	491.41
619.873	486.11
620.322	487.41
620.771	489.41
621.22	491.11
621.669	476.81
622.118	470.31
622.567	454.71
623.015	449.51
623.464	455.91
623.913	442.71
624.361	434.71
624.81	438.31
625.259	439.21
625.707	441.11
626.156	440.71
626.604	443.81
627.053	445.31
627.501	442.31
627.95	453.81
628.398	455.71
628.847	446.11
629.295	449.51
629.744	449.41
630.192	451.81
630.64	450.11
631.089	444.91
631.537	446.31
631.985	453.51
632.433	459.31
632.881	470.71
633.33	509.31
633.778	505.61
634.226	443.11
634.674	443.01
635.122	447.51
635.57	469.21
636.018	493.91
636.466	452.91
636.914	448.21
637.362	443.81
637.81	447.81
638.258	455.01
638.705	454.81
639.153	477.01
639.601	486.71
640.049	489.71
640.497	522.31
640.944	546.91
641.392	497.71
641.84	479.81
642.287	460.41
642.735	443.81
643.182	443.11
643.63	449.61
644.078	441.51
644.525	467.21
644.973	470.61
645.42	474.11
645.867	491.11
646.315	496.51
646.762	511.21
647.21	533.31
647.657	545.11
648.104	589.71
648.551	606.61
648.999	654.71
649.446	710.51
649.893	776.11
650.34	894.81
650.787	1074.81
651.234	1331.11
651.682	1720.41
652.129	2352.21
652.576	3372.41
653.023	4989.71
653.47	6958.41
653.917	8806.41
654.363	10359.11
654.81	11704.31
655.257	11130.41
655.704	7218.31
656.151	4187.41
656.598	2718.01
657.044	1934.61
657.491	1475.31
657.938	1174.41
658.385	979.21
658.831	844.71
659.278	758.31
659.724	674.31
660.171	613.91
660.618	563.61
661.064	532.51
661.511	501.31
661.957	495.41
662.404	478.11
662.85	489.91
663.296	470.41
663.743	427.91
664.189	413.91
664.635	411.61
665.082	412.01
665.528	405.31
665.974	395.51
666.42	392.21
666.867	395.51
667.313	373.61
667.759	366.61
668.205	370.81
668.651	376.01
669.097	378.31
669.543	392.11
669.989	361.81
670.435	349.31
670.881	349.01
671.327	346.01
671.773	358.61
672.219	375.81
672.665	415.71
673.11	450.91
673.556	483.21
674.002	514.41
674.448	506.21
674.893	435.11
675.339	363.21
675.785	341.91
676.23	322.11
676.676	307.81
677.122	292.41
677.567	280.11
678.013	281.11
678.458	278.31
678.904	280.11
679.349	263.41
679.794	269.21
680.24	262.91
680.685	266.91
681.131	262.21
681.576	266.21
682.021	276.31
682.466	263.41
682.912	264.41
683.357	259.01
683.802	295.41
684.247	305.81
684.692	339.21
685.137	377.81
685.583	413.91
686.028	432.91
686.473	396.61
686.918	341.81
687.363	313.31
687.807	302.61
688.252	285.21
688.697	266.21
689.142	261.01
689.587	253.41
690.032	235.31
690.477	255.01
690.921	264.81
691.366	287.61
691.811	305.31
692.255	332.41
692.7	359.91
693.145	377.81
693.589	515.91
694.034	840.01
694.478	1165.51
694.923	1364.11
695.367	1816.71
695.812	939.11
696.256	386.01
696.701	288.51
697.145	255.81
697.59	242.41
698.034	241.01
698.478	248.21
698.922	246.61
699.367	250.91
699.811	253.31
700.255	269.51
700.699	288.21
701.143	320.31
701.588	364.01
702.032	397.81
702.476	397.41
702.92	377.11
703.364	365.01
703.808	469.11
704.252	752.81
704.696	1106.41
705.14	1307.51
705.584	1695.81
706.027	835.51
706.471	400.81
706.915	303.81
707.359	263.21
707.803	239.71
708.246	228.51
708.69	230.71
709.134	237.21
709.577	241.61
710.021	244.51
710.465	230.81
710.908	227.81
711.352	229.51
711.795	232.71
712.239	266.51
712.682	287.91
713.126	319.01
713.569	358.11
714.012	284.41
714.456	245.41
714.899	229.11
715.342	205.41
715.786	200.31
716.229	192.71
716.672	192.31
717.115	185.21
717.558	191.31
718.002	191.61
718.445	200.31
718.888	214.81
719.331	218.91
719.774	234.71
720.217	232.41
720.66	213.01
721.103	201.21
721.546	198.01
721.989	185.01
722.432	178.91
722.874	177.91
723.317	179.71
723.76	181.31
724.203	193.51
724.645	233.71
725.088	326.61
725.531	433.01
725.974	496.61
726.416	426.61
726.859	229.11
727.301	192.11
727.744	176.31
728.187	168.71
728.629	178.51
729.071	187.21
729.514	200.71
729.956	201.41
730.399	217.71
730.841	219.91
731.283	204.51
731.726	200.31
732.168	195.11
732.61	195.91
733.053	211.41
733.495	231.51
733.937	263.01
734.379	293.41
734.821	324.21
735.263	404.01
735.705	619.81
736.148	1158.01
736.59	1951.91
737.032	2421.41
737.474	1978.61
737.916	623.61
738.357	326.21
738.799	244.21
739.241	228.21
739.683	209.71
740.125	219.11
740.567	224.61
741.008	243.01
741.45	240.51
741.892	242.01
742.334	267.21
742.775	274.71
743.217	273.01
743.658	204.01
744.1	197.81
744.542	193.71
744.983	242.81
745.425	270.51
745.866	269.51
746.307	220.61
746.749	214.91
747.19	244.21
747.632	332.91
748.073	627.51
748.514	1373.41
748.956	2186.41
749.397	2745.51
749.838	2280.31
750.279	2367.41
750.72	1186.61
751.162	422.11
751.603	241.11
752.044	187.31
752.485	160.01
752.926	154.81
753.367	153.31
753.808	141.41
754.249	149.21
754.69	143.91
755.131	141.31
755.572	135.21
756.013	136.71
756.453	140.91
756.894	137.31
757.335	144.91
757.776	148.11
758.216	147.71
758.657	146.41
759.098	154.71
759.538	165.01
759.979	199.21
760.42	271.81
760.86	510.31
761.301	1330.71
761.741	3336.91
762.182	5224.91
762.622	3658.41
763.063	1024.21
763.503	408.71
763.943	264.31
764.384	260.31
764.824	322.01
765.264	360.51
765.705	236.71
766.145	163.71
766.585	142.91
767.025	134.21
767.465	138.91
767.906	184.21
768.346	250.51
768.786	272.21
769.226	194.31
769.666	236.91
770.106	443.81
770.546	1142.31
770.986	2070.11
771.426	1905.91
771.866	615.51
772.306	240.41
772.745	155.51
773.185	129.21
773.625	132.71
774.065	124.81
774.505	145.51
774.944	226.21
775.384	508.41
775.824	962.11
776.263	959.91
776.703	404.31
777.142	167.41
777.582	123.51
778.021	108.81
778.461	105.31
778.9	103.21
779.34	103.61
779.779	87.91
780.219	82.41
780.658	79.41
781.097	83.71
781.537	81.41
781.976	81.31
782.415	79.31
782.855	75.81
783.294	76.71
783.733	77.51
784.172	77.61
784.611	75.11
785.05	76.51
785.489	79.41
785.928	91.71
786.367	83.31
786.806	93.11
787.245	96.51
787.684	100.91
788.123	106.41
788.562	102.91
789.001	91.31
789.44	88.41
789.879	92.01
790.317	89.01
790.756	98.81
791.195	95.81
791.634	110.71
792.072	154.31
792.511	266.51
792.95	739.21
793.388	1663.31
793.827	1570.01
794.265	521.11
794.704	214.31
795.142	146.01
795.581	116.41
796.019	105.21
796.458	94.41
796.896	91.11
797.334	95.71
797.773	118.31
798.211	161.71
798.649	319.11
799.087	761.61
799.526	1218.91
799.964	1540.41
800.402	1622.81
800.84	595.71
801.278	225.11
801.716	142.71
802.154	109.31
802.592	107.61
803.03	108.21
803.468	96.41
803.906	106.81
804.344	118.21
804.782	106.71
805.22	96.81
805.658	95.61
806.096	107.71
806.533	120.11
806.971	131.51
807.409	158.71
807.847	226.81
808.284	479.81
808.722	1388.81
809.16	2602.81
809.597	2374.11
810.035	4257.31
810.472	4775.01
810.91	1691.21
811.347	624.31
811.785	313.41
812.222	205.51
812.66	146.11
813.097	126.81
813.535	106.61
813.972	93.21
814.409	90.71
814.846	73.41
815.284	79.91
815.721	76.01
816.158	82.41
816.595	90.11
817.032	131.21
817.47	158.11
817.907	130.11
818.344	113.61
818.781	89.71
819.218	76.91
819.655	90.41
820.092	151.51
820.529	169.91
820.966	142.61
821.403	106.31
821.839	87.21
822.276	78.61
822.713	91.91
823.15	101.51
823.587	85.71
824.023	103.31
824.46	214.01
824.897	676.71
825.333	1090.41
825.77	464.71
826.206	169.31
826.643	100.11
827.08	75.51
827.516	58.61
827.953	55.21
828.389	61.01
828.825	52.01
829.262	51.41
829.698	46.91
830.135	46.91
830.571	47.11
831.007	44.81
831.443	46.81
831.88	40.71
832.316	42.61
832.752	47.71
833.188	46.51
833.624	50.01
834.06	50.11
834.497	51.11
834.933	52.21
835.369	55.91
835.805	51.01
836.241	58.51
836.677	61.31
837.112	66.61
837.548	73.91
837.984	98.51
838.42	149.61
838.856	365.11
839.292	1164.11
839.727	1861.41
840.163	852.21
840.599	695.01
841.034	1587.41
841.47	1749.81
841.906	620.61
842.341	257.81
842.777	176.81
843.212	245.31
843.648	256.51
844.083	121.01
844.519	68.31
844.954	60.31
845.39	39.11
845.825	34.41
846.261	39.71
846.696	41.01
847.131	36.51
847.566	48.21
848.002	34.21
848.437	41.91
848.872	45.11
849.307	47.41
849.742	62.31
850.177	132.51
850.613	415.61
851.048	695.61
851.483	298.51
851.918	122.71
852.353	59.81
852.788	43.31
853.223	44.11
853.657	44.41
854.092	37.51
854.527	27.81
854.962	26.01
855.397	32.21
855.832	31.51
856.266	31.71
856.701	28.41
857.136	29.41
857.57	24.81
858.005	37.11
858.44	43.31
858.874	33.31
859.309	38.51
859.743	23.21
860.178	31.61
860.612	22.91
861.047	37.51
861.481	41.81
861.915	56.11
862.35	36.21
862.784	25.31
863.218	28.51
863.653	24.21
864.087	31.81
864.521	41.21
864.955	42.91
865.39	120.61
865.824	133.81
866.258	87.11
866.692	128.81
867.126	141.31
867.56	85.01
867.994	38.91
868.428	25.31
868.862	36.01
869.296	37.51
869.73	56.01
870.164	48.31
870.598	35.31
871.031	27.31
871.465	24.21
871.899	21.21
872.333	21.01
872.766	24.91
873.2	11.41
873.634	23.51
874.067	16.31
874.501	11.91
874.935	23.81
875.368	24.11
875.802	21.41
876.235	15.01
876.669	22.31
877.102	17.11
877.535	22.61
877.969	15.31
878.402	14.81
878.836	13.21
879.269	22.31
879.702	13.61
880.135	19.41
880.569	17.51
881.002	16.61
881.435	17.91
881.868	10.81
882.301	21.11
882.734	13.11
883.167	13.61
883.601	15.11
884.034	13.31
884.467	4.91
884.899	13.31
885.332	8.41
885.765	12.21
886.198	10.31
886.631	11.01
887.064	12.81
887.497	12.61
887.929	10.81
888.362	7.41
888.795	1.21
889.228	14.91
889.66	11.71
890.093	15.41
890.526	8.01
890.958	10.51
891.391	12.61
891.823	17.01
892.256	7.91
892.688	8.11
893.121	14.81
893.553	15.11
893.985	19.41
894.418	9.41
894.85	10.21
895.282	12.11
895.715	10.01
896.147	16.21
896.579	13.51
897.011	7.41
897.444	12.21
897.876	9.61
898.308	6.01
898.74	8.31
899.172	4.51
899.604	21.31
900.036	12.41
900.468	11.01
900.9	6.31
901.332	10.51
901.764	6.71
902.196	11.71
902.628	16.71
903.06	14.61
903.491	20.71
903.923	14.71
904.355	8.61
904.787	21.71
905.218	18.11
905.65	14.01
906.082	8.41
906.513	7.51
906.945	7.91
907.376	7.21
907.808	8.21
908.239	12.21
908.671	11.21
909.102	13.41
909.534	13.41
909.965	34.31
910.397	77.91
910.828	250.81
911.259	389.81
911.691	179.71
912.122	80.61
912.553	35.71
912.984	24.11
913.415	26.31
913.847	18.51
914.278	10.31
914.709	5.61
915.14	20.41
915.571	16.91
916.002	-1.79
916.433	16.11
916.864	16.41
917.295	7.21
917.726	13.61
918.157	15.81
918.587	18.61
919.018	12.51
919.449	11.01
919.88	21.01
920.311	19.01
920.741	33.61
921.172	125.61
921.603	124.31
922.033	54.51
922.464	32.51
922.895	20.31
923.325	16.91
923.756	12.11
924.186	7.81
924.617	16.91
925.047	27.91
925.478	40.21
925.908	36.81
926.338	20.21
926.769	12.01
927.199	7.81
927.629	4.31
928.06	9.01
928.49	9.11
928.92	13.71
929.35	7.51
929.78	10.91
930.21	2.71
930.641	5.71
931.071	5.11
931.501	4.31
931.931	3.81
932.361	3.41
932.791	-1.49
933.221	0.51
933.651	1.71
934.08	5.71
934.51	26.51
934.94	5.31
935.37	2.31
935.8	13.41
936.229	3.81
936.659	6.31
937.089	5.61
937.519	9.21
937.948	20.31
938.378	15.21
938.807	-1.59
939.237	-2.79
939.666	-1.09
940.096	-3.69
940.525	1.01
940.955	2.21
941.384	6.81
941.814	-10.39
942.243	-3.29
942.672	0.61
943.102	-2.99
943.531	-0.89
943.96	4.71
944.39	-0.89
944.819	1.61
945.248	0.31
945.677	2.51
946.106	0.61
946.535	0.91
946.964	-3.59
947.393	3.61
947.822	-2.19
948.251	-14.69
948.68	1.31
949.109	6.41
949.538	-0.49
949.967	-2.59
950.396	0.31
950.825	-3.49
951.254	-4.29
951.682	-7.59
952.111	1.01
952.54	-4.79
952.969	-3.99
953.397	-4.59
953.826	0.01
954.254	-13.29
954.683	0.11
955.112	-8.99
955.54	0.51
955.969	4.61
956.397	-2.59
956.826	1.01
957.254	3.61
957.682	-2.69
958.111	2.51
958.539	-5.69
958.967	-1.99
959.396	-0.09
959.824	-2.79
960.252	2.51
960.68	-8.39
961.109	-3.79
961.537	-3.99
961.965	-3.79
962.393	1.21
962.821	-6.89
963.249	1.41
963.677	2.51
964.105	2.01
964.533	30.41
964.961	33.61
965.389	14.31
965.817	0.61
966.245	1.81
966.672	-3.79
967.1	-4.09
967.528	-0.49
967.956	-5.49
968.383	-3.09
968.811	-5.19
969.239	-5.19
969.666	-9.09
970.094	-5.89
970.522	-1.39
970.949	-2.49
971.377	-7.99
971.804	-3.49
972.232	-6.99
972.659	-7.99
973.087	-6.09
973.514	-0.79
973.941	-4.09
974.369	6.71
974.796	-1.89
975.223	0.81
975.651	1.11
976.078	-2.59
976.505	-6.99
976.932	2.81
977.359	11.21
977.786	12.71
978.214	-0.69
978.641	-2.39
979.068	-10.49
979.495	-8.49
979.922	-4.89
980.349	-4.59
980.776	0.71
981.202	-2.89
981.629	-0.89
982.056	-1.49
982.483	-4.09
982.91	2.21
983.337	-3.99
983.763	3.01
984.19	0.81
984.617	-4.39
985.043	-7.99
985.47	-6.79
985.897	-12.39
986.323	-9.89
986.75	-3.59
987.176	-0.99
987.603	-3.39
988.029	5.41
988.456	-3.89
988.882	-1.29
989.308	-1.29
989.735	-6.69
990.161	0.71
990.587	-9.49
991.014	-4.39
991.44	4.41
991.866	4.31
992.292	-9.39
992.719	-2.99
993.145	1.81
993.571	-8.29
993.997	-5.29
994.423	-0.39
994.849	-1.89
995.275	-0.69
995.701	-0.39
996.127	-2.49
996.553	3.31
996.979	-7.39
997.405	-4.49
997.83	-3.49
998.256	-5.59
998.682	-9.19
999.108	-13.29
999.534	-5.69
999.959	-1.99
1000.385	-3.99
1000.811	4.61
1001.236	-10.09
1001.662	-4.59
1002.087	-6.39
1002.513	-2.39
1002.938	-4.39
1003.364	0.41
1003.789	-0.59
1004.215	4.91
1004.64	-2.59
1005.066	-1.89
1005.491	1.61
1005.916	-5.69
1006.342	-5.29
1006.767	-2.19
1007.192	9.61
1007.617	-7.49
1008.042	-8.79
1008.468	-10.59
1008.893	-8.49
1009.318	-3.69
1009.743	-4.69
1010.168	4.51
1010.593	-2.59
1011.018	-9.99
1011.443	-6.89
1011.868	0.01
1012.293	-10.69
1012.718	-11.39
1013.143	-5.79
1013.567	-2.49
1013.992	-6.39
1014.417	-17.19
1014.842	0.81
1015.267	-0.69
1015.691	-3.39
1016.116	0.91
1016.541	-0.99
1016.965	1.51
1017.39	3.11
1017.814	-5.59
1018.239	-0.49
1018.663	-0.29
1019.088	-14.09
1019.512	2.91
1019.937	-0.99
1020.361	-0.39
1020.785	-8.49
1021.21	-3.49
1021.634	-2.69
1022.058	-4.19
1022.483	-2.19
1022.907	-5.09
1023.331	-2.79
1023.755	-2.89
1024.179	-3.09
1024.604	-12.69
1025.028	-2.79
1025.452	-5.49
1025.876	0.71
1026.3	-3.09
1026.724	-9.79
1027.148	-3.59
1027.572	-8.99
1027.996	-2.69
1028.42	-0.59
1028.843	-8.39
1029.267	-5.79
1029.691	-7.69
1030.115	-6.59
1030.539	-8.39
1030.962	-3.39
1031.386	-1.19
1031.81	-2.89
1032.233	-3.49
1032.657	-8.19
1033.08	-7.69
1033.504	-1.79
1033.927	-8.49
1034.351	-4.59
1034.774	-3.19
1035.198	-5.49
1035.621	-9.49
1036.045	-5.89
1036.468	-0.99
1036.891	-8.69
1037.315	-9.49
1037.738	-13.39
1038.161	-4.99
1038.584	-5.89
1039.008	-3.69
1039.431	-5.09
1039.854	-2.89
1040.277	-9.39
1040.7	-11.29
1041.123	-2.09
1041.546	-4.59
1041.969	-5.59
1042.392	-4.29
1042.815	-4.49
1043.238	2.71
1043.661	0.81
1044.084	-8.19
1044.507	-5.69
1044.93	-5.99
1045.352	-6.29
1045.775	-4.59
1046.198	3.81
1046.621	-5.29
1047.043	-4.99
1047.466	6.21
1047.889	-5.09
1048.311	-2.89
1048.734	-4.69
1049.156	-0.69
1049.579	0.21
1050.001	-5.59
1050.424	-2.39
1050.846	-6.69
1051.269	-6.29
1051.691	-8.69
1052.113	-5.39
1052.536	-8.19
1052.958	-6.69
1053.38	-6.59
1053.802	-9.59
1054.225	0.21
1054.647	-6.19
1055.069	-7.79
1055.491	-0.89
1055.913	-9.39
1056.335	-4.59
1056.757	-4.09
1057.179	-7.89
1057.601	-6.99
1058.023	-5.59
1058.445	-6.89
1058.867	-7.89
1059.289	-3.09
1059.711	-6.49
1060.133	-4.59
1060.555	-10.69
1060.976	-7.79
1061.398	-1.69
1061.82	-10.19
1062.241	-4.39
1062.663	-14.39
1063.085	-1.39
1063.506	-5.39
1063.928	-4.79
1064.35	-7.39
1064.771	-12.59
1065.193	-7.39
1065.614	-11.09
1066.035	-6.99
1066.457	-13.59
1066.878	0.71
1067.3	-4.49
1067.721	-3.59
1068.142	-3.49
1068.564	-10.59
1068.985	-8.49
1069.406	-4.79
1069.827	-4.79
1070.248	-1.49
1070.67	-11.09
1071.091	-8.69
1071.512	-3.79
1071.933	-7.09
1072.354	-9.39
1072.775	-4.29
1073.196	-8.99
1073.617	-0.99
1074.038	-10.49
1074.459	-3.99
1074.88	-8.19
1075.3	2.71
1075.721	-6.99
1076.142	-5.99
1076.563	-0.19
1076.983	-10.69
1077.404	-7.39
1077.825	-13.99
1078.246	-4.79
1078.666	-12.29
1079.087	-1.29
1079.507	-13.89
1079.928	-2.29
1080.348	4.21
1080.769	-5.29
1081.189	-3.49
1081.61	-1.79
1082.03	-11.19
1082.451	-9.39
1082.871	-2.99
1083.291	-9.59
1083.711	-9.09
1084.132	-7.59
1084.552	-4.99
1084.972	0.11
1085.392	-9.19
1085.813	-11.89
1086.233	-7.69
1086.653	-6.49
1087.073	-5.39
1087.493	-4.19
1087.913	-9.39
1088.333	-11.69
1088.753	-10.59
1089.173	-1.19
1089.593	-7.49
1090.013	0.61
1090.433	2.01
1090.852	-6.69
1091.272	-5.09
1091.692	-2.29
1092.112	-2.69
1092.531	-8.69
1092.951	-10.59
1093.371	-5.69
1093.79	0.71
1094.21	-4.19
1094.63	-9.09
1095.049	-2.89
1095.469	-2.69
1095.888	-3.69
1096.308	-1.09
1096.727	4.91
1097.146	-7.69
1097.566	-3.89
1097.985	-4.39
1098.405	-5.79
1098.824	-8.09
1099.243	-8.49
1099.662	-10.19
1100.082	-6.19
1100.501	3.21
1100.92	-7.69
1101.339	-1.39
1101.758	-1.29
