Data from 20171114-ORNL-Ar_H_NY_Subt18_08-07-17-240.txt Node
Date: Tue Nov 14 08:07:17 EST 2017
User: Ender
Spectrometer: HR+D1039
Trigger mode: 0
Integration Time (sec): 2.730000E-2
Scans to average: 10
Electric dark correction enabled: true
Nonlinearity correction enabled: false
Boxcar width: 0
XAxis mode: Wavelengths
Number of Pixels in Spectrum: 2048
>>>>>Begin Spectral Data<<<<<
187.836	-2.41
188.309	-2.41
188.782	-2.41
189.255	-1.41
189.728	0.09
190.201	4.69
190.674	-0.51
191.147	4.29
191.619	-5.21
192.092	3.79
192.565	3.39
193.038	-1.01
193.511	1.49
193.984	1.29
194.456	-2.71
194.929	-4.11
195.402	-1.41
195.874	-0.21
196.347	-0.71
196.82	-6.81
197.292	7.79
197.765	-1.61
198.237	-10.71
198.71	0.99
199.182	-4.21
199.655	2.09
200.127	4.89
200.6	1.29
201.072	-1.71
201.544	0.09
202.017	2.69
202.489	-0.11
202.961	0.09
203.433	-4.71
203.906	-7.91
204.378	-5.61
204.85	-7.41
205.322	-5.41
205.794	-4.41
206.266	-4.31
206.739	-9.21
207.211	-0.11
207.683	-9.01
208.155	-4.01
208.627	-3.31
209.099	-6.61
209.57	-6.71
210.042	-13.21
210.514	-2.81
210.986	-0.01
211.458	-7.01
211.93	1.69
212.402	2.89
212.873	-4.11
213.345	-8.71
213.817	-8.11
214.288	-2.71
214.76	-10.01
215.232	-3.61
215.703	-7.21
216.175	-1.21
216.646	-3.11
217.118	-8.41
217.589	-5.91
218.061	-2.01
218.532	-8.61
219.004	-5.41
219.475	-6.51
219.946	-3.51
220.418	-7.11
220.889	-2.41
221.36	-0.01
221.832	-9.21
222.303	-8.51
222.774	-0.81
223.245	-6.11
223.717	-2.91
224.188	-3.71
224.659	-7.01
225.13	-3.61
225.601	-0.31
226.072	0.49
226.543	1.49
227.014	-2.21
227.485	-2.01
227.956	-11.71
228.427	-5.51
228.898	0.69
229.369	-0.71
229.839	-4.51
230.31	-7.41
230.781	5.09
231.252	-9.91
231.722	-8.41
232.193	-9.81
232.664	-7.81
233.135	0.69
233.605	-5.71
234.076	-13.01
234.546	-1.01
235.017	-0.11
235.487	2.79
235.958	-3.31
236.428	-12.61
236.899	-1.21
237.369	-0.41
237.84	-7.21
238.31	-2.91
238.78	-0.41
239.251	-9.81
239.721	-5.51
240.191	-3.51
240.662	-7.01
241.132	-5.51
241.602	-9.61
242.072	-3.31
242.542	-0.41
243.013	-6.31
243.483	-0.81
243.953	-0.71
244.423	-6.61
244.893	-11.91
245.363	-0.51
245.833	-2.41
246.303	-5.11
246.773	1.19
247.243	0.79
247.712	-1.51
248.182	9.29
248.652	1.49
249.122	-11.31
249.592	1.79
250.061	-3.11
250.531	6.09
251.001	-7.51
251.471	0.59
251.94	4.49
252.41	-1.91
252.879	-7.51
253.349	8.29
253.818	0.69
254.288	-5.11
254.757	-2.11
255.227	-8.01
255.696	4.69
256.166	5.49
256.635	5.29
257.105	4.29
257.574	-1.31
258.043	3.09
258.513	-0.71
258.982	-1.41
259.451	-2.01
259.92	-1.41
260.389	-5.21
260.859	5.79
261.328	1.39
261.797	0.49
262.266	0.89
262.735	9.39
263.204	-2.31
263.673	-8.01
264.142	2.09
264.611	-7.41
265.08	-8.91
265.549	-8.01
266.018	-3.11
266.487	-3.71
266.955	-7.31
267.424	-7.41
267.893	2.89
268.362	-0.51
268.83	-2.91
269.299	5.89
269.768	3.39
270.236	2.39
270.705	-0.61
271.174	0.29
271.642	0.19
272.111	-5.01
272.579	-1.41
273.048	-2.01
273.516	3.59
273.985	-0.51
274.453	-0.61
274.922	11.19
275.39	4.49
275.858	-1.31
276.327	3.39
276.795	10.89
277.263	3.59
277.731	16.29
278.2	3.79
278.668	-0.81
279.136	8.29
279.604	-2.41
280.072	3.89
280.54	3.49
281.008	4.69
281.477	7.49
281.945	9.19
282.413	9.29
282.881	6.29
283.348	4.49
283.816	6.89
284.284	5.89
284.752	9.59
285.22	5.29
285.688	5.29
286.156	-0.21
286.623	11.29
287.091	8.39
287.559	10.69
288.026	8.99
288.494	9.39
288.962	-1.01
289.429	0.69
289.897	8.09
290.364	7.99
290.832	7.09
291.3	1.29
291.767	12.99
292.234	11.39
292.702	5.39
293.169	13.09
293.637	15.19
294.104	7.89
294.571	0.69
295.039	7.19
295.506	6.29
295.973	8.99
296.44	6.19
296.908	15.19
297.375	12.39
297.842	12.29
298.309	8.69
298.776	9.19
299.243	16.09
299.71	5.79
300.177	16.29
300.644	10.09
301.111	14.39
301.578	15.39
302.045	7.79
302.512	11.09
302.979	14.09
303.446	16.79
303.913	10.39
304.379	14.59
304.846	17.49
305.313	18.99
305.78	16.39
306.246	15.29
306.713	16.29
307.18	14.79
307.646	14.39
308.113	20.19
308.579	15.39
309.046	20.09
309.512	21.09
309.979	10.39
310.445	17.79
310.912	15.99
311.378	21.19
311.845	23.69
312.311	21.19
312.777	22.49
313.244	16.49
313.71	28.19
314.176	20.09
314.642	20.29
315.109	20.99
315.575	22.79
316.041	26.39
316.507	20.39
316.973	24.69
317.439	21.19
317.905	28.49
318.371	22.89
318.837	24.89
319.303	16.59
319.769	24.69
320.235	23.99
320.701	18.89
321.167	25.09
321.633	22.29
322.099	27.79
322.564	26.59
323.03	25.19
323.496	23.59
323.962	29.99
324.427	22.29
324.893	29.99
325.359	25.29
325.824	26.39
326.29	25.29
326.755	21.99
327.221	27.29
327.686	26.89
328.152	34.79
328.617	31.69
329.083	30.39
329.548	34.89
330.014	36.59
330.479	25.89
330.944	30.39
331.41	31.39
331.875	32.19
332.34	29.09
332.805	33.79
333.271	35.89
333.736	30.29
334.201	39.39
334.666	38.39
335.131	33.89
335.596	42.19
336.061	43.09
336.526	32.79
336.991	39.49
337.456	52.59
337.921	40.49
338.386	30.69
338.851	35.79
339.316	35.99
339.781	39.49
340.246	40.79
340.711	40.59
341.175	41.69
341.64	35.39
342.105	46.99
342.569	44.59
343.034	47.09
343.499	48.59
343.963	42.19
344.428	44.29
344.893	44.99
345.357	45.49
345.822	49.49
346.286	53.59
346.751	58.29
347.215	55.39
347.679	58.99
348.144	72.19
348.608	64.49
349.073	55.69
349.537	68.39
350.001	60.19
350.465	68.09
350.93	61.39
351.394	62.69
351.858	55.89
352.322	71.39
352.786	65.89
353.25	78.59
353.715	89.29
354.179	78.09
354.643	96.89
355.107	93.49
355.571	84.19
356.035	78.39
356.498	84.49
356.962	83.29
357.426	100.39
357.89	90.39
358.354	73.49
358.818	70.39
359.281	66.19
359.745	64.89
360.209	56.59
360.673	63.39
361.136	63.19
361.6	71.69
362.064	68.99
362.527	74.19
362.991	77.39
363.454	72.49
363.918	63.19
364.381	71.99
364.845	76.49
365.308	76.99
365.772	80.29
366.235	71.89
366.698	74.69
367.162	71.39
367.625	69.79
368.088	72.69
368.552	71.99
369.015	76.39
369.478	79.79
369.941	85.29
370.404	81.69
370.867	83.59
371.331	87.39
371.794	90.99
372.257	84.99
372.72	94.69
373.183	95.99
373.646	81.99
374.109	79.49
374.572	85.29
375.035	97.49
375.497	90.99
375.96	88.09
376.423	90.79
376.886	100.99
377.349	98.59
377.811	90.69
378.274	93.79
378.737	89.49
379.199	96.79
379.662	95.29
380.125	102.79
380.587	92.59
381.05	96.39
381.512	104.09
381.975	115.19
382.437	105.89
382.9	106.99
383.362	107.09
383.825	111.99
384.287	109.79
384.75	103.89
385.212	115.49
385.674	120.49
386.136	118.29
386.599	106.29
387.061	107.19
387.523	111.79
387.985	111.89
388.447	118.89
388.91	113.69
389.372	117.79
389.834	121.09
390.296	114.39
390.758	121.49
391.22	119.79
391.682	133.39
392.144	132.39
392.606	131.19
393.068	127.89
393.529	145.29
393.991	123.99
394.453	118.19
394.915	124.09
395.377	119.59
395.838	119.99
396.3	124.79
396.762	124.59
397.224	119.79
397.685	117.59
398.147	120.49
398.608	124.19
399.07	120.59
399.531	123.09
399.993	140.19
400.454	139.99
400.916	140.89
401.377	136.49
401.839	142.99
402.3	146.59
402.762	153.79
403.223	171.69
403.684	164.89
404.145	147.49
404.607	152.39
405.068	146.39
405.529	157.99
405.99	168.29
406.451	162.29
406.913	161.69
407.374	159.69
407.835	154.89
408.296	157.69
408.757	161.89
409.218	167.39
409.679	162.49
410.14	167.79
410.601	169.69
411.062	171.49
411.522	175.49
411.983	166.09
412.444	161.69
412.905	168.19
413.366	176.19
413.826	190.79
414.287	211.39
414.748	256.59
415.208	245.89
415.669	208.69
416.13	198.89
416.59	196.19
417.051	211.79
417.511	215.59
417.972	229.09
418.432	243.19
418.893	285.29
419.353	246.49
419.814	196.39
420.274	183.89
420.734	176.59
421.195	190.99
421.655	182.09
422.115	187.19
422.576	188.59
423.036	196.19
423.496	205.79
423.956	212.79
424.416	230.09
424.876	267.09
425.336	257.69
425.797	255.39
426.257	251.99
426.717	238.29
427.177	224.19
427.637	217.79
428.097	224.59
428.556	233.19
429.016	255.59
429.476	250.09
429.936	259.79
430.396	265.09
430.856	276.79
431.315	291.59
431.775	335.19
432.235	359.39
432.694	328.89
433.154	341.99
433.614	363.99
434.073	315.69
434.533	269.49
434.993	263.99
435.452	270.29
435.912	279.29
436.371	269.79
436.83	269.29
437.29	258.29
437.749	236.49
438.209	236.99
438.668	264.79
439.127	277.09
439.587	251.79
440.046	245.09
440.505	251.29
440.964	274.79
441.424	310.29
441.883	294.09
442.342	253.19
442.801	225.09
443.26	222.09
443.719	221.99
444.178	218.79
444.637	215.79
445.096	221.39
445.555	221.09
446.014	224.79
446.473	229.89
446.932	232.39
447.391	224.69
447.849	226.59
448.308	213.79
448.767	225.39
449.226	243.39
449.685	237.99
450.143	252.99
450.602	246.69
451.061	233.39
451.519	237.29
451.978	226.99
452.436	236.29
452.895	240.39
453.353	252.99
453.812	241.69
454.27	244.59
454.729	237.99
455.187	238.99
455.646	252.19
456.104	246.49
456.562	271.99
457.021	264.99
457.479	263.19
457.937	271.79
458.395	262.69
458.854	251.49
459.312	253.19
459.77	280.69
460.228	259.19
460.686	254.69
461.144	252.59
461.602	243.99
462.06	246.29
462.518	260.39
462.976	257.89
463.434	263.89
463.892	272.69
464.35	278.89
464.808	285.69
465.266	267.69
465.724	290.69
466.181	277.49
466.639	278.19
467.097	293.39
467.555	306.79
468.012	308.29
468.47	316.49
468.928	331.79
469.385	342.69
469.843	351.29
470.3	355.09
470.758	366.09
471.215	385.99
471.673	414.29
472.13	406.89
472.588	422.79
473.045	381.79
473.503	385.49
473.96	397.29
474.417	414.69
474.875	440.09
475.332	476.79
475.789	464.59
476.246	469.89
476.704	483.89
477.161	508.19
477.618	526.69
478.075	565.69
478.532	610.89
478.989	679.69
479.446	785.89
479.903	757.29
480.36	780.29
480.817	821.79
481.274	919.09
481.731	1009.09
482.188	1090.99
482.645	1201.19
483.102	1295.19
483.558	1409.99
484.015	1445.89
484.472	1414.89
484.929	1372.59
485.385	1340.39
485.842	1314.69
486.299	1270.19
486.755	1227.99
487.212	1042.69
487.668	883.99
488.125	825.49
488.582	768.19
489.038	733.99
489.494	698.09
489.951	682.19
490.407	660.09
490.864	645.29
491.32	646.69
491.776	650.69
492.233	646.59
492.689	618.69
493.145	615.59
493.602	606.89
494.058	620.89
494.514	618.69
494.97	642.69
495.426	655.89
495.882	632.29
496.338	619.39
496.794	633.99
497.251	626.09
497.707	629.89
498.163	636.09
498.618	643.59
499.074	656.79
499.53	677.79
499.986	686.39
500.442	654.29
500.898	636.69
501.354	614.49
501.809	628.09
502.265	630.29
502.721	635.29
503.177	645.89
503.632	652.99
504.088	645.89
504.543	670.19
504.999	698.19
505.455	671.79
505.91	646.69
506.366	650.99
506.821	648.29
507.277	641.89
507.732	649.39
508.187	646.19
508.643	652.39
509.098	658.19
509.553	675.79
510.009	691.19
510.464	688.09
510.919	710.79
511.375	710.29
511.83	730.79
512.285	735.49
512.74	779.19
513.195	791.99
513.65	777.19
514.105	788.79
514.56	780.39
515.015	795.59
515.47	811.89
515.925	798.69
516.38	804.19
516.835	800.99
517.29	802.09
517.745	788.99
518.2	779.09
518.655	768.89
519.109	760.69
519.564	752.49
520.019	745.79
520.474	733.89
520.928	735.19
521.383	732.79
521.838	735.29
522.292	725.39
522.747	729.99
523.201	725.09
523.656	706.89
524.11	707.09
524.565	700.49
525.019	716.09
525.474	710.79
525.928	714.09
526.382	727.59
526.837	717.29
527.291	719.59
527.745	715.09
528.2	719.49
528.654	709.79
529.108	702.59
529.562	703.79
530.016	704.89
530.47	701.09
530.925	700.69
531.379	704.69
531.833	725.69
532.287	712.49
532.741	715.59
533.195	719.29
533.649	735.29
534.103	738.29
534.556	721.09
535.01	717.29
535.464	726.09
535.918	734.59
536.372	737.89
536.826	739.59
537.279	729.19
537.733	729.29
538.187	725.79
538.64	733.99
539.094	731.89
539.548	751.39
540.001	738.59
540.455	739.49
540.908	743.99
541.362	761.89
541.815	765.99
542.269	775.79
542.722	788.19
543.175	782.69
543.629	792.09
544.082	799.99
544.536	806.79
544.989	809.39
545.442	806.69
545.895	808.59
546.349	814.09
546.802	818.69
547.255	813.99
547.708	826.89
548.161	828.89
548.614	836.39
549.067	845.39
549.52	843.29
549.973	828.69
550.426	838.59
550.879	821.29
551.332	824.09
551.785	820.19
552.238	821.79
552.691	845.49
553.144	857.89
553.596	860.99
554.049	889.79
554.502	914.59
554.955	927.29
555.407	937.29
555.86	931.09
556.313	918.49
556.765	912.79
557.218	903.89
557.67	909.79
558.123	898.69
558.576	892.89
559.028	904.99
559.48	911.69
559.933	896.69
560.385	863.89
560.838	845.19
561.29	808.79
561.742	819.49
562.195	787.09
562.647	799.59
563.099	798.49
563.551	790.39
564.004	805.69
564.456	779.99
564.908	771.59
565.36	753.49
565.812	748.19
566.264	738.89
566.716	743.19
567.168	725.49
567.62	724.19
568.072	719.99
568.524	714.59
568.976	715.89
569.428	694.59
569.88	694.49
570.332	698.09
570.784	707.59
571.235	706.59
571.687	704.29
572.139	724.69
572.59	733.79
573.042	736.49
573.494	732.59
573.945	728.59
574.397	713.09
574.849	717.09
575.3	715.59
575.752	702.79
576.203	690.59
576.655	703.29
577.106	689.09
577.557	682.09
578.009	678.69
578.46	675.49
578.912	673.39
579.363	682.89
579.814	682.99
580.265	677.59
580.717	681.69
581.168	694.79
581.619	691.69
582.07	701.39
582.521	684.79
582.972	683.69
583.423	692.19
583.875	694.89
584.326	686.99
584.777	704.19
585.227	727.89
585.678	740.59
586.129	741.19
586.58	769.49
587.031	786.39
587.482	808.59
587.933	824.19
588.384	814.19
588.834	795.79
589.285	800.29
589.736	800.49
590.186	794.39
590.637	776.09
591.088	767.99
591.538	753.29
591.989	747.69
592.439	742.39
592.89	728.19
593.34	721.29
593.791	714.39
594.241	706.79
594.692	712.59
595.142	710.79
595.593	705.99
596.043	714.19
596.493	722.49
596.943	720.59
597.394	732.09
597.844	735.79
598.294	754.99
598.744	773.79
599.195	801.09
599.645	840.49
600.095	889.39
600.545	938.89
600.995	984.79
601.445	1050.69
601.895	1109.69
602.345	1156.69
602.795	1136.29
603.245	1093.59
603.695	1034.89
604.145	976.79
604.594	940.49
605.044	891.59
605.494	827.99
605.944	765.79
606.393	763.89
606.843	739.09
607.293	744.49
607.743	746.09
608.192	751.19
608.642	766.59
609.091	771.09
609.541	766.49
609.99	768.09
610.44	774.69
610.889	723.59
611.339	714.59
611.788	687.49
612.238	700.49
612.687	711.29
613.136	705.69
613.586	717.39
614.035	720.49
614.484	733.09
614.933	722.19
615.383	720.79
615.832	719.89
616.281	722.99
616.73	684.19
617.179	665.29
617.628	657.49
618.077	634.89
618.526	642.29
618.975	618.19
619.424	629.79
619.873	614.49
620.322	632.99
620.771	621.09
621.22	616.99
621.669	605.09
622.118	602.29
622.567	590.99
623.015	572.69
623.464	578.49
623.913	566.39
624.361	556.79
624.81	555.99
625.259	562.69
625.707	557.59
626.156	561.29
626.604	575.49
627.053	569.19
627.501	571.79
627.95	580.39
628.398	590.29
628.847	581.59
629.295	581.69
629.744	579.59
630.192	572.19
630.64	561.29
631.089	551.39
631.537	544.99
631.985	541.59
632.433	543.99
632.881	539.09
633.33	536.39
633.778	524.59
634.226	524.59
634.674	546.69
635.122	542.79
635.57	556.09
636.018	566.39
636.466	571.69
636.914	557.19
637.362	584.19
637.81	589.09
638.258	591.19
638.705	590.19
639.153	621.59
639.601	628.49
640.049	657.99
640.497	682.39
640.944	703.29
641.392	662.89
641.84	621.09
642.287	594.59
642.735	571.89
643.182	569.69
643.63	568.89
644.078	563.99
644.525	577.29
644.973	582.19
645.42	592.99
645.867	614.19
646.315	645.29
646.762	663.79
647.21	685.89
647.657	703.99
648.104	734.49
648.551	765.89
648.999	806.59
649.446	886.59
649.893	976.19
650.34	1097.79
650.787	1316.79
651.234	1610.59
651.682	2092.89
652.129	2824.49
652.576	4008.09
653.023	5823.19
653.47	7890.69
653.917	9807.39
654.363	11342.69
654.81	12522.49
655.257	11806.69
655.704	7841.59
656.151	4709.29
656.598	3104.79
657.044	2220.09
657.491	1735.49
657.938	1402.19
658.385	1183.19
658.831	1038.19
659.278	937.99
659.724	823.59
660.171	769.49
660.618	695.49
661.064	671.39
661.511	667.59
661.957	650.09
662.404	639.09
662.85	644.49
663.296	617.89
663.743	560.49
664.189	542.39
664.635	537.99
665.082	532.09
665.528	536.09
665.974	522.99
666.42	511.69
666.867	512.29
667.313	483.89
667.759	471.49
668.205	453.99
668.651	452.59
669.097	451.09
669.543	447.59
669.989	448.29
670.435	459.29
670.881	451.49
671.327	459.19
671.773	477.99
672.219	502.79
672.665	555.79
673.11	587.69
673.556	639.69
674.002	678.29
674.448	669.49
674.893	557.19
675.339	491.39
675.785	459.89
676.23	422.99
676.676	396.79
677.122	392.09
677.567	395.49
678.013	373.19
678.458	363.79
678.904	377.49
679.349	350.89
679.794	356.19
680.24	356.19
680.685	357.49
681.131	355.49
681.576	358.49
682.021	359.09
682.466	349.39
682.912	359.49
683.357	356.49
683.802	388.69
684.247	422.09
684.692	460.99
685.137	511.69
685.583	546.39
686.028	562.19
686.473	528.09
686.918	461.69
687.363	425.99
687.807	404.29
688.252	373.79
688.697	372.29
689.142	340.19
689.587	341.59
690.032	330.99
690.477	353.59
690.921	359.69
691.366	385.39
691.811	417.29
692.255	439.69
692.7	464.09
693.145	513.49
693.589	729.79
694.034	1166.99
694.478	1588.79
694.923	1781.49
695.367	2335.49
695.812	1223.29
696.256	514.49
696.701	384.59
697.145	339.39
697.59	328.69
698.034	324.79
698.478	331.09
698.922	329.59
699.367	329.49
699.811	345.09
700.255	358.59
700.699	389.69
701.143	425.09
701.588	486.39
702.032	521.59
702.476	526.89
702.92	504.39
703.364	506.89
703.808	666.49
704.252	1065.69
704.696	1505.79
705.14	1728.49
705.584	2185.19
706.027	1097.09
706.471	537.49
706.915	406.69
707.359	357.79
707.803	329.29
708.246	319.29
708.69	316.39
709.134	322.99
709.577	317.19
710.021	321.59
710.465	312.69
710.908	293.79
711.352	297.89
711.795	310.39
712.239	365.49
712.682	391.09
713.126	422.39
713.569	468.39
714.012	366.19
714.456	313.19
714.899	291.49
715.342	280.39
715.786	267.29
716.229	260.59
716.672	261.29
717.115	255.99
717.558	253.49
718.002	258.39
718.445	268.29
718.888	291.39
719.331	300.89
719.774	312.59
720.217	305.79
720.66	285.39
721.103	273.39
721.546	259.49
721.989	253.19
722.432	236.09
722.874	237.49
723.317	238.29
723.76	237.69
724.203	262.99
724.645	319.79
725.088	454.39
725.531	582.59
725.974	659.09
726.416	564.59
726.859	308.49
727.301	257.09
727.744	246.69
728.187	237.69
728.629	240.69
729.071	248.69
729.514	259.69
729.956	266.89
730.399	291.69
730.841	290.89
731.283	276.09
731.726	274.89
732.168	270.79
732.61	267.29
733.053	297.09
733.495	323.19
733.937	358.39
734.379	410.09
734.821	444.09
735.263	561.59
735.705	876.09
736.148	1654.99
736.59	2694.69
737.032	3141.39
737.474	2568.09
737.916	838.39
738.357	440.59
738.799	341.09
739.241	301.79
739.683	289.29
740.125	296.59
740.567	305.59
741.008	319.69
741.45	324.79
741.892	322.59
742.334	363.39
742.775	369.19
743.217	360.99
743.658	275.09
744.1	261.29
744.542	271.49
744.983	322.09
745.425	359.69
745.866	345.79
746.307	285.39
746.749	278.89
747.19	337.09
747.632	471.59
748.073	917.19
748.514	1950.29
748.956	2950.19
749.397	3721.89
749.838	3082.79
750.279	3050.69
750.72	1546.59
751.162	568.89
751.603	338.39
752.044	264.89
752.485	221.99
752.926	215.09
753.367	202.39
753.808	193.99
754.249	199.19
754.69	194.79
755.131	184.09
755.572	186.59
756.013	183.69
756.453	178.89
756.894	190.99
757.335	196.69
757.776	196.39
758.216	202.39
758.657	196.79
759.098	208.19
759.538	227.59
759.979	274.59
760.42	387.89
760.86	746.19
761.301	1934.59
761.741	4638.49
762.182	6647.59
762.622	4679.99
763.063	1355.99
763.503	551.19
763.943	335.29
764.384	271.59
764.824	240.09
765.264	223.09
765.705	208.99
766.145	184.49
766.585	176.89
767.025	175.59
767.465	164.99
767.906	176.39
768.346	182.39
768.786	204.99
769.226	217.29
769.666	318.49
770.106	640.49
770.546	1633.99
770.986	2724.39
771.426	2426.59
771.866	817.49
772.306	337.59
772.745	211.69
773.185	172.69
773.625	167.49
774.065	150.99
774.505	161.39
774.944	204.59
775.384	354.09
775.824	584.99
776.263	561.29
776.703	280.09
777.142	162.99
777.582	138.59
778.021	130.79
778.461	123.29
778.9	124.89
779.34	122.29
779.779	120.39
780.219	109.09
780.658	109.09
781.097	105.49
781.537	113.69
781.976	109.19
782.415	107.19
782.855	105.69
783.294	106.69
783.733	103.79
784.172	103.29
784.611	108.09
785.05	107.89
785.489	116.49
785.928	120.39
786.367	119.79
786.806	116.29
787.245	133.49
787.684	144.59
788.123	150.39
788.562	136.09
789.001	133.69
789.44	126.49
789.879	123.89
790.317	117.19
790.756	125.49
791.195	130.29
791.634	154.99
792.072	211.39
792.511	376.09
792.95	1046.39
793.388	2194.19
793.827	1942.99
794.265	683.39
794.704	288.79
795.142	185.89
795.581	157.59
796.019	136.29
796.458	130.09
796.896	124.09
797.334	136.59
797.773	161.19
798.211	222.09
798.649	456.69
799.087	1064.89
799.526	1641.79
799.964	2094.89
800.402	2067.89
800.84	783.99
801.278	305.49
801.716	185.79
802.154	159.89
802.592	153.09
803.03	141.19
803.468	136.89
803.906	148.59
804.344	153.49
804.782	137.49
805.22	145.19
805.658	133.19
806.096	154.09
806.533	164.49
806.971	181.49
807.409	227.99
807.847	329.09
808.284	705.79
808.722	1962.59
809.16	3412.59
809.597	3288.29
810.035	5639.79
810.472	5966.19
810.91	2168.19
811.347	835.79
811.785	422.99
812.222	264.99
812.66	198.69
813.097	168.19
813.535	147.79
813.972	133.19
814.409	121.39
814.846	110.79
815.284	114.69
815.721	96.89
816.158	104.69
816.595	114.89
817.032	159.69
817.47	181.39
817.907	126.89
818.344	97.69
818.781	102.09
819.218	94.99
819.655	126.09
820.092	193.29
820.529	222.59
820.966	172.89
821.403	128.89
821.839	104.19
822.276	96.59
822.713	127.39
823.15	138.59
823.587	114.79
824.023	157.09
824.46	315.39
824.897	947.59
825.333	1394.39
825.77	609.79
826.206	236.59
826.643	144.89
827.08	102.79
827.516	84.79
827.953	87.29
828.389	84.29
828.825	73.69
829.262	68.69
829.698	57.09
830.135	66.09
830.571	64.29
831.007	65.69
831.443	67.19
831.88	69.69
832.316	65.99
832.752	69.79
833.188	64.99
833.624	58.09
834.06	68.79
834.497	68.19
834.933	71.79
835.369	78.19
835.805	73.29
836.241	77.29
836.677	77.29
837.112	92.59
837.548	105.49
837.984	139.39
838.42	217.29
838.856	524.99
839.292	1587.59
839.727	2365.19
840.163	1104.99
840.599	966.49
841.034	2099.99
841.47	2187.19
841.906	808.79
842.341	333.89
842.777	203.09
843.212	205.49
843.648	187.39
844.083	109.09
844.519	90.99
844.954	71.39
845.39	52.99
845.825	56.39
846.261	54.19
846.696	52.29
847.131	51.69
847.566	57.99
848.002	53.09
848.437	49.09
848.872	59.89
849.307	59.79
849.742	83.59
850.177	186.49
850.613	577.39
851.048	900.09
851.483	387.49
851.918	155.79
852.353	85.99
852.788	55.19
853.223	55.19
853.657	53.19
854.092	48.19
854.527	46.19
854.962	40.49
855.397	43.29
855.832	52.39
856.266	40.09
856.701	38.39
857.136	40.99
857.57	44.09
858.005	47.89
858.44	56.59
858.874	44.59
859.309	50.29
859.743	39.89
860.178	46.69
860.612	46.09
861.047	53.79
861.481	65.89
861.915	71.39
862.35	51.09
862.784	30.99
863.218	38.79
863.653	38.99
864.087	48.19
864.521	57.69
864.955	66.69
865.39	156.69
865.824	175.59
866.258	121.79
866.692	175.99
867.126	187.09
867.56	115.59
867.994	54.19
868.428	40.69
868.862	50.59
869.296	62.29
869.73	62.09
870.164	54.89
870.598	51.29
871.031	39.59
871.465	33.99
871.899	39.09
872.333	27.39
872.766	29.49
873.2	16.59
873.634	26.79
874.067	26.29
874.501	28.79
874.935	32.79
875.368	27.99
875.802	29.49
876.235	22.19
876.669	27.49
877.102	19.89
877.535	28.19
877.969	22.69
878.402	24.09
878.836	17.19
879.269	19.89
879.702	22.69
880.135	14.29
880.569	24.09
881.002	26.39
881.435	21.99
881.868	21.19
882.301	26.19
882.734	11.79
883.167	18.19
883.601	19.49
884.034	23.99
884.467	17.39
884.899	15.69
885.332	16.39
885.765	16.59
886.198	19.09
886.631	22.99
887.064	21.69
887.497	23.09
887.929	27.59
888.362	16.59
888.795	10.49
889.228	20.69
889.66	21.79
890.093	13.19
890.526	23.19
890.958	13.79
891.391	23.99
891.823	21.59
892.256	18.49
892.688	10.69
893.121	17.29
893.553	11.69
893.985	20.69
894.418	18.99
894.85	7.79
895.282	16.19
895.715	19.89
896.147	19.39
896.579	16.29
897.011	16.89
897.444	12.49
897.876	17.19
898.308	17.69
898.74	16.89
899.172	12.89
899.604	21.49
900.036	23.19
900.468	13.69
900.9	13.79
901.332	20.49
901.764	16.09
902.196	13.09
902.628	18.59
903.06	18.09
903.491	24.29
903.923	22.99
904.355	19.49
904.787	23.29
905.218	24.69
905.65	25.59
906.082	12.29
906.513	11.79
906.945	12.89
907.376	17.79
907.808	21.39
908.239	13.59
908.671	16.09
909.102	22.49
909.534	25.29
909.965	44.99
910.397	91.99
910.828	326.39
911.259	488.59
911.691	225.09
912.122	109.19
912.553	51.49
912.984	33.79
913.415	20.29
913.847	21.99
914.278	13.69
914.709	18.19
915.14	14.89
915.571	13.19
916.002	10.99
916.433	22.29
916.864	7.59
917.295	11.49
917.726	16.69
918.157	16.59
918.587	27.39
919.018	26.69
919.449	19.59
919.88	26.79
920.311	34.19
920.741	46.79
921.172	175.99
921.603	151.99
922.033	71.19
922.464	40.99
922.895	19.89
923.325	19.99
923.756	9.49
924.186	10.69
924.617	16.99
925.047	18.89
925.478	16.99
925.908	23.89
926.338	10.29
926.769	11.09
927.199	16.79
927.629	6.09
928.06	16.29
928.49	9.59
928.92	12.89
929.35	8.59
929.78	18.59
930.21	4.39
930.641	10.39
931.071	8.99
931.501	0.29
931.931	9.29
932.361	10.39
932.791	4.09
933.221	6.49
933.651	0.09
934.08	22.79
934.51	30.79
934.94	8.89
935.37	8.79
935.8	11.09
936.229	5.79
936.659	3.09
937.089	0.99
937.519	8.49
937.948	21.19
938.378	17.39
938.807	0.79
939.237	1.59
939.666	7.39
940.096	-3.71
940.525	4.69
940.955	5.89
941.384	12.79
941.814	-1.61
942.243	1.99
942.672	2.09
943.102	-2.21
943.531	3.79
943.96	7.79
944.39	4.29
944.819	2.19
945.248	1.59
945.677	0.99
946.106	2.39
946.535	3.29
946.964	-3.71
947.393	8.69
947.822	-2.01
948.251	-2.21
948.68	2.79
949.109	5.89
949.538	5.49
949.967	3.99
950.396	-1.31
950.825	-3.01
951.254	-2.01
951.682	-5.81
952.111	3.89
952.54	2.39
952.969	-0.71
953.397	-4.11
953.826	-0.61
954.254	-8.21
954.683	-2.71
955.112	-3.11
955.54	2.49
955.969	-3.41
956.397	1.69
956.826	-2.31
957.254	2.69
957.682	3.39
958.111	2.39
958.539	-0.31
958.967	-2.81
959.396	-4.81
959.824	-2.11
960.252	-0.11
960.68	-3.21
961.109	-3.71
961.537	-6.61
961.965	-7.01
962.393	-0.61
962.821	1.09
963.249	3.29
963.677	3.99
964.105	6.09
964.533	45.09
964.961	41.39
965.389	24.09
965.817	11.99
966.245	7.09
966.672	-0.81
967.1	-12.51
967.528	-0.01
967.956	-6.11
968.383	3.19
968.811	-3.71
969.239	-2.61
969.666	-1.51
970.094	2.69
970.522	3.99
970.949	-1.81
971.377	-7.61
971.804	-5.51
972.232	0.49
972.659	-4.71
973.087	-3.01
973.514	-9.01
973.941	-2.71
974.369	-1.51
974.796	-0.61
975.223	-0.01
975.651	1.09
976.078	-0.11
976.505	-3.71
976.932	0.09
977.359	10.69
977.786	13.49
978.214	1.49
978.641	-6.11
979.068	-1.61
979.495	-5.41
979.922	1.69
980.349	-3.31
980.776	4.39
981.202	-1.01
981.629	8.29
982.056	2.09
982.483	-7.31
982.91	1.69
983.337	-4.71
983.763	3.49
984.19	-5.81
984.617	-0.61
985.043	-9.21
985.47	-7.51
985.897	0.89
986.323	-4.31
986.75	-0.31
987.176	3.69
987.603	-1.41
988.029	-6.71
988.456	-1.91
988.882	-2.01
989.308	-7.01
989.735	-6.91
990.161	2.69
990.587	-3.91
991.014	-5.11
991.44	6.69
991.866	-5.41
992.292	-6.51
992.719	-2.01
993.145	5.29
993.571	-5.01
993.997	-8.41
994.423	-5.41
994.849	-6.71
995.275	-1.41
995.701	-4.21
996.127	3.29
996.553	3.89
996.979	-6.61
997.405	0.69
997.83	-6.31
998.256	-8.51
998.682	-7.31
999.108	-8.91
999.534	1.19
999.959	2.59
1000.385	-2.81
1000.811	-2.91
1001.236	-12.01
1001.662	-13.61
1002.087	-8.81
1002.513	0.99
1002.938	4.49
1003.364	-0.41
1003.789	-0.31
1004.215	1.79
1004.64	1.19
1005.066	-0.41
1005.491	0.29
1005.916	-3.41
1006.342	-6.51
1006.767	-9.31
1007.192	0.19
1007.617	-4.01
1008.042	-4.51
1008.468	-5.01
1008.893	-2.71
1009.318	-2.01
1009.743	-0.11
1010.168	-1.81
1010.593	4.89
1011.018	-8.91
1011.443	-4.11
1011.868	0.89
1012.293	-2.01
1012.718	-7.31
1013.143	-0.11
1013.567	-2.41
1013.992	-2.41
1014.417	-17.61
1014.842	-2.41
1015.267	-3.91
1015.691	-0.11
1016.116	6.49
1016.541	-4.81
1016.965	0.59
1017.39	1.29
1017.814	2.09
1018.239	-0.81
1018.663	-7.61
1019.088	-7.61
1019.512	-4.31
1019.937	-2.91
1020.361	-3.91
1020.785	-13.61
1021.21	-2.11
1021.634	-5.21
1022.058	-3.21
1022.483	4.09
1022.907	-7.21
1023.331	-7.61
1023.755	-1.81
1024.179	-6.91
1024.604	-10.51
1025.028	-3.41
1025.452	-7.81
1025.876	-4.01
1026.3	4.69
1026.724	-9.41
1027.148	-5.41
1027.572	-10.71
1027.996	-6.41
1028.42	-1.91
1028.843	-2.91
1029.267	-8.71
1029.691	-6.11
1030.115	-12.51
1030.539	-5.61
1030.962	-1.51
1031.386	-10.71
1031.81	-1.61
1032.233	-3.01
1032.657	-8.81
1033.08	-5.11
1033.504	-2.41
1033.927	-2.71
1034.351	4.19
1034.774	-2.61
1035.198	-2.31
1035.621	-8.11
1036.045	-9.01
1036.468	2.19
1036.891	-7.51
1037.315	-9.51
1037.738	-6.71
1038.161	1.79
1038.584	-6.71
1039.008	-3.11
1039.431	-0.21
1039.854	-1.21
1040.277	-9.01
1040.7	-10.01
1041.123	0.19
1041.546	-6.71
1041.969	-5.31
1042.392	-8.01
1042.815	-4.41
1043.238	3.49
1043.661	1.19
1044.084	1.99
1044.507	-7.21
1044.93	-7.41
1045.352	-1.91
1045.775	-2.51
1046.198	-3.11
1046.621	-1.51
1047.043	-5.61
1047.466	5.79
1047.889	-5.61
1048.311	-2.61
1048.734	-3.61
1049.156	3.89
1049.579	-4.61
1050.001	-0.51
1050.424	-4.21
1050.846	-0.91
1051.269	-3.21
1051.691	-4.31
1052.113	-4.11
1052.536	1.29
1052.958	-0.91
1053.38	-3.31
1053.802	-9.11
1054.225	-0.61
1054.647	-8.41
1055.069	-8.21
1055.491	-0.11
1055.913	-6.81
1056.335	1.59
1056.757	-3.61
1057.179	-5.21
1057.601	-12.81
1058.023	-2.21
1058.445	-7.21
1058.867	-8.51
1059.289	-0.21
1059.711	-10.41
1060.133	-2.71
1060.555	-4.91
1060.976	-9.01
1061.398	-5.81
1061.82	-4.11
1062.241	-4.51
1062.663	-5.01
1063.085	-7.91
1063.506	-1.81
1063.928	-0.91
1064.35	4.69
1064.771	-5.91
1065.193	-3.71
1065.614	-16.01
1066.035	-4.11
1066.457	-0.31
1066.878	1.39
1067.3	-5.71
1067.721	-5.01
1068.142	-4.71
1068.564	-0.21
1068.985	-5.31
1069.406	-3.91
1069.827	-7.01
1070.248	7.69
1070.67	-6.01
1071.091	-5.21
1071.512	-6.31
1071.933	-4.11
1072.354	-6.61
1072.775	-8.91
1073.196	-8.41
1073.617	-7.31
1074.038	-3.91
1074.459	-3.91
1074.88	-3.21
1075.3	-0.11
1075.721	-7.81
1076.142	0.69
1076.563	0.09
1076.983	-14.41
1077.404	-4.11
1077.825	-8.81
1078.246	-3.71
1078.666	-8.61
1079.087	-1.01
1079.507	-5.21
1079.928	-3.91
1080.348	-4.81
1080.769	-7.51
1081.189	-1.91
1081.61	-5.11
1082.03	-4.21
1082.451	-3.01
1082.871	-2.31
1083.291	-3.71
1083.711	-14.51
1084.132	-12.31
1084.552	-4.41
1084.972	1.09
1085.392	-7.71
1085.813	-10.21
1086.233	-7.61
1086.653	-6.11
1087.073	-4.31
1087.493	-12.01
1087.913	-5.41
1088.333	-1.11
1088.753	-7.21
1089.173	1.19
1089.593	-2.81
1090.013	4.59
1090.433	-0.41
1090.852	-0.91
1091.272	-2.01
1091.692	-2.01
1092.112	-3.61
1092.531	-9.71
1092.951	-9.61
1093.371	1.29
1093.79	1.79
1094.21	-7.01
1094.63	-6.51
1095.049	-6.51
1095.469	-7.01
1095.888	-0.51
1096.308	-5.21
1096.727	1.19
1097.146	-6.51
1097.566	-2.81
1097.985	-13.41
1098.405	-4.91
1098.824	-7.71
1099.243	-3.61
1099.662	-5.81
1100.082	-4.81
1100.501	-5.31
1100.92	-4.91
1101.339	-6.61
1101.758	-9.21
