Data from 20171114-ORNL-Ar_H_NY_Subt18_08-06-18-823.txt Node
Date: Tue Nov 14 08:06:18 EST 2017
User: Ender
Spectrometer: HR+D1039
Trigger mode: 0
Integration Time (sec): 2.730000E-2
Scans to average: 10
Electric dark correction enabled: true
Nonlinearity correction enabled: false
Boxcar width: 0
XAxis mode: Wavelengths
Number of Pixels in Spectrum: 2048
>>>>>Begin Spectral Data<<<<<
187.836	-5.14
188.309	-5.14
188.782	-5.14
189.255	-2.24
189.728	0.46
190.201	4.46
190.674	2.36
191.147	-2.64
191.619	-7.84
192.092	2.46
192.565	7.56
193.038	3.16
193.511	1.16
193.984	0.06
194.456	1.16
194.929	0.66
195.402	-3.04
195.874	-2.64
196.347	3.06
196.82	-8.64
197.292	3.66
197.765	-0.74
198.237	-2.34
198.71	2.36
199.182	-0.74
199.655	3.16
200.127	1.06
200.6	6.66
201.072	-0.74
201.544	-3.44
202.017	-0.04
202.489	4.46
202.961	0.16
203.433	-5.84
203.906	-9.14
204.378	-3.34
204.85	4.66
205.322	-6.84
205.794	-3.24
206.266	-0.54
206.739	-7.04
207.211	1.86
207.683	-4.84
208.155	-2.74
208.627	-3.34
209.099	-0.64
209.57	-10.34
210.042	-7.24
210.514	-5.84
210.986	-2.44
211.458	-1.64
211.93	0.06
212.402	0.66
212.873	-7.44
213.345	-5.74
213.817	-3.64
214.288	-3.54
214.76	-13.74
215.232	-1.94
215.703	2.86
216.175	-0.34
216.646	-3.24
217.118	-7.74
217.589	-3.44
218.061	-2.84
218.532	-2.44
219.004	0.26
219.475	-2.14
219.946	-2.84
220.418	-5.64
220.889	7.86
221.36	-4.94
221.832	-6.94
222.303	-4.34
222.774	-2.14
223.245	-8.04
223.717	-4.04
224.188	-1.04
224.659	-2.24
225.13	-4.04
225.601	-2.74
226.072	1.56
226.543	1.56
227.014	0.76
227.485	-5.64
227.956	-5.34
228.427	-3.04
228.898	-1.14
229.369	0.16
229.839	-0.34
230.31	-3.04
230.781	1.86
231.252	-0.64
231.722	-2.14
232.193	-1.54
232.664	-1.34
233.135	1.26
233.605	-0.74
234.076	-6.64
234.546	-3.54
235.017	1.46
235.487	1.26
235.958	2.46
236.428	1.26
236.899	0.86
237.369	0.96
237.84	3.46
238.31	11.46
238.78	2.76
239.251	-2.94
239.721	-1.04
240.191	1.66
240.662	2.06
241.132	2.66
241.602	-5.34
242.072	4.16
242.542	2.86
243.013	-0.44
243.483	5.86
243.953	-1.24
244.423	0.16
244.893	-3.84
245.363	2.76
245.833	2.46
246.303	0.16
246.773	9.46
247.243	-0.04
247.712	8.36
248.182	6.66
248.652	9.26
249.122	1.36
249.592	11.46
250.061	26.46
250.531	30.16
251.001	17.06
251.471	21.16
251.94	19.86
252.41	5.06
252.879	1.86
253.349	12.96
253.818	3.36
254.288	3.26
254.757	2.96
255.227	0.26
255.696	1.46
256.166	5.56
256.635	9.06
257.105	8.06
257.574	11.66
258.043	7.36
258.513	12.16
258.982	18.76
259.451	7.26
259.92	17.56
260.389	3.76
260.859	13.26
261.328	10.66
261.797	19.86
262.266	10.36
262.735	11.56
263.204	5.96
263.673	5.16
264.142	11.96
264.611	-1.74
265.08	7.86
265.549	-1.44
266.018	5.56
266.487	0.86
266.955	2.76
267.424	-0.34
267.893	6.56
268.362	-1.24
268.83	6.06
269.299	9.96
269.768	9.46
270.236	8.26
270.705	3.96
271.174	5.36
271.642	7.06
272.111	11.06
272.579	17.06
273.048	26.76
273.516	30.66
273.985	21.46
274.453	24.16
274.922	19.86
275.39	11.16
275.858	7.76
276.327	13.96
276.795	21.26
277.263	1.46
277.731	35.86
278.2	49.56
278.668	59.36
279.136	48.56
279.604	23.86
280.072	16.86
280.54	9.26
281.008	9.06
281.477	17.86
281.945	13.96
282.413	15.36
282.881	19.36
283.348	6.26
283.816	19.56
284.284	20.86
284.752	20.16
285.22	16.16
285.688	23.76
286.156	23.06
286.623	45.66
287.091	49.26
287.559	26.96
288.026	24.66
288.494	22.46
288.962	16.06
289.429	10.16
289.897	19.16
290.364	13.86
290.832	22.86
291.3	21.76
291.767	18.06
292.234	17.76
292.702	12.66
293.169	22.46
293.637	18.76
294.104	20.26
294.571	10.66
295.039	6.96
295.506	17.36
295.973	14.86
296.44	12.06
296.908	21.66
297.375	22.36
297.842	12.16
298.309	15.46
298.776	15.96
299.243	22.96
299.71	15.66
300.177	21.86
300.644	23.66
301.111	21.06
301.578	26.76
302.045	20.56
302.512	25.46
302.979	29.56
303.446	18.66
303.913	19.66
304.379	17.86
304.846	31.36
305.313	26.96
305.78	34.26
306.246	24.96
306.713	25.86
307.18	25.76
307.646	32.46
308.113	32.16
308.579	25.96
309.046	27.06
309.512	23.16
309.979	22.96
310.445	26.76
310.912	32.26
311.378	31.96
311.845	32.16
312.311	36.86
312.777	30.66
313.244	33.26
313.71	39.16
314.176	37.76
314.642	34.26
315.109	35.86
315.575	36.76
316.041	35.96
316.507	34.76
316.973	40.06
317.439	35.76
317.905	33.36
318.371	28.36
318.837	32.46
319.303	37.66
319.769	35.66
320.235	35.96
320.701	39.66
321.167	34.76
321.633	39.26
322.099	43.66
322.564	49.16
323.03	44.16
323.496	41.36
323.962	35.56
324.427	38.66
324.893	41.56
325.359	43.66
325.824	33.36
326.29	32.16
326.755	39.96
327.221	41.36
327.686	38.06
328.152	50.96
328.617	47.26
329.083	49.66
329.548	59.56
330.014	44.86
330.479	40.06
330.944	47.06
331.41	38.46
331.875	48.46
332.34	47.26
332.805	42.66
333.271	46.76
333.736	46.76
334.201	57.86
334.666	50.76
335.131	58.76
335.596	56.16
336.061	52.66
336.526	49.06
336.991	52.86
337.456	59.86
337.921	52.46
338.386	44.36
338.851	45.86
339.316	51.66
339.781	49.96
340.246	50.06
340.711	46.26
341.175	54.66
341.64	41.96
342.105	52.96
342.569	59.16
343.034	59.36
343.499	58.26
343.963	55.46
344.428	70.46
344.893	67.66
345.357	66.86
345.822	65.56
346.286	65.56
346.751	75.86
347.215	72.26
347.679	79.56
348.144	103.06
348.608	81.46
349.073	74.36
349.537	78.56
350.001	82.86
350.465	93.16
350.93	88.26
351.394	84.86
351.858	72.86
352.322	87.86
352.786	88.56
353.25	99.36
353.715	114.86
354.179	101.56
354.643	126.26
355.107	129.66
355.571	107.16
356.035	103.26
356.498	109.66
356.962	128.66
357.426	138.16
357.89	122.86
358.354	90.66
358.818	89.16
359.281	93.66
359.745	80.96
360.209	82.76
360.673	89.46
361.136	89.96
361.6	84.36
362.064	100.06
362.527	93.46
362.991	93.36
363.454	85.56
363.918	84.46
364.381	80.06
364.845	85.66
365.308	100.46
365.772	88.86
366.235	92.06
366.698	85.46
367.162	82.16
367.625	86.56
368.088	93.86
368.552	91.66
369.015	94.26
369.478	96.76
369.941	105.36
370.404	98.46
370.867	102.56
371.331	110.56
371.794	114.06
372.257	117.56
372.72	120.06
373.183	116.16
373.646	109.16
374.109	111.66
374.572	110.36
375.035	110.86
375.497	109.06
375.96	109.36
376.423	101.66
376.886	112.06
377.349	107.66
377.811	107.76
378.274	110.26
378.737	107.46
379.199	116.56
379.662	113.36
380.125	126.26
380.587	119.96
381.05	119.76
381.512	133.36
381.975	133.96
382.437	130.36
382.9	121.76
383.362	129.66
383.825	146.26
384.287	150.16
384.75	140.86
385.212	144.26
385.674	142.26
386.136	144.86
386.599	130.26
387.061	129.66
387.523	134.56
387.985	140.16
388.447	147.76
388.91	149.26
389.372	162.06
389.834	153.66
390.296	148.16
390.758	158.36
391.22	167.66
391.682	214.36
392.144	298.26
392.606	236.46
393.068	173.06
393.529	177.36
393.991	158.26
394.453	153.76
394.915	154.86
395.377	196.56
395.838	214.86
396.3	160.36
396.762	150.36
397.224	136.46
397.685	135.26
398.147	130.56
398.608	132.46
399.07	130.56
399.531	139.06
399.993	149.86
400.454	160.66
400.916	146.36
401.377	150.26
401.839	155.46
402.3	160.66
402.762	169.46
403.223	181.96
403.684	178.76
404.145	171.26
404.607	169.56
405.068	175.06
405.529	182.26
405.99	188.76
406.451	186.06
406.913	176.66
407.374	167.06
407.835	165.86
408.296	178.36
408.757	181.56
409.218	195.36
409.679	180.86
410.14	183.86
410.601	188.36
411.062	190.26
411.522	200.46
411.983	199.96
412.444	176.86
412.905	184.86
413.366	187.26
413.826	196.16
414.287	215.06
414.748	274.56
415.208	261.76
415.669	216.76
416.13	206.66
416.59	205.26
417.051	221.16
417.511	223.86
417.972	249.56
418.432	256.66
418.893	297.16
419.353	254.76
419.814	204.96
420.274	194.96
420.734	184.16
421.195	203.96
421.655	203.06
422.115	199.36
422.576	201.36
423.036	214.96
423.496	209.06
423.956	232.66
424.416	239.56
424.876	268.36
425.336	276.26
425.797	270.06
426.257	273.36
426.717	251.36
427.177	238.16
427.637	231.96
428.097	240.06
428.556	247.36
429.016	284.56
429.476	271.86
429.936	281.86
430.396	290.66
430.856	299.86
431.315	327.46
431.775	359.16
432.235	392.56
432.694	353.86
433.154	370.96
433.614	410.56
434.073	353.36
434.533	294.16
434.993	276.46
435.452	295.46
435.912	302.06
436.371	305.86
436.83	294.86
437.29	278.26
437.749	252.36
438.209	251.16
438.668	281.66
439.127	284.66
439.587	272.46
440.046	254.06
440.505	273.76
440.964	280.06
441.424	327.36
441.883	323.56
442.342	267.36
442.801	232.96
443.26	230.26
443.719	230.36
444.178	229.86
444.637	217.26
445.096	226.06
445.555	231.66
446.014	231.56
446.473	236.86
446.932	238.86
447.391	233.16
447.849	236.66
448.308	223.56
448.767	237.46
449.226	242.96
449.685	239.36
450.143	255.96
450.602	256.16
451.061	233.86
451.519	238.76
451.978	239.36
452.436	234.06
452.895	247.36
453.353	260.96
453.812	254.56
454.27	242.16
454.729	257.76
455.187	254.06
455.646	256.36
456.104	252.76
456.562	263.76
457.021	275.16
457.479	262.66
457.937	278.76
458.395	276.86
458.854	253.76
459.312	262.76
459.77	278.76
460.228	271.16
460.686	254.66
461.144	258.06
461.602	256.86
462.06	257.46
462.518	265.66
462.976	262.66
463.434	269.26
463.892	271.26
464.35	283.36
464.808	310.86
465.266	281.46
465.724	279.56
466.181	284.36
466.639	277.26
467.097	304.76
467.555	310.76
468.012	318.76
468.47	317.46
468.928	347.16
469.385	353.36
469.843	355.46
470.3	361.46
470.758	371.56
471.215	399.56
471.673	415.76
472.13	421.46
472.588	424.56
473.045	388.06
473.503	387.76
473.96	403.66
474.417	416.06
474.875	439.86
475.332	488.56
475.789	477.76
476.246	481.66
476.704	498.26
477.161	531.36
477.618	544.96
478.075	582.06
478.532	636.96
478.989	710.26
479.446	825.06
479.903	796.36
480.36	837.06
480.817	899.26
481.274	996.16
481.731	1100.16
482.188	1191.36
482.645	1336.76
483.102	1446.86
483.558	1584.96
484.015	1637.96
484.472	1602.66
484.929	1559.46
485.385	1509.46
485.842	1458.26
486.299	1407.66
486.755	1339.86
487.212	1123.16
487.668	962.96
488.125	889.76
488.582	799.26
489.038	767.86
489.494	732.76
489.951	700.46
490.407	691.46
490.864	666.66
491.32	670.26
491.776	658.76
492.233	663.86
492.689	639.46
493.145	621.46
493.602	608.56
494.058	637.86
494.514	626.36
494.97	660.56
495.426	670.56
495.882	644.46
496.338	634.16
496.794	650.36
497.251	645.86
497.707	653.36
498.163	646.96
498.618	667.86
499.074	669.86
499.53	700.96
499.986	692.26
500.442	671.06
500.898	654.36
501.354	647.76
501.809	655.96
502.265	665.66
502.721	682.16
503.177	691.16
503.632	686.36
504.088	695.76
504.543	726.96
504.999	740.76
505.455	679.36
505.91	649.46
506.366	659.46
506.821	641.36
507.277	645.76
507.732	645.86
508.187	649.56
508.643	657.96
509.098	651.66
509.553	674.86
510.009	685.26
510.464	698.06
510.919	706.76
511.375	711.76
511.83	728.16
512.285	757.96
512.74	779.06
513.195	802.86
513.65	784.06
514.105	797.06
514.56	796.76
515.015	820.66
515.47	832.16
515.925	809.76
516.38	811.86
516.835	823.06
517.29	808.56
517.745	806.36
518.2	785.76
518.655	773.46
519.109	759.86
519.564	754.16
520.019	756.86
520.474	750.76
520.928	746.26
521.383	750.36
521.838	736.46
522.292	738.06
522.747	736.86
523.201	721.76
523.656	719.86
524.11	710.66
524.565	708.66
525.019	709.36
525.474	723.76
525.928	717.06
526.382	728.56
526.837	734.56
527.291	712.16
527.745	718.26
528.2	717.26
528.654	709.56
529.108	708.56
529.562	710.16
530.016	705.06
530.47	719.26
530.925	711.96
531.379	716.86
531.833	738.76
532.287	720.06
532.741	726.86
533.195	727.96
533.649	733.16
534.103	743.46
534.556	738.36
535.01	738.56
535.464	733.86
535.918	742.76
536.372	741.06
536.826	747.56
537.279	720.36
537.733	740.86
538.187	737.56
538.64	735.56
539.094	755.36
539.548	760.26
540.001	752.56
540.455	748.56
540.908	753.86
541.362	760.56
541.815	768.36
542.269	784.36
542.722	791.86
543.175	793.36
543.629	792.36
544.082	813.66
544.536	811.06
544.989	809.16
545.442	819.46
545.895	813.96
546.349	811.36
546.802	812.66
547.255	814.06
547.708	828.36
548.161	842.76
548.614	851.96
549.067	857.86
549.52	849.56
549.973	837.66
550.426	830.96
550.879	817.26
551.332	824.16
551.785	831.16
552.238	833.46
552.691	843.96
553.144	860.06
553.596	876.76
554.049	896.86
554.502	921.76
554.955	938.26
555.407	943.06
555.86	921.06
556.313	918.06
556.765	909.06
557.218	912.96
557.67	920.76
558.123	903.26
558.576	907.06
559.028	914.66
559.48	921.36
559.933	892.06
560.385	866.56
560.838	833.66
561.29	805.16
561.742	813.86
562.195	786.86
562.647	790.16
563.099	795.96
563.551	797.46
564.004	804.76
564.456	790.26
564.908	782.66
565.36	772.06
565.812	756.06
566.264	750.86
566.716	749.66
567.168	731.36
567.62	744.36
568.072	723.26
568.524	709.06
568.976	706.46
569.428	701.26
569.88	690.76
570.332	694.56
570.784	702.86
571.235	703.36
571.687	721.36
572.139	716.66
572.59	726.66
573.042	737.96
573.494	733.16
573.945	730.06
574.397	707.56
574.849	710.66
575.3	710.56
575.752	704.96
576.203	700.26
576.655	705.66
577.106	683.86
577.557	679.36
578.009	687.76
578.46	673.76
578.912	683.66
579.363	690.36
579.814	695.66
580.265	686.16
580.717	683.26
581.168	695.16
581.619	696.46
582.07	704.86
582.521	697.46
582.972	691.56
583.423	699.96
583.875	711.36
584.326	718.76
584.777	767.46
585.227	831.96
585.678	929.16
586.129	1006.66
586.58	1077.86
587.031	1150.56
587.482	1296.16
587.933	1473.06
588.384	1286.26
588.834	984.56
589.285	828.26
589.736	805.36
590.186	788.56
590.637	790.46
591.088	764.36
591.538	743.06
591.989	751.66
592.439	741.06
592.89	747.66
593.34	727.36
593.791	728.26
594.241	729.56
594.692	734.26
595.142	726.66
595.593	721.06
596.043	730.66
596.493	734.56
596.943	730.56
597.394	745.06
597.844	734.06
598.294	750.96
598.744	773.86
599.195	792.26
599.645	837.76
600.095	874.86
600.545	938.66
600.995	986.66
601.445	1048.36
601.895	1108.96
602.345	1150.16
602.795	1131.96
603.245	1098.36
603.695	1028.46
604.145	969.96
604.594	935.76
605.044	884.96
605.494	827.96
605.944	779.26
606.393	762.86
606.843	748.26
607.293	757.16
607.743	749.06
608.192	768.46
608.642	775.86
609.091	786.36
609.541	800.66
609.99	790.86
610.44	783.56
610.889	748.06
611.339	723.96
611.788	702.16
612.238	713.66
612.687	726.96
613.136	733.06
613.586	747.26
614.035	750.96
614.484	779.26
614.933	778.66
615.383	759.86
615.832	744.66
616.281	741.96
616.73	706.66
617.179	677.76
617.628	666.86
618.077	655.06
618.526	637.56
618.975	634.06
619.424	627.26
619.873	621.76
620.322	627.56
620.771	634.46
621.22	619.66
621.669	614.76
622.118	602.36
622.567	595.36
623.015	589.46
623.464	579.06
623.913	573.06
624.361	569.46
624.81	566.96
625.259	576.96
625.707	565.26
626.156	567.16
626.604	582.46
627.053	568.86
627.501	567.86
627.95	583.66
628.398	590.66
628.847	583.16
629.295	588.46
629.744	597.06
630.192	577.96
630.64	583.86
631.089	569.36
631.537	587.06
631.985	593.96
632.433	604.06
632.881	613.96
633.33	672.86
633.778	650.46
634.226	575.76
634.674	591.76
635.122	592.16
635.57	604.06
636.018	635.66
636.466	593.16
636.914	571.56
637.362	580.86
637.81	587.56
638.258	597.86
638.705	598.76
639.153	628.16
639.601	627.86
640.049	660.86
640.497	684.76
640.944	710.76
641.392	654.36
641.84	618.36
642.287	592.06
642.735	583.46
643.182	590.56
643.63	584.06
644.078	584.86
644.525	600.46
644.973	607.66
645.42	615.56
645.867	642.16
646.315	649.46
646.762	677.46
647.21	712.56
647.657	730.76
648.104	775.76
648.551	782.46
648.999	858.26
649.446	931.76
649.893	1024.06
650.34	1176.96
650.787	1412.76
651.234	1753.36
651.682	2309.46
652.129	3156.86
652.576	4524.96
653.023	6656.76
653.47	9132.76
653.917	11405.06
654.363	13164.86
654.81	14528.36
655.257	13824.96
655.704	9101.06
656.151	5377.86
656.598	3465.36
657.044	2472.46
657.491	1909.66
657.938	1521.16
658.385	1272.96
658.831	1099.16
659.278	981.26
659.724	870.06
660.171	805.26
660.618	732.86
661.064	708.56
661.511	688.36
661.957	670.06
662.404	663.56
662.85	668.66
663.296	631.26
663.743	570.66
664.189	551.36
664.635	553.46
665.082	540.76
665.528	544.86
665.974	527.16
666.42	515.46
666.867	505.96
667.313	497.46
667.759	490.46
668.205	481.46
668.651	483.56
669.097	492.66
669.543	506.86
669.989	477.46
670.435	458.06
670.881	460.66
671.327	459.56
671.773	474.96
672.219	491.96
672.665	556.96
673.11	591.16
673.556	630.26
674.002	679.06
674.448	671.66
674.893	560.06
675.339	480.46
675.785	442.76
676.23	429.76
676.676	404.66
677.122	392.76
677.567	380.36
678.013	378.06
678.458	363.66
678.904	359.36
679.349	352.96
679.794	364.66
680.24	361.96
680.685	359.86
681.131	359.16
681.576	355.36
682.021	359.96
682.466	354.06
682.912	350.16
683.357	361.66
683.802	385.66
684.247	418.96
684.692	469.86
685.137	500.36
685.583	547.36
686.028	564.46
686.473	527.26
686.918	455.56
687.363	426.86
687.807	408.16
688.252	365.76
688.697	352.66
689.142	335.66
689.587	340.26
690.032	333.76
690.477	348.26
690.921	357.56
691.366	378.66
691.811	409.86
692.255	432.96
692.7	465.36
693.145	509.26
693.589	703.96
694.034	1120.46
694.478	1548.26
694.923	1751.66
695.367	2284.86
695.812	1202.76
696.256	502.06
696.701	375.96
697.145	351.26
697.59	338.46
698.034	324.06
698.478	334.36
698.922	330.96
699.367	336.76
699.811	350.36
700.255	360.26
700.699	392.56
701.143	435.96
701.588	479.46
702.032	513.46
702.476	521.06
702.92	500.56
703.364	502.56
703.808	637.96
704.252	1038.66
704.696	1471.46
705.14	1697.36
705.584	2147.56
706.027	1066.26
706.471	534.06
706.915	408.66
707.359	361.66
707.803	324.76
708.246	311.76
708.69	313.76
709.134	318.46
709.577	314.76
710.021	322.36
710.465	313.76
710.908	310.36
711.352	306.66
711.795	318.86
712.239	355.46
712.682	386.16
713.126	422.36
713.569	465.16
714.012	377.76
714.456	323.26
714.899	304.66
715.342	277.76
715.786	268.36
716.229	259.76
716.672	259.66
717.115	255.36
717.558	261.06
718.002	258.76
718.445	263.66
718.888	297.96
719.331	298.36
719.774	310.76
720.217	308.66
720.66	282.56
721.103	271.56
721.546	253.76
721.989	253.66
722.432	244.26
722.874	241.86
723.317	239.76
723.76	240.56
724.203	257.56
724.645	324.56
725.088	441.66
725.531	582.56
725.974	656.16
726.416	552.26
726.859	309.06
727.301	246.76
727.744	238.76
728.187	235.16
728.629	242.86
729.071	249.76
729.514	260.56
729.956	275.76
730.399	287.16
730.841	293.26
731.283	275.36
731.726	273.76
732.168	264.66
732.61	269.66
733.053	289.76
733.495	318.56
733.937	348.56
734.379	400.56
734.821	441.66
735.263	537.26
735.705	831.86
736.148	1574.36
736.59	2586.86
737.032	3082.76
737.474	2501.46
737.916	808.96
738.357	439.36
738.799	337.86
739.241	299.36
739.683	284.76
740.125	294.56
740.567	300.86
741.008	322.26
741.45	315.86
741.892	320.86
742.334	350.66
742.775	363.56
743.217	345.56
743.658	272.56
744.1	256.36
744.542	259.66
744.983	313.76
745.425	348.86
745.866	348.96
746.307	282.36
746.749	283.46
747.19	331.16
747.632	444.36
748.073	878.96
748.514	1866.66
748.956	2860.96
749.397	3572.26
749.838	2981.36
750.279	2989.96
750.72	1501.16
751.162	544.66
751.603	332.76
752.044	257.86
752.485	223.36
752.926	215.06
753.367	211.26
753.808	200.76
754.249	188.36
754.69	192.96
755.131	185.56
755.572	187.36
756.013	184.96
756.453	182.66
756.894	193.06
757.335	191.26
757.776	197.06
758.216	199.16
758.657	195.86
759.098	206.16
759.538	226.96
759.979	268.66
760.42	372.76
760.86	703.66
761.301	1816.46
761.741	4445.86
762.182	6455.66
762.622	4548.36
763.063	1314.16
763.503	547.76
763.943	352.96
764.384	339.26
764.824	392.26
765.264	418.36
765.705	298.36
766.145	210.06
766.585	184.66
767.025	183.46
767.465	188.86
767.906	232.46
768.346	306.86
768.786	330.36
769.226	258.26
769.666	320.36
770.106	624.86
770.546	1543.76
770.986	2661.06
771.426	2383.26
771.866	794.46
772.306	335.66
772.745	215.46
773.185	176.76
773.625	170.46
774.065	170.86
774.505	194.16
774.944	305.16
775.384	663.16
775.824	1184.76
776.263	1158.26
776.703	497.76
777.142	218.76
777.582	153.46
778.021	140.26
778.461	150.56
778.9	142.46
779.34	137.76
779.779	117.46
780.219	114.96
780.658	110.06
781.097	107.86
781.537	117.16
781.976	112.06
782.415	112.36
782.855	109.86
783.294	116.16
783.733	110.96
784.172	109.56
784.611	104.96
785.05	108.56
785.489	115.56
785.928	118.56
786.367	118.56
786.806	122.06
787.245	128.16
787.684	136.66
788.123	145.86
788.562	131.16
789.001	126.66
789.44	127.96
789.879	115.96
790.317	116.46
790.756	131.16
791.195	124.56
791.634	148.66
792.072	206.96
792.511	366.86
792.95	1002.86
793.388	2143.86
793.827	1944.36
794.265	677.96
794.704	283.36
795.142	185.06
795.581	149.26
796.019	140.36
796.458	131.16
796.896	123.46
797.334	137.86
797.773	153.16
798.211	222.06
798.649	439.46
799.087	1018.26
799.526	1586.66
799.964	2009.66
800.402	2028.06
800.84	749.66
801.278	301.46
801.716	188.06
802.154	154.36
802.592	148.56
803.03	140.16
803.468	135.16
803.906	145.86
804.344	154.16
804.782	138.56
805.22	135.76
805.658	128.86
806.096	153.46
806.533	155.36
806.971	180.36
807.409	215.36
807.847	315.66
808.284	661.86
808.722	1855.16
809.16	3300.06
809.597	3108.66
810.035	5433.46
810.472	5799.66
810.91	2092.36
811.347	793.86
811.785	402.66
812.222	255.76
812.66	198.86
813.097	171.26
813.535	144.66
813.972	129.06
814.409	121.36
814.846	106.36
815.284	109.86
815.721	109.26
816.158	108.96
816.595	120.26
817.032	175.56
817.47	198.86
817.907	170.86
818.344	149.96
818.781	113.16
819.218	101.56
819.655	121.16
820.092	188.76
820.529	214.86
820.966	173.56
821.403	140.76
821.839	104.86
822.276	101.46
822.713	124.06
823.15	132.76
823.587	118.56
824.023	143.96
824.46	298.96
824.897	901.46
825.333	1379.76
825.77	583.16
826.206	232.76
826.643	135.16
827.08	107.26
827.516	83.86
827.953	78.76
828.389	84.16
828.825	75.06
829.262	74.06
829.698	68.36
830.135	62.06
830.571	61.66
831.007	65.46
831.443	65.86
831.88	61.46
832.316	64.56
832.752	66.06
833.188	59.76
833.624	60.06
834.06	67.46
834.497	71.26
834.933	71.66
835.369	75.96
835.805	73.06
836.241	77.66
836.677	82.36
837.112	87.36
837.548	105.46
837.984	136.36
838.42	204.06
838.856	488.86
839.292	1508.96
839.727	2309.06
840.163	1075.46
840.599	923.26
841.034	2036.36
841.47	2132.96
841.906	780.16
842.341	336.16
842.777	223.16
843.212	314.66
843.648	301.76
844.083	144.16
844.519	100.76
844.954	76.96
845.39	65.06
845.825	61.76
846.261	60.86
846.696	54.26
847.131	53.66
847.566	47.76
848.002	54.96
848.437	56.56
848.872	64.86
849.307	58.66
849.742	84.56
850.177	181.96
850.613	550.66
851.048	883.86
851.483	377.16
851.918	152.06
852.353	79.66
852.788	64.76
853.223	54.56
853.657	50.96
854.092	49.26
854.527	42.66
854.962	40.46
855.397	50.96
855.832	50.46
856.266	46.36
856.701	42.86
857.136	40.96
857.57	34.76
858.005	48.36
858.44	54.96
858.874	46.66
859.309	54.36
859.743	40.66
860.178	46.56
860.612	39.06
861.047	54.06
861.481	67.66
861.915	67.96
862.35	49.96
862.784	32.86
863.218	40.46
863.653	35.76
864.087	34.96
864.521	49.06
864.955	76.16
865.39	154.96
865.824	179.56
866.258	112.66
866.692	159.76
867.126	179.06
867.56	110.76
867.994	55.96
868.428	43.36
868.862	46.56
869.296	57.36
869.73	60.06
870.164	58.96
870.598	48.56
871.031	35.56
871.465	40.96
871.899	28.96
872.333	19.66
872.766	28.06
873.2	24.16
873.634	30.86
874.067	33.06
874.501	26.76
874.935	34.46
875.368	30.86
875.802	24.66
876.235	28.46
876.669	25.16
877.102	22.86
877.535	26.66
877.969	22.56
878.402	27.66
878.836	24.06
879.269	25.76
879.702	28.76
880.135	21.56
880.569	22.46
881.002	28.86
881.435	24.46
881.868	11.56
882.301	22.86
882.734	16.16
883.167	22.66
883.601	22.86
884.034	25.46
884.467	15.16
884.899	18.46
885.332	23.26
885.765	14.06
886.198	19.86
886.631	19.46
887.064	22.56
887.497	18.66
887.929	18.06
888.362	13.86
888.795	8.66
889.228	18.66
889.66	21.96
890.093	20.26
890.526	14.56
890.958	14.46
891.391	19.56
891.823	22.86
892.256	15.66
892.688	11.36
893.121	12.86
893.553	22.16
893.985	20.46
894.418	19.26
894.85	8.36
895.282	16.16
895.715	21.26
896.147	20.86
896.579	15.66
897.011	14.36
897.444	17.56
897.876	15.06
898.308	16.46
898.74	14.66
899.172	18.36
899.604	15.06
900.036	22.66
900.468	14.46
900.9	20.36
901.332	17.86
901.764	13.66
902.196	20.36
902.628	19.66
903.06	20.86
903.491	32.96
903.923	20.56
904.355	19.96
904.787	23.46
905.218	24.96
905.65	21.36
906.082	11.36
906.513	11.56
906.945	20.96
907.376	18.36
907.808	19.66
908.239	19.16
908.671	20.06
909.102	22.06
909.534	28.46
909.965	48.16
910.397	102.76
910.828	317.36
911.259	479.26
911.691	220.46
912.122	107.36
912.553	50.06
912.984	32.26
913.415	31.46
913.847	29.46
914.278	14.36
914.709	15.36
915.14	17.96
915.571	14.96
916.002	18.46
916.433	17.46
916.864	19.26
917.295	19.36
917.726	28.16
918.157	13.76
918.587	32.26
919.018	16.16
919.449	24.16
919.88	22.66
920.311	31.66
920.741	56.56
921.172	165.66
921.603	151.16
922.033	74.76
922.464	48.96
922.895	28.46
923.325	23.46
923.756	16.16
924.186	19.06
924.617	21.06
925.047	43.36
925.478	52.26
925.908	43.56
926.338	24.76
926.769	19.96
927.199	24.86
927.629	12.06
928.06	18.46
928.49	18.56
928.92	15.26
929.35	9.16
929.78	12.96
930.21	10.56
930.641	10.06
931.071	11.36
931.501	-2.14
931.931	7.06
932.361	6.16
932.791	4.86
933.221	6.56
933.651	4.26
934.08	18.96
934.51	31.46
934.94	10.66
935.37	4.06
935.8	9.16
936.229	6.26
936.659	5.86
937.089	3.46
937.519	16.56
937.948	19.36
938.378	17.76
938.807	9.36
939.237	2.96
939.666	5.86
940.096	-4.64
940.525	6.46
940.955	2.56
941.384	4.26
941.814	-1.24
942.243	1.06
942.672	-1.34
943.102	0.56
943.531	4.76
943.96	6.86
944.39	2.16
944.819	-4.04
945.248	-0.64
945.677	0.06
946.106	7.66
946.535	4.26
946.964	0.56
947.393	5.86
947.822	-0.34
948.251	-6.84
948.68	5.46
949.109	5.76
949.538	7.06
949.967	-2.84
950.396	3.66
950.825	1.66
951.254	1.86
951.682	-0.94
952.111	5.86
952.54	5.06
952.969	-3.44
953.397	-5.14
953.826	3.06
954.254	1.06
954.683	-2.14
955.112	1.76
955.54	2.06
955.969	2.26
956.397	-1.04
956.826	-2.04
957.254	6.46
957.682	6.56
958.111	8.36
958.539	0.86
958.967	4.66
959.396	-4.54
959.824	1.66
960.252	-0.94
960.68	-8.34
961.109	0.86
961.537	-2.54
961.965	-3.34
962.393	5.06
962.821	-2.64
963.249	7.86
963.677	4.46
964.105	7.96
964.533	50.26
964.961	36.76
965.389	19.46
965.817	7.46
966.245	2.36
966.672	4.36
967.1	-8.04
967.528	3.76
967.956	-0.04
968.383	0.96
968.811	-1.84
969.239	0.66
969.666	-6.54
970.094	2.66
970.522	5.06
970.949	-0.04
971.377	-8.44
971.804	-3.04
972.232	-4.54
972.659	3.26
973.087	-1.74
973.514	-0.34
973.941	-2.24
974.369	2.86
974.796	-0.24
975.223	-0.14
975.651	-4.14
976.078	2.86
976.505	-1.84
976.932	2.86
977.359	14.96
977.786	15.96
978.214	0.36
978.641	-8.54
979.068	-0.74
979.495	1.16
979.922	-0.24
980.349	-2.74
980.776	-0.54
981.202	-0.54
981.629	4.86
982.056	5.06
982.483	-1.94
982.91	0.66
983.337	-3.64
983.763	5.36
984.19	-2.54
984.617	1.46
985.043	-9.04
985.47	-4.34
985.897	-7.64
986.323	-0.84
986.75	3.36
987.176	-4.54
987.603	0.16
988.029	-3.04
988.456	-5.14
988.882	2.76
989.308	-6.34
989.735	-6.34
990.161	-1.74
990.587	-3.74
991.014	-5.04
991.44	4.46
991.866	-4.74
992.292	-6.04
992.719	-2.74
993.145	2.06
993.571	-6.34
993.997	-3.84
994.423	1.86
994.849	0.26
995.275	-4.44
995.701	1.76
996.127	-4.74
996.553	0.86
996.979	-3.44
997.405	-3.34
997.83	-3.34
998.256	-7.34
998.682	-1.84
999.108	-5.64
999.534	-2.64
999.959	-5.54
1000.385	3.66
1000.811	1.26
1001.236	-5.04
1001.662	-8.64
1002.087	-8.14
1002.513	5.76
1002.938	1.76
1003.364	-4.64
1003.789	-2.54
1004.215	-0.14
1004.64	-4.74
1005.066	2.76
1005.491	-1.34
1005.916	-3.44
1006.342	-3.24
1006.767	-4.64
1007.192	5.06
1007.617	-2.84
1008.042	-2.44
1008.468	-1.04
1008.893	-5.24
1009.318	2.06
1009.743	-2.54
1010.168	0.46
1010.593	0.16
1011.018	-5.34
1011.443	1.36
1011.868	8.26
1012.293	0.26
1012.718	-1.04
1013.143	1.76
1013.567	-5.04
1013.992	-3.54
1014.417	-9.04
1014.842	-0.54
1015.267	-6.64
1015.691	-2.34
1016.116	2.56
1016.541	0.06
1016.965	1.76
1017.39	2.76
1017.814	0.86
1018.239	-3.44
1018.663	-6.34
1019.088	-4.84
1019.512	2.56
1019.937	-0.54
1020.361	-4.04
1020.785	-7.74
1021.21	-5.94
1021.634	4.76
1022.058	-0.94
1022.483	2.16
1022.907	-2.74
1023.331	-2.94
1023.755	-7.14
1024.179	-2.44
1024.604	-6.04
1025.028	-8.54
1025.452	-6.04
1025.876	-1.04
1026.3	-1.94
1026.724	-5.74
1027.148	-4.14
1027.572	-7.34
1027.996	-4.74
1028.42	-3.54
1028.843	-6.14
1029.267	3.36
1029.691	-3.44
1030.115	-4.84
1030.539	-6.84
1030.962	-4.04
1031.386	-5.74
1031.81	0.86
1032.233	-1.14
1032.657	-7.04
1033.08	-0.34
1033.504	0.36
1033.927	-0.04
1034.351	1.56
1034.774	-2.84
1035.198	1.26
1035.621	-5.14
1036.045	-3.14
1036.468	3.46
1036.891	-11.14
1037.315	-12.54
1037.738	-10.24
1038.161	-3.14
1038.584	-7.84
1039.008	-8.04
1039.431	1.56
1039.854	-1.94
1040.277	-6.84
1040.7	-9.74
1041.123	-1.84
1041.546	-9.74
1041.969	-0.24
1042.392	-9.14
1042.815	1.76
1043.238	1.76
1043.661	4.86
1044.084	-8.14
1044.507	-1.44
1044.93	-8.44
1045.352	-3.14
1045.775	0.96
1046.198	-9.44
1046.621	-6.24
1047.043	0.96
1047.466	9.66
1047.889	-7.84
1048.311	-1.04
1048.734	-3.44
1049.156	-2.74
1049.579	-1.14
1050.001	-4.94
1050.424	-1.34
1050.846	-1.04
1051.269	-1.24
1051.691	-3.54
1052.113	-11.54
1052.536	-6.14
1052.958	3.56
1053.38	-3.14
1053.802	-4.04
1054.225	6.36
1054.647	-7.74
1055.069	-2.64
1055.491	1.56
1055.913	-10.44
1056.335	-5.54
1056.757	-2.54
1057.179	-7.54
1057.601	-1.14
1058.023	-4.94
1058.445	-1.14
1058.867	-5.44
1059.289	1.56
1059.711	-5.54
1060.133	-1.14
1060.555	-7.44
1060.976	-1.34
1061.398	-5.84
1061.82	-8.64
1062.241	-6.04
1062.663	-7.44
1063.085	-3.54
1063.506	-4.04
1063.928	-9.14
1064.35	1.06
1064.771	-13.64
1065.193	-4.64
1065.614	-6.74
1066.035	-3.84
1066.457	-5.84
1066.878	4.06
1067.3	-5.04
1067.721	-5.04
1068.142	-6.04
1068.564	-6.74
1068.985	-3.04
1069.406	-5.84
1069.827	-9.44
1070.248	-0.84
1070.67	-9.04
1071.091	-3.84
1071.512	-3.04
1071.933	-4.84
1072.354	-6.44
1072.775	-6.84
1073.196	-10.14
1073.617	-2.54
1074.038	-11.24
1074.459	-7.04
1074.88	-3.64
1075.3	5.36
1075.721	-6.64
1076.142	8.46
1076.563	0.76
1076.983	-6.24
1077.404	-7.74
1077.825	-10.14
1078.246	-3.14
1078.666	-9.44
1079.087	-0.04
1079.507	-4.54
1079.928	6.36
1080.348	-1.24
1080.769	-6.14
1081.189	0.26
1081.61	-2.34
1082.03	-6.14
1082.451	-3.24
1082.871	-6.24
1083.291	-11.04
1083.711	-3.64
1084.132	-2.14
1084.552	-2.44
1084.972	-2.64
1085.392	-9.74
1085.813	-8.04
1086.233	-6.04
1086.653	-2.94
1087.073	1.66
1087.493	-8.64
1087.913	-3.24
1088.333	-3.74
1088.753	-4.44
1089.173	1.36
1089.593	-6.94
1090.013	4.96
1090.433	3.56
1090.852	-5.84
1091.272	-5.34
1091.692	-2.34
1092.112	2.86
1092.531	-9.34
1092.951	-6.94
1093.371	-4.64
1093.79	3.76
1094.21	-3.34
1094.63	-4.84
1095.049	-4.94
1095.469	-1.14
1095.888	5.76
1096.308	1.06
1096.727	-0.34
1097.146	-6.44
1097.566	3.26
1097.985	-7.24
1098.405	-2.04
1098.824	-1.84
1099.243	-3.24
1099.662	-3.64
1100.082	-1.84
1100.501	2.76
1100.92	-8.24
1101.339	-2.94
1101.758	-0.34
