Data from 20171114-ORNL-Ar_H_NY_Subt18_08-04-07-795.txt Node
Date: Tue Nov 14 08:04:07 EST 2017
User: Ender
Spectrometer: HR+D1039
Trigger mode: 0
Integration Time (sec): 2.730000E-2
Scans to average: 10
Electric dark correction enabled: true
Nonlinearity correction enabled: false
Boxcar width: 0
XAxis mode: Wavelengths
Number of Pixels in Spectrum: 2048
>>>>>Begin Spectral Data<<<<<
187.836	-1.93
188.309	-1.93
188.782	-1.93
189.255	2.67
189.728	-2.03
190.201	2.97
190.674	-3.23
191.147	-1.83
191.619	-5.03
192.092	1.07
192.565	7.27
193.038	1.97
193.511	-0.13
193.984	0.67
194.456	-2.63
194.929	2.27
195.402	-2.13
195.874	-0.03
196.347	-5.43
196.82	-1.83
197.292	3.57
197.765	2.27
198.237	-5.53
198.71	3.57
199.182	-4.13
199.655	0.77
200.127	7.57
200.6	0.07
201.072	2.87
201.544	-9.03
202.017	-1.03
202.489	4.37
202.961	-4.33
203.433	-0.83
203.906	-4.73
204.378	-6.03
204.85	-4.43
205.322	-7.23
205.794	-1.33
206.266	-6.33
206.739	-7.53
207.211	6.07
207.683	-8.23
208.155	-1.43
208.627	-8.43
209.099	-10.23
209.57	-5.53
210.042	-7.33
210.514	-4.73
210.986	1.37
211.458	-8.33
211.93	-6.93
212.402	-1.93
212.873	-6.23
213.345	-2.43
213.817	-10.23
214.288	-5.83
214.76	-8.43
215.232	-2.43
215.703	-0.23
216.175	2.97
216.646	-6.23
217.118	-5.23
217.589	-6.62
218.061	-6.33
218.532	2.38
219.004	3.97
219.475	-3.83
219.946	4.37
220.418	-5.93
220.889	1.87
221.36	3.67
221.832	-7.13
222.303	-11.43
222.774	3.97
223.245	-10.23
223.717	-6.93
224.188	-1.53
224.659	-2.33
225.13	-5.43
225.601	-2.93
226.072	1.57
226.543	-0.23
227.014	1.77
227.485	1.47
227.956	-4.83
228.427	-2.43
228.898	3.77
229.369	6.47
229.839	-2.63
230.31	-8.63
230.781	6.47
231.252	-5.03
231.722	-5.13
232.193	-4.03
232.664	-3.03
233.135	0.27
233.605	0.67
234.076	-2.03
234.546	4.87
235.017	5.77
235.487	5.67
235.958	3.47
236.428	-1.83
236.899	7.57
237.369	4.47
237.84	2.87
238.31	6.97
238.78	4.77
239.251	-8.73
239.721	-3.43
240.191	1.77
240.662	-0.53
241.132	-0.53
241.602	-2.43
242.072	6.97
242.542	8.47
243.013	3.67
243.483	4.97
243.953	6.97
244.423	-8.23
244.893	-4.73
245.363	7.57
245.833	3.27
246.303	2.77
246.773	10.37
247.243	1.77
247.712	3.67
248.182	3.67
248.652	7.07
249.122	-5.53
249.592	9.37
250.061	18.17
250.531	25.97
251.001	7.77
251.471	17.17
251.94	16.47
252.41	8.88
252.879	1.87
253.349	17.07
253.818	8.27
254.288	-0.73
254.757	3.67
255.227	-6.03
255.696	4.77
256.166	2.07
256.635	8.97
257.105	1.88
257.574	2.47
258.043	13.27
258.513	5.97
258.982	14.17
259.451	4.07
259.92	12.97
260.389	10.27
260.859	11.27
261.328	4.77
261.797	15.27
262.266	6.87
262.735	10.38
263.204	8.67
263.673	-2.63
264.142	8.07
264.611	-1.63
265.08	1.67
265.549	-0.23
266.018	5.67
266.487	3.97
266.955	-4.03
267.424	1.57
267.893	1.27
268.362	-0.62
268.83	1.17
269.299	8.47
269.768	6.27
270.236	9.77
270.705	-1.33
271.174	3.88
271.642	5.57
272.111	0.37
272.579	11.17
273.048	15.77
273.516	17.37
273.985	19.27
274.453	17.57
274.922	16.37
275.39	9.87
275.858	5.47
276.327	3.77
276.795	17.67
277.263	3.57
277.731	19.77
278.2	34.37
278.668	43.07
279.136	31.07
279.604	13.67
280.072	14.37
280.54	5.77
281.008	6.67
281.477	12.27
281.945	11.87
282.413	12.07
282.881	12.87
283.348	5.17
283.816	12.27
284.284	12.67
284.752	14.57
285.22	5.57
285.688	11.47
286.156	16.67
286.623	32.87
287.091	39.87
287.559	18.17
288.026	11.67
288.494	7.87
288.962	0.97
289.429	4.77
289.897	16.17
290.364	11.67
290.832	8.97
291.3	8.97
291.767	14.17
292.234	16.17
292.702	7.87
293.169	11.17
293.637	23.27
294.104	11.47
294.571	10.07
295.039	7.57
295.506	9.67
295.973	10.57
296.44	15.87
296.908	12.67
297.375	14.37
297.842	13.47
298.309	9.97
298.776	6.17
299.243	13.97
299.71	10.67
300.177	17.47
300.644	20.07
301.111	17.67
301.578	20.77
302.045	14.37
302.512	8.37
302.979	24.57
303.446	21.07
303.913	13.88
304.379	8.87
304.846	24.88
305.313	19.77
305.78	15.77
306.246	15.47
306.713	23.97
307.18	20.97
307.646	20.47
308.113	16.37
308.579	20.67
309.046	14.17
309.512	22.47
309.979	14.47
310.445	20.17
310.912	26.07
311.378	22.47
311.845	20.17
312.311	26.37
312.777	22.27
313.244	24.67
313.71	26.97
314.176	20.67
314.642	20.27
315.109	24.07
315.575	30.67
316.041	30.97
316.507	24.37
316.973	31.87
317.439	19.97
317.905	27.07
318.371	25.17
318.837	25.67
319.303	27.67
319.769	25.47
320.235	23.57
320.701	31.67
321.167	31.47
321.633	24.47
322.099	30.07
322.564	46.07
323.03	32.17
323.496	25.87
323.962	32.77
324.427	26.17
324.893	36.67
325.359	29.37
325.824	37.77
326.29	30.57
326.755	30.97
327.221	31.07
327.686	32.97
328.152	40.88
328.617	30.17
329.083	36.27
329.548	42.17
330.014	38.57
330.479	34.97
330.944	38.17
331.41	33.27
331.875	40.27
332.34	33.47
332.805	35.07
333.271	37.47
333.736	37.27
334.201	47.17
334.666	40.07
335.131	45.47
335.596	40.17
336.061	34.27
336.526	32.77
336.991	39.97
337.456	49.17
337.921	39.67
338.386	35.37
338.851	35.17
339.316	33.87
339.781	35.67
340.246	49.67
340.711	36.77
341.175	40.07
341.64	34.37
342.105	35.87
342.569	45.97
343.034	52.07
343.499	47.97
343.963	38.38
344.428	57.38
344.893	45.37
345.357	47.47
345.822	50.07
346.286	45.47
346.751	58.88
347.215	54.87
347.679	50.97
348.144	75.37
348.608	65.47
349.073	51.87
349.537	61.47
350.001	65.07
350.465	69.97
350.93	63.97
351.394	66.87
351.858	55.07
352.322	69.57
352.786	64.47
353.25	77.97
353.715	86.47
354.179	78.67
354.643	92.88
355.107	103.47
355.571	80.97
356.035	87.07
356.498	97.17
356.962	95.77
357.426	102.37
357.89	90.57
358.354	71.17
358.818	65.87
359.281	64.47
359.745	63.97
360.209	65.17
360.673	64.97
361.136	66.67
361.6	68.97
362.064	67.57
362.527	69.37
362.991	74.07
363.454	68.87
363.918	66.17
364.381	65.97
364.845	67.77
365.308	71.57
365.772	75.07
366.235	73.47
366.698	70.77
367.162	70.07
367.625	74.97
368.088	68.47
368.552	76.47
369.015	72.57
369.478	79.47
369.941	83.07
370.404	74.17
370.867	84.77
371.331	88.17
371.794	97.47
372.257	92.37
372.72	101.87
373.183	90.67
373.646	87.57
374.109	89.47
374.572	93.17
375.035	90.47
375.497	95.67
375.96	84.57
376.423	83.87
376.886	98.67
377.349	90.97
377.811	86.07
378.274	86.77
378.737	89.07
379.199	89.27
379.662	92.97
380.125	103.77
380.587	95.37
381.05	105.57
381.512	105.77
381.975	114.97
382.437	112.87
382.9	109.67
383.362	111.07
383.825	119.57
384.287	119.17
384.75	115.37
385.212	122.57
385.674	114.07
386.136	118.57
386.599	106.87
387.061	112.38
387.523	110.97
387.985	112.07
388.447	118.17
388.91	127.57
389.372	131.57
389.834	129.27
390.296	128.87
390.758	133.97
391.22	146.37
391.682	180.17
392.144	247.27
392.606	198.87
393.068	147.07
393.529	138.57
393.991	130.57
394.453	130.17
394.915	137.87
395.377	164.77
395.838	183.37
396.3	131.07
396.762	120.77
397.224	111.27
397.685	113.07
398.147	115.67
398.608	114.17
399.07	109.87
399.531	111.87
399.993	126.17
400.454	131.67
400.916	132.17
401.377	123.07
401.839	130.67
402.3	136.97
402.762	148.37
403.223	157.27
403.684	156.27
404.145	142.17
404.607	139.17
405.068	133.97
405.529	147.87
405.99	161.97
406.451	146.57
406.913	153.47
407.374	140.87
407.835	139.97
408.296	144.57
408.757	153.67
409.218	159.27
409.679	153.27
410.14	158.47
410.601	157.17
411.062	162.87
411.522	164.97
411.983	169.47
412.444	148.17
412.905	162.27
413.366	152.97
413.826	169.47
414.287	187.97
414.748	233.37
415.208	220.67
415.669	193.17
416.13	183.27
416.59	177.57
417.051	189.27
417.511	188.97
417.972	210.27
418.432	215.17
418.893	258.77
419.353	219.77
419.814	177.17
420.274	154.17
420.734	158.87
421.195	175.47
421.655	164.47
422.115	169.37
422.576	165.97
423.036	167.77
423.496	182.37
423.956	187.67
424.416	207.37
424.876	231.97
425.336	230.47
425.797	226.47
426.257	223.38
426.717	207.97
427.177	203.57
427.637	199.07
428.097	204.67
428.556	213.77
429.016	239.97
429.476	226.47
429.936	244.08
430.396	240.77
430.856	254.97
431.315	271.37
431.775	298.47
432.235	331.67
432.694	307.38
433.154	305.37
433.614	327.47
434.073	278.17
434.533	248.97
434.993	233.17
435.452	246.27
435.912	251.17
436.371	246.67
436.83	239.67
437.29	233.07
437.749	210.87
438.209	208.87
438.668	229.77
439.127	249.27
439.587	223.58
440.046	211.37
440.505	223.17
440.964	235.67
441.424	255.47
441.883	252.57
442.342	219.47
442.801	194.48
443.26	188.77
443.719	198.48
444.178	192.87
444.637	187.67
445.096	202.97
445.555	198.97
446.014	193.47
446.473	196.67
446.932	199.88
447.391	200.57
447.849	202.07
448.308	188.17
448.767	201.07
449.226	204.67
449.685	208.67
450.143	221.37
450.602	206.27
451.061	197.87
451.519	207.08
451.978	200.47
452.436	204.77
452.895	207.67
453.353	220.17
453.812	204.08
454.27	212.27
454.729	207.88
455.187	207.37
455.646	205.88
456.104	208.07
456.562	226.67
457.021	231.67
457.479	220.97
457.937	226.88
458.395	225.38
458.854	208.67
459.312	214.37
459.77	229.48
460.228	217.47
460.686	209.67
461.144	218.87
461.602	211.77
462.06	215.57
462.518	219.17
462.976	225.77
463.434	224.37
463.892	224.48
464.35	239.87
464.808	240.77
465.266	235.37
465.724	236.38
466.181	236.98
466.639	231.77
467.097	260.87
467.555	258.48
468.012	268.97
468.47	269.37
468.928	283.17
469.385	284.67
469.843	301.57
470.3	300.58
470.758	303.27
471.215	319.57
471.673	343.57
472.13	345.38
472.588	353.17
473.045	324.38
473.503	321.77
473.96	347.07
474.417	346.97
474.875	371.17
475.332	401.87
475.789	398.47
476.246	404.07
476.704	422.07
477.161	430.17
477.618	449.87
478.075	478.97
478.532	528.57
478.989	582.87
479.446	669.77
479.903	655.47
480.36	697.97
480.817	748.57
481.274	835.57
481.731	924.77
482.188	1005.77
482.645	1121.97
483.102	1231.47
483.558	1325.57
484.015	1388.68
484.472	1377.78
484.929	1332.67
485.385	1287.97
485.842	1257.88
486.299	1183.17
486.755	1108.77
487.212	951.97
487.668	808.77
488.125	746.07
488.582	678.17
489.038	656.47
489.494	618.67
489.951	594.57
490.407	577.67
490.864	567.17
491.32	562.67
491.776	556.57
492.233	553.47
492.689	522.48
493.145	518.97
493.602	518.57
494.058	534.07
494.514	527.17
494.97	544.27
495.426	551.48
495.882	533.77
496.338	524.17
496.794	533.67
497.251	534.77
497.707	542.47
498.163	551.37
498.618	560.07
499.074	553.37
499.53	574.27
499.986	577.87
500.442	558.97
500.898	543.07
501.354	542.37
501.809	547.17
502.265	548.07
502.721	561.37
503.177	575.27
503.632	574.67
504.088	576.17
504.543	609.77
504.999	603.37
505.455	552.87
505.91	541.17
506.366	546.97
506.821	541.97
507.277	542.67
507.732	541.97
508.187	535.77
508.643	544.57
509.098	540.67
509.553	562.47
510.009	562.07
510.464	572.07
510.919	587.98
511.375	597.57
511.83	608.67
512.285	621.97
512.74	650.87
513.195	674.57
513.65	659.17
514.105	655.77
514.56	657.67
515.015	667.77
515.47	693.27
515.925	675.77
516.38	680.77
516.835	685.97
517.29	674.58
517.745	672.27
518.2	650.17
518.655	642.77
519.109	633.88
519.564	629.77
520.019	614.87
520.474	620.58
520.928	618.97
521.383	614.77
521.838	600.87
522.292	604.17
522.747	595.17
523.201	590.77
523.656	591.37
524.11	587.77
524.565	592.67
525.019	590.57
525.474	592.37
525.928	597.47
526.382	588.77
526.837	592.87
527.291	586.27
527.745	590.07
528.2	595.57
528.654	580.48
529.108	583.97
529.562	587.37
530.016	582.77
530.47	579.67
530.925	577.77
531.379	591.07
531.833	596.07
532.287	588.97
532.741	590.17
533.195	598.27
533.649	597.77
534.103	597.48
534.556	596.77
535.01	602.97
535.464	581.77
535.918	598.47
536.372	595.67
536.826	604.47
537.279	591.47
537.733	598.48
538.187	595.07
538.64	604.27
539.094	613.87
539.548	604.88
540.001	599.57
540.455	600.07
540.908	609.97
541.362	620.17
541.815	626.67
542.269	632.47
542.722	637.57
543.175	648.57
543.629	640.57
544.082	656.77
544.536	657.17
544.989	654.97
545.442	665.37
545.895	663.37
546.349	652.88
546.802	659.77
547.255	660.37
547.708	668.98
548.161	678.87
548.614	690.97
549.067	688.27
549.52	683.57
549.973	677.67
550.426	676.47
550.879	667.87
551.332	668.17
551.785	669.37
552.238	664.17
552.691	677.77
553.144	680.27
553.596	701.77
554.049	704.27
554.502	733.57
554.955	750.37
555.407	749.87
555.86	737.87
556.313	736.98
556.765	715.97
557.218	721.47
557.67	729.97
558.123	718.37
558.576	718.57
559.028	714.47
559.48	720.88
559.933	707.98
560.385	682.47
560.838	661.27
561.29	648.37
561.742	648.67
562.195	626.87
562.647	633.58
563.099	638.17
563.551	637.98
564.004	648.97
564.456	632.77
564.908	617.37
565.36	603.47
565.812	609.97
566.264	589.17
566.716	590.38
567.168	582.47
567.62	584.47
568.072	565.27
568.524	565.27
568.976	559.77
569.428	544.57
569.88	546.37
570.332	550.77
570.784	553.57
571.235	553.57
571.687	555.87
572.139	569.07
572.59	579.27
573.042	572.17
573.494	568.27
573.945	564.37
574.397	554.57
574.849	554.17
575.3	565.17
575.752	548.57
576.203	542.57
576.655	552.27
577.106	538.98
577.557	531.97
578.009	533.17
578.46	531.27
578.912	535.07
579.363	539.98
579.814	532.97
580.265	533.88
580.717	531.47
581.168	531.87
581.619	547.97
582.07	538.88
582.521	536.57
582.972	541.67
583.423	547.07
583.875	534.77
584.326	549.07
584.777	602.57
585.227	658.07
585.678	731.47
586.129	805.17
586.58	863.97
587.031	942.37
587.482	1098.47
587.933	1233.27
588.384	1068.27
588.834	787.17
589.285	650.17
589.736	633.27
590.186	621.57
590.637	616.97
591.088	598.17
591.538	591.57
591.989	581.27
592.439	581.47
592.89	578.57
593.34	557.67
593.791	553.47
594.241	552.17
594.692	558.57
595.142	549.67
595.593	544.48
596.043	558.17
596.493	564.98
596.943	565.97
597.394	559.87
597.844	559.07
598.294	575.47
598.744	593.37
599.195	616.17
599.645	638.77
600.095	656.47
600.545	715.27
600.995	756.88
601.445	798.17
601.895	846.27
602.345	892.37
602.795	874.87
603.245	846.57
603.695	797.88
604.145	753.77
604.594	719.97
605.044	676.07
605.494	629.77
605.944	587.37
606.393	579.17
606.843	568.07
607.293	573.27
607.743	568.27
608.192	575.07
608.642	585.17
609.091	600.08
609.541	599.47
609.99	592.17
610.44	590.38
610.889	561.17
611.339	545.27
611.788	524.47
612.238	542.07
612.687	567.37
613.136	571.07
613.586	576.77
614.035	570.77
614.484	589.57
614.933	586.37
615.383	579.27
615.832	568.27
616.281	553.27
616.73	527.07
617.179	514.38
617.628	511.57
618.077	491.07
618.526	478.97
618.975	471.97
619.424	479.67
619.873	471.88
620.322	470.97
620.771	465.27
621.22	471.47
621.669	465.38
622.118	452.88
622.567	450.58
623.015	440.97
623.464	431.57
623.913	431.07
624.361	425.57
624.81	431.57
625.259	427.97
625.707	434.67
626.156	431.57
626.604	426.57
627.053	431.87
627.501	441.57
627.95	441.58
628.398	445.47
628.847	442.77
629.295	435.27
629.744	446.97
630.192	435.38
630.64	440.17
631.089	426.57
631.537	444.77
631.985	443.37
632.433	453.87
632.881	458.77
633.33	497.27
633.778	478.97
634.226	423.47
634.674	427.08
635.122	444.17
635.57	447.97
636.018	467.87
636.466	442.87
636.914	423.87
637.362	438.27
637.81	440.67
638.258	438.88
638.705	438.97
639.153	459.27
639.601	473.27
640.049	482.67
640.497	514.27
640.944	530.27
641.392	485.17
641.84	472.27
642.287	446.98
642.735	440.27
643.182	444.47
643.63	434.47
644.078	433.77
644.525	444.07
644.973	448.77
645.42	458.77
645.867	468.77
646.315	485.17
646.762	499.47
647.21	517.88
647.657	529.77
648.104	566.27
648.551	590.07
648.999	630.67
649.446	688.87
649.893	753.38
650.34	857.88
650.787	1033.28
651.234	1281.38
651.682	1657.88
652.129	2276.27
652.576	3236.68
653.023	4831.77
653.47	6709.77
653.917	8486.07
654.363	9971.58
654.81	11298.88
655.257	10769.58
655.704	6963.98
656.151	4074.27
656.598	2631.57
657.044	1852.37
657.491	1426.97
657.938	1130.88
658.385	947.38
658.831	823.58
659.278	729.87
659.724	639.57
660.171	598.07
660.618	540.37
661.064	521.88
661.511	490.77
661.957	478.88
662.404	474.07
662.85	489.77
663.296	461.07
663.743	419.27
664.189	411.07
664.635	406.27
665.082	400.47
665.528	394.17
665.974	380.27
666.42	387.17
666.867	382.17
667.313	350.77
667.759	364.47
668.205	353.27
668.651	362.58
669.097	367.57
669.543	379.47
669.989	359.07
670.435	340.17
670.881	329.27
671.327	339.07
671.773	354.87
672.219	356.07
672.665	403.07
673.11	432.87
673.556	469.77
674.002	501.77
674.448	493.07
674.893	409.37
675.339	350.47
675.785	331.27
676.23	315.07
676.676	290.87
677.122	282.77
677.567	276.17
678.013	276.07
678.458	264.17
678.904	263.88
679.349	254.98
679.794	261.87
680.24	255.77
680.685	258.87
681.131	256.37
681.576	256.97
682.021	266.57
682.466	258.97
682.912	260.47
683.357	255.27
683.802	280.97
684.247	304.67
684.692	333.57
685.137	363.47
685.583	404.67
686.028	421.97
686.473	388.07
686.918	330.67
687.363	310.57
687.807	294.27
688.252	270.57
688.697	260.07
689.142	249.07
689.587	248.17
690.032	230.77
690.477	254.47
690.921	259.47
691.366	281.27
691.811	291.57
692.255	318.98
692.7	343.77
693.145	370.58
693.589	492.38
694.034	807.27
694.478	1124.67
694.923	1311.68
695.367	1745.28
695.812	917.57
696.256	374.77
696.701	276.88
697.145	258.98
697.59	242.87
698.034	238.67
698.478	251.08
698.922	243.17
699.367	246.57
699.811	245.37
700.255	269.47
700.699	287.48
701.143	317.88
701.588	350.07
702.032	383.87
702.476	380.17
702.92	359.47
703.364	353.77
703.808	459.87
704.252	726.77
704.696	1063.47
705.14	1263.07
705.584	1649.18
706.027	801.97
706.471	391.77
706.915	294.17
707.359	259.17
707.803	234.47
708.246	229.38
708.69	236.57
709.134	234.87
709.577	229.07
710.021	231.88
710.465	231.97
710.908	221.87
711.352	220.37
711.795	231.07
712.239	256.07
712.682	279.67
713.126	308.97
713.569	351.17
714.012	270.17
714.456	241.08
714.899	225.17
715.342	202.27
715.786	189.67
716.229	188.97
716.672	189.47
717.115	185.17
717.558	179.88
718.002	185.37
718.445	195.77
718.888	212.77
719.331	209.27
719.774	222.57
720.217	227.57
720.66	203.97
721.103	192.47
721.546	186.67
721.989	190.87
722.432	165.97
722.874	174.37
723.317	165.77
723.76	176.27
724.203	188.87
724.645	218.87
725.088	315.67
725.531	416.97
725.974	486.87
726.416	422.37
726.859	225.57
727.301	184.97
727.744	179.07
728.187	172.67
728.629	173.27
729.071	177.17
729.514	192.57
729.956	198.17
730.399	208.87
730.841	211.97
731.283	200.88
731.726	196.88
732.168	190.97
732.61	197.67
733.053	210.27
733.495	227.88
733.937	251.77
734.379	288.47
734.821	316.07
735.263	391.77
735.705	596.87
736.148	1132.57
736.59	1889.37
737.032	2349.18
737.474	1905.37
737.916	600.37
738.357	318.37
738.799	244.57
739.241	224.37
739.683	204.87
740.125	215.87
740.567	222.37
741.008	239.67
741.45	233.98
741.892	229.98
742.334	260.77
742.775	265.97
743.217	251.87
743.658	202.67
744.1	191.88
744.542	193.27
744.983	233.48
745.425	266.07
745.866	256.87
746.307	208.77
746.749	210.07
747.19	232.17
747.632	325.77
748.073	624.17
748.514	1326.67
748.956	2124.78
749.397	2660.17
749.838	2205.98
750.279	2288.07
750.72	1143.37
751.162	402.37
751.603	238.88
752.044	182.87
752.485	158.57
752.926	154.57
753.367	146.07
753.808	144.07
754.249	141.57
754.69	138.57
755.131	133.67
755.572	137.07
756.013	131.87
756.453	135.57
756.894	138.97
757.335	142.88
757.776	142.07
758.216	138.37
758.657	145.67
759.098	155.17
759.538	168.27
759.979	199.07
760.42	263.48
760.86	495.17
761.301	1286.17
761.741	3224.97
762.182	5042.77
762.622	3562.18
763.063	994.67
763.503	401.38
763.943	253.67
764.384	254.77
764.824	308.88
765.264	346.87
765.705	239.97
766.145	154.57
766.585	135.17
767.025	134.07
767.465	132.87
767.906	183.67
768.346	245.97
768.786	268.17
769.226	194.57
769.666	231.07
770.106	426.57
770.546	1103.07
770.986	2011.37
771.426	1840.17
771.866	593.38
772.306	244.57
772.745	160.57
773.185	126.47
773.625	123.27
774.065	128.57
774.505	138.97
774.944	217.67
775.384	485.38
775.824	939.17
776.263	924.27
776.703	387.47
777.142	163.77
777.582	110.77
778.021	104.77
778.461	104.57
778.9	102.77
779.34	93.27
779.779	82.57
780.219	83.17
780.658	76.97
781.097	78.67
781.537	91.67
781.976	78.47
782.415	75.37
782.855	77.07
783.294	72.88
783.733	80.87
784.172	83.17
784.611	66.57
785.05	74.57
785.489	88.07
785.928	84.27
786.367	96.37
786.806	87.07
787.245	91.67
787.684	99.77
788.123	114.57
788.562	97.97
789.001	94.27
789.44	91.47
789.879	82.97
790.317	86.87
790.756	96.17
791.195	90.27
791.634	102.38
792.072	146.07
792.511	247.47
792.95	712.27
793.388	1617.17
793.827	1519.17
794.265	512.47
794.704	208.48
795.142	137.97
795.581	116.27
796.019	102.27
796.458	97.07
796.896	90.87
797.334	94.07
797.773	111.77
798.211	160.97
798.649	310.27
799.087	742.27
799.526	1187.38
799.964	1506.78
800.402	1556.88
800.84	569.57
801.278	225.77
801.716	137.37
802.154	115.07
802.592	115.88
803.03	97.27
803.468	98.57
803.906	105.27
804.344	109.27
804.782	105.47
805.22	101.07
805.658	91.87
806.096	109.38
806.533	112.67
806.971	128.27
807.409	162.67
807.847	224.07
808.284	469.57
808.722	1343.97
809.16	2516.78
809.597	2305.07
810.035	4117.98
810.472	4641.18
810.91	1631.28
811.347	606.58
811.785	309.17
812.222	201.47
812.66	150.67
813.097	122.67
813.535	98.17
813.972	94.27
814.409	87.87
814.846	77.88
815.284	83.07
815.721	75.07
816.158	80.47
816.595	82.47
817.032	135.47
817.47	148.07
817.907	133.87
818.344	114.37
818.781	90.57
819.218	73.47
819.655	94.88
820.092	145.17
820.529	169.27
820.966	136.77
821.403	104.47
821.839	84.87
822.276	85.47
822.713	88.67
823.15	100.38
823.587	88.67
824.023	108.07
824.46	204.88
824.897	657.37
825.333	1045.88
825.77	450.27
826.206	173.87
826.643	101.87
827.08	76.07
827.516	64.67
827.953	58.17
828.389	62.37
828.825	55.57
829.262	53.87
829.698	41.37
830.135	45.47
830.571	50.87
831.007	46.57
831.443	48.27
831.88	48.47
832.316	47.77
832.752	44.67
833.188	44.38
833.624	51.47
834.06	49.07
834.497	51.47
834.933	54.38
835.369	58.77
835.805	46.97
836.241	55.17
836.677	64.27
837.112	63.37
837.548	72.77
837.984	94.87
838.42	144.88
838.856	357.27
839.292	1125.97
839.727	1806.58
840.163	833.07
840.599	670.27
841.034	1529.88
841.47	1694.88
841.906	603.77
842.341	248.07
842.777	170.27
843.212	244.47
843.648	244.57
844.083	114.97
844.519	63.97
844.954	59.88
845.39	39.67
845.825	42.17
846.261	43.97
846.696	40.87
847.131	40.47
847.566	45.27
848.002	33.37
848.437	41.27
848.872	41.67
849.307	44.47
849.742	59.97
850.177	124.67
850.613	401.58
851.048	676.47
851.483	289.07
851.918	109.17
852.353	58.07
852.788	43.07
853.223	43.07
853.657	40.97
854.092	39.27
854.527	24.47
854.962	27.17
855.397	34.47
855.832	36.77
856.266	33.88
856.701	35.07
857.136	28.57
857.57	27.67
858.005	37.47
858.44	38.57
858.874	32.38
859.309	40.38
859.743	26.47
860.178	35.07
860.612	33.17
861.047	43.77
861.481	49.57
861.915	51.47
862.35	40.77
862.784	26.77
863.218	32.07
863.653	24.27
864.087	37.67
864.521	41.57
864.955	56.67
865.39	122.57
865.824	132.07
866.258	84.07
866.692	130.87
867.126	136.67
867.56	83.07
867.994	40.97
868.428	25.97
868.862	38.17
869.296	34.57
869.73	48.17
870.164	46.17
870.598	36.88
871.031	31.47
871.465	26.67
871.899	26.07
872.333	22.57
872.766	18.17
873.2	17.07
873.634	27.47
874.067	18.27
874.501	19.17
874.935	24.47
875.368	19.67
875.802	15.57
876.235	15.87
876.669	12.47
877.102	14.67
877.535	19.07
877.969	17.67
878.402	17.17
878.836	11.77
879.269	16.57
879.702	14.97
880.135	18.47
880.569	17.17
881.002	21.97
881.435	15.37
881.868	10.07
882.301	21.47
882.734	8.37
883.167	12.27
883.601	10.27
884.034	15.47
884.467	9.57
884.899	14.07
885.332	6.87
885.765	13.67
886.198	13.37
886.631	9.77
887.064	14.37
887.497	19.97
887.929	19.37
888.362	11.57
888.795	13.67
889.228	16.57
889.66	13.37
890.093	11.97
890.526	16.47
890.958	12.57
891.391	11.17
891.823	15.77
892.256	11.87
892.688	3.17
893.121	16.57
893.553	12.17
893.985	20.97
894.418	12.57
894.85	11.87
895.282	10.97
895.715	9.57
896.147	10.77
896.579	10.67
897.011	4.97
897.444	15.77
897.876	5.27
898.308	18.27
898.74	10.57
899.172	13.17
899.604	24.27
900.036	12.47
900.468	14.57
900.9	10.87
901.332	18.87
901.764	12.07
902.196	15.88
902.628	18.37
903.06	6.37
903.491	21.17
903.923	14.67
904.355	12.77
904.787	18.97
905.218	20.38
905.65	15.97
906.082	9.17
906.513	9.97
906.945	10.27
907.376	9.67
907.808	18.77
908.239	18.07
908.671	12.37
909.102	9.37
909.534	17.67
909.965	26.87
910.397	75.67
910.828	240.17
911.259	384.17
911.691	166.17
912.122	77.38
912.553	39.47
912.984	26.77
913.415	21.57
913.847	24.67
914.278	10.77
914.709	13.77
915.14	11.67
915.571	14.67
916.002	9.97
916.433	12.27
916.864	14.47
917.295	6.67
917.726	14.07
918.157	12.57
918.587	23.47
919.018	17.88
919.449	18.38
919.88	22.97
920.311	22.57
920.741	38.07
921.172	126.07
921.603	120.07
922.033	51.57
922.464	33.07
922.895	17.17
923.325	16.77
923.756	10.07
924.186	17.77
924.617	21.27
925.047	33.07
925.478	40.87
925.908	34.87
926.338	24.47
926.769	6.67
927.199	16.27
927.629	4.57
928.06	14.27
928.49	9.47
928.92	9.37
929.35	13.17
929.78	5.57
930.21	9.47
930.641	9.87
931.071	9.07
931.501	6.07
931.931	5.97
932.361	6.97
932.791	6.97
933.221	2.97
933.651	4.88
934.08	9.67
934.51	21.37
934.94	1.77
935.37	12.38
935.8	11.07
936.229	5.77
936.659	9.27
937.089	0.77
937.519	11.97
937.948	21.47
938.378	10.17
938.807	4.27
939.237	-1.62
939.666	5.07
940.096	-8.43
940.525	2.57
940.955	-1.23
941.384	-1.03
941.814	-9.73
942.243	-2.33
942.672	6.57
943.102	-2.03
943.531	-1.43
943.96	2.97
944.39	0.67
944.819	-0.23
945.248	4.07
945.677	6.07
946.106	4.97
946.535	3.77
946.964	1.87
947.393	4.67
947.822	1.38
948.251	-1.73
948.68	2.47
949.109	11.17
949.538	5.47
949.967	-1.93
950.396	-2.13
950.825	2.67
951.254	3.27
951.682	-8.73
952.111	-2.63
952.54	5.07
952.969	-4.53
953.397	-9.23
953.826	5.57
954.254	-3.93
954.683	4.87
955.112	-8.83
955.54	1.67
955.969	0.17
956.397	6.17
956.826	-1.23
957.254	2.17
957.682	-3.13
958.111	1.87
958.539	-5.63
958.967	6.17
959.396	-1.33
959.824	-0.83
960.252	1.87
960.68	-3.33
961.109	0.37
961.537	-1.03
961.965	-3.53
962.393	-3.43
962.821	-7.73
963.249	1.67
963.677	1.17
964.105	1.77
964.533	32.47
964.961	29.97
965.389	12.88
965.817	8.97
966.245	5.47
966.672	-2.12
967.1	-3.53
967.528	0.37
967.956	-7.23
968.383	1.67
968.811	1.17
969.239	0.47
969.666	-1.83
970.094	-0.93
970.522	-0.33
970.949	-1.83
971.377	-2.83
971.804	-0.43
972.232	-1.63
972.659	-1.93
973.087	-0.13
973.514	1.07
973.941	-5.93
974.369	0.67
974.796	1.77
975.223	-2.23
975.651	-0.03
976.078	8.17
976.505	-2.23
976.932	4.07
977.359	13.07
977.786	9.27
978.214	0.77
978.641	0.27
979.068	-10.23
979.495	-3.13
979.922	2.77
980.349	-0.13
980.776	-2.53
981.202	2.37
981.629	6.37
982.056	6.27
982.483	-0.43
982.91	7.47
983.337	-2.23
983.763	4.37
984.19	-10.63
984.617	-6.33
985.043	-2.73
985.47	-3.63
985.897	-3.63
986.323	-9.53
986.75	5.38
987.176	2.67
987.603	-1.63
988.029	-4.13
988.456	-3.23
988.882	0.77
989.308	-6.53
989.735	-3.73
990.161	-2.93
990.587	-5.93
991.014	-4.33
991.44	4.67
991.866	-1.12
992.292	-3.73
992.719	1.97
993.145	2.77
993.571	-3.23
993.997	-4.53
994.423	-5.33
994.849	-5.73
995.275	-2.33
995.701	3.97
996.127	-2.23
996.553	-5.03
996.979	-8.63
997.405	-0.83
997.83	3.47
998.256	2.67
998.682	-6.93
999.108	-8.23
999.534	-4.63
999.959	-2.03
1000.385	-2.13
1000.811	-4.93
1001.236	-9.23
1001.662	-5.23
1002.087	-9.03
1002.513	-6.23
1002.938	-1.33
1003.364	0.47
1003.789	-2.03
1004.215	3.27
1004.64	-0.23
1005.066	1.57
1005.491	5.67
1005.916	-4.23
1006.342	-4.62
1006.767	-9.33
1007.192	6.47
1007.617	-3.23
1008.042	0.47
1008.468	-8.73
1008.893	-1.03
1009.318	-11.43
1009.743	-4.93
1010.168	3.47
1010.593	-3.03
1011.018	-3.93
1011.443	0.67
1011.868	3.17
1012.293	-3.53
1012.718	-7.62
1013.143	-3.83
1013.567	-0.73
1013.992	-6.73
1014.417	-13.53
1014.842	6.37
1015.267	-2.13
1015.691	-6.33
1016.116	5.37
1016.541	-0.13
1016.965	4.87
1017.39	-0.13
1017.814	-2.73
1018.239	0.77
1018.663	-6.63
1019.088	-8.63
1019.512	-5.63
1019.937	-0.03
1020.361	-10.83
1020.785	-8.53
1021.21	-3.43
1021.634	-4.43
1022.058	-3.53
1022.483	5.37
1022.907	-5.23
1023.331	-3.43
1023.755	-9.03
1024.179	-4.83
1024.604	-15.93
1025.028	-7.33
1025.452	-0.33
1025.876	-1.83
1026.3	1.77
1026.724	-11.03
1027.148	-0.63
1027.572	-6.63
1027.996	0.47
1028.42	4.87
1028.843	-0.83
1029.267	-8.23
1029.691	-1.73
1030.115	-4.03
1030.539	-12.23
1030.962	-1.43
1031.386	-8.53
1031.81	3.88
1032.233	-0.73
1032.657	-5.33
1033.08	-3.43
1033.504	-4.73
1033.927	-2.12
1034.351	1.17
1034.774	-4.43
1035.198	-3.13
1035.621	-3.33
1036.045	-5.53
1036.468	-1.83
1036.891	-7.93
1037.315	-14.23
1037.738	-10.13
1038.161	-5.93
1038.584	-2.03
1039.008	-9.13
1039.431	-4.93
1039.854	-6.23
1040.277	-8.53
1040.7	-9.73
1041.123	-1.63
1041.546	-7.23
1041.969	-2.83
1042.392	-1.13
1042.815	2.47
1043.238	-0.73
1043.661	0.57
1044.084	-9.03
1044.507	-9.63
1044.93	-4.43
1045.352	-4.23
1045.775	-2.33
1046.198	-5.13
1046.621	-2.33
1047.043	-2.43
1047.466	3.17
1047.889	-2.03
1048.311	-9.73
1048.734	-4.13
1049.156	-6.93
1049.579	-0.93
1050.001	-0.53
1050.424	-0.53
1050.846	1.07
1051.269	-2.43
1051.691	-6.83
1052.113	-9.93
1052.536	-1.53
1052.958	-0.03
1053.38	-2.93
1053.802	-11.33
1054.225	0.57
1054.647	-3.73
1055.069	-5.83
1055.491	3.17
1055.913	-7.13
1056.335	2.57
1056.757	-2.33
1057.179	0.47
1057.601	-1.13
1058.023	0.97
1058.445	1.07
1058.867	-2.83
1059.289	-8.33
1059.711	-8.12
1060.133	-2.73
1060.555	-4.83
1060.976	-5.63
1061.398	-3.83
1061.82	-3.63
1062.241	-5.73
1062.663	-7.63
1063.085	-1.53
1063.506	-1.33
1063.928	0.57
1064.35	6.07
1064.771	-11.13
1065.193	4.27
1065.614	-7.93
1066.035	-0.83
1066.457	-1.53
1066.878	-0.63
1067.3	-3.63
1067.721	-3.33
1068.142	-4.43
1068.564	-0.23
1068.985	-6.53
1069.406	-2.03
1069.827	-3.03
1070.248	-2.63
1070.67	-7.53
1071.091	-10.83
1071.512	-2.53
1071.933	-5.43
1072.354	-3.93
1072.775	-4.63
1073.196	-1.53
1073.617	-1.13
1074.038	-9.83
1074.459	-3.03
1074.88	-2.63
1075.3	-2.13
1075.721	-6.33
1076.142	0.57
1076.563	-0.73
1076.983	-8.93
1077.404	0.17
1077.825	-3.83
1078.246	-2.13
1078.666	-10.33
1079.087	-1.33
1079.507	-6.53
1079.928	-0.73
1080.348	-4.03
1080.769	-4.63
1081.189	4.17
1081.61	-9.03
1082.03	-3.33
1082.451	-11.83
1082.871	-7.83
1083.291	-8.43
1083.711	-5.93
1084.132	-4.53
1084.552	-3.53
1084.972	-2.93
1085.392	-8.73
1085.813	-15.33
1086.233	-4.23
1086.653	-9.73
1087.073	1.67
1087.493	-10.53
1087.913	-3.83
1088.333	-1.53
1088.753	3.57
1089.173	-1.83
1089.593	-2.23
1090.013	2.97
1090.433	5.77
1090.852	-4.03
1091.272	3.07
1091.692	-0.73
1092.112	-2.83
1092.531	-9.43
1092.951	-14.33
1093.371	-8.63
1093.79	3.27
1094.21	-2.73
1094.63	-5.13
1095.049	-1.63
1095.469	-2.73
1095.888	1.17
1096.308	1.27
1096.727	4.07
1097.146	-3.73
1097.566	-6.33
1097.985	-2.13
1098.405	-3.43
1098.824	-5.13
1099.243	-3.93
1099.662	-5.03
1100.082	-2.23
1100.501	-0.23
1100.92	-5.43
1101.339	-1.23
1101.758	-2.23
