Data from 20171114-ORNL-Ar_H_NY_Subt18_08-03-38-313.txt Node
Date: Tue Nov 14 08:03:38 EST 2017
User: Ender
Spectrometer: HR+D1039
Trigger mode: 0
Integration Time (sec): 2.730000E-2
Scans to average: 10
Electric dark correction enabled: true
Nonlinearity correction enabled: false
Boxcar width: 0
XAxis mode: Wavelengths
Number of Pixels in Spectrum: 2048
>>>>>Begin Spectral Data<<<<<
187.836	-5.43
188.309	-5.43
188.782	-5.43
189.255	0.77
189.728	-2.83
190.201	8.97
190.674	2.17
191.147	1.67
191.619	-7.23
192.092	2.97
192.565	4.77
193.038	4.37
193.511	2.27
193.984	-2.63
194.456	-7.03
194.929	-2.33
195.402	0.07
195.874	-0.53
196.347	-3.53
196.82	-4.83
197.292	6.87
197.765	-0.13
198.237	-6.73
198.71	3.17
199.182	1.07
199.655	0.87
200.127	0.57
200.6	-3.53
201.072	-8.33
201.544	-3.83
202.017	-7.03
202.489	3.07
202.961	-2.53
203.433	-1.13
203.906	-4.43
204.378	-6.03
204.85	0.07
205.322	-12.03
205.794	0.07
206.266	-4.63
206.739	-7.03
207.211	-0.43
207.683	-13.83
208.155	-5.03
208.627	-7.23
209.099	0.37
209.57	-11.53
210.042	-2.83
210.514	-1.93
210.986	-4.13
211.458	-11.63
211.93	-3.93
212.402	0.77
212.873	-8.13
213.345	-4.73
213.817	-14.83
214.288	-4.83
214.76	-13.53
215.232	-7.53
215.703	-4.83
216.175	-1.13
216.646	-8.43
217.118	-7.53
217.589	-2.53
218.061	-2.93
218.532	-0.03
219.004	-6.93
219.475	-7.73
219.946	-7.23
220.418	-8.33
220.889	0.07
221.36	0.17
221.832	-4.63
222.303	-13.83
222.774	-2.33
223.245	-8.13
223.717	-4.03
224.188	-4.93
224.659	-6.93
225.13	-1.13
225.601	-6.43
226.072	-3.13
226.543	-4.93
227.014	2.77
227.485	-3.43
227.956	-10.13
228.427	-7.23
228.898	-0.73
229.369	1.57
229.839	-10.03
230.31	-11.23
230.781	-0.73
231.252	-0.93
231.722	-7.03
232.193	-5.23
232.664	-9.03
233.135	-2.93
233.605	-10.23
234.076	-5.23
234.546	-5.73
235.017	2.37
235.487	0.07
235.958	-3.13
236.428	-7.33
236.899	-7.93
237.369	-1.23
237.84	-2.53
238.31	-2.73
238.78	-3.23
239.251	-5.43
239.721	-6.53
240.191	-5.73
240.662	-5.13
241.132	-8.53
241.602	-6.63
242.072	-7.53
242.542	4.97
243.013	-3.83
243.483	0.27
243.953	-5.93
244.423	-1.73
244.893	-3.23
245.363	2.07
245.833	-6.23
246.303	-5.53
246.773	3.47
247.243	-5.33
247.712	-4.83
248.182	0.47
248.652	-2.63
249.122	-6.63
249.592	-8.03
250.061	-1.03
250.531	1.07
251.001	-6.63
251.471	0.17
251.94	5.17
252.41	-5.33
252.879	-7.73
253.349	9.77
253.818	6.97
254.288	2.77
254.757	-7.33
255.227	-1.13
255.696	1.37
256.166	0.37
256.635	6.87
257.105	-2.93
257.574	-1.73
258.043	0.17
258.513	-2.93
258.982	-0.33
259.451	-4.93
259.92	-0.13
260.389	-3.33
260.859	9.47
261.328	-1.33
261.797	3.87
262.266	0.67
262.735	7.87
263.204	0.27
263.673	-1.93
264.142	2.57
264.611	-7.53
265.08	-4.43
265.549	-3.33
266.018	4.17
266.487	-3.63
266.955	-7.43
267.424	-2.43
267.893	1.07
268.362	-5.73
268.83	-2.43
269.299	0.07
269.768	5.97
270.236	6.37
270.705	-4.13
271.174	-3.93
271.642	-0.73
272.111	2.77
272.579	-5.33
273.048	-1.63
273.516	0.17
273.985	5.07
274.453	5.07
274.922	6.07
275.39	2.77
275.858	-7.43
276.327	4.67
276.795	4.77
277.263	-2.83
277.731	4.67
278.2	3.67
278.668	4.57
279.136	3.97
279.604	-1.73
280.072	2.37
280.54	4.07
281.008	2.07
281.477	10.17
281.945	2.57
282.413	4.57
282.881	9.97
283.348	0.07
283.816	5.27
284.284	9.17
284.752	16.87
285.22	9.17
285.688	12.97
286.156	1.77
286.623	9.97
287.091	2.47
287.559	9.57
288.026	8.77
288.494	7.47
288.962	0.17
289.429	1.77
289.897	9.37
290.364	5.87
290.832	15.37
291.3	2.77
291.767	6.07
292.234	12.97
292.702	4.67
293.169	6.57
293.637	10.17
294.104	10.37
294.571	1.07
295.039	11.07
295.506	6.87
295.973	2.47
296.44	3.47
296.908	7.37
297.375	7.77
297.842	9.17
298.309	14.67
298.776	5.07
299.243	15.17
299.71	6.57
300.177	17.07
300.644	12.67
301.111	8.67
301.578	11.27
302.045	10.97
302.512	11.77
302.979	16.57
303.446	16.57
303.913	15.17
304.379	9.37
304.846	15.37
305.313	13.87
305.78	11.77
306.246	16.27
306.713	16.27
307.18	13.57
307.646	15.27
308.113	15.47
308.579	11.17
309.046	14.77
309.512	15.67
309.979	16.47
310.445	19.27
310.912	21.37
311.378	18.57
311.845	25.87
312.311	17.27
312.777	18.57
313.244	21.67
313.71	27.07
314.176	21.77
314.642	16.87
315.109	20.77
315.575	24.47
316.041	27.17
316.507	21.87
316.973	26.07
317.439	23.67
317.905	30.47
318.371	26.07
318.837	23.67
319.303	28.07
319.769	16.57
320.235	26.07
320.701	23.77
321.167	33.07
321.633	28.27
322.099	29.37
322.564	32.17
323.03	25.97
323.496	26.07
323.962	26.07
324.427	30.77
324.893	32.37
325.359	34.47
325.824	26.77
326.29	27.37
326.755	30.47
327.221	29.07
327.686	29.27
328.152	33.67
328.617	35.57
329.083	37.77
329.548	38.17
330.014	39.17
330.479	31.17
330.944	32.37
331.41	30.87
331.875	36.37
332.34	33.07
332.805	35.97
333.271	36.47
333.736	37.07
334.201	38.47
334.666	44.17
335.131	44.87
335.596	43.17
336.061	38.57
336.526	30.67
336.991	38.87
337.456	44.07
337.921	47.27
338.386	40.57
338.851	42.47
339.316	45.67
339.781	45.77
340.246	47.97
340.711	44.37
341.175	45.27
341.64	40.17
342.105	51.17
342.569	46.27
343.034	56.57
343.499	49.67
343.963	44.37
344.428	57.77
344.893	50.67
345.357	53.77
345.822	56.57
346.286	67.47
346.751	57.87
347.215	57.57
347.679	57.97
348.144	77.57
348.608	65.47
349.073	65.37
349.537	72.97
350.001	67.07
350.465	78.67
350.93	73.07
351.394	84.47
351.858	64.87
352.322	70.27
352.786	75.17
353.25	88.17
353.715	91.37
354.179	84.17
354.643	100.17
355.107	99.67
355.571	93.37
356.035	89.17
356.498	102.47
356.962	96.17
357.426	109.07
357.89	99.57
358.354	90.17
358.818	85.97
359.281	73.97
359.745	76.07
360.209	81.67
360.673	72.27
361.136	80.37
361.6	86.97
362.064	85.77
362.527	83.27
362.991	86.77
363.454	84.37
363.918	83.17
364.381	77.47
364.845	76.17
365.308	83.07
365.772	90.17
366.235	87.37
366.698	78.67
367.162	83.77
367.625	80.07
368.088	86.47
368.552	84.27
369.015	90.17
369.478	90.67
369.941	97.37
370.404	90.87
370.867	99.77
371.331	105.37
371.794	111.17
372.257	96.27
372.72	105.87
373.183	102.47
373.646	93.37
374.109	98.87
374.572	102.37
375.035	100.67
375.497	104.67
375.96	106.87
376.423	107.47
376.886	110.47
377.349	114.67
377.811	100.87
378.274	110.57
378.737	111.07
379.199	116.67
379.662	114.17
380.125	114.97
380.587	111.67
381.05	111.77
381.512	122.47
381.975	123.97
382.437	127.27
382.9	122.27
383.362	131.57
383.825	127.47
384.287	127.17
384.75	129.37
385.212	135.57
385.674	144.27
386.136	136.87
386.599	132.27
387.061	136.77
387.523	131.47
387.985	131.07
388.447	140.47
388.91	136.37
389.372	130.97
389.834	139.27
390.296	137.67
390.758	140.07
391.22	150.27
391.682	157.17
392.144	160.67
392.606	149.27
393.068	150.47
393.529	157.77
393.991	155.87
394.453	141.97
394.915	152.07
395.377	147.57
395.838	148.87
396.3	147.97
396.762	155.37
397.224	148.17
397.685	147.97
398.147	147.97
398.608	149.57
399.07	149.67
399.531	158.47
399.993	165.57
400.454	169.77
400.916	156.17
401.377	161.27
401.839	167.47
402.3	169.57
402.762	179.07
403.223	197.07
403.684	185.07
404.145	178.17
404.607	177.17
405.068	170.77
405.529	183.17
405.99	196.27
406.451	185.47
406.913	189.57
407.374	184.07
407.835	177.77
408.296	185.27
408.757	192.97
409.218	197.37
409.679	190.17
410.14	195.97
410.601	197.87
411.062	194.37
411.522	199.17
411.983	192.07
412.444	200.87
412.905	206.87
413.366	209.27
413.826	219.47
414.287	252.87
414.748	314.67
415.208	297.67
415.669	247.97
416.13	232.77
416.59	240.77
417.051	251.07
417.511	263.67
417.972	287.97
418.432	302.97
418.893	353.07
419.353	303.27
419.814	243.47
420.274	217.97
420.734	208.47
421.195	222.37
421.655	229.57
422.115	226.57
422.576	226.57
423.036	231.07
423.496	239.77
423.956	254.37
424.416	257.97
424.876	309.67
425.336	293.77
425.797	300.77
426.257	294.47
426.717	264.67
427.177	250.97
427.637	246.67
428.097	252.67
428.556	259.67
429.016	290.17
429.476	276.97
429.936	279.57
430.396	276.67
430.856	292.27
431.315	310.57
431.775	340.87
432.235	371.77
432.694	348.17
433.154	353.17
433.614	368.17
434.073	333.47
434.533	285.67
434.993	274.97
435.452	294.97
435.912	290.47
436.371	288.37
436.83	281.17
437.29	274.77
437.749	260.27
438.209	267.17
438.668	284.17
439.127	296.37
439.587	277.77
440.046	267.67
440.505	272.47
440.964	280.77
441.424	331.67
441.883	316.57
442.342	282.07
442.801	251.77
443.26	260.57
443.719	260.97
444.178	260.37
444.637	240.47
445.096	261.37
445.555	257.57
446.014	256.57
446.473	271.67
446.932	267.57
447.391	263.67
447.849	266.37
448.308	251.37
448.767	255.27
449.226	268.77
449.685	270.37
450.143	284.87
450.602	272.47
451.061	255.57
451.519	264.27
451.978	265.57
452.436	262.17
452.895	266.07
453.353	272.77
453.812	262.77
454.27	272.97
454.729	266.77
455.187	268.37
455.646	272.77
456.104	281.47
456.562	289.27
457.021	287.37
457.479	286.97
457.937	292.37
458.395	288.57
458.854	275.57
459.312	278.57
459.77	300.97
460.228	284.47
460.686	273.77
461.144	281.67
461.602	280.07
462.06	279.57
462.518	284.97
462.976	282.37
463.434	284.27
463.892	295.37
464.35	297.27
464.808	312.37
465.266	295.57
465.724	300.07
466.181	302.87
466.639	303.67
467.097	320.97
467.555	328.07
468.012	324.97
468.47	338.47
468.928	353.37
469.385	355.67
469.843	364.97
470.3	371.97
470.758	385.97
471.215	398.07
471.673	414.77
472.13	418.07
472.588	431.87
473.045	401.87
473.503	409.27
473.96	417.87
474.417	434.17
474.875	447.37
475.332	479.27
475.789	469.87
476.246	478.37
476.704	492.17
477.161	496.77
477.618	508.87
478.075	543.87
478.532	573.67
478.989	625.37
479.446	698.87
479.903	665.37
480.36	681.27
480.817	697.87
481.274	750.37
481.731	805.57
482.188	858.97
482.645	934.07
483.102	992.27
483.558	1063.27
484.015	1092.47
484.472	1092.87
484.929	1058.07
485.385	1044.87
485.842	1027.87
486.299	1024.57
486.755	1003.47
487.212	886.17
487.668	788.87
488.125	749.07
488.582	704.47
489.038	680.17
489.494	658.67
489.951	642.87
490.407	648.27
490.864	625.87
491.32	631.27
491.776	629.47
492.233	633.57
492.689	612.97
493.145	614.27
493.602	610.37
494.058	611.37
494.514	618.37
494.97	631.37
495.426	639.37
495.882	619.17
496.338	610.57
496.794	608.67
497.251	607.47
497.707	617.77
498.163	611.97
498.618	629.27
499.074	625.27
499.53	640.27
499.986	647.97
500.442	639.37
500.898	625.57
501.354	612.77
501.809	624.37
502.265	623.57
502.721	636.57
503.177	638.77
503.632	645.27
504.088	642.47
504.543	669.67
504.999	672.27
505.455	655.07
505.91	638.37
506.366	634.47
506.821	647.07
507.277	635.57
507.732	642.57
508.187	647.77
508.643	644.67
509.098	652.77
509.553	674.27
510.009	673.47
510.464	667.47
510.919	690.27
511.375	699.87
511.83	697.77
512.285	711.37
512.74	731.47
513.195	742.77
513.65	742.67
514.105	745.37
514.56	737.07
515.015	757.37
515.47	766.27
515.925	759.77
516.38	759.87
516.835	762.47
517.29	757.77
517.745	751.17
518.2	732.07
518.655	730.67
519.109	723.87
519.564	710.27
520.019	698.27
520.474	706.87
520.928	696.77
521.383	686.87
521.838	691.37
522.292	687.57
522.747	695.07
523.201	677.07
523.656	680.17
524.11	677.67
524.565	678.77
525.019	666.47
525.474	673.47
525.928	673.27
526.382	665.97
526.837	667.77
527.291	670.47
527.745	662.17
528.2	662.27
528.654	662.27
529.108	656.97
529.562	653.97
530.016	648.97
530.47	657.57
530.925	661.27
531.379	651.47
531.833	658.27
532.287	654.17
532.741	661.67
533.195	660.97
533.649	667.47
534.103	660.97
534.556	647.27
535.01	649.27
535.464	649.47
535.918	650.27
536.372	664.07
536.826	654.57
537.279	649.47
537.733	651.27
538.187	653.87
538.64	659.87
539.094	662.47
539.548	672.07
540.001	667.17
540.455	669.27
540.908	668.37
541.362	691.37
541.815	680.27
542.269	693.97
542.722	693.67
543.175	702.87
543.629	711.17
544.082	714.57
544.536	724.87
544.989	717.47
545.442	725.17
545.895	724.37
546.349	733.27
546.802	724.67
547.255	729.87
547.708	725.87
548.161	734.37
548.614	733.87
549.067	749.27
549.52	735.07
549.973	731.27
550.426	732.97
550.879	720.17
551.332	717.77
551.785	723.57
552.238	713.37
552.691	730.77
553.144	745.67
553.596	753.67
554.049	756.47
554.502	791.17
554.955	809.17
555.407	796.47
555.86	785.97
556.313	786.17
556.765	766.97
557.218	773.37
557.67	770.07
558.123	756.27
558.576	764.37
559.028	768.67
559.48	770.27
559.933	769.67
560.385	741.27
560.838	705.57
561.29	691.87
561.742	696.47
562.195	678.77
562.647	671.87
563.099	679.37
563.551	689.07
564.004	686.07
564.456	674.47
564.908	664.37
565.36	645.57
565.812	628.67
566.264	627.97
566.716	628.47
567.168	609.37
567.62	620.47
568.072	609.57
568.524	595.67
568.976	596.67
569.428	584.27
569.88	586.97
570.332	595.97
570.784	589.57
571.235	583.77
571.687	595.97
572.139	595.07
572.59	613.17
573.042	611.77
573.494	605.37
573.945	597.77
574.397	583.17
574.849	585.67
575.3	588.87
575.752	569.67
576.203	563.47
576.655	571.57
577.106	559.67
577.557	561.47
578.009	567.37
578.46	564.77
578.912	556.27
579.363	546.47
579.814	561.37
580.265	544.47
580.717	553.77
581.168	552.27
581.619	565.27
582.07	563.07
582.521	558.47
582.972	551.47
583.423	561.07
583.875	560.47
584.326	565.57
584.777	581.07
585.227	593.87
585.678	601.57
586.129	612.57
586.58	625.47
587.031	640.77
587.482	669.17
587.933	697.57
588.384	672.47
588.834	641.57
589.285	633.67
589.736	640.07
590.186	633.37
590.637	628.07
591.088	613.57
591.538	602.87
591.989	603.57
592.439	592.37
592.89	582.07
593.34	572.77
593.791	574.07
594.241	562.07
594.692	561.47
595.142	555.17
595.593	551.97
596.043	568.47
596.493	571.07
596.943	565.87
597.394	581.67
597.844	577.77
598.294	597.07
598.744	613.47
599.195	637.37
599.645	659.37
600.095	684.77
600.545	725.17
600.995	760.67
601.445	805.17
601.895	862.97
602.345	900.57
602.795	890.27
603.245	853.97
603.695	816.47
604.145	772.27
604.594	737.17
605.044	696.27
605.494	638.17
605.944	607.97
606.393	593.57
606.843	575.17
607.293	581.57
607.743	567.87
608.192	575.97
608.642	583.57
609.091	595.87
609.541	593.77
609.99	595.37
610.44	579.27
610.889	559.47
611.339	547.77
611.788	531.97
612.238	547.67
612.687	548.57
613.136	554.27
613.586	556.97
614.035	548.07
614.484	558.07
614.933	558.77
615.383	563.57
615.832	551.97
616.281	544.87
616.73	522.97
617.179	514.67
617.628	505.17
618.077	495.37
618.526	485.57
618.975	478.57
619.424	484.87
619.873	469.67
620.322	482.17
620.771	464.37
621.22	458.57
621.669	455.47
622.118	453.37
622.567	456.37
623.015	432.97
623.464	431.57
623.913	421.87
624.361	416.07
624.81	419.27
625.259	418.27
625.707	423.27
626.156	427.97
626.604	432.57
627.053	432.47
627.501	423.47
627.95	431.17
628.398	439.07
628.847	427.97
629.295	426.67
629.744	422.67
630.192	427.27
630.64	425.97
631.089	410.07
631.537	400.97
631.985	393.17
632.433	392.37
632.881	384.77
633.33	382.37
633.778	389.47
634.226	389.97
634.674	397.87
635.122	404.07
635.57	409.07
636.018	419.67
636.466	418.07
636.914	411.37
637.362	420.77
637.81	428.37
638.258	432.87
638.705	423.77
639.153	451.97
639.601	460.17
640.049	467.67
640.497	490.27
640.944	511.77
641.392	473.37
641.84	443.67
642.287	426.77
642.735	403.57
643.182	404.97
643.63	398.27
644.078	404.27
644.525	405.37
644.973	408.17
645.42	416.17
645.867	423.87
646.315	430.87
646.762	442.37
647.21	454.87
647.657	457.87
648.104	480.47
648.551	470.87
648.999	500.57
649.446	526.37
649.893	559.37
650.34	603.07
650.787	687.47
651.234	808.07
651.682	1000.97
652.129	1279.87
652.576	1731.47
653.023	2461.97
653.47	3343.67
653.917	4155.97
654.363	4924.67
654.81	5551.87
655.257	5249.57
655.704	3533.17
656.151	2183.07
656.598	1495.07
657.044	1084.97
657.491	881.97
657.938	735.17
658.385	641.17
658.831	583.67
659.278	539.47
659.724	491.97
660.171	467.57
660.618	430.67
661.064	424.97
661.511	413.37
661.957	410.27
662.404	402.67
662.85	412.27
663.296	407.87
663.743	375.97
664.189	362.27
664.635	368.87
665.082	354.07
665.528	367.17
665.974	353.17
666.42	353.57
666.867	355.17
667.313	334.67
667.759	327.57
668.205	320.87
668.651	320.87
669.097	314.97
669.543	315.97
669.989	319.07
670.435	318.57
670.881	312.57
671.327	320.47
671.773	329.57
672.219	346.77
672.665	387.87
673.11	413.07
673.556	458.67
674.002	489.77
674.448	478.57
674.893	401.57
675.339	344.87
675.785	327.87
676.23	306.37
676.676	288.47
677.122	277.67
677.567	269.07
678.013	264.07
678.458	255.37
678.904	253.27
679.349	252.17
679.794	254.47
680.24	247.17
680.685	253.77
681.131	251.07
681.576	241.07
682.021	256.17
682.466	256.97
682.912	260.07
683.357	245.77
683.802	267.97
684.247	294.37
684.692	320.57
685.137	358.17
685.583	385.87
686.028	415.67
686.473	381.87
686.918	321.77
687.363	298.47
687.807	277.07
688.252	263.87
688.697	252.47
689.142	249.27
689.587	237.97
690.032	234.97
690.477	251.07
690.921	259.57
691.366	275.67
691.811	288.37
692.255	309.47
692.7	329.97
693.145	360.17
693.589	483.07
694.034	786.47
694.478	1102.07
694.923	1307.97
695.367	1742.27
695.812	928.87
696.256	369.77
696.701	265.27
697.145	247.27
697.59	236.17
698.034	233.27
698.478	238.37
698.922	237.97
699.367	234.07
699.811	239.97
700.255	247.17
700.699	270.97
701.143	302.97
701.588	337.47
702.032	364.47
702.476	363.87
702.92	361.87
703.364	359.57
703.808	446.57
704.252	711.77
704.696	1045.17
705.14	1248.17
705.584	1628.37
706.027	812.07
706.471	385.57
706.915	290.77
707.359	261.37
707.803	229.87
708.246	228.07
708.69	219.17
709.134	231.67
709.577	222.07
710.021	226.17
710.465	215.17
710.908	217.77
711.352	213.77
711.795	218.47
712.239	247.37
712.682	274.37
713.126	301.47
713.569	327.17
714.012	262.47
714.456	213.07
714.899	211.17
715.342	190.37
715.786	184.97
716.229	182.57
716.672	178.87
717.115	173.87
717.558	190.17
718.002	178.97
718.445	183.57
718.888	202.07
719.331	206.37
719.774	216.17
720.217	211.87
720.66	200.57
721.103	189.47
721.546	182.47
721.989	177.47
722.432	162.17
722.874	167.27
723.317	164.17
723.76	165.17
724.203	183.27
724.645	218.77
725.088	306.07
725.531	408.37
725.974	473.17
726.416	403.67
726.859	228.57
727.301	175.07
727.744	172.57
728.187	163.87
728.629	168.27
729.071	169.87
729.514	182.87
729.956	188.17
730.399	204.87
730.841	212.37
731.283	196.47
731.726	193.37
732.168	184.97
732.61	191.77
733.053	206.97
733.495	219.97
733.937	248.07
734.379	280.47
734.821	308.67
735.263	385.37
735.705	574.67
736.148	1090.17
736.59	1859.27
737.032	2326.27
737.474	1929.77
737.916	621.37
738.357	317.97
738.799	238.47
739.241	210.47
739.683	205.97
740.125	210.97
740.567	218.97
741.008	235.97
741.45	234.07
741.892	235.37
742.334	263.67
742.775	281.97
743.217	278.57
743.658	200.27
744.1	183.97
744.542	191.47
744.983	249.27
745.425	293.57
745.866	285.07
746.307	214.57
746.749	203.87
747.19	228.37
747.632	316.67
748.073	587.97
748.514	1283.57
748.956	2095.07
749.397	2626.57
749.838	2183.27
750.279	2274.87
750.72	1151.37
751.162	414.37
751.603	233.57
752.044	185.07
752.485	150.77
752.926	144.07
753.367	150.57
753.808	138.87
754.249	142.57
754.69	128.57
755.131	128.17
755.572	128.27
756.013	123.47
756.453	131.67
756.894	135.97
757.335	131.97
757.776	137.77
758.216	133.67
758.657	137.87
759.098	138.97
759.538	157.07
759.979	183.57
760.42	258.97
760.86	482.97
761.301	1254.67
761.741	3145.97
762.182	4989.97
762.622	3584.87
763.063	1023.07
763.503	410.17
763.943	237.87
764.384	198.97
764.824	177.17
765.264	170.27
765.705	151.67
766.145	126.97
766.585	124.47
767.025	120.77
767.465	118.97
767.906	129.07
768.346	137.37
768.786	138.47
769.226	144.67
769.666	211.47
770.106	415.17
770.546	1061.57
770.986	1987.37
771.426	1831.87
771.866	598.77
772.306	229.17
772.745	149.57
773.185	117.17
773.625	116.17
774.065	107.77
774.505	121.17
774.944	154.97
775.384	293.77
775.824	529.67
776.263	546.77
776.703	239.37
777.142	126.87
777.582	93.57
778.021	89.77
778.461	89.97
778.9	89.87
779.34	84.47
779.779	79.07
780.219	75.17
780.658	72.77
781.097	77.67
781.537	79.87
781.976	76.87
782.415	72.67
782.855	71.67
783.294	68.37
783.733	74.27
784.172	75.67
784.611	77.37
785.05	75.47
785.489	76.27
785.928	81.17
786.367	82.47
786.806	79.07
787.245	96.07
787.684	97.87
788.123	99.97
788.562	98.37
789.001	90.07
789.44	87.27
789.879	81.27
790.317	83.57
790.756	97.97
791.195	88.37
791.634	104.87
792.072	151.17
792.511	255.67
792.95	682.17
793.388	1567.77
793.827	1500.27
794.265	504.37
794.704	204.37
795.142	133.57
795.581	111.27
796.019	97.67
796.458	83.97
796.896	89.77
797.334	94.17
797.773	110.67
798.211	158.67
798.649	296.87
799.087	717.27
799.526	1156.47
799.964	1459.77
800.402	1571.07
800.84	572.67
801.278	214.07
801.716	131.57
802.154	107.47
802.592	100.77
803.03	99.07
803.468	90.47
803.906	99.47
804.344	108.97
804.782	102.17
805.22	91.27
805.658	90.47
806.096	103.57
806.533	123.87
806.971	126.47
807.409	160.77
807.847	223.97
808.284	459.57
808.722	1309.27
809.16	2483.97
809.597	2301.27
810.035	4026.37
810.472	4615.47
810.91	1671.97
811.347	620.37
811.785	304.47
812.222	194.37
812.66	152.97
813.097	129.87
813.535	106.87
813.972	91.87
814.409	92.97
814.846	81.97
815.284	85.17
815.721	67.77
816.158	75.97
816.595	79.67
817.032	121.67
817.47	156.67
817.907	111.37
818.344	77.67
818.781	75.67
819.218	71.17
819.655	99.77
820.092	166.87
820.529	203.27
820.966	146.47
821.403	101.27
821.839	75.37
822.276	68.77
822.713	94.87
823.15	113.47
823.587	89.17
824.023	103.07
824.46	195.27
824.897	626.67
825.333	1023.17
825.77	450.67
826.206	166.07
826.643	96.77
827.08	79.37
827.516	54.97
827.953	54.67
828.389	59.37
828.825	45.87
829.262	43.97
829.698	41.27
830.135	47.07
830.571	42.07
831.007	43.97
831.443	46.37
831.88	43.47
832.316	36.27
832.752	41.77
833.188	44.87
833.624	38.87
834.06	46.57
834.497	46.67
834.933	50.27
835.369	51.97
835.805	45.37
836.241	54.87
836.677	54.07
837.112	64.47
837.548	68.07
837.984	99.57
838.42	140.07
838.856	346.67
839.292	1087.37
839.727	1795.67
840.163	834.17
840.599	651.87
841.034	1495.87
841.47	1688.67
841.906	604.07
842.341	247.17
842.777	151.77
843.212	156.27
843.648	164.67
844.083	88.77
844.519	62.77
844.954	52.37
845.39	34.77
845.825	37.77
846.261	40.97
846.696	41.97
847.131	39.97
847.566	47.47
848.002	27.67
848.437	33.47
848.872	48.57
849.307	42.87
849.742	58.97
850.177	124.17
850.613	389.27
851.048	663.07
851.483	292.47
851.918	113.47
852.353	69.37
852.788	36.07
853.223	34.47
853.657	40.57
854.092	34.97
854.527	26.27
854.962	25.17
855.397	31.87
855.832	37.07
856.266	26.57
856.701	23.97
857.136	21.07
857.57	31.17
858.005	38.97
858.44	47.87
858.874	29.67
859.309	38.87
859.743	22.67
860.178	31.97
860.612	31.37
861.047	36.57
861.481	53.17
861.915	63.87
862.35	39.67
862.784	22.77
863.218	26.97
863.653	21.17
864.087	33.67
864.521	39.87
864.955	44.57
865.39	109.67
865.824	134.07
866.258	92.87
866.692	153.37
867.126	177.67
867.56	93.17
867.994	46.67
868.428	28.67
868.862	38.57
869.296	46.77
869.73	52.17
870.164	44.57
870.598	43.57
871.031	39.07
871.465	27.47
871.899	20.67
872.333	14.27
872.766	16.47
873.2	9.77
873.634	20.77
874.067	20.67
874.501	12.77
874.935	13.67
875.368	18.67
875.802	18.97
876.235	11.27
876.669	15.37
877.102	10.17
877.535	17.37
877.969	8.97
878.402	12.87
878.836	10.27
879.269	10.77
879.702	19.67
880.135	19.67
880.569	13.77
881.002	17.07
881.435	13.67
881.868	8.27
882.301	13.27
882.734	3.97
883.167	15.07
883.601	7.57
884.034	9.07
884.467	8.77
884.899	10.37
885.332	12.77
885.765	9.37
886.198	10.67
886.631	10.27
887.064	10.97
887.497	10.67
887.929	19.37
888.362	10.07
888.795	5.87
889.228	8.77
889.66	9.37
890.093	13.57
890.526	6.47
890.958	7.27
891.391	18.77
891.823	14.67
892.256	16.47
892.688	7.47
893.121	10.87
893.553	6.77
893.985	18.37
894.418	13.27
894.85	8.47
895.282	5.87
895.715	11.37
896.147	9.47
896.579	11.97
897.011	5.67
897.444	10.87
897.876	6.17
898.308	10.87
898.74	6.97
899.172	3.77
899.604	13.97
900.036	16.17
900.468	7.47
900.9	13.37
901.332	20.77
901.764	14.57
902.196	12.57
902.628	13.27
903.06	17.57
903.491	23.47
903.923	18.37
904.355	8.67
904.787	16.27
905.218	17.77
905.65	10.97
906.082	8.67
906.513	10.77
906.945	10.77
907.376	10.97
907.808	16.17
908.239	9.37
908.671	16.67
909.102	9.67
909.534	13.47
909.965	30.57
910.397	64.17
910.828	230.27
911.259	371.67
911.691	167.87
912.122	75.67
912.553	31.07
912.984	18.87
913.415	18.37
913.847	15.57
914.278	6.07
914.709	5.87
915.14	11.97
915.571	10.67
916.002	7.87
916.433	16.77
916.864	15.67
917.295	16.07
917.726	16.47
918.157	7.17
918.587	19.57
919.018	17.17
919.449	16.27
919.88	17.97
920.311	24.27
920.741	33.27
921.172	118.07
921.603	114.97
922.033	48.07
922.464	33.57
922.895	19.37
923.325	19.17
923.756	5.47
924.186	9.77
924.617	15.77
925.047	14.97
925.478	22.07
925.908	22.37
926.338	10.77
926.769	5.97
927.199	18.37
927.629	6.37
928.06	9.37
928.49	6.37
928.92	12.67
929.35	8.07
929.78	7.67
930.21	3.27
930.641	6.77
931.071	9.57
931.501	-8.43
931.931	2.27
932.361	3.37
932.791	5.17
933.221	-0.53
933.651	8.47
934.08	10.77
934.51	26.27
934.94	8.57
935.37	0.27
935.8	8.97
936.229	-2.33
936.659	6.67
937.089	-4.53
937.519	12.27
937.948	17.47
938.378	18.67
938.807	3.07
939.237	0.97
939.666	-0.13
940.096	-8.93
940.525	-4.53
940.955	-5.83
941.384	0.77
941.814	-10.93
942.243	-6.43
942.672	2.27
943.102	-5.83
943.531	-1.93
943.96	3.57
944.39	2.87
944.819	-3.03
945.248	-1.13
945.677	-0.93
946.106	-0.03
946.535	1.47
946.964	-3.63
947.393	1.27
947.822	0.17
948.251	-0.63
948.68	1.07
949.109	0.47
949.538	1.57
949.967	2.37
950.396	-1.93
950.825	-0.63
951.254	-3.13
951.682	-9.73
952.111	3.97
952.54	5.97
952.969	-3.33
953.397	-6.93
953.826	1.87
954.254	-9.23
954.683	-0.23
955.112	-1.53
955.54	-2.73
955.969	4.37
956.397	-7.53
956.826	-2.93
957.254	-1.43
957.682	2.97
958.111	1.07
958.539	-5.83
958.967	-2.33
959.396	-6.83
959.824	3.47
960.252	0.37
960.68	-1.83
961.109	-7.13
961.537	-6.53
961.965	-4.93
962.393	6.27
962.821	-2.93
963.249	1.57
963.677	-3.93
964.105	0.77
964.533	29.97
964.961	26.37
965.389	8.87
965.817	6.17
966.245	0.17
966.672	-3.63
967.1	-6.43
967.528	-2.23
967.956	-5.03
968.383	3.17
968.811	-0.63
969.239	-5.03
969.666	-6.13
970.094	-0.03
970.522	-3.43
970.949	-2.93
971.377	-4.63
971.804	-9.53
972.232	-9.73
972.659	-2.43
973.087	-1.63
973.514	-6.53
973.941	-2.93
974.369	1.27
974.796	-0.93
975.223	-0.03
975.651	-1.83
976.078	5.47
976.505	-5.43
976.932	4.17
977.359	12.87
977.786	9.37
978.214	-6.13
978.641	-0.63
979.068	-10.43
979.495	-8.13
979.922	-0.13
980.349	-2.83
980.776	2.97
981.202	-3.13
981.629	8.07
982.056	1.87
982.483	-4.93
982.91	-0.33
983.337	-14.03
983.763	-1.73
984.19	-5.83
984.617	-1.43
985.043	-9.93
985.47	-2.73
985.897	-3.03
986.323	-9.23
986.75	-0.03
987.176	-1.23
987.603	2.17
988.029	-5.23
988.456	-4.13
988.882	-0.93
989.308	-4.03
989.735	-5.33
990.161	3.17
990.587	-7.53
991.014	-3.93
991.44	5.37
991.866	-3.13
992.292	-1.43
992.719	-4.33
993.145	-0.33
993.571	-9.33
993.997	-5.43
994.423	-2.03
994.849	-7.83
995.275	-2.33
995.701	-0.53
996.127	-3.93
996.553	-3.53
996.979	-6.13
997.405	-7.33
997.83	-12.93
998.256	-5.13
998.682	-5.23
999.108	-9.03
999.534	-1.53
999.959	-1.93
1000.385	-4.73
1000.811	1.27
1001.236	-15.93
1001.662	-9.13
1002.087	-10.93
1002.513	-1.73
1002.938	-0.93
1003.364	-3.53
1003.789	-1.23
1004.215	-2.63
1004.64	-4.43
1005.066	-0.43
1005.491	1.77
1005.916	-3.23
1006.342	-6.03
1006.767	-10.53
1007.192	-3.93
1007.617	-9.43
1008.042	-9.73
1008.468	-8.93
1008.893	-7.93
1009.318	-5.03
1009.743	-5.33
1010.168	3.37
1010.593	1.57
1011.018	-7.33
1011.443	-7.13
1011.868	-2.13
1012.293	0.47
1012.718	-11.93
1013.143	3.27
1013.567	-2.63
1013.992	-1.43
1014.417	-11.63
1014.842	0.37
1015.267	-1.13
1015.691	-1.63
1016.116	-0.43
1016.541	-5.23
1016.965	-2.43
1017.39	3.77
1017.814	-4.33
1018.239	-1.83
1018.663	-6.13
1019.088	-12.13
1019.512	-1.43
1019.937	-2.03
1020.361	-7.93
1020.785	-8.23
1021.21	-6.13
1021.634	-5.23
1022.058	3.17
1022.483	-1.83
1022.907	-1.43
1023.331	-9.53
1023.755	-10.63
1024.179	-2.23
1024.604	-7.73
1025.028	-14.03
1025.452	-6.23
1025.876	-3.93
1026.3	-4.63
1026.724	-15.23
1027.148	-2.13
1027.572	-7.23
1027.996	-2.63
1028.42	2.77
1028.843	-7.63
1029.267	-4.03
1029.691	-4.63
1030.115	-2.73
1030.539	-11.43
1030.962	-11.83
1031.386	-10.13
1031.81	-0.63
1032.233	0.57
1032.657	-0.03
1033.08	-4.03
1033.504	-3.73
1033.927	-0.63
1034.351	0.97
1034.774	-0.93
1035.198	-5.73
1035.621	-12.83
1036.045	-4.43
1036.468	0.97
1036.891	-11.43
1037.315	-14.63
1037.738	-9.93
1038.161	-2.83
1038.584	-2.13
1039.008	-2.73
1039.431	-2.93
1039.854	1.87
1040.277	-10.23
1040.7	-7.93
1041.123	-7.63
1041.546	-8.53
1041.969	-10.13
1042.392	-5.63
1042.815	-5.73
1043.238	2.37
1043.661	4.97
1044.084	-9.93
1044.507	-5.03
1044.93	-10.83
1045.352	-7.33
1045.775	-5.23
1046.198	-7.63
1046.621	-1.03
1047.043	1.27
1047.466	4.87
1047.889	-1.43
1048.311	-1.73
1048.734	-1.83
1049.156	-2.53
1049.579	-8.03
1050.001	-2.03
1050.424	3.17
1050.846	1.27
1051.269	-5.03
1051.691	-7.33
1052.113	-3.33
1052.536	-1.23
1052.958	-0.83
1053.38	-7.13
1053.802	-10.43
1054.225	-0.43
1054.647	-13.23
1055.069	-6.33
1055.491	-1.03
1055.913	-5.73
1056.335	0.27
1056.757	-2.13
1057.179	-10.73
1057.601	-2.83
1058.023	-6.13
1058.445	-1.43
1058.867	-7.93
1059.289	-1.03
1059.711	-0.83
1060.133	-3.73
1060.555	-5.73
1060.976	-5.73
1061.398	-6.03
1061.82	-10.13
1062.241	-4.13
1062.663	-5.63
1063.085	-2.13
1063.506	-0.53
1063.928	-7.13
1064.35	1.77
1064.771	-11.43
1065.193	-6.03
1065.614	-6.53
1066.035	-0.03
1066.457	0.37
1066.878	-4.33
1067.3	-4.33
1067.721	-4.03
1068.142	-2.83
1068.564	-5.23
1068.985	-3.33
1069.406	-7.53
1069.827	-6.53
1070.248	-0.33
1070.67	-7.53
1071.091	-3.03
1071.512	-0.33
1071.933	-9.43
1072.354	-9.03
1072.775	-7.93
1073.196	-13.93
1073.617	-10.63
1074.038	-12.63
1074.459	-1.03
1074.88	-10.23
1075.3	-0.63
1075.721	0.77
1076.142	0.57
1076.563	3.47
1076.983	-18.23
1077.404	-4.03
1077.825	-13.73
1078.246	-3.53
1078.666	-12.63
1079.087	-1.13
1079.507	-2.33
1079.928	-0.63
1080.348	1.37
1080.769	-4.53
1081.189	-0.53
1081.61	-2.43
1082.03	-14.03
1082.451	-10.83
1082.871	-0.23
1083.291	-4.93
1083.711	-8.53
1084.132	-1.83
1084.552	-5.43
1084.972	0.07
1085.392	-10.33
1085.813	-10.53
1086.233	-4.63
1086.653	-10.63
1087.073	-3.13
1087.493	-9.63
1087.913	-1.53
1088.333	-11.83
1088.753	-6.73
1089.173	0.37
1089.593	-3.03
1090.013	3.07
1090.433	3.17
1090.852	-5.13
1091.272	-2.13
1091.692	0.47
1092.112	-0.73
1092.531	-11.93
1092.951	-11.63
1093.371	-1.63
1093.79	-0.23
1094.21	-7.53
1094.63	-8.23
1095.049	-12.43
1095.469	1.97
1095.888	-9.23
1096.308	2.07
1096.727	3.17
1097.146	-6.73
1097.566	3.47
1097.985	-4.43
1098.405	-4.33
1098.824	-7.23
1099.243	-4.93
1099.662	-9.93
1100.082	-5.33
1100.501	-0.83
1100.92	-5.73
1101.339	-6.93
1101.758	-7.33
