Data from 20171114-ORNL-Ar_H_NY_Subt18_08-07-06-867.txt Node
Date: Tue Nov 14 08:07:06 EST 2017
User: Ender
Spectrometer: HR+D1039
Trigger mode: 0
Integration Time (sec): 2.730000E-2
Scans to average: 10
Electric dark correction enabled: true
Nonlinearity correction enabled: false
Boxcar width: 0
XAxis mode: Wavelengths
Number of Pixels in Spectrum: 2048
>>>>>Begin Spectral Data<<<<<
187.836	-3.19
188.309	-3.19
188.782	-3.19
189.255	2.41
189.728	-3.19
190.201	6.61
190.674	2.91
191.147	1.91
191.619	-10.99
192.092	-2.89
192.565	4.11
193.038	0.71
193.511	0.31
193.984	2.51
194.456	-2.59
194.929	2.21
195.402	-2.49
195.874	1.71
196.347	1.91
196.82	-8.99
197.292	4.61
197.765	-4.39
198.237	-8.69
198.71	-0.89
199.182	2.61
199.655	-0.99
200.127	3.91
200.6	3.41
201.072	-2.39
201.544	-0.59
202.017	-0.69
202.489	5.81
202.961	2.41
203.433	3.51
203.906	-2.59
204.378	-3.99
204.85	-4.59
205.322	-10.19
205.794	-7.89
206.266	-4.09
206.739	-11.89
207.211	-2.59
207.683	-0.39
208.155	-5.19
208.627	-6.49
209.099	-8.49
209.57	-10.39
210.042	1.11
210.514	-1.49
210.986	-0.79
211.458	-2.99
211.93	-1.19
212.402	2.21
212.873	-2.49
213.345	-6.39
213.817	-11.89
214.288	-4.29
214.76	-9.09
215.232	-2.59
215.703	-5.59
216.175	-3.09
216.646	-3.39
217.118	-3.69
217.589	-5.69
218.061	-9.09
218.532	-5.09
219.004	-1.99
219.475	-3.39
219.946	-8.19
220.418	-4.39
220.889	-1.69
221.36	-1.89
221.832	-3.19
222.303	-5.89
222.774	4.11
223.245	-9.79
223.717	-7.39
224.188	-1.29
224.659	-10.29
225.13	-10.89
225.601	-3.89
226.072	2.91
226.543	-2.79
227.014	-3.59
227.485	-6.79
227.956	-3.79
228.427	-5.09
228.898	1.11
229.369	-0.79
229.839	-4.99
230.31	-5.89
230.781	4.71
231.252	1.41
231.722	-6.49
232.193	-10.89
232.664	-7.49
233.135	-1.49
233.605	-6.69
234.076	-6.59
234.546	-2.89
235.017	7.11
235.487	-2.49
235.958	-4.79
236.428	-0.49
236.899	-7.09
237.369	0.71
237.84	-0.59
238.31	-2.79
238.78	-1.49
239.251	0.21
239.721	-3.99
240.191	-5.19
240.662	0.41
241.132	-0.09
241.602	-10.09
242.072	-3.49
242.542	8.71
243.013	-2.59
243.483	-0.29
243.953	1.21
244.423	-6.49
244.893	-2.59
245.363	-0.29
245.833	4.21
246.303	-2.79
246.773	3.01
247.243	-0.69
247.712	-1.59
248.182	2.91
248.652	2.11
249.122	-6.69
249.592	-3.99
250.061	-0.29
250.531	5.81
251.001	-0.19
251.471	5.11
251.94	4.61
252.41	1.11
252.879	-5.79
253.349	4.61
253.818	5.21
254.288	2.81
254.757	-2.99
255.227	0.11
255.696	-5.39
256.166	-1.29
256.635	-0.99
257.105	-1.39
257.574	-2.19
258.043	-0.89
258.513	-1.89
258.982	7.31
259.451	-0.89
259.92	-5.29
260.389	1.61
260.859	4.51
261.328	3.31
261.797	4.11
262.266	0.01
262.735	2.41
263.204	1.11
263.673	-0.39
264.142	-2.19
264.611	-7.19
265.08	-3.19
265.549	-5.39
266.018	6.21
266.487	-7.69
266.955	-8.89
267.424	0.91
267.893	10.31
268.362	-0.89
268.83	-0.19
269.299	7.51
269.768	4.51
270.236	-2.89
270.705	1.51
271.174	2.51
271.642	2.61
272.111	0.01
272.579	6.51
273.048	1.51
273.516	2.51
273.985	4.81
274.453	4.41
274.922	8.81
275.39	8.41
275.858	-2.49
276.327	6.51
276.795	9.11
277.263	3.81
277.731	11.31
278.2	5.81
278.668	6.61
279.136	5.41
279.604	-0.69
280.072	3.51
280.54	6.31
281.008	-0.19
281.477	11.01
281.945	6.21
282.413	8.41
282.881	8.31
283.348	-0.19
283.816	13.71
284.284	10.41
284.752	12.31
285.22	8.31
285.688	8.81
286.156	7.21
286.623	11.71
287.091	7.41
287.559	8.51
288.026	5.21
288.494	13.51
288.962	-0.79
289.429	5.01
289.897	14.31
290.364	6.31
290.832	14.11
291.3	11.41
291.767	14.11
292.234	20.71
292.702	6.11
293.169	16.61
293.637	14.91
294.104	16.41
294.571	4.21
295.039	5.51
295.506	7.91
295.973	10.91
296.44	6.91
296.908	6.61
297.375	10.81
297.842	11.01
298.309	12.21
298.776	5.71
299.243	20.71
299.71	8.11
300.177	11.51
300.644	13.81
301.111	11.51
301.578	14.01
302.045	3.71
302.512	16.81
302.979	18.91
303.446	12.81
303.913	8.31
304.379	9.11
304.846	19.81
305.313	20.71
305.78	15.01
306.246	16.01
306.713	23.81
307.18	17.51
307.646	16.01
308.113	23.61
308.579	19.01
309.046	15.61
309.512	20.01
309.979	11.71
310.445	18.61
310.912	22.61
311.378	20.21
311.845	19.91
312.311	19.01
312.777	22.11
313.244	24.71
313.71	28.11
314.176	20.51
314.642	20.11
315.109	28.71
315.575	24.11
316.041	32.31
316.507	23.01
316.973	34.51
317.439	23.71
317.905	30.61
318.371	30.51
318.837	28.21
319.303	24.41
319.769	30.41
320.235	31.01
320.701	26.51
321.167	31.81
321.633	24.91
322.099	30.01
322.564	30.31
323.03	28.71
323.496	30.91
323.962	32.31
324.427	28.81
324.893	33.91
325.359	28.11
325.824	23.31
326.29	27.81
326.755	34.31
327.221	33.71
327.686	33.11
328.152	37.91
328.617	36.91
329.083	42.61
329.548	46.51
330.014	39.91
330.479	31.51
330.944	38.31
331.41	37.61
331.875	35.71
332.34	35.21
332.805	36.51
333.271	39.01
333.736	35.81
334.201	42.11
334.666	43.01
335.131	49.71
335.596	35.01
336.061	33.51
336.526	33.11
336.991	42.31
337.456	47.01
337.921	36.71
338.386	38.21
338.851	39.01
339.316	42.81
339.781	41.51
340.246	41.91
340.711	37.81
341.175	44.31
341.64	35.61
342.105	41.11
342.569	43.81
343.034	49.31
343.499	46.91
343.963	42.91
344.428	60.51
344.893	49.51
345.357	52.61
345.822	49.51
346.286	58.21
346.751	59.51
347.215	57.01
347.679	55.71
348.144	72.21
348.608	68.81
349.073	54.91
349.537	66.61
350.001	62.61
350.465	75.11
350.93	67.21
351.394	69.91
351.858	57.21
352.322	71.71
352.786	74.91
353.25	78.31
353.715	93.01
354.179	76.41
354.643	101.21
355.107	104.11
355.571	88.91
356.035	84.01
356.498	93.71
356.962	92.61
357.426	99.81
357.89	93.41
358.354	78.11
358.818	74.01
359.281	65.51
359.745	67.61
360.209	64.61
360.673	63.71
361.136	68.31
361.6	75.71
362.064	69.91
362.527	71.21
362.991	78.21
363.454	66.51
363.918	66.61
364.381	72.01
364.845	69.61
365.308	78.51
365.772	79.91
366.235	73.61
366.698	72.31
367.162	80.41
367.625	70.61
368.088	73.81
368.552	76.91
369.015	76.91
369.478	86.61
369.941	82.11
370.404	86.21
370.867	87.41
371.331	94.91
371.794	95.31
372.257	93.61
372.72	99.01
373.183	92.51
373.646	82.01
374.109	83.11
374.572	93.61
375.035	89.31
375.497	95.11
375.96	94.41
376.423	94.41
376.886	98.61
377.349	99.61
377.811	89.21
378.274	93.91
378.737	101.91
379.199	98.41
379.662	101.91
380.125	94.61
380.587	96.81
381.05	103.21
381.512	104.91
381.975	111.81
382.437	110.71
382.9	113.81
383.362	111.71
383.825	117.11
384.287	107.81
384.75	113.81
385.212	108.81
385.674	123.31
386.136	119.71
386.599	110.81
387.061	114.71
387.523	112.51
387.985	119.51
388.447	124.01
388.91	119.41
389.372	121.91
389.834	119.41
390.296	117.71
390.758	122.91
391.22	127.91
391.682	132.21
392.144	144.71
392.606	138.91
393.068	134.51
393.529	143.01
393.991	134.01
394.453	123.81
394.915	121.41
395.377	124.21
395.838	133.81
396.3	129.11
396.762	133.11
397.224	129.41
397.685	128.01
398.147	132.71
398.608	130.81
399.07	124.41
399.531	134.81
399.993	138.01
400.454	153.11
400.916	135.91
401.377	142.41
401.839	148.51
402.3	150.31
402.762	163.01
403.223	163.51
403.684	154.11
404.145	149.71
404.607	159.91
405.068	158.51
405.529	163.01
405.99	183.21
406.451	167.11
406.913	165.71
407.374	156.51
407.835	158.41
408.296	162.01
408.757	166.91
409.218	178.01
409.679	172.71
410.14	167.21
410.601	170.41
411.062	174.21
411.522	173.91
411.983	181.61
412.444	175.71
412.905	182.01
413.366	181.11
413.826	196.71
414.287	219.91
414.748	267.71
415.208	253.61
415.669	215.11
416.13	212.11
416.59	206.41
417.051	213.81
417.511	220.91
417.972	240.01
418.432	252.81
418.893	294.21
419.353	249.81
419.814	200.01
420.274	181.01
420.734	179.51
421.195	196.81
421.655	188.51
422.115	192.51
422.576	185.41
423.036	199.11
423.496	203.21
423.956	217.51
424.416	227.11
424.876	263.81
425.336	260.61
425.797	266.61
426.257	257.11
426.717	238.41
427.177	238.61
427.637	218.81
428.097	233.11
428.556	245.41
429.016	260.61
429.476	262.41
429.936	264.71
430.396	273.81
430.856	280.71
431.315	302.11
431.775	335.61
432.235	367.31
432.694	340.31
433.154	347.91
433.614	377.31
434.073	322.51
434.533	271.11
434.993	258.61
435.452	271.21
435.912	284.81
436.371	275.41
436.83	276.81
437.29	257.51
437.749	241.31
438.209	244.81
438.668	274.61
439.127	282.51
439.587	256.11
440.046	243.81
440.505	260.41
440.964	279.71
441.424	311.81
441.883	304.41
442.342	258.71
442.801	225.31
443.26	230.21
443.719	231.71
444.178	223.11
444.637	218.31
445.096	231.61
445.555	229.51
446.014	234.01
446.473	228.91
446.932	231.01
447.391	231.11
447.849	239.91
448.308	219.61
448.767	230.31
449.226	242.51
449.685	246.61
450.143	258.31
450.602	241.81
451.061	238.01
451.519	233.81
451.978	241.11
452.436	244.01
452.895	246.71
453.353	258.51
453.812	247.91
454.27	250.51
454.729	241.81
455.187	244.81
455.646	254.21
456.104	260.01
456.562	268.91
457.021	273.31
457.479	268.71
457.937	278.81
458.395	275.61
458.854	258.91
459.312	262.81
459.77	275.51
460.228	266.71
460.686	257.31
461.144	264.81
461.602	255.41
462.06	253.81
462.518	259.31
462.976	263.91
463.434	263.91
463.892	272.81
464.35	282.61
464.808	295.11
465.266	284.11
465.724	282.11
466.181	288.11
466.639	288.11
467.097	301.21
467.555	308.91
468.012	314.21
468.47	311.41
468.928	340.71
469.385	353.91
469.843	353.71
470.3	353.81
470.758	370.01
471.215	390.91
471.673	417.61
472.13	411.21
472.588	428.61
473.045	384.21
473.503	397.31
473.96	407.41
474.417	418.91
474.875	441.21
475.332	477.21
475.789	467.51
476.246	480.41
476.704	499.41
477.161	517.21
477.618	541.21
478.075	568.11
478.532	620.71
478.989	692.11
479.446	797.51
479.903	761.61
480.36	801.91
480.817	855.01
481.274	935.61
481.731	1018.71
482.188	1108.31
482.645	1219.81
483.102	1314.81
483.558	1431.11
484.015	1463.01
484.472	1445.01
484.929	1400.91
485.385	1361.01
485.842	1330.51
486.299	1293.31
486.755	1245.51
487.212	1058.61
487.668	922.81
488.125	840.91
488.582	776.41
489.038	745.51
489.494	714.31
489.951	697.91
490.407	682.91
490.864	658.81
491.32	646.01
491.776	658.31
492.233	671.41
492.689	629.91
493.145	624.11
493.602	608.41
494.058	623.91
494.514	637.31
494.97	657.41
495.426	662.91
495.882	642.91
496.338	624.61
496.794	638.01
497.251	627.91
497.707	650.41
498.163	652.41
498.618	653.61
499.074	666.21
499.53	685.91
499.986	688.71
500.442	657.61
500.898	636.61
501.354	632.11
501.809	637.41
502.265	639.81
502.721	657.21
503.177	666.31
503.632	669.01
504.088	674.21
504.543	690.01
504.999	713.61
505.455	683.01
505.91	656.71
506.366	662.41
506.821	656.91
507.277	646.71
507.732	650.01
508.187	651.71
508.643	657.21
509.098	672.31
509.553	681.21
510.009	686.01
510.464	696.51
510.919	726.71
511.375	717.11
511.83	731.31
512.285	755.11
512.74	797.71
513.195	810.91
513.65	794.41
514.105	783.11
514.56	791.81
515.015	815.21
515.47	833.31
515.925	806.01
516.38	803.71
516.835	815.51
517.29	809.91
517.745	811.81
518.2	790.51
518.655	778.41
519.109	770.61
519.564	767.41
520.019	760.21
520.474	746.81
520.928	757.61
521.383	747.41
521.838	743.41
522.292	736.91
522.747	738.71
523.201	735.91
523.656	728.61
524.11	717.21
524.565	723.21
525.019	720.51
525.474	725.51
525.928	716.71
526.382	724.11
526.837	727.61
527.291	734.61
527.745	726.81
528.2	728.71
528.654	714.91
529.108	720.11
529.562	716.71
530.016	716.91
530.47	706.51
530.925	719.61
531.379	712.31
531.833	731.51
532.287	723.41
532.741	729.41
533.195	724.01
533.649	734.71
534.103	735.21
534.556	733.41
535.01	730.31
535.464	728.51
535.918	747.01
536.372	746.51
536.826	751.91
537.279	735.81
537.733	738.61
538.187	739.81
538.64	737.71
539.094	743.61
539.548	762.41
540.001	754.61
540.455	750.11
540.908	752.51
541.362	764.31
541.815	775.11
542.269	780.71
542.722	791.51
543.175	794.91
543.629	800.81
544.082	810.81
544.536	825.01
544.989	823.41
545.442	820.01
545.895	819.31
546.349	825.41
546.802	820.11
547.255	832.31
547.708	825.91
548.161	853.81
548.614	853.11
549.067	865.21
549.52	848.91
549.973	846.21
550.426	847.31
550.879	828.41
551.332	836.81
551.785	839.11
552.238	840.51
552.691	849.21
553.144	870.31
553.596	876.91
554.049	898.81
554.502	926.11
554.955	947.81
555.407	946.71
555.86	937.41
556.313	929.81
556.765	929.71
557.218	928.61
557.67	916.81
558.123	914.71
558.576	906.21
559.028	907.41
559.48	922.21
559.933	902.91
560.385	875.31
560.838	836.91
561.29	822.81
561.742	817.41
562.195	802.21
562.647	804.31
563.099	803.51
563.551	811.81
564.004	808.51
564.456	801.11
564.908	794.11
565.36	771.31
565.812	755.31
566.264	754.01
566.716	735.31
567.168	727.91
567.62	733.91
568.072	728.81
568.524	724.61
568.976	722.51
569.428	705.51
569.88	703.41
570.332	712.41
570.784	712.21
571.235	714.31
571.687	729.21
572.139	736.11
572.59	745.11
573.042	731.31
573.494	736.51
573.945	736.31
574.397	723.41
574.849	725.11
575.3	723.31
575.752	712.01
576.203	705.11
576.655	712.41
577.106	697.41
577.557	697.11
578.009	695.71
578.46	697.91
578.912	686.81
579.363	686.21
579.814	693.41
580.265	683.61
580.717	690.41
581.168	693.11
581.619	699.31
582.07	708.31
582.521	702.81
582.972	702.71
583.423	705.91
583.875	700.11
584.326	707.51
584.777	723.51
585.227	749.81
585.678	752.81
586.129	769.61
586.58	787.11
587.031	802.91
587.482	841.91
587.933	862.51
588.384	849.71
588.834	819.61
589.285	798.91
589.736	795.31
590.186	799.51
590.637	794.71
591.088	772.11
591.538	767.51
591.989	759.01
592.439	761.31
592.89	737.41
593.34	743.51
593.791	731.21
594.241	723.01
594.692	723.51
595.142	719.51
595.593	722.01
596.043	729.61
596.493	734.61
596.943	728.81
597.394	737.11
597.844	728.81
598.294	753.01
598.744	775.51
599.195	815.11
599.645	855.11
600.095	896.51
600.545	943.81
600.995	998.31
601.445	1059.11
601.895	1128.11
602.345	1162.91
602.795	1161.61
603.245	1118.11
603.695	1044.51
604.145	998.01
604.594	936.81
605.044	899.51
605.494	833.11
605.944	773.71
606.393	766.21
606.843	760.91
607.293	754.11
607.743	760.91
608.192	759.71
608.642	780.61
609.091	773.11
609.541	796.51
609.99	782.21
610.44	785.21
610.889	750.41
611.339	728.31
611.788	697.11
612.238	716.81
612.687	722.51
613.136	719.21
613.586	730.41
614.035	721.21
614.484	739.61
614.933	724.01
615.383	730.61
615.832	724.71
616.281	719.11
616.73	693.61
617.179	669.91
617.628	660.31
618.077	654.01
618.526	644.71
618.975	638.81
619.424	630.61
619.873	629.81
620.322	629.81
620.771	618.81
621.22	619.51
621.669	612.41
622.118	598.61
622.567	599.41
623.015	577.61
623.464	575.61
623.913	571.01
624.361	567.91
624.81	562.51
625.259	566.11
625.707	577.01
626.156	578.11
626.604	582.71
627.053	576.81
627.501	582.11
627.95	581.91
628.398	599.01
628.847	590.21
629.295	589.31
629.744	594.41
630.192	584.61
630.64	579.01
631.089	566.91
631.537	554.71
631.985	539.41
632.433	541.81
632.881	530.91
633.33	540.41
633.778	540.11
634.226	535.81
634.674	555.91
635.122	556.31
635.57	569.01
636.018	578.81
636.466	575.81
636.914	577.21
637.362	584.31
637.81	597.81
638.258	598.71
638.705	595.01
639.153	626.01
639.601	635.51
640.049	657.21
640.497	699.21
640.944	703.21
641.392	667.41
641.84	627.21
642.287	598.81
642.735	573.21
643.182	572.41
643.63	571.71
644.078	576.01
644.525	582.81
644.973	596.51
645.42	602.91
645.867	625.11
646.315	642.61
646.762	670.61
647.21	700.11
647.657	711.71
648.104	750.41
648.551	765.61
648.999	821.71
649.446	900.71
649.893	982.51
650.34	1118.71
650.787	1324.11
651.234	1633.41
651.682	2107.61
652.129	2875.01
652.576	4046.01
653.023	5939.91
653.47	7984.71
653.917	9947.61
654.363	11427.21
654.81	12666.91
655.257	12001.01
655.704	7948.21
656.151	4798.41
656.598	3158.01
657.044	2265.41
657.491	1756.51
657.938	1415.81
658.385	1186.61
658.831	1043.91
659.278	935.21
659.724	846.31
660.171	779.41
660.618	712.51
661.064	683.01
661.511	664.61
661.957	648.91
662.404	650.91
662.85	654.01
663.296	630.41
663.743	565.61
664.189	549.11
664.635	541.21
665.082	530.51
665.528	538.41
665.974	531.41
666.42	521.91
666.867	514.01
667.313	500.11
667.759	478.91
668.205	461.31
668.651	458.61
669.097	455.11
669.543	450.51
669.989	453.01
670.435	459.21
670.881	451.31
671.327	461.11
671.773	477.21
672.219	506.91
672.665	561.81
673.11	603.31
673.556	652.81
674.002	692.11
674.448	680.41
674.893	574.01
675.339	499.21
675.785	456.61
676.23	428.91
676.676	409.21
677.122	389.91
677.567	388.31
678.013	388.11
678.458	372.91
678.904	378.91
679.349	361.61
679.794	360.31
680.24	367.71
680.685	365.51
681.131	353.91
681.576	359.81
682.021	370.21
682.466	360.11
682.912	362.61
683.357	361.41
683.802	392.81
684.247	422.81
684.692	471.31
685.137	513.31
685.583	549.81
686.028	577.31
686.473	531.21
686.918	465.71
687.363	426.71
687.807	413.01
688.252	378.21
688.697	369.91
689.142	352.71
689.587	340.91
690.032	337.11
690.477	352.21
690.921	364.71
691.366	393.41
691.811	414.51
692.255	452.11
692.7	472.61
693.145	524.61
693.589	723.31
694.034	1186.61
694.478	1605.31
694.923	1801.91
695.367	2358.21
695.812	1249.31
696.256	520.71
696.701	392.61
697.145	353.11
697.59	329.11
698.034	335.01
698.478	328.31
698.922	327.61
699.367	333.91
699.811	334.91
700.255	364.61
700.699	399.71
701.143	438.41
701.588	487.31
702.032	519.91
702.476	530.91
702.92	510.41
703.364	515.31
703.808	665.01
704.252	1076.01
704.696	1511.91
705.14	1744.31
705.584	2214.81
706.027	1093.01
706.471	543.81
706.915	418.01
707.359	370.51
707.803	332.71
708.246	325.51
708.69	322.11
709.134	319.81
709.577	321.51
710.021	332.41
710.465	306.21
710.908	307.81
711.352	307.41
711.795	324.01
712.239	364.81
712.682	397.51
713.126	418.21
713.569	470.51
714.012	377.31
714.456	316.11
714.899	295.61
715.342	280.91
715.786	267.51
716.229	267.41
716.672	258.21
717.115	253.01
717.558	260.81
718.002	260.71
718.445	266.81
718.888	291.81
719.331	297.51
719.774	316.01
720.217	309.01
720.66	297.91
721.103	277.71
721.546	266.21
721.989	248.81
722.432	230.41
722.874	248.91
723.317	240.91
723.76	239.71
724.203	269.01
724.645	327.81
725.088	458.31
725.531	593.91
725.974	670.21
726.416	569.31
726.859	312.51
727.301	244.31
727.744	246.01
728.187	234.01
728.629	243.91
729.071	250.41
729.514	265.11
729.956	287.11
730.399	293.01
730.841	298.51
731.283	289.81
731.726	277.31
732.168	264.91
732.61	285.51
733.053	299.81
733.495	319.31
733.937	367.91
734.379	419.11
734.821	459.51
735.263	564.21
735.705	885.61
736.148	1649.41
736.59	2690.91
737.032	3194.81
737.474	2604.91
737.916	850.91
738.357	437.31
738.799	343.41
739.241	309.71
739.683	290.91
740.125	300.81
740.567	312.81
741.008	325.81
741.45	328.11
741.892	323.31
742.334	362.71
742.775	378.71
743.217	353.41
743.658	284.61
744.1	268.11
744.542	276.41
744.983	330.71
745.425	365.71
745.866	352.51
746.307	291.81
746.749	295.81
747.19	338.41
747.632	482.41
748.073	929.71
748.514	1967.01
748.956	2985.21
749.397	3749.31
749.838	3120.81
750.279	3072.81
750.72	1563.21
751.162	575.91
751.603	336.61
752.044	265.71
752.485	226.41
752.926	212.31
753.367	207.31
753.808	204.01
754.249	193.41
754.69	194.31
755.131	184.11
755.572	188.91
756.013	182.61
756.453	189.41
756.894	196.71
757.335	201.41
757.776	199.91
758.216	207.31
758.657	203.51
759.098	211.61
759.538	232.91
759.979	277.11
760.42	388.71
760.86	747.51
761.301	1935.51
761.741	4663.71
762.182	6719.01
762.622	4747.91
763.063	1368.01
763.503	557.11
763.943	336.41
764.384	278.81
764.824	249.01
765.264	239.51
765.705	214.01
766.145	187.71
766.585	180.51
767.025	171.31
767.465	169.71
767.906	182.51
768.346	191.51
768.786	199.61
769.226	226.51
769.666	310.91
770.106	646.41
770.546	1631.31
770.986	2747.21
771.426	2457.01
771.866	824.41
772.306	341.91
772.745	218.21
773.185	178.81
773.625	169.11
774.065	158.61
774.505	175.01
774.944	223.01
775.384	367.01
775.824	598.21
776.263	587.91
776.703	289.61
777.142	170.71
777.582	137.71
778.021	133.21
778.461	125.51
778.9	125.71
779.34	128.81
779.779	117.91
780.219	118.51
780.658	110.21
781.097	113.01
781.537	117.11
781.976	111.21
782.415	104.71
782.855	107.41
783.294	106.51
783.733	110.31
784.172	109.51
784.611	101.81
785.05	109.01
785.489	117.51
785.928	119.01
786.367	116.11
786.806	119.11
787.245	138.21
787.684	143.01
788.123	149.91
788.562	138.71
789.001	131.01
789.44	125.11
789.879	118.71
790.317	124.51
790.756	122.11
791.195	132.31
791.634	148.21
792.072	212.21
792.511	384.71
792.95	1056.01
793.388	2200.21
793.827	1986.31
794.265	698.91
794.704	283.21
795.142	193.81
795.581	162.71
796.019	141.31
796.458	129.11
796.896	126.51
797.334	140.21
797.773	170.41
798.211	232.81
798.649	469.71
799.087	1065.61
799.526	1664.31
799.964	2105.01
800.402	2079.21
800.84	788.21
801.278	326.11
801.716	202.41
802.154	159.11
802.592	153.41
803.03	148.51
803.468	134.11
803.906	155.71
804.344	147.61
804.782	147.71
805.22	134.51
805.658	137.41
806.096	154.91
806.533	163.71
806.971	179.31
807.409	227.51
807.847	340.31
808.284	701.61
808.722	1948.11
809.16	3435.01
809.597	3312.91
810.035	5693.31
810.472	6009.31
810.91	2193.81
811.347	833.81
811.785	430.71
812.222	261.41
812.66	208.31
813.097	173.91
813.535	141.31
813.972	132.71
814.409	117.21
814.846	111.81
815.284	118.41
815.721	101.81
816.158	102.21
816.595	119.01
817.032	156.21
817.47	188.21
817.907	148.31
818.344	108.01
818.781	99.71
819.218	99.91
819.655	126.61
820.092	205.01
820.529	222.31
820.966	174.91
821.403	128.41
821.839	102.61
822.276	103.31
822.713	132.91
823.15	137.11
823.587	122.81
824.023	158.51
824.46	318.61
824.897	942.31
825.333	1408.41
825.77	602.71
826.206	242.81
826.643	138.81
827.08	106.41
827.516	88.91
827.953	84.01
828.389	85.71
828.825	73.31
829.262	71.51
829.698	63.61
830.135	65.51
830.571	63.51
831.007	62.61
831.443	65.11
831.88	66.71
832.316	66.91
832.752	61.21
833.188	67.41
833.624	66.61
834.06	64.71
834.497	70.01
834.933	74.51
835.369	81.71
835.805	71.41
836.241	82.01
836.677	73.91
837.112	96.31
837.548	106.31
837.984	135.11
838.42	207.91
838.856	523.71
839.292	1589.11
839.727	2392.91
840.163	1129.61
840.599	972.61
841.034	2121.41
841.47	2210.01
841.906	801.61
842.341	345.41
842.777	204.41
843.212	203.71
843.648	191.31
844.083	113.51
844.519	93.11
844.954	74.91
845.39	65.11
845.825	62.61
846.261	61.51
846.696	48.41
847.131	52.81
847.566	61.01
848.002	53.81
848.437	60.41
848.872	62.81
849.307	62.21
849.742	89.31
850.177	185.31
850.613	583.91
851.048	909.31
851.483	399.61
851.918	162.61
852.353	87.61
852.788	60.01
853.223	57.01
853.657	55.81
854.092	49.11
854.527	42.41
854.962	37.11
855.397	42.71
855.832	55.41
856.266	34.91
856.701	43.71
857.136	41.61
857.57	46.61
858.005	50.41
858.44	64.41
858.874	50.01
859.309	55.81
859.743	39.81
860.178	54.91
860.612	50.91
861.047	49.81
861.481	73.41
861.915	73.41
862.35	55.01
862.784	32.71
863.218	42.01
863.653	38.41
864.087	49.41
864.521	57.51
864.955	66.71
865.39	161.51
865.824	180.51
866.258	124.41
866.692	179.71
867.126	190.61
867.56	113.41
867.994	60.11
868.428	36.71
868.862	48.11
869.296	59.71
869.73	66.61
870.164	57.51
870.598	49.11
871.031	40.41
871.465	35.61
871.899	34.01
872.333	20.31
872.766	26.61
873.2	25.71
873.634	29.31
874.067	25.61
874.501	22.81
874.935	33.71
875.368	34.71
875.802	22.31
876.235	24.71
876.669	23.81
877.102	22.01
877.535	24.31
877.969	23.31
878.402	24.01
878.836	14.61
879.269	19.61
879.702	28.41
880.135	22.71
880.569	23.11
881.002	26.01
881.435	22.51
881.868	19.11
882.301	20.61
882.734	18.61
883.167	27.11
883.601	21.31
884.034	24.91
884.467	12.51
884.899	21.81
885.332	13.91
885.765	16.41
886.198	12.61
886.631	18.11
887.064	21.81
887.497	21.91
887.929	26.81
888.362	12.41
888.795	20.51
889.228	18.91
889.66	20.71
890.093	13.21
890.526	18.81
890.958	12.11
891.391	21.21
891.823	25.31
892.256	20.91
892.688	12.01
893.121	14.81
893.553	13.31
893.985	23.01
894.418	26.51
894.85	13.11
895.282	18.41
895.715	15.61
896.147	23.31
896.579	21.21
897.011	11.31
897.444	13.91
897.876	13.51
898.308	14.91
898.74	12.41
899.172	19.21
899.604	26.61
900.036	25.41
900.468	12.71
900.9	12.71
901.332	20.11
901.764	17.61
902.196	23.81
902.628	16.31
903.06	14.61
903.491	33.81
903.923	27.31
904.355	21.11
904.787	20.41
905.218	25.01
905.65	17.51
906.082	13.41
906.513	16.51
906.945	22.01
907.376	11.51
907.808	25.01
908.239	23.51
908.671	22.11
909.102	22.71
909.534	23.31
909.965	50.71
910.397	103.71
910.828	323.11
911.259	490.21
911.691	224.01
912.122	115.91
912.553	52.91
912.984	37.41
913.415	21.31
913.847	24.91
914.278	14.41
914.709	16.71
915.14	16.81
915.571	15.41
916.002	14.81
916.433	20.81
916.864	12.31
917.295	11.31
917.726	20.31
918.157	10.01
918.587	27.81
919.018	21.71
919.449	17.81
919.88	24.31
920.311	33.01
920.741	51.61
921.172	171.21
921.603	155.91
922.033	82.41
922.464	49.61
922.895	24.01
923.325	22.21
923.756	14.21
924.186	11.51
924.617	23.01
925.047	17.81
925.478	27.11
925.908	20.31
926.338	12.21
926.769	9.91
927.199	21.41
927.629	9.61
928.06	14.91
928.49	13.41
928.92	14.31
929.35	11.21
929.78	7.01
930.21	10.51
930.641	10.01
931.071	7.81
931.501	3.41
931.931	9.01
932.361	13.11
932.791	3.51
933.221	8.81
933.651	1.41
934.08	12.91
934.51	24.91
934.94	5.91
935.37	5.91
935.8	9.11
936.229	8.11
936.659	9.81
937.089	9.31
937.519	14.01
937.948	26.91
938.378	16.51
938.807	5.51
939.237	4.31
939.666	6.01
940.096	-3.09
940.525	5.31
940.955	4.81
941.384	6.71
941.814	-3.79
942.243	-4.49
942.672	3.81
943.102	-0.49
943.531	1.31
943.96	5.41
944.39	7.01
944.819	0.91
945.248	0.51
945.677	7.41
946.106	8.31
946.535	5.41
946.964	1.61
947.393	2.11
947.822	-0.39
948.251	-2.69
948.68	11.61
949.109	6.41
949.538	5.11
949.967	-0.89
950.396	-0.49
950.825	-1.89
951.254	0.11
951.682	-6.49
952.111	4.61
952.54	9.51
952.969	0.01
953.397	-9.99
953.826	4.31
954.254	-6.99
954.683	4.81
955.112	3.11
955.54	5.71
955.969	-1.69
956.397	2.11
956.826	-0.49
957.254	7.31
957.682	0.51
958.111	5.61
958.539	-1.89
958.967	4.61
959.396	-1.09
959.824	2.31
960.252	1.51
960.68	-6.49
961.109	1.11
961.537	-8.99
961.965	-3.39
962.393	3.71
962.821	-5.59
963.249	1.01
963.677	10.51
964.105	4.11
964.533	46.01
964.961	44.51
965.389	23.21
965.817	5.41
966.245	0.31
966.672	-1.39
967.1	-2.69
967.528	0.71
967.956	-0.79
968.383	1.51
968.811	-3.59
969.239	0.41
969.666	-5.19
970.094	-0.09
970.522	-0.79
970.949	-6.29
971.377	-6.59
971.804	-1.09
972.232	1.21
972.659	-3.79
973.087	-4.49
973.514	-0.49
973.941	-3.69
974.369	4.11
974.796	7.31
975.223	4.91
975.651	1.11
976.078	1.91
976.505	-1.19
976.932	1.71
977.359	16.41
977.786	13.51
978.214	4.11
978.641	-4.39
979.068	-0.79
979.495	-2.19
979.922	-1.09
980.349	-5.59
980.776	5.11
981.202	-0.89
981.629	12.21
982.056	3.91
982.483	0.01
982.91	0.31
983.337	-6.39
983.763	3.21
984.19	0.21
984.617	-5.89
985.043	-3.69
985.47	1.31
985.897	-6.69
986.323	-10.79
986.75	-0.39
987.176	0.71
987.603	0.51
988.029	-1.19
988.456	1.41
988.882	4.01
989.308	-5.69
989.735	0.31
990.161	-3.39
990.587	-4.59
991.014	5.41
991.44	7.71
991.866	-1.19
992.292	-3.69
992.719	-8.49
993.145	4.51
993.571	-5.29
993.997	-3.79
994.423	-1.59
994.849	-1.49
995.275	1.31
995.701	-1.89
996.127	-6.49
996.553	5.91
996.979	3.11
997.405	4.41
997.83	-7.79
998.256	-8.99
998.682	-1.59
999.108	-12.19
999.534	2.81
999.959	-2.39
1000.385	-0.59
1000.811	-4.29
1001.236	-5.89
1001.662	-9.29
1002.087	-5.69
1002.513	-1.49
1002.938	6.71
1003.364	0.41
1003.789	0.71
1004.215	2.11
1004.64	-3.39
1005.066	0.41
1005.491	-1.09
1005.916	-0.89
1006.342	-1.49
1006.767	-8.79
1007.192	2.41
1007.617	-6.89
1008.042	-7.39
1008.468	-8.49
1008.893	-1.79
1009.318	-3.59
1009.743	-4.39
1010.168	-1.69
1010.593	4.51
1011.018	-7.49
1011.443	-3.89
1011.868	2.71
1012.293	-5.89
1012.718	-9.89
1013.143	-0.59
1013.567	6.51
1013.992	-1.49
1014.417	-15.59
1014.842	-0.39
1015.267	-4.99
1015.691	0.71
1016.116	6.01
1016.541	-0.99
1016.965	4.41
1017.39	4.21
1017.814	-4.99
1018.239	1.41
1018.663	-7.69
1019.088	-11.09
1019.512	-1.19
1019.937	-6.49
1020.361	-3.29
1020.785	-3.99
1021.21	-6.39
1021.634	-5.89
1022.058	-0.59
1022.483	-2.99
1022.907	-2.29
1023.331	-1.99
1023.755	-3.49
1024.179	-2.29
1024.604	-5.39
1025.028	-1.49
1025.452	0.61
1025.876	-4.49
1026.3	-2.89
1026.724	-7.99
1027.148	1.81
1027.572	-9.99
1027.996	-4.79
1028.42	1.41
1028.843	-1.19
1029.267	-4.59
1029.691	2.51
1030.115	-6.09
1030.539	-10.69
1030.962	-8.19
1031.386	-12.79
1031.81	2.91
1032.233	-1.09
1032.657	0.71
1033.08	-2.09
1033.504	-2.59
1033.927	-5.99
1034.351	-2.19
1034.774	-2.39
1035.198	-3.29
1035.621	-6.39
1036.045	-7.89
1036.468	0.81
1036.891	-12.09
1037.315	-13.19
1037.738	-2.19
1038.161	5.21
1038.584	-4.19
1039.008	-6.39
1039.431	-1.89
1039.854	-8.79
1040.277	-9.39
1040.7	-13.69
1041.123	-2.49
1041.546	-10.59
1041.969	-3.39
1042.392	-1.29
1042.815	1.11
1043.238	0.01
1043.661	3.51
1044.084	-5.09
1044.507	-12.29
1044.93	-6.09
1045.352	-8.79
1045.775	0.21
1046.198	2.01
1046.621	3.11
1047.043	-0.39
1047.466	-1.09
1047.889	0.51
1048.311	-2.29
1048.734	-5.19
1049.156	-5.09
1049.579	-0.29
1050.001	2.01
1050.424	-0.99
1050.846	-1.39
1051.269	-1.69
1051.691	-4.69
1052.113	-8.19
1052.536	-1.99
1052.958	-1.29
1053.38	-7.89
1053.802	-6.89
1054.225	-3.49
1054.647	-13.39
1055.069	-3.49
1055.491	4.11
1055.913	-8.99
1056.335	4.81
1056.757	-7.39
1057.179	-5.19
1057.601	-2.09
1058.023	-4.99
1058.445	-1.79
1058.867	-7.29
1059.289	-2.19
1059.711	-10.39
1060.133	0.61
1060.555	-4.89
1060.976	-5.69
1061.398	-0.29
1061.82	-7.19
1062.241	-0.59
1062.663	-3.29
1063.085	-3.09
1063.506	-8.69
1063.928	-0.09
1064.35	4.01
1064.771	-9.39
1065.193	-5.69
1065.614	-6.79
1066.035	0.01
1066.457	-6.59
1066.878	1.61
1067.3	-7.19
1067.721	-9.69
1068.142	-5.09
1068.564	-3.79
1068.985	-3.89
1069.406	-1.29
1069.827	-1.09
1070.248	6.71
1070.67	-1.39
1071.091	-1.49
1071.512	6.21
1071.933	-9.29
1072.354	-3.39
1072.775	-3.49
1073.196	-5.99
1073.617	-2.89
1074.038	-2.69
1074.459	1.31
1074.88	-7.29
1075.3	0.31
1075.721	-4.59
1076.142	3.31
1076.563	-2.19
1076.983	-12.39
1077.404	-6.39
1077.825	-10.89
1078.246	-3.89
1078.666	-11.19
1079.087	-1.89
1079.507	-4.89
1079.928	0.51
1080.348	0.11
1080.769	0.41
1081.189	-3.29
1081.61	-2.59
1082.03	-7.39
1082.451	-5.19
1082.871	-2.19
1083.291	-8.09
1083.711	-10.49
1084.132	-3.29
1084.552	-5.09
1084.972	-1.99
1085.392	-10.89
1085.813	-9.29
1086.233	-6.49
1086.653	-10.89
1087.073	-6.39
1087.493	-4.09
1087.913	-8.09
1088.333	-5.59
1088.753	-4.39
1089.173	9.01
1089.593	0.41
1090.013	4.11
1090.433	-0.19
1090.852	-2.69
1091.272	3.61
1091.692	-0.39
1092.112	-4.99
1092.531	-13.09
1092.951	-10.19
1093.371	2.11
1093.79	1.01
1094.21	3.51
1094.63	-5.99
1095.049	-2.59
1095.469	-0.09
1095.888	-7.19
1096.308	3.61
1096.727	3.81
1097.146	-6.29
1097.566	-2.19
1097.985	-3.39
1098.405	-0.89
1098.824	-4.89
1099.243	-8.89
1099.662	-4.49
1100.082	-3.99
1100.501	-4.69
1100.92	-7.09
1101.339	-2.79
1101.758	-10.49
