Data from 20171114-ORNL-Ar_H_NY_Subt18_08-05-46-339.txt Node
Date: Tue Nov 14 08:05:46 EST 2017
User: Ender
Spectrometer: HR+D1039
Trigger mode: 0
Integration Time (sec): 2.730000E-2
Scans to average: 10
Electric dark correction enabled: true
Nonlinearity correction enabled: false
Boxcar width: 0
XAxis mode: Wavelengths
Number of Pixels in Spectrum: 2048
>>>>>Begin Spectral Data<<<<<
187.836	-8.27
188.309	-8.27
188.782	-8.27
189.255	3.93
189.728	1.43
190.201	8.83
190.674	0.73
191.147	3.23
191.619	-6.47
192.092	3.83
192.565	6.53
193.038	-0.97
193.511	-1.77
193.984	-1.37
194.456	-4.97
194.929	-5.47
195.402	-1.37
195.874	2.13
196.347	-3.77
196.82	-3.07
197.292	3.83
197.765	-0.77
198.237	-3.57
198.71	0.83
199.182	-2.97
199.655	1.93
200.127	0.03
200.6	-1.67
201.072	-4.57
201.544	-2.87
202.017	-8.57
202.489	4.53
202.961	-3.37
203.433	-5.57
203.906	-5.57
204.378	-7.07
204.85	-1.87
205.322	-10.57
205.794	-0.77
206.266	-2.67
206.739	-3.47
207.211	0.33
207.683	-4.77
208.155	-5.47
208.627	-5.47
209.099	-3.67
209.57	-2.47
210.042	-5.87
210.514	-1.87
210.986	-8.57
211.458	-6.67
211.93	-4.37
212.402	-0.67
212.873	-4.07
213.345	-3.87
213.817	-12.67
214.288	0.23
214.76	-18.37
215.232	-5.37
215.703	-2.97
216.175	-3.77
216.646	-6.57
217.118	-13.67
217.589	-0.17
218.061	-2.37
218.532	-4.97
219.004	-0.27
219.475	-4.17
219.946	-0.47
220.418	-4.37
220.889	6.73
221.36	-4.57
221.832	-12.57
222.303	-5.97
222.774	-3.77
223.245	-7.27
223.717	-6.27
224.188	-6.47
224.659	-9.27
225.13	-4.87
225.601	-3.87
226.072	-0.87
226.543	-3.37
227.014	-2.47
227.485	-0.07
227.956	-9.47
228.427	-1.17
228.898	0.33
229.369	0.93
229.839	-6.67
230.31	-7.77
230.781	3.03
231.252	-3.77
231.722	-7.97
232.193	-7.27
232.664	-2.77
233.135	-5.17
233.605	2.83
234.076	-6.57
234.546	4.73
235.017	0.83
235.487	2.73
235.958	-0.67
236.428	-6.17
236.899	3.73
237.369	3.83
237.84	-3.47
238.31	11.53
238.78	6.93
239.251	1.43
239.721	-2.07
240.191	1.43
240.662	-3.07
241.132	-1.37
241.602	-2.67
242.072	3.33
242.542	6.83
243.013	-0.97
243.483	1.73
243.953	6.93
244.423	-0.57
244.893	-5.27
245.363	-0.27
245.833	2.23
246.303	-1.37
246.773	5.93
247.243	-0.27
247.712	2.93
248.182	5.73
248.652	4.83
249.122	-0.47
249.592	13.53
250.061	18.63
250.531	28.03
251.001	17.03
251.471	23.93
251.94	17.93
252.41	8.83
252.879	2.53
253.349	11.63
253.818	12.23
254.288	8.33
254.757	6.73
255.227	2.83
255.696	6.33
256.166	1.43
256.635	5.43
257.105	3.63
257.574	1.33
258.043	7.73
258.513	9.93
258.982	15.63
259.451	4.03
259.92	13.43
260.389	11.33
260.859	18.03
261.328	9.63
261.797	16.73
262.266	11.23
262.735	11.23
263.204	6.93
263.673	5.23
264.142	3.13
264.611	-2.57
265.08	-0.87
265.549	-2.97
266.018	8.73
266.487	-2.57
266.955	3.13
267.424	1.33
267.893	9.63
268.362	-0.67
268.83	1.23
269.299	6.23
269.768	6.93
270.236	7.73
270.705	7.03
271.174	10.33
271.642	10.13
272.111	14.73
272.579	19.63
273.048	24.03
273.516	28.93
273.985	33.33
274.453	31.63
274.922	22.93
275.39	11.53
275.858	8.03
276.327	16.63
276.795	23.23
277.263	13.83
277.731	27.23
278.2	53.23
278.668	70.33
279.136	51.93
279.604	23.83
280.072	18.13
280.54	10.83
281.008	10.53
281.477	16.93
281.945	12.53
282.413	11.13
282.881	17.93
283.348	11.83
283.816	14.73
284.284	16.33
284.752	24.83
285.22	15.03
285.688	19.53
286.156	20.33
286.623	46.63
287.091	56.63
287.559	30.53
288.026	19.23
288.494	17.53
288.962	8.03
289.429	12.03
289.897	21.43
290.364	17.73
290.832	24.43
291.3	13.13
291.767	18.43
292.234	20.53
292.702	21.23
293.169	18.93
293.637	20.73
294.104	16.53
294.571	10.53
295.039	11.73
295.506	22.83
295.973	19.03
296.44	16.83
296.908	22.33
297.375	20.83
297.842	20.83
298.309	18.33
298.776	11.53
299.243	31.13
299.71	7.63
300.177	21.33
300.644	24.93
301.111	26.33
301.578	22.43
302.045	16.63
302.512	19.93
302.979	26.33
303.446	20.03
303.913	21.93
304.379	17.63
304.846	26.83
305.313	26.63
305.78	26.93
306.246	32.13
306.713	27.43
307.18	27.13
307.646	28.03
308.113	28.33
308.579	24.33
309.046	25.03
309.512	29.83
309.979	15.73
310.445	27.43
310.912	35.63
311.378	36.63
311.845	25.43
312.311	30.23
312.777	33.03
313.244	30.83
313.71	34.93
314.176	30.93
314.642	29.73
315.109	31.63
315.575	33.63
316.041	40.43
316.507	34.23
316.973	42.53
317.439	35.83
317.905	36.23
318.371	35.73
318.837	35.63
319.303	34.13
319.769	35.73
320.235	34.73
320.701	37.23
321.167	35.73
321.633	37.43
322.099	44.23
322.564	44.53
323.03	43.93
323.496	42.03
323.962	41.43
324.427	33.73
324.893	45.83
325.359	43.53
325.824	35.63
326.29	35.43
326.755	40.03
327.221	38.93
327.686	43.83
328.152	46.03
328.617	41.73
329.083	49.83
329.548	50.13
330.014	49.33
330.479	42.63
330.944	39.63
331.41	46.03
331.875	44.63
332.34	40.93
332.805	46.93
333.271	51.83
333.736	46.33
334.201	56.13
334.666	51.33
335.131	59.13
335.596	50.73
336.061	45.83
336.526	45.73
336.991	47.83
337.456	57.83
337.921	49.23
338.386	46.33
338.851	46.13
339.316	50.93
339.781	43.83
340.246	54.43
340.711	42.73
341.175	48.63
341.64	47.23
342.105	46.23
342.569	56.63
343.034	60.73
343.499	62.13
343.963	50.43
344.428	57.83
344.893	62.83
345.357	71.93
345.822	60.73
346.286	61.43
346.751	73.63
347.215	65.03
347.679	70.83
348.144	95.83
348.608	86.43
349.073	67.83
349.537	78.63
350.001	81.63
350.465	91.73
350.93	78.53
351.394	83.43
351.858	73.23
352.322	82.03
352.786	83.83
353.25	98.83
353.715	110.23
354.179	98.23
354.643	124.53
355.107	129.43
355.571	113.13
356.035	99.63
356.498	118.03
356.962	127.23
357.426	130.03
357.89	120.53
358.354	92.43
358.818	89.63
359.281	77.73
359.745	77.53
360.209	83.43
360.673	84.83
361.136	75.63
361.6	84.03
362.064	91.23
362.527	87.73
362.991	90.83
363.454	78.43
363.918	72.53
364.381	84.63
364.845	86.53
365.308	92.63
365.772	82.73
366.235	83.33
366.698	79.33
367.162	89.03
367.625	93.13
368.088	86.53
368.552	87.73
369.015	90.73
369.478	91.63
369.941	100.43
370.404	97.73
370.867	101.03
371.331	108.13
371.794	122.93
372.257	118.53
372.72	112.43
373.183	106.53
373.646	103.13
374.109	103.93
374.572	108.13
375.035	111.73
375.497	107.03
375.96	110.13
376.423	102.93
376.886	109.53
377.349	111.73
377.811	108.43
378.274	105.73
378.737	112.33
379.199	112.23
379.662	113.63
380.125	117.83
380.587	119.73
381.05	125.23
381.512	125.83
381.975	136.33
382.437	128.03
382.9	130.43
383.362	137.13
383.825	138.43
384.287	147.33
384.75	139.63
385.212	136.63
385.674	137.93
386.136	134.33
386.599	122.73
387.061	129.13
387.523	128.73
387.985	129.03
388.447	143.33
388.91	144.33
389.372	159.53
389.834	150.83
390.296	148.03
390.758	155.53
391.22	167.13
391.682	207.83
392.144	295.73
392.606	230.43
393.068	160.43
393.529	165.13
393.991	157.63
394.453	149.63
394.915	153.63
395.377	196.13
395.838	219.73
396.3	159.33
396.762	141.23
397.224	128.73
397.685	128.13
398.147	130.43
398.608	129.83
399.07	123.63
399.531	129.53
399.993	138.03
400.454	154.93
400.916	145.93
401.377	143.43
401.839	151.73
402.3	151.93
402.762	170.43
403.223	180.73
403.684	172.33
404.145	158.83
404.607	159.53
405.068	161.63
405.529	169.93
405.99	186.43
406.451	180.13
406.913	171.83
407.374	166.63
407.835	159.83
408.296	169.43
408.757	174.83
409.218	188.13
409.679	179.13
410.14	173.03
410.601	176.93
411.062	185.23
411.522	189.93
411.983	186.93
412.444	179.03
412.905	180.13
413.366	177.63
413.826	194.23
414.287	222.43
414.748	262.93
415.208	238.93
415.669	212.23
416.13	210.23
416.59	201.63
417.051	208.13
417.511	219.03
417.972	230.23
418.432	245.33
418.893	289.03
419.353	240.23
419.814	201.53
420.274	183.33
420.734	175.93
421.195	195.03
421.655	199.93
422.115	191.33
422.576	192.23
423.036	201.93
423.496	206.73
423.956	208.93
424.416	231.63
424.876	269.83
425.336	254.03
425.797	259.93
426.257	257.03
426.717	239.73
427.177	232.83
427.637	227.83
428.097	229.33
428.556	248.23
429.016	273.73
429.476	259.13
429.936	277.73
430.396	274.73
430.856	289.13
431.315	312.23
431.775	352.03
432.235	382.63
432.694	350.53
433.154	367.43
433.614	391.53
434.073	342.23
434.533	286.33
434.993	269.53
435.452	286.23
435.912	303.83
436.371	292.93
436.83	289.03
437.29	275.53
437.749	251.13
438.209	246.13
438.668	283.83
439.127	287.53
439.587	262.93
440.046	249.53
440.505	262.93
440.964	283.43
441.424	326.53
441.883	318.43
442.342	260.13
442.801	227.43
443.26	220.83
443.719	222.53
444.178	218.43
444.637	206.43
445.096	222.33
445.555	221.03
446.014	232.73
446.473	224.43
446.932	233.63
447.391	220.83
447.849	229.83
448.308	211.23
448.767	226.93
449.226	233.13
449.685	230.73
450.143	244.23
450.602	239.63
451.061	224.33
451.519	231.43
451.978	227.43
452.436	234.83
452.895	226.83
453.353	253.23
453.812	247.53
454.27	240.83
454.729	236.73
455.187	238.93
455.646	251.63
456.104	239.33
456.562	258.53
457.021	267.23
457.479	257.03
457.937	272.43
458.395	260.83
458.854	248.03
459.312	252.43
459.77	280.23
460.228	262.83
460.686	248.83
461.144	249.53
461.602	241.43
462.06	244.53
462.518	259.83
462.976	255.63
463.434	254.93
463.892	260.03
464.35	276.33
464.808	290.03
465.266	261.23
465.724	265.93
466.181	268.23
466.639	262.63
467.097	288.83
467.555	291.33
468.012	302.23
468.47	313.23
468.928	326.53
469.385	343.13
469.843	350.43
470.3	350.43
470.758	365.63
471.215	390.23
471.673	409.93
472.13	412.13
472.588	409.73
473.045	373.43
473.503	374.13
473.96	400.73
474.417	407.13
474.875	432.83
475.332	479.63
475.789	468.23
476.246	461.73
476.704	488.73
477.161	509.33
477.618	531.33
478.075	576.03
478.532	618.73
478.989	702.33
479.446	806.63
479.903	783.53
480.36	811.43
480.817	865.13
481.274	987.33
481.731	1083.83
482.188	1178.43
482.645	1320.63
483.102	1438.23
483.558	1558.73
484.015	1623.43
484.472	1593.83
484.929	1534.83
485.385	1492.63
485.842	1459.03
486.299	1392.43
486.755	1306.63
487.212	1098.73
487.668	937.53
488.125	861.43
488.582	788.13
489.038	746.63
489.494	722.13
489.951	681.13
490.407	670.53
490.864	653.33
491.32	651.03
491.776	648.83
492.233	650.73
492.689	608.93
493.145	611.13
493.602	608.03
494.058	617.93
494.514	608.03
494.97	638.13
495.426	658.03
495.882	627.13
496.338	619.53
496.794	625.73
497.251	629.43
497.707	643.33
498.163	640.83
498.618	654.43
499.074	650.63
499.53	684.13
499.986	679.03
500.442	656.73
500.898	645.63
501.354	630.33
501.809	640.93
502.265	644.83
502.721	663.83
503.177	684.73
503.632	668.43
504.088	689.33
504.543	719.03
504.999	716.43
505.455	659.53
505.91	638.33
506.366	631.23
506.821	636.43
507.277	631.33
507.732	626.73
508.187	625.53
508.643	641.33
509.098	632.03
509.553	661.23
510.009	668.93
510.464	672.43
510.919	688.53
511.375	694.63
511.83	707.83
512.285	731.03
512.74	768.03
513.195	794.43
513.65	764.03
514.105	768.83
514.56	774.03
515.015	799.03
515.47	808.93
515.925	789.03
516.38	794.53
516.835	804.63
517.29	790.53
517.745	776.73
518.2	768.63
518.655	758.23
519.109	750.33
519.564	744.13
520.019	738.53
520.474	730.73
520.928	729.43
521.383	726.53
521.838	711.93
522.292	710.53
522.747	710.63
523.201	710.53
523.656	702.23
524.11	692.23
524.565	698.83
525.019	697.33
525.474	706.43
525.928	700.13
526.382	698.53
526.837	695.53
527.291	702.13
527.745	696.73
528.2	698.03
528.654	691.13
529.108	687.13
529.562	694.13
530.016	697.13
530.47	694.13
530.925	705.13
531.379	691.43
531.833	701.03
532.287	703.73
532.741	709.23
533.195	708.23
533.649	712.13
534.103	728.03
534.556	716.43
535.01	717.73
535.464	718.83
535.918	726.83
536.372	725.03
536.826	720.33
537.279	709.33
537.733	721.43
538.187	720.63
538.64	717.23
539.094	725.93
539.548	728.73
540.001	718.33
540.455	725.23
540.908	741.13
541.362	742.03
541.815	754.03
542.269	765.33
542.722	756.23
543.175	761.13
543.629	762.73
544.082	786.13
544.536	787.93
544.989	778.23
545.442	788.73
545.895	783.23
546.349	782.83
546.802	788.53
547.255	804.13
547.708	809.03
548.161	806.63
548.614	817.23
549.067	833.33
549.52	823.73
549.973	811.73
550.426	813.93
550.879	803.63
551.332	799.83
551.785	808.43
552.238	804.83
552.691	807.63
553.144	831.23
553.596	841.23
554.049	868.23
554.502	889.23
554.955	910.23
555.407	895.43
555.86	901.33
556.313	901.43
556.765	878.43
557.218	892.13
557.67	894.43
558.123	872.03
558.576	872.03
559.028	880.83
559.48	884.63
559.933	869.13
560.385	830.83
560.838	803.33
561.29	774.33
561.742	776.23
562.195	767.13
562.647	754.43
563.099	776.63
563.551	765.83
564.004	782.33
564.456	775.83
564.908	759.23
565.36	747.93
565.812	735.03
566.264	721.13
566.716	725.93
567.168	711.93
567.62	716.43
568.072	703.13
568.524	695.83
568.976	686.03
569.428	669.23
569.88	668.33
570.332	670.23
570.784	686.43
571.235	686.23
571.687	689.43
572.139	697.43
572.59	704.63
573.042	711.13
573.494	715.23
573.945	706.63
574.397	681.23
574.849	690.13
575.3	691.03
575.752	689.33
576.203	670.03
576.655	680.73
577.106	663.23
577.557	663.53
578.009	668.73
578.46	654.23
578.912	661.73
579.363	669.03
579.814	662.63
580.265	664.53
580.717	659.23
581.168	666.23
581.619	673.53
582.07	669.63
582.521	671.73
582.972	666.83
583.423	671.03
583.875	685.63
584.326	695.33
584.777	745.93
585.227	818.63
585.678	901.53
586.129	996.93
586.58	1065.93
587.031	1158.63
587.482	1301.43
587.933	1489.63
588.384	1291.13
588.834	967.83
589.285	800.63
589.736	775.33
590.186	763.23
590.637	750.43
591.088	740.43
591.538	728.93
591.989	714.73
592.439	728.33
592.89	723.83
593.34	695.93
593.791	704.43
594.241	694.23
594.692	696.83
595.142	694.53
595.593	689.63
596.043	698.83
596.493	704.13
596.943	709.63
597.394	705.03
597.844	698.73
598.294	727.23
598.744	740.73
599.195	767.23
599.645	803.93
600.095	841.43
600.545	907.63
600.995	952.73
601.445	1001.43
601.895	1058.63
602.345	1121.73
602.795	1098.33
603.245	1051.63
603.695	1004.13
604.145	941.83
604.594	899.73
605.044	860.63
605.494	789.03
605.944	740.93
606.393	736.33
606.843	718.73
607.293	725.03
607.743	720.73
608.192	731.43
608.642	749.83
609.091	755.43
609.541	763.83
609.99	752.33
610.44	756.53
610.889	702.33
611.339	692.33
611.788	676.43
612.238	698.73
612.687	708.03
613.136	715.23
613.586	729.33
614.035	721.03
614.484	746.13
614.933	753.43
615.383	735.13
615.832	716.93
616.281	719.73
616.73	680.43
617.179	660.33
617.628	644.13
618.077	622.63
618.526	615.03
618.975	609.23
619.424	597.43
619.873	612.33
620.322	614.83
620.771	587.53
621.22	600.93
621.669	580.23
622.118	577.43
622.567	570.33
623.015	558.33
623.464	557.73
623.913	549.03
624.361	543.63
624.81	539.03
625.259	540.03
625.707	541.23
626.156	550.23
626.604	550.63
627.053	558.53
627.501	553.03
627.95	563.73
628.398	562.43
628.847	559.43
629.295	564.53
629.744	562.33
630.192	555.03
630.64	553.43
631.089	559.83
631.537	565.33
631.985	574.03
632.433	585.13
632.881	587.93
633.33	648.93
633.778	621.43
634.226	558.93
634.674	554.23
635.122	560.73
635.57	587.93
636.018	617.83
636.466	571.93
636.914	545.53
637.362	550.73
637.81	556.33
638.258	561.53
638.705	563.83
639.153	589.83
639.601	603.13
640.049	626.13
640.497	656.73
640.944	680.13
641.392	623.43
641.84	596.43
642.287	579.63
642.735	551.03
643.182	561.63
643.63	559.53
644.078	562.03
644.525	580.73
644.973	582.63
645.42	589.43
645.867	611.53
646.315	616.63
646.762	641.63
647.21	680.93
647.657	699.63
648.104	728.53
648.551	748.33
648.999	824.13
649.446	895.43
649.893	981.33
650.34	1135.13
650.787	1344.73
651.234	1684.63
651.682	2195.73
652.129	3020.33
652.576	4323.53
653.023	6377.93
653.47	8796.13
653.917	11060.23
654.363	12792.03
654.81	14200.13
655.257	13518.43
655.704	8844.23
656.151	5223.53
656.598	3374.83
657.044	2381.23
657.491	1828.53
657.938	1478.83
658.385	1227.93
658.831	1066.43
659.278	954.83
659.724	839.93
660.171	772.43
660.618	711.93
661.064	677.33
661.511	652.03
661.957	632.93
662.404	637.73
662.85	638.83
663.296	607.23
663.743	552.23
664.189	530.03
664.635	515.43
665.082	512.43
665.528	504.83
665.974	503.33
666.42	492.23
666.867	497.23
667.313	481.13
667.759	467.33
668.205	467.53
668.651	479.33
669.097	474.93
669.543	488.73
669.989	459.03
670.435	433.33
670.881	425.23
671.327	432.83
671.773	444.83
672.219	468.93
672.665	516.13
673.11	570.63
673.556	605.73
674.002	656.43
674.448	633.03
674.893	536.53
675.339	457.83
675.785	432.43
676.23	404.43
676.676	388.03
677.122	369.73
677.567	358.53
678.013	360.93
678.458	353.83
678.904	342.43
679.349	333.03
679.794	344.43
680.24	339.13
680.685	337.43
681.131	335.13
681.576	330.83
682.021	339.73
682.466	328.23
682.912	338.93
683.357	336.73
683.802	361.83
684.247	394.63
684.692	440.83
685.137	480.83
685.583	520.63
686.028	551.33
686.473	496.93
686.918	437.43
687.363	393.83
687.807	382.93
688.252	355.83
688.697	350.33
689.142	325.23
689.587	318.43
690.032	298.73
690.477	331.63
690.921	336.43
691.366	377.33
691.811	391.33
692.255	413.83
692.7	439.63
693.145	477.83
693.589	662.53
694.034	1075.43
694.478	1465.23
694.923	1669.93
695.367	2205.33
695.812	1139.03
696.256	475.73
696.701	351.23
697.145	332.13
697.59	324.03
698.034	306.53
698.478	316.03
698.922	307.03
699.367	320.83
699.811	328.43
700.255	334.23
700.699	368.23
701.143	404.03
701.588	456.53
702.032	502.53
702.476	498.63
702.92	464.83
703.364	468.83
703.808	595.93
704.252	971.73
704.696	1380.43
705.14	1611.83
705.584	2067.33
706.027	1032.53
706.471	497.83
706.915	378.13
707.359	335.53
707.803	313.13
708.246	298.93
708.69	303.03
709.134	302.33
709.577	293.83
710.021	304.03
710.465	297.83
710.908	287.03
711.352	292.03
711.795	297.03
712.239	336.63
712.682	368.53
713.126	400.23
713.569	447.03
714.012	348.93
714.456	310.03
714.899	293.33
715.342	267.43
715.786	247.63
716.229	247.43
716.672	239.23
717.115	239.63
717.558	243.33
718.002	242.93
718.445	255.53
718.888	276.53
719.331	286.03
719.774	299.53
720.217	294.13
720.66	271.03
721.103	260.63
721.546	248.83
721.989	244.73
722.432	220.23
722.874	230.13
723.317	221.23
723.76	229.53
724.203	250.83
724.645	305.93
725.088	431.13
725.531	551.13
725.974	625.03
726.416	526.73
726.859	292.53
727.301	233.53
727.744	225.83
728.187	224.83
728.629	231.83
729.071	232.43
729.514	248.73
729.956	258.13
730.399	265.33
730.841	280.63
731.283	260.03
731.726	243.83
732.168	248.93
732.61	258.33
733.053	276.33
733.495	294.63
733.937	338.23
734.379	377.33
734.821	412.03
735.263	516.33
735.705	787.53
736.148	1494.03
736.59	2453.03
737.032	2944.63
737.474	2401.83
737.916	773.23
738.357	416.73
738.799	314.13
739.241	279.33
739.683	274.23
740.125	290.63
740.567	286.73
741.008	298.33
741.45	299.33
741.892	299.63
742.334	327.73
742.775	343.83
743.217	325.13
743.658	256.53
744.1	238.03
744.542	247.23
744.983	296.23
745.425	336.93
745.866	334.33
746.307	272.33
746.749	273.73
747.19	316.13
747.632	427.23
748.073	818.43
748.514	1740.03
748.956	2713.03
749.397	3396.53
749.838	2828.03
750.279	2851.53
750.72	1447.03
751.162	521.23
751.603	311.73
752.044	238.73
752.485	205.23
752.926	202.63
753.367	195.53
753.808	182.83
754.249	178.83
754.69	172.13
755.131	173.13
755.572	169.53
756.013	174.03
756.453	178.63
756.894	181.33
757.335	180.33
757.776	185.73
758.216	184.33
758.657	188.23
759.098	193.03
759.538	214.43
759.979	257.23
760.42	350.33
760.86	655.23
761.301	1700.33
761.741	4162.53
762.182	6218.13
762.622	4372.23
763.063	1258.23
763.503	514.03
763.943	328.23
764.384	323.83
764.824	396.73
765.264	428.63
765.705	294.43
766.145	192.83
766.585	176.63
767.025	175.83
767.465	175.13
767.906	234.53
768.346	314.63
768.786	330.33
769.226	252.13
769.666	305.43
770.106	578.93
770.546	1459.93
770.986	2540.63
771.426	2282.33
771.866	755.93
772.306	312.73
772.745	198.43
773.185	164.63
773.625	158.93
774.065	151.53
774.505	187.23
774.944	292.13
775.384	641.03
775.824	1187.23
776.263	1171.33
776.703	490.13
777.142	209.73
777.582	157.33
778.021	132.53
778.461	132.93
778.9	132.23
779.34	128.73
779.779	113.03
780.219	109.33
780.658	103.53
781.097	114.13
781.537	116.53
781.976	103.93
782.415	104.23
782.855	97.33
783.294	96.23
783.733	100.73
784.172	111.83
784.611	105.13
785.05	109.73
785.489	104.03
785.928	118.03
786.367	111.83
786.806	115.43
787.245	129.53
787.684	130.73
788.123	138.03
788.562	128.83
789.001	121.13
789.44	114.83
789.879	108.13
790.317	112.03
790.756	125.53
791.195	124.43
791.634	135.03
792.072	192.53
792.511	333.63
792.95	939.03
793.388	2041.43
793.827	1858.23
794.265	653.83
794.704	259.03
795.142	172.43
795.581	145.03
796.019	130.73
796.458	119.23
796.896	121.93
797.334	120.03
797.773	150.43
798.211	207.83
798.649	408.33
799.087	958.03
799.526	1511.33
799.964	1900.23
800.402	1945.83
800.84	729.23
801.278	291.13
801.716	178.53
802.154	144.73
802.592	135.23
803.03	134.43
803.468	120.13
803.906	138.93
804.344	139.63
804.782	136.93
805.22	126.23
805.658	125.43
806.096	137.13
806.533	144.93
806.971	163.23
807.409	203.03
807.847	291.83
808.284	608.83
808.722	1739.93
809.16	3134.73
809.597	2952.73
810.035	5156.73
810.472	5584.33
810.91	2008.73
811.347	761.63
811.785	384.73
812.222	247.63
812.66	187.53
813.097	155.03
813.535	133.63
813.972	122.43
814.409	114.23
814.846	103.93
815.284	102.73
815.721	90.93
816.158	98.93
816.595	112.53
817.032	167.43
817.47	185.23
817.907	164.83
818.344	148.43
818.781	112.23
819.218	97.63
819.655	116.53
820.092	175.93
820.529	213.13
820.966	168.43
821.403	128.63
821.839	102.43
822.276	95.83
822.713	119.63
823.15	136.03
823.587	115.63
824.023	140.33
824.46	279.43
824.897	841.33
825.333	1289.43
825.77	560.93
826.206	210.13
826.643	119.53
827.08	94.93
827.516	81.93
827.953	66.93
828.389	72.03
828.825	70.23
829.262	59.13
829.698	53.93
830.135	61.23
830.571	59.23
831.007	61.43
831.443	59.73
831.88	59.23
832.316	60.43
832.752	56.33
833.188	60.93
833.624	67.13
834.06	63.73
834.497	63.63
834.933	64.13
835.369	71.03
835.805	63.93
836.241	72.03
836.677	71.23
837.112	83.93
837.548	96.23
837.984	126.43
838.42	183.83
838.856	455.93
839.292	1425.63
839.727	2218.43
840.163	1019.23
840.599	857.43
841.034	1929.73
841.47	2045.23
841.906	745.63
842.341	311.13
842.777	215.03
843.212	309.43
843.648	299.23
844.083	142.53
844.519	91.83
844.954	70.93
845.39	58.03
845.825	63.03
846.261	55.83
846.696	54.13
847.131	51.43
847.566	61.13
848.002	51.43
848.437	46.63
848.872	58.43
849.307	59.93
849.742	78.83
850.177	171.53
850.613	522.53
851.048	845.93
851.483	368.83
851.918	151.23
852.353	77.93
852.788	56.03
853.223	48.73
853.657	54.43
854.092	42.33
854.527	39.03
854.962	39.53
855.397	42.63
855.832	49.93
856.266	37.53
856.701	43.13
857.136	29.83
857.57	34.73
858.005	47.63
858.44	53.93
858.874	37.73
859.309	52.23
859.743	37.43
860.178	46.73
860.612	38.03
861.047	44.83
861.481	67.43
861.915	69.53
862.35	44.13
862.784	32.53
863.218	35.83
863.653	32.43
864.087	43.73
864.521	46.83
864.955	59.23
865.39	150.63
865.824	167.53
866.258	103.63
866.692	153.33
867.126	169.13
867.56	101.03
867.994	49.33
868.428	37.73
868.862	43.23
869.296	49.93
869.73	60.83
870.164	50.03
870.598	41.73
871.031	35.63
871.465	28.73
871.899	34.53
872.333	21.03
872.766	25.43
873.2	18.63
873.634	23.63
874.067	23.73
874.501	27.43
874.935	38.03
875.368	27.93
875.802	29.63
876.235	23.83
876.669	21.53
877.102	24.73
877.535	29.33
877.969	26.93
878.402	22.23
878.836	20.73
879.269	23.03
879.702	19.23
880.135	18.93
880.569	25.93
881.002	27.93
881.435	17.43
881.868	20.23
882.301	21.33
882.734	13.43
883.167	23.53
883.601	16.23
884.034	21.83
884.467	7.73
884.899	16.33
885.332	13.03
885.765	15.23
886.198	14.43
886.631	17.83
887.064	17.03
887.497	20.73
887.929	16.83
888.362	16.03
888.795	11.53
889.228	18.23
889.66	19.73
890.093	12.43
890.526	18.13
890.958	13.63
891.391	14.73
891.823	19.63
892.256	13.53
892.688	12.73
893.121	16.23
893.553	13.73
893.985	22.03
894.418	17.53
894.85	12.73
895.282	13.83
895.715	19.63
896.147	18.83
896.579	15.53
897.011	9.83
897.444	19.33
897.876	10.23
898.308	18.63
898.74	14.13
899.172	18.93
899.604	20.63
900.036	22.53
900.468	18.03
900.9	16.13
901.332	9.83
901.764	11.13
902.196	15.13
902.628	12.83
903.06	20.63
903.491	29.43
903.923	16.43
904.355	22.03
904.787	21.43
905.218	25.83
905.65	19.53
906.082	13.93
906.513	13.13
906.945	8.93
907.376	10.93
907.808	21.53
908.239	19.33
908.671	20.23
909.102	23.93
909.534	24.33
909.965	43.23
910.397	84.83
910.828	289.63
911.259	446.43
911.691	203.93
912.122	101.33
912.553	46.63
912.984	31.03
913.415	31.93
913.847	27.13
914.278	7.23
914.709	14.13
915.14	15.53
915.571	14.13
916.002	10.33
916.433	13.83
916.864	16.33
917.295	13.53
917.726	19.93
918.157	21.03
918.587	29.43
919.018	22.33
919.449	20.73
919.88	17.43
920.311	26.53
920.741	42.73
921.172	155.83
921.603	146.33
922.033	62.23
922.464	43.43
922.895	23.93
923.325	19.13
923.756	13.63
924.186	11.63
924.617	28.53
925.047	30.93
925.478	52.03
925.908	44.13
926.338	26.63
926.769	21.63
927.199	17.93
927.629	17.03
928.06	15.23
928.49	16.93
928.92	13.83
929.35	8.83
929.78	5.73
930.21	6.03
930.641	7.23
931.071	5.33
931.501	7.03
931.931	7.43
932.361	14.43
932.791	-1.27
933.221	12.53
933.651	4.83
934.08	14.43
934.51	27.43
934.94	4.63
935.37	5.83
935.8	11.53
936.229	4.93
936.659	12.43
937.089	6.53
937.519	11.73
937.948	23.63
938.378	15.83
938.807	6.93
939.237	0.53
939.666	12.53
940.096	-2.17
940.525	-5.07
940.955	0.53
941.384	1.33
941.814	-5.87
942.243	-3.37
942.672	1.23
943.102	-3.57
943.531	1.43
943.96	5.83
944.39	0.43
944.819	3.93
945.248	1.03
945.677	0.73
946.106	3.83
946.535	4.93
946.964	-0.07
947.393	4.93
947.822	2.13
948.251	-5.87
948.68	7.93
949.109	6.63
949.538	11.93
949.967	-1.37
950.396	2.13
950.825	2.93
951.254	0.43
951.682	-4.27
952.111	4.13
952.54	1.63
952.969	-6.67
953.397	-9.17
953.826	-1.17
954.254	-6.17
954.683	2.73
955.112	-4.57
955.54	1.03
955.969	9.33
956.397	1.83
956.826	-1.87
957.254	4.03
957.682	1.83
958.111	5.03
958.539	3.53
958.967	1.73
959.396	-0.87
959.824	0.23
960.252	6.53
960.68	-5.47
961.109	-3.87
961.537	-10.57
961.965	-0.97
962.393	-3.07
962.821	-0.87
963.249	0.73
963.677	3.73
964.105	2.63
964.533	39.83
964.961	35.53
965.389	18.33
965.817	11.93
966.245	-0.87
966.672	0.33
967.1	-3.97
967.528	0.53
967.956	-2.57
968.383	2.23
968.811	-0.17
969.239	-2.37
969.666	-9.47
970.094	2.03
970.522	3.03
970.949	-8.77
971.377	-9.77
971.804	-10.57
972.232	-5.57
972.659	-2.87
973.087	0.63
973.514	-7.17
973.941	-4.77
974.369	1.13
974.796	2.03
975.223	-2.37
975.651	-2.97
976.078	0.53
976.505	2.53
976.932	3.43
977.359	12.13
977.786	13.03
978.214	1.43
978.641	-6.67
979.068	-2.67
979.495	-5.77
979.922	-7.57
980.349	-2.77
980.776	4.83
981.202	-0.77
981.629	1.53
982.056	2.13
982.483	0.43
982.91	2.03
983.337	-10.77
983.763	-0.87
984.19	-7.97
984.617	2.13
985.043	-9.17
985.47	-3.57
985.897	0.83
986.323	-9.87
986.75	1.43
987.176	-4.67
987.603	4.23
988.029	1.33
988.456	0.93
988.882	0.23
989.308	-4.97
989.735	1.03
990.161	-3.97
990.587	-9.37
991.014	1.73
991.44	2.63
991.866	3.83
992.292	-2.37
992.719	-0.97
993.145	-3.07
993.571	-7.77
993.997	-5.87
994.423	-1.97
994.849	-6.67
995.275	2.13
995.701	2.13
996.127	-4.67
996.553	3.03
996.979	-4.57
997.405	-5.87
997.83	-3.67
998.256	-10.47
998.682	-9.47
999.108	-7.47
999.534	-2.37
999.959	-5.07
1000.385	-0.97
1000.811	-3.07
1001.236	-9.97
1001.662	-11.07
1002.087	-7.97
1002.513	-1.17
1002.938	5.13
1003.364	1.73
1003.789	-3.67
1004.215	3.63
1004.64	-4.47
1005.066	5.23
1005.491	-2.77
1005.916	-6.97
1006.342	-3.57
1006.767	-13.07
1007.192	2.23
1007.617	-2.17
1008.042	-4.17
1008.468	-8.37
1008.893	-4.57
1009.318	-4.17
1009.743	-3.57
1010.168	-0.67
1010.593	-0.27
1011.018	-1.07
1011.443	-6.57
1011.868	-0.07
1012.293	-1.97
1012.718	-9.17
1013.143	-6.77
1013.567	3.33
1013.992	1.03
1014.417	-7.07
1014.842	2.03
1015.267	-4.37
1015.691	-2.67
1016.116	-3.77
1016.541	-4.77
1016.965	4.83
1017.39	4.53
1017.814	-4.07
1018.239	-0.87
1018.663	-8.07
1019.088	-13.37
1019.512	-0.07
1019.937	-7.97
1020.361	-6.27
1020.785	-10.17
1021.21	1.53
1021.634	-1.77
1022.058	2.33
1022.483	-0.67
1022.907	-4.77
1023.331	0.13
1023.755	-4.17
1024.179	0.53
1024.604	-8.47
1025.028	-6.37
1025.452	-3.77
1025.876	-2.27
1026.3	-4.17
1026.724	-4.97
1027.148	-2.27
1027.572	-4.67
1027.996	-7.07
1028.42	-2.37
1028.843	-7.07
1029.267	-5.87
1029.691	-1.87
1030.115	-13.17
1030.539	-3.47
1030.962	-5.87
1031.386	-8.17
1031.81	2.13
1032.233	-4.97
1032.657	1.53
1033.08	-5.77
1033.504	-4.97
1033.927	-6.27
1034.351	-0.37
1034.774	-0.67
1035.198	1.13
1035.621	-7.47
1036.045	-11.57
1036.468	0.73
1036.891	-10.17
1037.315	-13.67
1037.738	-9.97
1038.161	-3.67
1038.584	-7.37
1039.008	-13.17
1039.431	-0.27
1039.854	-3.37
1040.277	-8.07
1040.7	-12.47
1041.123	-3.57
1041.546	-7.97
1041.969	-5.67
1042.392	-5.77
1042.815	-4.07
1043.238	-2.97
1043.661	-2.07
1044.084	-5.87
1044.507	-3.57
1044.93	-3.97
1045.352	-3.57
1045.775	-3.17
1046.198	-1.57
1046.621	-6.47
1047.043	2.13
1047.466	6.63
1047.889	-11.57
1048.311	-12.07
1048.734	-1.37
1049.156	-7.77
1049.579	-0.57
1050.001	-3.97
1050.424	-4.77
1050.846	-1.57
1051.269	0.03
1051.691	-6.37
1052.113	-4.87
1052.536	1.53
1052.958	-6.47
1053.38	-3.77
1053.802	-12.87
1054.225	0.43
1054.647	-4.07
1055.069	-4.97
1055.491	-4.77
1055.913	-10.87
1056.335	-2.27
1056.757	-6.97
1057.179	-5.87
1057.601	-5.87
1058.023	-5.17
1058.445	-5.37
1058.867	-5.97
1059.289	0.63
1059.711	-9.77
1060.133	-8.47
1060.555	-4.17
1060.976	-8.37
1061.398	-4.47
1061.82	-8.27
1062.241	-8.47
1062.663	-11.67
1063.085	-9.67
1063.506	-2.87
1063.928	-5.07
1064.35	-1.27
1064.771	-11.27
1065.193	-7.67
1065.614	-8.27
1066.035	-1.57
1066.457	2.13
1066.878	3.53
1067.3	-6.67
1067.721	-4.77
1068.142	-9.77
1068.564	-3.37
1068.985	-8.77
1069.406	-6.17
1069.827	-5.37
1070.248	-3.57
1070.67	-7.77
1071.091	-7.47
1071.512	-0.77
1071.933	-7.67
1072.354	-6.27
1072.775	-12.07
1073.196	-7.67
1073.617	8.03
1074.038	-8.77
1074.459	2.83
1074.88	-9.27
1075.3	-0.27
1075.721	-8.47
1076.142	0.83
1076.563	-1.57
1076.983	-10.37
1077.404	-11.87
1077.825	-13.07
1078.246	-2.67
1078.666	-15.27
1079.087	-7.87
1079.507	-10.17
1079.928	-0.17
1080.348	-4.07
1080.769	-5.07
1081.189	-1.57
1081.61	-3.47
1082.03	-11.67
1082.451	-10.37
1082.871	-7.57
1083.291	-11.57
1083.711	-8.67
1084.132	-7.27
1084.552	-6.17
1084.972	-1.07
1085.392	-6.47
1085.813	-8.37
1086.233	-4.07
1086.653	-7.47
1087.073	-8.77
1087.493	-8.77
1087.913	-8.97
1088.333	-8.17
1088.753	-7.87
1089.173	3.23
1089.593	-7.07
1090.013	1.93
1090.433	2.53
1090.852	-4.57
1091.272	-0.97
1091.692	-8.77
1092.112	-3.47
1092.531	-11.97
1092.951	-8.17
1093.371	-3.87
1093.79	-1.77
1094.21	-9.47
1094.63	-5.47
1095.049	-4.57
1095.469	0.33
1095.888	-3.47
1096.308	8.53
1096.727	2.53
1097.146	-8.97
1097.566	-1.97
1097.985	-9.27
1098.405	-5.47
1098.824	-3.97
1099.243	-11.87
1099.662	-5.37
1100.082	-6.47
1100.501	0.93
1100.92	-5.67
1101.339	-6.17
1101.758	-5.77
