Data from 20171114-ORNL-Ar_H_NY_Subt18_08-08-55-539.txt Node
Date: Tue Nov 14 08:08:55 EST 2017
User: Ender
Spectrometer: HR+D1039
Trigger mode: 0
Integration Time (sec): 2.730000E-2
Scans to average: 10
Electric dark correction enabled: true
Nonlinearity correction enabled: false
Boxcar width: 0
XAxis mode: Wavelengths
Number of Pixels in Spectrum: 2048
>>>>>Begin Spectral Data<<<<<
187.836	-2.38
188.309	-2.38
188.782	-2.38
189.255	2.62
189.728	-4.68
190.201	-0.58
190.674	6.52
191.147	1.12
191.619	-5.98
192.092	-0.28
192.565	4.02
193.038	2.42
193.511	-0.38
193.984	-2.38
194.456	0.92
194.929	0.82
195.402	-0.98
195.874	-0.78
196.347	1.82
196.82	-3.28
197.292	2.72
197.765	-1.28
198.237	-4.38
198.71	-1.68
199.182	-1.78
199.655	-0.38
200.127	-0.58
200.6	-6.28
201.072	-3.38
201.544	-7.98
202.017	-0.18
202.489	2.82
202.961	-0.88
203.433	-8.58
203.906	-8.08
204.378	-8.38
204.85	-5.98
205.322	-8.38
205.794	-2.28
206.266	-6.18
206.739	-15.28
207.211	-6.68
207.683	-3.68
208.155	-6.88
208.627	-9.28
209.099	-2.88
209.57	-4.58
210.042	-4.88
210.514	-4.38
210.986	-1.88
211.458	-10.38
211.93	-2.78
212.402	0.12
212.873	-9.18
213.345	-10.78
213.817	-10.18
214.288	-4.48
214.76	-9.28
215.232	-1.48
215.703	-5.98
216.175	-1.48
216.646	-1.98
217.118	-4.58
217.589	-2.58
218.061	0.22
218.532	-7.68
219.004	2.42
219.475	-3.38
219.946	-1.38
220.418	-8.98
220.889	-5.58
221.36	-0.68
221.832	-11.28
222.303	-11.88
222.774	-3.68
223.245	-11.18
223.717	-2.88
224.188	-6.88
224.659	-9.08
225.13	-9.98
225.601	-3.88
226.072	-0.38
226.543	-2.58
227.014	-6.78
227.485	-3.88
227.956	-3.88
228.427	-6.38
228.898	-2.18
229.369	-1.38
229.839	-2.38
230.31	-12.98
230.781	3.12
231.252	-8.68
231.722	-6.98
232.193	-7.28
232.664	-5.58
233.135	-4.48
233.605	-3.98
234.076	-5.78
234.546	-4.08
235.017	0.22
235.487	-6.68
235.958	-9.28
236.428	-7.78
236.899	-2.78
237.369	-0.08
237.84	-7.58
238.31	0.12
238.78	-7.08
239.251	-7.88
239.721	-7.18
240.191	-1.38
240.662	-6.58
241.132	0.12
241.602	-7.08
242.072	-1.98
242.542	-1.18
243.013	-2.28
243.483	-1.78
243.953	0.82
244.423	-4.78
244.893	-6.98
245.363	-2.18
245.833	-0.78
246.303	-6.58
246.773	2.32
247.243	-2.78
247.712	-2.28
248.182	1.32
248.652	-0.78
249.122	-12.08
249.592	4.62
250.061	1.72
250.531	5.52
251.001	-0.28
251.471	0.62
251.94	6.62
252.41	-1.88
252.879	-5.68
253.349	-2.28
253.818	1.22
254.288	3.62
254.757	2.42
255.227	-2.78
255.696	-2.58
256.166	0.02
256.635	1.92
257.105	6.82
257.574	-6.88
258.043	-3.38
258.513	-4.28
258.982	0.72
259.451	-8.88
259.92	-5.28
260.389	2.02
260.859	8.62
261.328	-0.08
261.797	1.12
262.266	0.52
262.735	2.42
263.204	-4.78
263.673	2.22
264.142	0.62
264.611	-7.38
265.08	-10.98
265.549	-3.78
266.018	3.62
266.487	-6.78
266.955	-7.88
267.424	-3.48
267.893	1.52
268.362	-4.28
268.83	-0.78
269.299	4.12
269.768	5.02
270.236	4.42
270.705	-4.18
271.174	-0.68
271.642	3.62
272.111	1.12
272.579	-2.18
273.048	5.32
273.516	0.22
273.985	5.42
274.453	8.32
274.922	11.42
275.39	0.82
275.858	-5.88
276.327	5.82
276.795	8.02
277.263	0.52
277.731	11.02
278.2	13.42
278.668	14.92
279.136	14.82
279.604	-2.18
280.072	6.22
280.54	10.42
281.008	-0.98
281.477	5.72
281.945	4.22
282.413	5.72
282.881	4.12
283.348	-0.18
283.816	5.82
284.284	6.32
284.752	8.02
285.22	8.72
285.688	9.52
286.156	11.62
286.623	22.12
287.091	11.22
287.559	4.52
288.026	6.62
288.494	9.72
288.962	-3.18
289.429	2.12
289.897	13.02
290.364	-0.38
290.832	8.02
291.3	3.32
291.767	12.52
292.234	4.52
292.702	5.22
293.169	9.72
293.637	15.82
294.104	16.32
294.571	6.72
295.039	8.62
295.506	5.92
295.973	5.42
296.44	2.82
296.908	12.92
297.375	3.22
297.842	7.32
298.309	10.42
298.776	8.42
299.243	7.82
299.71	2.02
300.177	9.82
300.644	12.92
301.111	15.22
301.578	14.32
302.045	3.42
302.512	13.12
302.979	15.52
303.446	13.82
303.913	11.12
304.379	11.22
304.846	20.42
305.313	16.82
305.78	13.72
306.246	18.42
306.713	18.62
307.18	10.92
307.646	15.62
308.113	18.82
308.579	12.12
309.046	8.32
309.512	15.42
309.979	10.52
310.445	20.32
310.912	18.82
311.378	17.52
311.845	18.32
312.311	15.62
312.777	21.72
313.244	21.52
313.71	23.02
314.176	26.32
314.642	21.32
315.109	15.12
315.575	23.32
316.041	27.12
316.507	23.32
316.973	24.72
317.439	25.22
317.905	28.12
318.371	23.12
318.837	23.92
319.303	24.52
319.769	20.32
320.235	22.92
320.701	24.02
321.167	28.52
321.633	21.82
322.099	27.02
322.564	26.82
323.03	30.42
323.496	26.92
323.962	27.62
324.427	28.32
324.893	31.12
325.359	23.92
325.824	20.92
326.29	29.92
326.755	26.52
327.221	29.72
327.686	30.22
328.152	33.72
328.617	31.32
329.083	37.42
329.548	40.32
330.014	36.82
330.479	29.52
330.944	32.22
331.41	25.12
331.875	36.02
332.34	29.82
332.805	32.62
333.271	36.72
333.736	33.52
334.201	37.12
334.666	36.92
335.131	33.02
335.596	35.62
336.061	38.42
336.526	23.02
336.991	40.62
337.456	45.32
337.921	42.62
338.386	29.62
338.851	34.72
339.316	40.32
339.781	36.82
340.246	46.82
340.711	36.32
341.175	41.52
341.64	31.02
342.105	42.32
342.569	43.12
343.034	45.62
343.499	44.02
343.963	42.32
344.428	51.62
344.893	48.82
345.357	56.12
345.822	54.02
346.286	56.72
346.751	57.52
347.215	58.72
347.679	61.42
348.144	76.72
348.608	65.92
349.073	53.92
349.537	58.12
350.001	67.22
350.465	79.02
350.93	59.02
351.394	70.52
351.858	52.12
352.322	68.72
352.786	70.12
353.25	85.72
353.715	86.12
354.179	80.12
354.643	97.12
355.107	95.72
355.571	83.42
356.035	74.52
356.498	90.92
356.962	91.82
357.426	99.62
357.89	92.92
358.354	69.52
358.818	67.62
359.281	64.02
359.745	57.12
360.209	65.52
360.673	62.82
361.136	67.12
361.6	72.42
362.064	73.22
362.527	77.62
362.991	78.92
363.454	63.52
363.918	64.02
364.381	62.82
364.845	70.22
365.308	73.52
365.772	73.82
366.235	74.22
366.698	69.52
367.162	68.02
367.625	76.52
368.088	77.52
368.552	76.62
369.015	72.32
369.478	79.52
369.941	85.52
370.404	83.82
370.867	82.72
371.331	91.02
371.794	88.92
372.257	89.52
372.72	92.92
373.183	87.22
373.646	84.22
374.109	79.02
374.572	92.92
375.035	84.42
375.497	85.92
375.96	92.22
376.423	91.02
376.886	92.72
377.349	94.72
377.811	93.02
378.274	95.12
378.737	91.02
379.199	100.42
379.662	95.22
380.125	98.32
380.587	105.72
381.05	96.32
381.512	109.52
381.975	105.32
382.437	108.32
382.9	110.02
383.362	119.02
383.825	121.52
384.287	115.62
384.75	108.72
385.212	110.92
385.674	125.12
386.136	115.92
386.599	115.02
387.061	114.22
387.523	110.72
387.985	109.52
388.447	121.82
388.91	117.42
389.372	122.02
389.834	119.22
390.296	120.12
390.758	117.02
391.22	130.52
391.682	146.22
392.144	166.52
392.606	148.52
393.068	136.72
393.529	137.22
393.991	131.52
394.453	123.72
394.915	124.72
395.377	138.72
395.838	140.42
396.3	139.62
396.762	130.22
397.224	126.52
397.685	128.22
398.147	124.92
398.608	122.72
399.07	120.82
399.531	130.82
399.993	130.92
400.454	144.32
400.916	132.42
401.377	135.52
401.839	140.22
402.3	147.12
402.762	154.32
403.223	164.22
403.684	160.82
404.145	147.22
404.607	155.22
405.068	155.52
405.529	154.92
405.99	168.22
406.451	162.32
406.913	161.62
407.374	155.92
407.835	157.52
408.296	160.02
408.757	166.82
409.218	185.32
409.679	171.42
410.14	164.82
410.601	170.52
411.062	166.42
411.522	171.62
411.983	176.92
412.444	169.42
412.905	178.72
413.366	175.62
413.826	193.62
414.287	206.72
414.748	259.02
415.208	243.82
415.669	205.52
416.13	202.22
416.59	197.42
417.051	215.52
417.511	215.12
417.972	235.02
418.432	241.22
418.893	283.62
419.353	250.92
419.814	191.52
420.274	182.32
420.734	176.12
421.195	189.62
421.655	185.52
422.115	188.32
422.576	185.62
423.036	198.62
423.496	201.62
423.956	209.82
424.416	222.82
424.876	255.92
425.336	250.52
425.797	255.02
426.257	246.52
426.717	237.22
427.177	220.32
427.637	213.12
428.097	225.52
428.556	234.82
429.016	260.62
429.476	252.32
429.936	256.02
430.396	261.52
430.856	283.72
431.315	301.92
431.775	336.42
432.235	363.82
432.694	330.82
433.154	343.92
433.614	375.52
434.073	321.62
434.533	276.42
434.993	262.52
435.452	273.42
435.912	277.52
436.371	277.72
436.83	272.12
437.29	259.32
437.749	240.62
438.209	245.32
438.668	262.22
439.127	284.62
439.587	256.12
440.046	237.52
440.505	254.62
440.964	270.72
441.424	309.72
441.883	300.02
442.342	253.22
442.801	225.42
443.26	225.82
443.719	218.12
444.178	219.32
444.637	214.22
445.096	224.82
445.555	223.92
446.014	227.22
446.473	222.92
446.932	233.92
447.391	229.82
447.849	232.02
448.308	225.82
448.767	225.72
449.226	235.72
449.685	232.52
450.143	246.52
450.602	238.52
451.061	232.52
451.519	235.42
451.978	241.82
452.436	226.82
452.895	240.22
453.353	249.42
453.812	236.72
454.27	240.52
454.729	238.02
455.187	238.22
455.646	245.02
456.104	245.92
456.562	263.62
457.021	269.62
457.479	257.82
457.937	286.12
458.395	268.42
458.854	246.62
459.312	262.02
459.77	275.82
460.228	255.72
460.686	247.42
461.144	252.42
461.602	253.82
462.06	249.42
462.518	256.02
462.976	261.32
463.434	264.82
463.892	269.12
464.35	277.32
464.808	286.02
465.266	269.32
465.724	269.12
466.181	270.02
466.639	280.22
467.097	292.52
467.555	298.22
468.012	295.72
468.47	309.02
468.928	327.82
469.385	345.72
469.843	347.92
470.3	346.72
470.758	360.22
471.215	384.32
471.673	408.92
472.13	404.42
472.588	424.22
473.045	380.92
473.503	392.02
473.96	398.22
474.417	402.52
474.875	436.32
475.332	479.82
475.789	468.62
476.246	469.82
476.704	483.02
477.161	509.82
477.618	517.02
478.075	556.82
478.532	602.22
478.989	684.32
479.446	785.02
479.903	754.02
480.36	772.62
480.817	825.42
481.274	910.72
481.731	1010.82
482.188	1076.62
482.645	1206.12
483.102	1289.52
483.558	1393.32
484.015	1451.42
484.472	1434.72
484.929	1387.02
485.385	1349.92
485.842	1320.12
486.299	1261.82
486.755	1222.22
487.212	1045.22
487.668	883.62
488.125	820.62
488.582	761.52
489.038	732.12
489.494	698.72
489.951	675.32
490.407	661.22
490.864	645.92
491.32	639.12
491.776	634.92
492.233	642.22
492.689	623.02
493.145	605.62
493.602	601.32
494.058	615.32
494.514	613.32
494.97	636.82
495.426	651.12
495.882	621.82
496.338	612.52
496.794	621.72
497.251	607.62
497.707	627.82
498.163	632.12
498.618	643.52
499.074	647.62
499.53	674.02
499.986	673.22
500.442	636.22
500.898	627.82
501.354	619.32
501.809	639.42
502.265	625.72
502.721	633.82
503.177	644.92
503.632	656.62
504.088	658.02
504.543	688.02
504.999	699.12
505.455	663.42
505.91	642.92
506.366	650.52
506.821	639.02
507.277	635.22
507.732	644.92
508.187	632.32
508.643	643.62
509.098	642.72
509.553	666.02
510.009	686.22
510.464	692.22
510.919	687.72
511.375	706.12
511.83	716.32
512.285	739.02
512.74	771.02
513.195	792.92
513.65	778.32
514.105	766.22
514.56	770.72
515.015	793.52
515.47	806.12
515.925	788.22
516.38	790.12
516.835	798.62
517.29	791.72
517.745	793.12
518.2	770.62
518.655	758.72
519.109	757.62
519.564	750.82
520.019	743.32
520.474	738.62
520.928	729.82
521.383	726.92
521.838	733.62
522.292	723.02
522.747	717.92
523.201	717.32
523.656	715.52
524.11	709.12
524.565	708.92
525.019	713.02
525.474	708.32
525.928	707.72
526.382	701.12
526.837	705.92
527.291	717.82
527.745	712.02
528.2	710.62
528.654	705.22
529.108	697.22
529.562	692.32
530.016	703.12
530.47	699.92
530.925	701.22
531.379	690.72
531.833	704.22
532.287	712.72
532.741	711.62
533.195	714.42
533.649	727.72
534.103	723.92
534.556	715.02
535.01	716.32
535.464	713.82
535.918	724.92
536.372	724.52
536.826	718.72
537.279	717.02
537.733	713.42
538.187	727.22
538.64	724.82
539.094	731.22
539.548	739.72
540.001	739.72
540.455	728.32
540.908	750.62
541.362	746.72
541.815	755.62
542.269	768.32
542.722	768.12
543.175	785.12
543.629	784.22
544.082	805.02
544.536	802.62
544.989	803.62
545.442	810.22
545.895	811.02
546.349	807.62
546.802	819.42
547.255	817.32
547.708	826.52
548.161	834.02
548.614	843.72
549.067	840.42
549.52	839.72
549.973	829.32
550.426	826.82
550.879	814.82
551.332	814.42
551.785	829.42
552.238	825.32
552.691	837.42
553.144	853.72
553.596	871.32
554.049	877.82
554.502	904.42
554.955	930.62
555.407	927.02
555.86	925.62
556.313	902.02
556.765	903.72
557.218	898.32
557.67	900.52
558.123	886.82
558.576	887.42
559.028	898.82
559.48	909.12
559.933	900.42
560.385	860.52
560.838	837.42
561.29	816.52
561.742	812.82
562.195	784.22
562.647	794.62
563.099	792.02
563.551	800.12
564.004	804.52
564.456	798.22
564.908	774.32
565.36	760.62
565.812	742.22
566.264	738.42
566.716	729.62
567.168	732.52
567.62	736.62
568.072	725.02
568.524	710.12
568.976	707.72
569.428	696.42
569.88	689.92
570.332	706.12
570.784	698.02
571.235	708.02
571.687	719.52
572.139	721.22
572.59	726.32
573.042	724.52
573.494	724.82
573.945	718.32
574.397	711.52
574.849	709.12
575.3	713.22
575.752	707.32
576.203	700.62
576.655	706.22
577.106	687.32
577.557	684.02
578.009	683.62
578.46	683.12
578.912	681.22
579.363	682.02
579.814	682.82
580.265	667.62
580.717	687.62
581.168	685.22
581.619	697.32
582.07	702.72
582.521	696.52
582.972	691.42
583.423	703.22
583.875	695.32
584.326	713.32
584.777	728.52
585.227	754.22
585.678	777.42
586.129	816.72
586.58	841.42
587.031	867.62
587.482	922.02
587.933	973.92
588.384	921.92
588.834	830.42
589.285	794.22
589.736	791.52
590.186	793.32
590.637	794.72
591.088	768.12
591.538	753.82
591.989	752.82
592.439	745.12
592.89	740.92
593.34	728.52
593.791	725.52
594.241	722.52
594.692	722.62
595.142	719.42
595.593	726.02
596.043	729.22
596.493	725.22
596.943	728.82
597.394	741.62
597.844	747.52
598.294	750.92
598.744	785.32
599.195	809.02
599.645	847.42
600.095	892.12
600.545	949.72
600.995	1000.72
601.445	1049.92
601.895	1125.02
602.345	1171.12
602.795	1144.32
603.245	1097.72
603.695	1041.92
604.145	997.42
604.594	950.12
605.044	880.12
605.494	822.82
605.944	775.72
606.393	771.22
606.843	735.92
607.293	750.52
607.743	750.22
608.192	761.52
608.642	770.52
609.091	781.82
609.541	788.42
609.99	773.32
610.44	783.52
610.889	740.92
611.339	725.42
611.788	704.52
612.238	714.52
612.687	732.32
613.136	721.32
613.586	734.82
614.035	726.82
614.484	733.62
614.933	739.12
615.383	740.32
615.832	739.42
616.281	718.92
616.73	689.22
617.179	683.22
617.628	656.52
618.077	655.92
618.526	647.72
618.975	639.32
619.424	641.12
619.873	627.92
620.322	631.72
620.771	625.22
621.22	619.62
621.669	606.22
622.118	601.02
622.567	601.32
623.015	588.82
623.464	581.82
623.913	570.42
624.361	576.22
624.81	573.32
625.259	575.02
625.707	572.72
626.156	578.22
626.604	591.22
627.053	583.42
627.501	578.52
627.95	585.92
628.398	595.82
628.847	585.82
629.295	585.42
629.744	594.02
630.192	577.92
630.64	578.62
631.089	560.02
631.537	556.52
631.985	551.82
632.433	563.42
632.881	552.02
633.33	562.82
633.778	543.02
634.226	555.52
634.674	555.82
635.122	558.52
635.57	574.42
636.018	586.82
636.466	587.42
636.914	576.92
637.362	597.22
637.81	593.42
638.258	600.52
638.705	607.42
639.153	640.72
639.601	637.32
640.049	661.82
640.497	698.52
640.944	716.12
641.392	672.12
641.84	635.02
642.287	609.92
642.735	592.52
643.182	573.92
643.63	586.62
644.078	582.82
644.525	594.22
644.973	599.62
645.42	615.92
645.867	630.42
646.315	657.32
646.762	674.32
647.21	708.22
647.657	726.22
648.104	764.42
648.551	783.32
648.999	843.42
649.446	916.92
649.893	1001.42
650.34	1150.82
650.787	1354.42
651.234	1696.62
651.682	2180.42
652.129	2980.02
652.576	4230.72
653.023	6190.62
653.47	8332.22
653.917	10297.82
654.363	11759.42
654.81	12894.22
655.257	12231.52
655.704	8100.32
656.151	4891.02
656.598	3215.12
657.044	2299.72
657.491	1777.12
657.938	1445.12
658.385	1205.62
658.831	1055.02
659.278	948.02
659.724	840.52
660.171	784.92
660.618	734.22
661.064	694.42
661.511	671.12
661.957	670.02
662.404	648.62
662.85	664.22
663.296	635.92
663.743	572.42
664.189	556.12
664.635	550.82
665.082	541.32
665.528	546.92
665.974	532.12
666.42	517.32
666.867	515.72
667.313	500.82
667.759	481.52
668.205	468.52
668.651	474.02
669.097	460.82
669.543	467.92
669.989	460.12
670.435	465.42
670.881	463.62
671.327	470.92
671.773	483.02
672.219	505.62
672.665	570.92
673.11	619.52
673.556	664.62
674.002	698.62
674.448	687.62
674.893	575.02
675.339	505.92
675.785	455.12
676.23	433.92
676.676	409.72
677.122	409.32
677.567	393.42
678.013	383.02
678.458	383.42
678.904	371.02
679.349	360.92
679.794	370.32
680.24	366.82
680.685	375.82
681.131	364.02
681.576	366.82
682.021	372.22
682.466	372.12
682.912	358.42
683.357	369.52
683.802	403.62
684.247	428.72
684.692	477.42
685.137	519.62
685.583	560.82
686.028	582.32
686.473	535.82
686.918	460.42
687.363	439.22
687.807	408.72
688.252	383.12
688.697	372.02
689.142	354.22
689.587	353.92
690.032	337.82
690.477	356.52
690.921	368.42
691.366	400.22
691.811	423.92
692.255	454.62
692.7	474.82
693.145	539.82
693.589	764.12
694.034	1224.92
694.478	1637.52
694.923	1807.02
695.367	2347.62
695.812	1264.72
696.256	525.42
696.701	384.82
697.145	368.22
697.59	340.52
698.034	327.82
698.478	342.22
698.922	334.02
699.367	338.42
699.811	348.52
700.255	373.32
700.699	409.22
701.143	447.02
701.588	495.02
702.032	535.62
702.476	534.32
702.92	517.32
703.364	530.52
703.808	697.52
704.252	1136.62
704.696	1571.62
705.14	1758.82
705.584	2227.52
706.027	1124.32
706.471	547.82
706.915	414.92
707.359	379.02
707.803	332.62
708.246	331.92
708.69	328.72
709.134	332.62
709.577	324.02
710.021	335.82
710.465	319.12
710.908	314.12
711.352	320.12
711.795	330.12
712.239	376.02
712.682	408.12
713.126	435.52
713.569	470.02
714.012	370.02
714.456	322.02
714.899	300.92
715.342	290.32
715.786	267.32
716.229	268.02
716.672	264.32
717.115	257.42
717.558	253.82
718.002	261.22
718.445	274.72
718.888	290.02
719.331	306.32
719.774	325.92
720.217	318.42
720.66	299.12
721.103	287.72
721.546	264.82
721.989	269.02
722.432	239.82
722.874	248.92
723.317	245.92
723.76	250.92
724.203	274.72
724.645	335.52
725.088	478.12
725.531	603.72
725.974	675.82
726.416	569.82
726.859	319.12
727.301	258.12
727.744	248.52
728.187	245.92
728.629	239.42
729.071	251.92
729.514	272.42
729.956	286.72
730.399	302.32
730.841	295.82
731.283	285.72
731.726	280.82
732.168	274.02
732.61	284.02
733.053	300.82
733.495	338.12
733.937	377.52
734.379	425.92
734.821	471.82
735.263	590.62
735.705	921.52
736.148	1747.02
736.59	2779.42
737.032	3183.32
737.474	2621.12
737.916	869.02
738.357	453.22
738.799	339.52
739.241	320.82
739.683	296.42
740.125	311.92
740.567	317.92
741.008	333.02
741.45	329.42
741.892	341.62
742.334	370.42
742.775	377.92
743.217	368.62
743.658	288.02
744.1	274.82
744.542	281.02
744.983	334.82
745.425	365.02
745.866	363.92
746.307	294.12
746.749	297.32
747.19	348.02
747.632	497.52
748.073	988.22
748.514	2035.72
748.956	3042.22
749.397	3831.32
749.838	3180.72
750.279	3091.32
750.72	1578.02
751.162	588.92
751.603	344.02
752.044	269.72
752.485	231.82
752.926	217.82
753.367	214.52
753.808	199.32
754.249	196.12
754.69	190.62
755.131	191.72
755.572	191.82
756.013	190.72
756.453	197.72
756.894	202.62
757.335	210.82
757.776	213.02
758.216	207.32
758.657	206.82
759.098	213.12
759.538	243.32
759.979	286.72
760.42	403.72
760.86	798.52
761.301	2071.22
761.741	4848.22
762.182	6679.22
762.622	4721.42
763.063	1404.02
763.503	564.42
763.943	351.92
764.384	296.62
764.824	290.32
765.264	278.82
765.705	239.32
766.145	194.22
766.585	187.32
767.025	183.22
767.465	175.42
767.906	197.92
768.346	226.82
768.786	241.42
769.226	238.22
769.666	336.72
770.106	687.42
770.546	1725.52
770.986	2782.12
771.426	2463.42
771.866	842.92
772.306	344.32
772.745	211.82
773.185	167.82
773.625	167.12
774.065	156.92
774.505	170.82
774.944	228.12
775.384	425.32
775.824	695.82
776.263	653.62
776.703	314.02
777.142	174.42
777.582	140.72
778.021	127.72
778.461	126.62
778.9	136.02
779.34	130.22
779.779	124.62
780.219	113.72
780.658	108.22
781.097	112.12
781.537	115.92
781.976	115.52
782.415	110.02
782.855	117.22
783.294	106.72
783.733	104.52
784.172	112.72
784.611	104.22
785.05	109.42
785.489	117.52
785.928	121.82
786.367	128.92
786.806	127.02
787.245	132.72
787.684	145.22
788.123	150.82
788.562	138.32
789.001	135.22
789.44	126.52
789.879	125.22
790.317	126.42
790.756	135.32
791.195	133.92
791.634	158.32
792.072	215.22
792.511	399.32
792.95	1102.32
793.388	2246.52
793.827	1959.02
794.265	705.32
794.704	298.52
795.142	191.92
795.581	163.72
796.019	137.92
796.458	132.92
796.896	128.82
797.334	130.02
797.773	166.72
798.211	244.52
798.649	485.22
799.087	1107.82
799.526	1732.82
799.964	2155.02
800.402	2090.22
800.84	805.82
801.278	330.52
801.716	201.32
802.154	161.12
802.592	155.62
803.03	149.72
803.468	139.52
803.906	147.02
804.344	158.52
804.782	148.12
805.22	142.02
805.658	133.62
806.096	150.72
806.533	171.72
806.971	190.72
807.409	242.82
807.847	344.22
808.284	748.42
808.722	2054.92
809.16	3480.62
809.597	3430.22
810.035	5834.82
810.472	5989.82
810.91	2220.02
811.347	864.22
811.785	426.02
812.222	275.42
812.66	210.72
813.097	178.62
813.535	155.02
813.972	133.42
814.409	127.82
814.846	107.32
815.284	111.82
815.721	103.02
816.158	112.12
816.595	114.22
817.032	161.92
817.47	183.72
817.907	132.62
818.344	109.92
818.781	101.62
819.218	100.02
819.655	131.62
820.092	195.82
820.529	224.12
820.966	177.62
821.403	130.42
821.839	98.82
822.276	101.22
822.713	128.82
823.15	138.12
823.587	120.52
824.023	156.52
824.46	342.72
824.897	982.52
825.333	1407.12
825.77	622.62
826.206	248.12
826.643	141.02
827.08	103.92
827.516	81.12
827.953	85.62
828.389	82.42
828.825	72.92
829.262	65.82
829.698	65.92
830.135	64.42
830.571	63.12
831.007	66.52
831.443	60.42
831.88	58.62
832.316	56.02
832.752	64.12
833.188	71.12
833.624	66.52
834.06	71.12
834.497	72.52
834.933	72.92
835.369	74.32
835.805	70.32
836.241	78.32
836.677	85.72
837.112	97.42
837.548	106.32
837.984	141.02
838.42	218.72
838.856	555.52
839.292	1667.42
839.727	2411.72
840.163	1135.52
840.599	1022.42
841.034	2187.22
841.47	2184.92
841.906	818.22
842.341	351.42
842.777	214.82
843.212	226.52
843.648	206.02
844.083	122.42
844.519	92.72
844.954	70.82
845.39	60.82
845.825	61.52
846.261	56.82
846.696	55.32
847.131	50.12
847.566	58.42
848.002	49.52
848.437	56.02
848.872	62.02
849.307	60.32
849.742	87.32
850.177	200.62
850.613	613.32
851.048	920.42
851.483	406.12
851.918	164.12
852.353	87.52
852.788	57.92
853.223	52.22
853.657	54.12
854.092	47.22
854.527	45.42
854.962	44.42
855.397	43.32
855.832	50.72
856.266	45.62
856.701	40.02
857.136	35.32
857.57	43.22
858.005	59.52
858.44	64.32
858.874	47.42
859.309	54.12
859.743	36.12
860.178	48.12
860.612	36.22
861.047	56.52
861.481	74.42
861.915	69.32
862.35	52.92
862.784	37.72
863.218	40.92
863.653	36.22
864.087	53.12
864.521	61.22
864.955	71.02
865.39	160.72
865.824	181.22
866.258	120.12
866.692	177.52
867.126	193.62
867.56	110.32
867.994	59.32
868.428	38.12
868.862	51.22
869.296	52.52
869.73	55.72
870.164	55.32
870.598	50.22
871.031	42.22
871.465	33.52
871.899	26.22
872.333	26.22
872.766	22.82
873.2	23.52
873.634	25.42
874.067	24.92
874.501	21.72
874.935	34.72
875.368	25.72
875.802	34.32
876.235	19.42
876.669	24.42
877.102	22.42
877.535	31.42
877.969	19.72
878.402	19.02
878.836	15.72
879.269	22.42
879.702	24.52
880.135	21.62
880.569	24.82
881.002	21.92
881.435	20.22
881.868	19.12
882.301	25.12
882.734	12.42
883.167	22.32
883.601	17.32
884.034	21.72
884.467	19.72
884.899	22.02
885.332	19.82
885.765	10.32
886.198	15.32
886.631	19.72
887.064	12.42
887.497	23.22
887.929	24.12
888.362	15.62
888.795	11.72
889.228	21.02
889.66	19.62
890.093	16.52
890.526	13.12
890.958	15.62
891.391	20.02
891.823	15.32
892.256	14.92
892.688	12.12
893.121	11.02
893.553	15.02
893.985	24.32
894.418	16.62
894.85	13.62
895.282	18.52
895.715	16.42
896.147	19.42
896.579	16.12
897.011	17.32
897.444	14.42
897.876	16.62
898.308	15.42
898.74	17.52
899.172	17.72
899.604	25.42
900.036	17.52
900.468	13.12
900.9	14.32
901.332	16.42
901.764	10.42
902.196	11.22
902.628	20.92
903.06	17.42
903.491	25.82
903.923	28.22
904.355	18.02
904.787	19.72
905.218	23.92
905.65	19.42
906.082	11.42
906.513	14.32
906.945	10.92
907.376	10.22
907.808	19.32
908.239	16.52
908.671	17.72
909.102	19.52
909.534	24.02
909.965	46.02
910.397	98.42
910.828	341.12
911.259	495.62
911.691	232.12
912.122	112.72
912.553	52.42
912.984	30.32
913.415	23.72
913.847	24.12
914.278	16.82
914.709	10.42
915.14	17.72
915.571	13.02
916.002	11.02
916.433	26.12
916.864	15.72
917.295	13.92
917.726	17.22
918.157	20.52
918.587	34.32
919.018	19.42
919.449	20.22
919.88	19.92
920.311	30.72
920.741	47.72
921.172	178.12
921.603	160.62
922.033	78.52
922.464	43.32
922.895	20.32
923.325	15.12
923.756	14.82
924.186	10.62
924.617	15.92
925.047	22.42
925.478	28.22
925.908	26.22
926.338	17.72
926.769	11.32
927.199	17.72
927.629	11.32
928.06	14.52
928.49	10.52
928.92	16.82
929.35	12.62
929.78	8.42
930.21	7.22
930.641	6.42
931.071	9.42
931.501	2.42
931.931	8.42
932.361	4.62
932.791	-5.48
933.221	2.22
933.651	4.82
934.08	23.42
934.51	29.52
934.94	12.82
935.37	10.42
935.8	7.52
936.229	9.52
936.659	12.02
937.089	2.12
937.519	12.42
937.948	24.02
938.378	14.22
938.807	5.72
939.237	3.92
939.666	8.02
940.096	-9.68
940.525	-1.58
940.955	-2.88
941.384	-1.18
941.814	-5.38
942.243	-5.98
942.672	6.52
943.102	-0.78
943.531	-0.98
943.96	2.52
944.39	6.82
944.819	3.32
945.248	0.82
945.677	0.52
946.106	3.82
946.535	2.32
946.964	5.92
947.393	7.92
947.822	3.52
948.251	0.62
948.68	-4.18
949.109	2.62
949.538	6.92
949.967	-7.18
950.396	-1.98
950.825	-5.78
951.254	1.62
951.682	-8.68
952.111	3.32
952.54	-2.58
952.969	-2.48
953.397	-8.18
953.826	-5.08
954.254	-3.28
954.683	-1.58
955.112	-1.48
955.54	-3.88
955.969	2.42
956.397	-1.88
956.826	-5.28
957.254	5.92
957.682	1.72
958.111	5.72
958.539	-6.48
958.967	-2.38
959.396	-2.38
959.824	2.12
960.252	7.22
960.68	-4.78
961.109	-1.38
961.537	-7.88
961.965	1.82
962.393	-7.08
962.821	0.62
963.249	1.12
963.677	8.72
964.105	8.52
964.533	53.72
964.961	39.62
965.389	19.42
965.817	7.22
966.245	-0.18
966.672	-1.58
967.1	-6.98
967.528	-0.28
967.956	-5.48
968.383	2.92
968.811	-3.18
969.239	0.42
969.666	-0.48
970.094	-1.78
970.522	-1.38
970.949	-5.68
971.377	-4.18
971.804	-2.08
972.232	-2.28
972.659	-2.28
973.087	-4.18
973.514	-1.18
973.941	-3.28
974.369	-2.58
974.796	-1.78
975.223	1.72
975.651	0.02
976.078	-4.38
976.505	-1.88
976.932	0.62
977.359	14.72
977.786	11.32
978.214	-1.28
978.641	-7.38
979.068	-4.98
979.495	-8.18
979.922	-2.28
980.349	-2.58
980.776	0.42
981.202	-1.78
981.629	2.62
982.056	8.92
982.483	-1.78
982.91	4.32
983.337	-14.58
983.763	-2.68
984.19	-3.78
984.617	-6.28
985.043	-8.88
985.47	-3.78
985.897	-2.78
986.323	-7.98
986.75	1.02
987.176	-4.18
987.603	-4.98
988.029	-8.48
988.456	-3.58
988.882	6.12
989.308	-5.48
989.735	-5.98
990.161	-1.68
990.587	-4.28
991.014	-7.18
991.44	3.92
991.866	0.82
992.292	-8.88
992.719	-10.68
993.145	-1.98
993.571	-13.08
993.997	-6.68
994.423	-1.38
994.849	-6.78
995.275	-2.88
995.701	-0.58
996.127	-6.28
996.553	0.92
996.979	-2.18
997.405	-0.38
997.83	-6.48
998.256	-5.88
998.682	-8.78
999.108	-14.38
999.534	-2.58
999.959	-3.78
1000.385	-2.28
1000.811	-0.48
1001.236	-9.78
1001.662	-9.58
1002.087	-9.78
1002.513	-4.08
1002.938	-2.28
1003.364	-8.58
1003.789	-6.18
1004.215	1.02
1004.64	-1.68
1005.066	1.82
1005.491	-4.68
1005.916	3.82
1006.342	-6.18
1006.767	-11.78
1007.192	-0.48
1007.617	-2.48
1008.042	-7.68
1008.468	-6.68
1008.893	-7.48
1009.318	-3.08
1009.743	-5.48
1010.168	4.92
1010.593	1.42
1011.018	-5.88
1011.443	-8.08
1011.868	-1.28
1012.293	-11.38
1012.718	-7.88
1013.143	-3.28
1013.567	8.02
1013.992	-3.38
1014.417	-11.08
1014.842	-1.28
1015.267	-5.78
1015.691	-6.68
1016.116	3.82
1016.541	-0.48
1016.965	2.72
1017.39	1.52
1017.814	-3.18
1018.239	-3.38
1018.663	-13.58
1019.088	-11.98
1019.512	-12.68
1019.937	-0.68
1020.361	-2.18
1020.785	-15.08
1021.21	-6.28
1021.634	-6.48
1022.058	4.82
1022.483	7.72
1022.907	-1.98
1023.331	-3.68
1023.755	-5.18
1024.179	-4.08
1024.604	-12.78
1025.028	-10.78
1025.452	-10.68
1025.876	-3.58
1026.3	-4.08
1026.724	-9.28
1027.148	-4.98
1027.572	-6.48
1027.996	-3.58
1028.42	-6.68
1028.843	-7.68
1029.267	-7.68
1029.691	-4.68
1030.115	-9.28
1030.539	-11.78
1030.962	-8.18
1031.386	-13.48
1031.81	-1.88
1032.233	-1.58
1032.657	0.32
1033.08	-2.28
1033.504	-1.18
1033.927	-7.28
1034.351	-5.98
1034.774	-3.38
1035.198	-4.18
1035.621	-7.68
1036.045	-10.38
1036.468	-0.28
1036.891	-16.78
1037.315	-8.38
1037.738	-11.18
1038.161	-6.18
1038.584	-7.28
1039.008	-10.88
1039.431	-7.38
1039.854	-5.38
1040.277	-5.68
1040.7	-11.88
1041.123	-1.78
1041.546	-12.38
1041.969	-4.98
1042.392	-6.98
1042.815	-1.08
1043.238	-0.18
1043.661	-2.58
1044.084	-7.38
1044.507	-12.48
1044.93	-7.38
1045.352	-3.78
1045.775	-2.48
1046.198	-5.78
1046.621	-7.38
1047.043	-3.68
1047.466	-0.48
1047.889	-2.28
1048.311	-7.28
1048.734	-1.28
1049.156	-0.78
1049.579	-0.28
1050.001	-5.18
1050.424	-3.78
1050.846	-2.18
1051.269	-5.58
1051.691	-5.48
1052.113	-2.98
1052.536	-2.38
1052.958	-7.68
1053.38	-3.98
1053.802	-17.18
1054.225	-0.68
1054.647	-10.88
1055.069	-5.48
1055.491	4.02
1055.913	-9.08
1056.335	4.52
1056.757	-4.98
1057.179	-10.68
1057.601	-6.88
1058.023	-7.28
1058.445	-10.08
1058.867	-8.98
1059.289	-9.18
1059.711	-13.68
1060.133	-5.28
1060.555	-8.28
1060.976	-8.98
1061.398	-3.18
1061.82	-7.08
1062.241	-12.08
1062.663	-13.58
1063.085	-7.38
1063.506	-9.48
1063.928	-5.08
1064.35	-6.78
1064.771	-15.58
1065.193	-7.58
1065.614	-12.78
1066.035	-8.78
1066.457	-10.98
1066.878	-1.78
1067.3	-2.88
1067.721	2.52
1068.142	-5.48
1068.564	-5.18
1068.985	-5.38
1069.406	-9.68
1069.827	-3.68
1070.248	1.02
1070.67	-8.98
1071.091	-10.18
1071.512	-5.88
1071.933	-10.38
1072.354	-8.98
1072.775	-8.98
1073.196	-11.28
1073.617	-6.78
1074.038	-9.88
1074.459	-5.28
1074.88	-8.78
1075.3	-0.28
1075.721	-4.58
1076.142	1.22
1076.563	0.92
1076.983	-9.88
1077.404	-6.68
1077.825	-11.08
1078.246	-9.58
1078.666	-19.58
1079.087	-6.78
1079.507	-5.98
1079.928	-1.78
1080.348	-0.88
1080.769	-8.58
1081.189	2.92
1081.61	-8.68
1082.03	-7.48
1082.451	-7.08
1082.871	-7.88
1083.291	-11.88
1083.711	-13.38
1084.132	-6.88
1084.552	-1.48
1084.972	-2.18
1085.392	-14.78
1085.813	-11.88
1086.233	-11.48
1086.653	-8.08
1087.073	-8.88
1087.493	-4.88
1087.913	-3.68
1088.333	-10.48
1088.753	-5.68
1089.173	5.12
1089.593	-6.58
1090.013	4.72
1090.433	-2.48
1090.852	-7.98
1091.272	-2.18
1091.692	-8.28
1092.112	-1.48
1092.531	-5.48
1092.951	-15.18
1093.371	-6.08
1093.79	-0.38
1094.21	-8.68
1094.63	-6.78
1095.049	-6.78
1095.469	-4.78
1095.888	-4.48
1096.308	0.92
1096.727	3.32
1097.146	-6.38
1097.566	0.52
1097.985	-5.08
1098.405	-5.88
1098.824	-3.68
1099.243	-8.28
1099.662	-8.48
1100.082	-5.18
1100.501	-2.98
1100.92	-6.68
1101.339	-4.48
1101.758	-8.48
