Data from 20171114-ORNL-Ar_H_NY_Subt18_08-08-36-676.txt Node
Date: Tue Nov 14 08:08:36 EST 2017
User: Ender
Spectrometer: HR+D1039
Trigger mode: 0
Integration Time (sec): 2.730000E-2
Scans to average: 10
Electric dark correction enabled: true
Nonlinearity correction enabled: false
Boxcar width: 0
XAxis mode: Wavelengths
Number of Pixels in Spectrum: 2048
>>>>>Begin Spectral Data<<<<<
187.836	-4.11
188.309	-4.11
188.782	-4.11
189.255	3.39
189.728	-4.11
190.201	4.09
190.674	3.69
191.147	6.39
191.619	-10.01
192.092	-2.91
192.565	2.59
193.038	1.69
193.511	3.69
193.984	4.59
194.456	-5.01
194.929	1.19
195.402	-4.81
195.874	-0.31
196.347	-3.71
196.82	-9.81
197.292	0.79
197.765	5.69
198.237	-6.71
198.71	-1.31
199.182	1.89
199.655	1.49
200.127	-2.11
200.6	-9.81
201.072	-2.91
201.544	-0.91
202.017	-2.61
202.489	6.79
202.961	0.09
203.433	-1.11
203.906	-5.71
204.378	-5.81
204.85	1.19
205.322	-3.41
205.794	-2.51
206.266	0.99
206.739	-6.51
207.211	-5.31
207.683	-10.01
208.155	-3.91
208.627	-5.81
209.099	1.19
209.57	-10.61
210.042	-1.51
210.514	-8.11
210.986	-8.61
211.458	-10.91
211.93	-3.81
212.402	1.29
212.873	-5.01
213.345	-10.61
213.817	-11.71
214.288	-6.01
214.76	-8.71
215.232	-0.71
215.703	1.29
216.175	-0.31
216.646	-2.51
217.118	-13.41
217.589	-8.71
218.061	-4.21
218.532	-9.71
219.004	-5.31
219.475	-5.21
219.946	-3.81
220.418	-6.11
220.889	-0.11
221.36	4.99
221.832	-5.11
222.303	-7.71
222.774	-2.71
223.245	-11.41
223.717	-10.51
224.188	-4.11
224.659	-11.91
225.13	-8.71
225.601	-2.01
226.072	-2.31
226.543	0.79
227.014	-0.11
227.485	0.69
227.956	-7.71
228.427	-1.41
228.898	3.89
229.369	5.39
229.839	-3.91
230.31	-6.61
230.781	8.99
231.252	-7.61
231.722	-3.51
232.193	-5.41
232.664	-2.51
233.135	-6.51
233.605	-4.51
234.076	-6.91
234.546	-2.91
235.017	7.09
235.487	-3.11
235.958	-1.61
236.428	-7.11
236.899	3.59
237.369	1.19
237.84	-6.51
238.31	4.79
238.78	-5.71
239.251	-7.51
239.721	1.39
240.191	1.89
240.662	-4.41
241.132	-0.11
241.602	-4.01
242.072	-3.31
242.542	7.29
243.013	-2.51
243.483	5.99
243.953	5.09
244.423	4.19
244.893	-5.11
245.363	-2.51
245.833	2.99
246.303	-5.21
246.773	5.79
247.243	-4.71
247.712	-3.41
248.182	2.69
248.652	2.09
249.122	-9.01
249.592	1.49
250.061	5.59
250.531	13.49
251.001	0.79
251.471	10.59
251.94	11.19
252.41	1.69
252.879	3.19
253.349	6.79
253.818	1.79
254.288	0.89
254.757	-0.41
255.227	-2.41
255.696	-1.91
256.166	3.79
256.635	3.19
257.105	5.59
257.574	-0.61
258.043	4.89
258.513	-0.71
258.982	6.39
259.451	-1.61
259.92	3.79
260.389	0.89
260.859	7.29
261.328	0.89
261.797	3.99
262.266	1.59
262.735	7.09
263.204	-0.91
263.673	-2.91
264.142	7.09
264.611	-2.81
265.08	-6.71
265.549	-3.11
266.018	2.49
266.487	-0.31
266.955	-0.81
267.424	1.29
267.893	5.09
268.362	-3.11
268.83	-0.61
269.299	9.29
269.768	0.79
270.236	-2.91
270.705	-0.41
271.174	0.29
271.642	1.49
272.111	1.19
272.579	3.19
273.048	7.89
273.516	9.89
273.985	10.39
274.453	8.19
274.922	13.89
275.39	4.69
275.858	-3.21
276.327	11.19
276.795	10.79
277.263	7.49
277.731	16.19
278.2	21.99
278.668	18.89
279.136	17.79
279.604	3.59
280.072	14.29
280.54	6.19
281.008	4.39
281.477	8.59
281.945	3.89
282.413	10.59
282.881	13.69
283.348	-0.61
283.816	11.99
284.284	4.49
284.752	18.79
285.22	3.59
285.688	11.29
286.156	10.79
286.623	29.59
287.091	13.29
287.559	10.99
288.026	6.59
288.494	12.29
288.962	0.49
289.429	5.89
289.897	13.19
290.364	9.49
290.832	12.89
291.3	12.59
291.767	12.99
292.234	6.49
292.702	5.59
293.169	17.59
293.637	17.39
294.104	18.79
294.571	4.79
295.039	7.69
295.506	12.39
295.973	5.59
296.44	14.69
296.908	14.99
297.375	16.69
297.842	18.69
298.309	2.99
298.776	4.49
299.243	20.09
299.71	8.79
300.177	16.39
300.644	12.79
301.111	19.69
301.578	20.89
302.045	11.59
302.512	20.89
302.979	13.99
303.446	23.79
303.913	11.89
304.379	11.29
304.846	19.69
305.313	20.19
305.78	16.39
306.246	16.49
306.713	20.39
307.18	14.69
307.646	23.09
308.113	19.59
308.579	22.59
309.046	19.49
309.512	22.69
309.979	9.99
310.445	24.39
310.912	26.19
311.378	26.29
311.845	24.09
312.311	25.59
312.777	28.09
313.244	19.79
313.71	35.79
314.176	24.79
314.642	21.99
315.109	21.19
315.575	25.99
316.041	34.39
316.507	23.79
316.973	33.29
317.439	28.19
317.905	31.49
318.371	24.39
318.837	27.89
319.303	25.99
319.769	28.09
320.235	20.89
320.701	29.79
321.167	35.69
321.633	30.69
322.099	33.09
322.564	34.29
323.03	27.89
323.496	28.99
323.962	28.69
324.427	29.49
324.893	36.09
325.359	32.39
325.824	31.69
326.29	36.19
326.755	33.39
327.221	38.19
327.686	36.29
328.152	42.19
328.617	37.59
329.083	40.89
329.548	46.29
330.014	44.39
330.479	34.49
330.944	36.19
331.41	37.09
331.875	37.79
332.34	37.79
332.805	34.49
333.271	35.79
333.736	37.59
334.201	40.19
334.666	44.19
335.131	49.19
335.596	48.59
336.061	41.59
336.526	36.69
336.991	43.69
337.456	50.19
337.921	48.49
338.386	34.39
338.851	38.79
339.316	39.09
339.781	46.69
340.246	48.99
340.711	45.79
341.175	46.49
341.64	40.89
342.105	46.49
342.569	46.29
343.034	49.19
343.499	48.89
343.963	44.29
344.428	48.19
344.893	52.59
345.357	53.69
345.822	52.59
346.286	58.69
346.751	71.69
347.215	61.89
347.679	68.19
348.144	84.49
348.608	72.99
349.073	58.59
349.537	66.69
350.001	64.89
350.465	81.09
350.93	73.49
351.394	77.39
351.858	70.29
352.322	71.99
352.786	75.79
353.25	86.79
353.715	98.79
354.179	86.69
354.643	109.19
355.107	108.49
355.571	93.39
356.035	92.29
356.498	106.79
356.962	103.09
357.426	112.39
357.89	99.89
358.354	82.49
358.818	75.99
359.281	67.59
359.745	64.99
360.209	69.29
360.673	65.69
361.136	75.99
361.6	79.29
362.064	72.79
362.527	70.69
362.991	83.99
363.454	73.39
363.918	68.59
364.381	68.19
364.845	74.69
365.308	75.59
365.772	77.79
366.235	76.69
366.698	82.09
367.162	76.69
367.625	72.09
368.088	80.09
368.552	83.59
369.015	77.49
369.478	82.29
369.941	88.79
370.404	84.59
370.867	92.09
371.331	103.29
371.794	103.89
372.257	89.99
372.72	98.59
373.183	95.49
373.646	92.69
374.109	91.49
374.572	97.09
375.035	95.69
375.497	105.49
375.96	94.59
376.423	100.09
376.886	107.69
377.349	97.59
377.811	92.49
378.274	102.39
378.737	99.69
379.199	99.89
379.662	108.49
380.125	101.69
380.587	106.99
381.05	93.79
381.512	114.49
381.975	117.29
382.437	115.19
382.9	115.89
383.362	123.19
383.825	124.79
384.287	126.89
384.75	118.39
385.212	113.89
385.674	129.69
386.136	127.19
386.599	118.99
387.061	116.89
387.523	118.59
387.985	120.19
388.447	130.19
388.91	130.29
389.372	130.49
389.834	129.29
390.296	126.89
390.758	133.39
391.22	138.09
391.682	155.89
392.144	184.29
392.606	161.89
393.068	146.59
393.529	152.89
393.991	144.69
394.453	129.59
394.915	134.49
395.377	141.09
395.838	146.89
396.3	131.19
396.762	128.69
397.224	124.99
397.685	125.29
398.147	128.49
398.608	130.89
399.07	122.29
399.531	131.49
399.993	137.29
400.454	151.59
400.916	141.29
401.377	140.09
401.839	145.49
402.3	144.49
402.762	163.59
403.223	176.59
403.684	165.89
404.145	147.49
404.607	155.89
405.068	153.89
405.529	166.69
405.99	188.69
406.451	172.09
406.913	168.49
407.374	160.09
407.835	157.69
408.296	162.29
408.757	168.49
409.218	183.59
409.679	175.29
410.14	171.19
410.601	172.79
411.062	175.29
411.522	181.69
411.983	176.09
412.444	166.59
412.905	169.89
413.366	178.99
413.826	189.09
414.287	208.99
414.748	259.89
415.208	241.59
415.669	206.49
416.13	198.39
416.59	205.89
417.051	207.79
417.511	216.09
417.972	244.09
418.432	241.29
418.893	290.59
419.353	255.29
419.814	205.19
420.274	176.99
420.734	183.79
421.195	200.69
421.655	194.29
422.115	195.59
422.576	195.79
423.036	198.39
423.496	209.19
423.956	219.79
424.416	225.19
424.876	262.49
425.336	258.09
425.797	254.49
426.257	250.29
426.717	231.79
427.177	228.59
427.637	220.89
428.097	234.59
428.556	239.89
429.016	264.99
429.476	259.29
429.936	270.39
430.396	265.79
430.856	276.69
431.315	313.49
431.775	345.79
432.235	370.79
432.694	342.79
433.154	348.29
433.614	378.89
434.073	324.09
434.533	281.89
434.993	260.09
435.452	275.29
435.912	290.29
436.371	282.59
436.83	277.29
437.29	264.09
437.749	245.59
438.209	240.29
438.668	270.09
439.127	288.69
439.587	261.99
440.046	246.79
440.505	257.09
440.964	274.79
441.424	320.29
441.883	305.19
442.342	260.49
442.801	226.29
443.26	226.49
443.719	228.79
444.178	214.49
444.637	216.79
445.096	221.29
445.555	229.09
446.014	222.89
446.473	229.79
446.932	230.99
447.391	225.69
447.849	232.49
448.308	225.49
448.767	223.09
449.226	236.09
449.685	244.39
450.143	250.89
450.602	243.49
451.061	232.59
451.519	233.69
451.978	230.49
452.436	234.39
452.895	244.19
453.353	250.59
453.812	249.59
454.27	238.69
454.729	236.59
455.187	242.39
455.646	249.09
456.104	254.59
456.562	262.19
457.021	271.29
457.479	266.69
457.937	280.39
458.395	270.89
458.854	256.29
459.312	268.99
459.77	278.89
460.228	266.99
460.686	247.89
461.144	254.99
461.602	245.89
462.06	250.19
462.518	253.29
462.976	250.19
463.434	259.99
463.892	273.39
464.35	284.79
464.808	294.59
465.266	263.09
465.724	268.79
466.181	275.59
466.639	273.69
467.097	288.59
467.555	301.59
468.012	307.39
468.47	310.19
468.928	327.79
469.385	340.89
469.843	352.39
470.3	354.19
470.758	361.99
471.215	391.59
471.673	408.79
472.13	407.69
472.588	429.59
473.045	375.39
473.503	381.39
473.96	397.39
474.417	403.19
474.875	437.29
475.332	481.69
475.789	465.99
476.246	471.09
476.704	490.99
477.161	513.49
477.618	526.49
478.075	562.09
478.532	620.19
478.989	679.09
479.446	803.79
479.903	758.29
480.36	787.29
480.817	838.29
481.274	928.59
481.731	1012.59
482.188	1095.19
482.645	1214.29
483.102	1304.59
483.558	1424.79
484.015	1457.89
484.472	1431.49
484.929	1394.69
485.385	1342.89
485.842	1322.09
486.299	1270.29
486.755	1239.89
487.212	1053.59
487.668	888.79
488.125	818.99
488.582	759.49
489.038	735.29
489.494	696.19
489.951	683.39
490.407	665.89
490.864	647.69
491.32	643.19
491.776	643.29
492.233	647.49
492.689	618.59
493.145	599.69
493.602	592.79
494.058	622.29
494.514	604.79
494.97	634.19
495.426	644.19
495.882	623.49
496.338	610.59
496.794	632.19
497.251	608.49
497.707	625.39
498.163	632.99
498.618	643.39
499.074	650.89
499.53	671.29
499.986	677.29
500.442	640.59
500.898	623.69
501.354	619.49
501.809	627.29
502.265	634.89
502.721	644.49
503.177	657.19
503.632	651.19
504.088	658.59
504.543	682.09
504.999	701.69
505.455	655.69
505.91	634.89
506.366	633.79
506.821	629.99
507.277	638.09
507.732	639.59
508.187	631.39
508.643	645.19
509.098	649.59
509.553	653.09
510.009	669.39
510.464	683.39
510.919	699.29
511.375	691.19
511.83	714.69
512.285	723.89
512.74	757.59
513.195	780.99
513.65	772.19
514.105	770.79
514.56	784.69
515.015	793.99
515.47	818.69
515.925	791.59
516.38	786.09
516.835	795.39
517.29	768.59
517.745	772.79
518.2	769.09
518.655	753.29
519.109	753.79
519.564	745.59
520.019	735.19
520.474	722.89
520.928	733.39
521.383	716.49
521.838	715.49
522.292	722.49
522.747	719.89
523.201	713.29
523.656	712.19
524.11	705.09
524.565	700.69
525.019	692.09
525.474	708.49
525.928	696.79
526.382	707.19
526.837	710.29
527.291	699.89
527.745	698.59
528.2	704.29
528.654	698.19
529.108	692.99
529.562	691.79
530.016	698.19
530.47	700.29
530.925	700.39
531.379	701.69
531.833	708.59
532.287	711.89
532.741	711.49
533.195	706.19
533.649	713.79
534.103	722.99
534.556	706.89
535.01	720.69
535.464	709.99
535.918	731.69
536.372	730.49
536.826	719.69
537.279	713.69
537.733	708.49
538.187	716.49
538.64	718.89
539.094	729.09
539.548	737.49
540.001	730.69
540.455	727.29
540.908	739.39
541.362	743.09
541.815	757.09
542.269	767.99
542.722	773.79
543.175	778.39
543.629	766.09
544.082	787.09
544.536	795.09
544.989	792.69
545.442	805.49
545.895	801.39
546.349	792.09
546.802	799.79
547.255	810.19
547.708	821.89
548.161	826.39
548.614	840.89
549.067	842.69
549.52	835.39
549.973	815.49
550.426	814.29
550.879	799.49
551.332	802.59
551.785	817.59
552.238	819.09
552.691	828.19
553.144	848.29
553.596	863.39
554.049	886.79
554.502	899.59
554.955	913.99
555.407	918.99
555.86	916.49
556.313	907.59
556.765	897.69
557.218	895.59
557.67	885.19
558.123	881.59
558.576	889.69
559.028	883.99
559.48	891.99
559.933	883.99
560.385	852.59
560.838	817.09
561.29	793.79
561.742	802.29
562.195	783.89
562.647	775.99
563.099	792.59
563.551	793.19
564.004	798.09
564.456	787.59
564.908	773.09
565.36	753.39
565.812	738.29
566.264	737.79
566.716	727.89
567.168	718.09
567.62	721.29
568.072	706.49
568.524	706.59
568.976	699.09
569.428	690.09
569.88	688.09
570.332	697.29
570.784	693.69
571.235	700.79
571.687	708.79
572.139	718.59
572.59	728.29
573.042	722.89
573.494	724.29
573.945	714.19
574.397	704.19
574.849	703.49
575.3	711.39
575.752	696.59
576.203	683.29
576.655	695.99
577.106	682.29
577.557	678.29
578.009	681.09
578.46	677.69
578.912	677.19
579.363	671.69
579.814	682.19
580.265	668.59
580.717	682.79
581.168	686.79
581.619	692.79
582.07	694.89
582.521	685.69
582.972	674.09
583.423	690.09
583.875	694.39
584.326	702.49
584.777	720.19
585.227	753.09
585.678	782.79
586.129	806.59
586.58	840.39
587.031	875.09
587.482	933.39
587.933	989.79
588.384	933.49
588.834	834.59
589.285	794.79
589.736	780.89
590.186	784.09
590.637	777.79
591.088	760.79
591.538	740.49
591.989	750.59
592.439	722.69
592.89	722.59
593.34	723.09
593.791	720.59
594.241	712.39
594.692	719.89
595.142	720.89
595.593	710.49
596.043	711.29
596.493	724.59
596.943	714.79
597.394	728.89
597.844	732.89
598.294	749.99
598.744	765.09
599.195	800.19
599.645	835.29
600.095	881.59
600.545	935.59
600.995	981.19
601.445	1052.09
601.895	1111.09
602.345	1151.09
602.795	1140.19
603.245	1091.69
603.695	1035.59
604.145	988.99
604.594	934.39
605.044	885.59
605.494	812.19
605.944	766.99
606.393	757.39
606.843	742.89
607.293	742.79
607.743	740.09
608.192	767.59
608.642	766.49
609.091	773.19
609.541	764.79
609.99	774.29
610.44	777.79
610.889	733.49
611.339	713.49
611.788	695.19
612.238	699.49
612.687	716.49
613.136	706.19
613.586	729.69
614.035	722.19
614.484	737.59
614.933	729.79
615.383	726.39
615.832	728.69
616.281	727.19
616.73	689.99
617.179	673.39
617.628	650.19
618.077	642.99
618.526	630.09
618.975	624.39
619.424	620.89
619.873	627.39
620.322	624.29
620.771	619.19
621.22	617.89
621.669	610.19
622.118	598.59
622.567	590.89
623.015	580.79
623.464	569.09
623.913	570.69
624.361	568.19
624.81	567.09
625.259	568.49
625.707	571.99
626.156	573.29
626.604	579.49
627.053	577.49
627.501	572.69
627.95	574.79
628.398	589.29
628.847	578.79
629.295	581.59
629.744	582.29
630.192	580.29
630.64	571.79
631.089	574.79
631.537	571.09
631.985	566.59
632.433	557.29
632.881	560.09
633.33	573.39
633.778	559.39
634.226	544.29
634.674	555.09
635.122	568.09
635.57	570.89
636.018	592.49
636.466	573.19
636.914	563.19
637.362	589.79
637.81	586.19
638.258	595.99
638.705	597.09
639.153	625.39
639.601	628.99
640.049	651.99
640.497	693.19
640.944	711.09
641.392	650.59
641.84	631.69
642.287	591.89
642.735	565.79
643.182	573.19
643.63	575.29
644.078	578.79
644.525	590.89
644.973	591.59
645.42	599.29
645.867	626.09
646.315	641.89
646.762	675.29
647.21	698.19
647.657	707.09
648.104	749.29
648.551	774.79
648.999	826.09
649.446	906.39
649.893	994.69
650.34	1145.69
650.787	1351.59
651.234	1664.69
651.682	2171.19
652.129	2956.29
652.576	4204.99
653.023	6125.29
653.47	8296.29
653.917	10193.69
654.363	11727.19
654.81	12879.29
655.257	12176.49
655.704	8051.29
656.151	4851.79
656.598	3190.69
657.044	2287.99
657.491	1765.69
657.938	1428.29
658.385	1204.89
658.831	1050.99
659.278	933.79
659.724	839.99
660.171	784.39
660.618	720.89
661.064	685.99
661.511	672.29
661.957	652.39
662.404	643.19
662.85	654.79
663.296	632.59
663.743	561.89
664.189	547.59
664.635	537.49
665.082	538.79
665.528	539.59
665.974	525.09
666.42	520.29
666.867	516.99
667.313	502.69
667.759	472.99
668.205	470.69
668.651	468.39
669.097	460.49
669.543	452.59
669.989	458.99
670.435	454.29
670.881	456.89
671.327	461.79
671.773	480.49
672.219	502.89
672.665	555.49
673.11	606.09
673.556	644.29
674.002	677.39
674.448	675.49
674.893	565.49
675.339	491.19
675.785	458.19
676.23	438.19
676.676	405.29
677.122	396.19
677.567	380.69
678.013	379.99
678.458	377.69
678.904	369.99
679.349	358.99
679.794	355.69
680.24	367.99
680.685	355.29
681.131	353.99
681.576	353.49
682.021	369.39
682.466	355.99
682.912	361.89
683.357	358.49
683.802	398.49
684.247	428.39
684.692	466.49
685.137	514.29
685.583	548.89
686.028	569.89
686.473	526.49
686.918	461.99
687.363	437.49
687.807	406.39
688.252	378.59
688.697	363.09
689.142	350.19
689.587	342.69
690.032	337.69
690.477	355.49
690.921	362.19
691.366	399.09
691.811	412.99
692.255	443.09
692.7	471.69
693.145	525.39
693.589	734.29
694.034	1196.29
694.478	1598.99
694.923	1788.99
695.367	2302.79
695.812	1235.59
696.256	512.29
696.701	378.59
697.145	357.29
697.59	339.99
698.034	331.89
698.478	340.19
698.922	334.69
699.367	333.69
699.811	347.89
700.255	375.79
700.699	396.59
701.143	440.69
701.588	487.39
702.032	529.09
702.476	529.69
702.92	503.69
703.364	515.49
703.808	672.49
704.252	1098.59
704.696	1520.19
705.14	1726.69
705.584	2179.49
706.027	1109.49
706.471	534.39
706.915	414.69
707.359	363.39
707.803	336.69
708.246	321.29
708.69	320.09
709.134	326.79
709.577	315.49
710.021	330.69
710.465	316.59
710.908	317.99
711.352	308.99
711.795	329.99
712.239	373.19
712.682	403.19
713.126	430.49
713.569	468.99
714.012	362.99
714.456	317.79
714.899	299.89
715.342	282.59
715.786	267.89
716.229	269.09
716.672	264.59
717.115	257.79
717.558	257.19
718.002	265.59
718.445	267.99
718.888	293.19
719.331	306.89
719.774	319.59
720.217	310.19
720.66	288.29
721.103	276.09
721.546	264.49
721.989	261.09
722.432	233.39
722.874	247.69
723.317	228.89
723.76	238.99
724.203	271.59
724.645	327.79
725.088	474.59
725.531	588.19
725.974	657.79
726.416	563.09
726.859	317.59
727.301	253.99
727.744	244.89
728.187	242.29
728.629	246.59
729.071	255.39
729.514	268.59
729.956	277.39
730.399	298.09
730.841	299.69
731.283	282.69
731.726	274.29
732.168	277.09
732.61	274.29
733.053	303.09
733.495	333.79
733.937	359.69
734.379	419.99
734.821	454.69
735.263	582.69
735.705	895.89
736.148	1708.29
736.59	2705.19
737.032	3110.99
737.474	2551.19
737.916	838.99
738.357	450.49
738.799	336.79
739.241	310.29
739.683	297.39
740.125	303.19
740.567	306.79
741.008	327.59
741.45	322.59
741.892	331.59
742.334	367.99
742.775	372.29
743.217	361.69
743.658	288.69
744.1	268.59
744.542	284.69
744.983	330.59
745.425	357.79
745.866	359.49
746.307	300.49
746.749	293.59
747.19	338.99
747.632	493.19
748.073	974.59
748.514	1994.69
748.956	2963.69
749.397	3740.59
749.838	3110.39
750.279	3018.49
750.72	1548.79
751.162	564.49
751.603	339.79
752.044	268.59
752.485	220.89
752.926	214.39
753.367	208.79
753.808	203.19
754.249	200.09
754.69	194.69
755.131	191.29
755.572	187.69
756.013	185.49
756.453	192.29
756.894	193.49
757.335	194.39
757.776	208.39
758.216	196.59
758.657	202.29
759.098	216.49
759.538	235.79
759.979	283.39
760.42	397.29
760.86	776.89
761.301	1995.19
761.741	4704.39
762.182	6524.79
762.622	4642.09
763.063	1372.29
763.503	557.59
763.943	339.29
764.384	289.99
764.824	289.49
765.264	280.79
765.705	234.09
766.145	193.99
766.585	181.69
767.025	181.79
767.465	176.19
767.906	204.59
768.346	227.09
768.786	241.49
769.226	234.49
769.666	323.29
770.106	667.29
770.546	1687.89
770.986	2727.69
771.426	2421.89
771.866	812.69
772.306	336.39
772.745	222.79
773.185	166.09
773.625	174.69
774.065	158.99
774.505	181.29
774.944	233.89
775.384	435.99
775.824	715.09
776.263	692.29
776.703	332.29
777.142	179.39
777.582	144.99
778.021	124.39
778.461	127.89
778.9	128.69
779.34	134.99
779.779	112.79
780.219	114.09
780.658	115.79
781.097	111.39
781.537	119.49
781.976	114.29
782.415	104.39
782.855	107.89
783.294	108.39
783.733	107.29
784.172	117.59
784.611	112.59
785.05	115.09
785.489	117.99
785.928	122.79
786.367	128.89
786.806	117.59
787.245	138.09
787.684	140.79
788.123	148.49
788.562	138.99
789.001	123.89
789.44	126.29
789.879	119.29
790.317	123.29
790.756	135.49
791.195	136.29
791.634	151.79
792.072	213.39
792.511	393.39
792.95	1079.19
793.388	2204.19
793.827	1944.59
794.265	697.59
794.704	292.19
795.142	185.89
795.581	158.69
796.019	144.49
796.458	133.89
796.896	124.79
797.334	133.49
797.773	161.99
798.211	236.79
798.649	477.29
799.087	1085.09
799.526	1670.89
799.964	2108.79
800.402	2044.99
800.84	790.69
801.278	319.59
801.716	199.19
802.154	165.39
802.592	146.79
803.03	148.29
803.468	137.69
803.906	150.09
804.344	156.09
804.782	147.89
805.22	141.79
805.658	134.79
806.096	156.39
806.533	161.59
806.971	182.69
807.409	232.69
807.847	334.59
808.284	726.69
808.722	2002.49
809.16	3392.69
809.597	3349.69
810.035	5692.49
810.472	5875.39
810.91	2159.69
811.347	833.19
811.785	425.29
812.222	272.99
812.66	213.79
813.097	172.29
813.535	147.79
813.972	130.69
814.409	118.49
814.846	115.09
815.284	112.49
815.721	106.39
816.158	106.49
816.595	119.69
817.032	162.69
817.47	184.99
817.907	142.09
818.344	109.99
818.781	105.09
819.218	101.19
819.655	127.89
820.092	193.29
820.529	218.49
820.966	184.29
821.403	133.99
821.839	104.29
822.276	102.89
822.713	123.09
823.15	143.39
823.587	123.09
824.023	157.89
824.46	326.39
824.897	951.19
825.333	1371.19
825.77	592.29
826.206	240.29
826.643	140.49
827.08	106.19
827.516	89.69
827.953	77.59
828.389	87.19
828.825	76.89
829.262	71.59
829.698	71.59
830.135	66.79
830.571	66.79
831.007	69.49
831.443	65.69
831.88	67.69
832.316	64.69
832.752	69.69
833.188	64.29
833.624	63.59
834.06	70.49
834.497	76.39
834.933	74.09
835.369	79.59
835.805	70.99
836.241	72.19
836.677	83.99
837.112	93.39
837.548	113.79
837.984	137.79
838.42	212.89
838.856	546.79
839.292	1612.09
839.727	2351.19
840.163	1115.39
840.599	1007.49
841.034	2123.09
841.47	2149.59
841.906	800.19
842.341	345.99
842.777	219.29
843.212	231.39
843.648	213.49
844.083	118.09
844.519	85.19
844.954	76.09
845.39	57.89
845.825	56.19
846.261	56.59
846.696	55.59
847.131	53.79
847.566	59.29
848.002	63.69
848.437	54.59
848.872	59.79
849.307	63.19
849.742	84.69
850.177	196.59
850.613	594.99
851.048	892.59
851.483	383.99
851.918	153.49
852.353	84.79
852.788	58.29
853.223	52.59
853.657	54.49
854.092	53.09
854.527	43.39
854.962	41.39
855.397	46.59
855.832	47.09
856.266	43.19
856.701	35.39
857.136	40.29
857.57	46.19
858.005	51.39
858.44	55.29
858.874	46.29
859.309	53.39
859.743	35.39
860.178	46.49
860.612	44.99
861.047	56.89
861.481	73.09
861.915	75.49
862.35	47.79
862.784	36.79
863.218	36.69
863.653	37.99
864.087	50.19
864.521	48.69
864.955	73.19
865.39	162.59
865.824	180.89
866.258	119.49
866.692	177.09
867.126	188.39
867.56	113.49
867.994	62.39
868.428	42.49
868.862	46.39
869.296	57.69
869.73	62.29
870.164	56.89
870.598	57.49
871.031	41.89
871.465	31.39
871.899	34.29
872.333	24.39
872.766	26.89
873.2	21.99
873.634	31.59
874.067	22.19
874.501	27.69
874.935	36.59
875.368	35.79
875.802	25.09
876.235	25.59
876.669	24.79
877.102	20.09
877.535	25.59
877.969	27.49
878.402	26.79
878.836	19.59
879.269	23.79
879.702	19.59
880.135	14.79
880.569	26.49
881.002	30.79
881.435	21.39
881.868	16.89
882.301	21.19
882.734	15.09
883.167	24.49
883.601	17.09
884.034	24.99
884.467	14.99
884.899	14.09
885.332	19.99
885.765	14.59
886.198	19.19
886.631	20.29
887.064	15.69
887.497	18.69
887.929	22.69
888.362	10.99
888.795	15.69
889.228	16.49
889.66	19.59
890.093	17.49
890.526	13.69
890.958	14.39
891.391	18.39
891.823	23.79
892.256	14.09
892.688	9.49
893.121	16.99
893.553	15.49
893.985	21.29
894.418	14.39
894.85	12.29
895.282	15.79
895.715	18.59
896.147	17.09
896.579	18.29
897.011	16.39
897.444	16.09
897.876	11.49
898.308	16.29
898.74	20.69
899.172	15.19
899.604	23.19
900.036	20.69
900.468	22.19
900.9	19.19
901.332	21.89
901.764	12.29
902.196	20.69
902.628	19.09
903.06	15.39
903.491	29.79
903.923	15.39
904.355	21.89
904.787	23.59
905.218	21.89
905.65	24.89
906.082	14.59
906.513	17.89
906.945	15.49
907.376	12.39
907.808	19.09
908.239	16.59
908.671	26.79
909.102	18.89
909.534	24.59
909.965	48.69
910.397	105.99
910.828	331.39
911.259	481.19
911.691	222.09
912.122	105.09
912.553	49.19
912.984	32.69
913.415	28.29
913.847	22.29
914.278	18.59
914.709	18.29
915.14	19.79
915.571	16.69
916.002	9.79
916.433	20.89
916.864	14.79
917.295	15.09
917.726	23.29
918.157	19.29
918.587	32.39
919.018	21.49
919.449	26.29
919.88	22.59
920.311	29.49
920.741	52.49
921.172	180.29
921.603	152.69
922.033	73.79
922.464	47.19
922.895	25.59
923.325	20.69
923.756	26.09
924.186	16.79
924.617	20.79
925.047	26.59
925.478	29.29
925.908	25.19
926.338	19.19
926.769	16.29
927.199	11.79
927.629	13.79
928.06	17.19
928.49	14.39
928.92	17.89
929.35	11.89
929.78	9.19
930.21	4.29
930.641	6.49
931.071	7.19
931.501	2.29
931.931	9.39
932.361	9.39
932.791	3.99
933.221	2.19
933.651	9.39
934.08	13.59
934.51	28.99
934.94	9.09
935.37	10.49
935.8	12.39
936.229	10.79
936.659	11.79
937.089	1.99
937.519	14.49
937.948	23.09
938.378	19.79
938.807	4.99
939.237	6.99
939.666	6.89
940.096	-1.11
940.525	7.19
940.955	0.89
941.384	3.69
941.814	-4.11
942.243	1.89
942.672	5.79
943.102	4.69
943.531	0.19
943.96	-3.61
944.39	11.69
944.819	0.29
945.248	3.99
945.677	2.79
946.106	6.79
946.535	9.09
946.964	1.29
947.393	6.09
947.822	3.09
948.251	-0.91
948.68	2.69
949.109	4.39
949.538	2.49
949.967	-1.01
950.396	1.59
950.825	2.39
951.254	-1.11
951.682	-4.01
952.111	-0.91
952.54	6.79
952.969	-3.31
953.397	-5.41
953.826	0.99
954.254	-3.71
954.683	1.29
955.112	-1.01
955.54	3.49
955.969	2.09
956.397	-1.51
956.826	-3.71
957.254	6.49
957.682	1.39
958.111	1.69
958.539	-0.21
958.967	2.39
959.396	0.19
959.824	1.49
960.252	-1.01
960.68	-5.41
961.109	-3.21
961.537	-3.11
961.965	1.59
962.393	-0.11
962.821	-11.61
963.249	-1.51
963.677	2.39
964.105	4.49
964.533	38.39
964.961	42.89
965.389	22.99
965.817	8.79
966.245	4.59
966.672	3.29
967.1	-3.81
967.528	-0.41
967.956	-4.01
968.383	-0.51
968.811	-5.11
969.239	-5.71
969.666	-4.71
970.094	3.59
970.522	-0.31
970.949	-2.11
971.377	0.59
971.804	-5.51
972.232	-2.91
972.659	-1.41
973.087	0.09
973.514	-3.71
973.941	-5.51
974.369	2.79
974.796	0.79
975.223	-0.91
975.651	7.19
976.078	4.99
976.505	-0.01
976.932	2.19
977.359	12.19
977.786	12.79
978.214	-3.11
978.641	-5.11
979.068	-3.41
979.495	-4.61
979.922	0.59
980.349	-5.91
980.776	6.99
981.202	1.09
981.629	-3.91
982.056	1.19
982.483	-3.91
982.91	-0.51
983.337	-8.11
983.763	5.89
984.19	-5.31
984.617	-2.71
985.043	-7.91
985.47	-4.31
985.897	-10.21
986.323	-7.81
986.75	6.19
987.176	1.29
987.603	4.19
988.029	-0.41
988.456	-1.71
988.882	-0.61
989.308	-5.41
989.735	-4.51
990.161	2.99
990.587	-3.21
991.014	-2.21
991.44	5.59
991.866	-2.41
992.292	-3.71
992.719	-0.51
993.145	5.69
993.571	-8.81
993.997	-3.31
994.423	2.29
994.849	1.29
995.275	3.29
995.701	0.79
996.127	2.99
996.553	4.39
996.979	-0.01
997.405	1.59
997.83	-6.61
998.256	-7.61
998.682	-10.51
999.108	-8.21
999.534	-3.21
999.959	-1.71
1000.385	-6.51
1000.811	-2.21
1001.236	-1.81
1001.662	-6.21
1002.087	-10.91
1002.513	0.09
1002.938	6.09
1003.364	-0.11
1003.789	0.99
1004.215	1.69
1004.64	-2.01
1005.066	-3.91
1005.491	7.29
1005.916	-6.01
1006.342	-7.11
1006.767	-7.01
1007.192	1.39
1007.617	-7.31
1008.042	-2.21
1008.468	-5.51
1008.893	0.69
1009.318	-2.01
1009.743	-0.61
1010.168	5.59
1010.593	6.59
1011.018	-11.31
1011.443	-2.61
1011.868	0.19
1012.293	-2.21
1012.718	-8.61
1013.143	0.79
1013.567	0.19
1013.992	-1.81
1014.417	-16.31
1014.842	1.19
1015.267	-1.91
1015.691	-0.51
1016.116	11.89
1016.541	-3.01
1016.965	4.19
1017.39	5.39
1017.814	-0.21
1018.239	-3.61
1018.663	-9.41
1019.088	-17.01
1019.512	-5.41
1019.937	3.19
1020.361	-3.81
1020.785	-12.31
1021.21	-5.71
1021.634	-5.41
1022.058	0.09
1022.483	0.09
1022.907	-4.81
1023.331	-6.31
1023.755	-3.51
1024.179	-5.71
1024.604	-9.31
1025.028	-1.61
1025.452	1.19
1025.876	2.19
1026.3	-2.11
1026.724	-9.61
1027.148	-10.81
1027.572	-3.21
1027.996	-7.81
1028.42	-0.41
1028.843	-0.21
1029.267	-5.31
1029.691	1.49
1030.115	-1.11
1030.539	0.99
1030.962	-3.71
1031.386	-7.11
1031.81	-4.21
1032.233	1.39
1032.657	-0.71
1033.08	-2.91
1033.504	-1.71
1033.927	-2.91
1034.351	0.69
1034.774	-11.51
1035.198	-1.81
1035.621	-1.71
1036.045	-5.51
1036.468	0.89
1036.891	-5.31
1037.315	-6.41
1037.738	-3.91
1038.161	-6.51
1038.584	-11.41
1039.008	4.19
1039.431	-5.71
1039.854	-5.51
1040.277	-6.01
1040.7	-6.31
1041.123	-0.41
1041.546	-9.31
1041.969	-0.61
1042.392	-0.61
1042.815	-5.51
1043.238	4.09
1043.661	3.49
1044.084	-3.51
1044.507	-6.11
1044.93	-0.21
1045.352	-5.41
1045.775	-0.31
1046.198	-9.01
1046.621	-2.21
1047.043	-8.21
1047.466	7.99
1047.889	-3.71
1048.311	-12.51
1048.734	-4.91
1049.156	-6.21
1049.579	3.19
1050.001	-6.41
1050.424	2.59
1050.846	-2.81
1051.269	2.59
1051.691	-8.21
1052.113	-1.51
1052.536	0.59
1052.958	-1.71
1053.38	-0.61
1053.802	-8.91
1054.225	8.09
1054.647	-5.61
1055.069	-4.91
1055.491	2.49
1055.913	-7.31
1056.335	-4.71
1056.757	-2.81
1057.179	-6.81
1057.601	-5.41
1058.023	1.49
1058.445	-3.11
1058.867	0.59
1059.289	-5.01
1059.711	-11.01
1060.133	-5.71
1060.555	-9.11
1060.976	-4.51
1061.398	-5.61
1061.82	-7.31
1062.241	-8.01
1062.663	-7.71
1063.085	-6.91
1063.506	-3.91
1063.928	-2.31
1064.35	0.09
1064.771	-13.91
1065.193	-7.11
1065.614	-9.31
1066.035	-2.81
1066.457	-5.51
1066.878	6.39
1067.3	-8.21
1067.721	-2.41
1068.142	-4.51
1068.564	-8.31
1068.985	-4.01
1069.406	-11.51
1069.827	-4.51
1070.248	1.99
1070.67	-10.01
1071.091	-8.71
1071.512	-2.11
1071.933	-4.41
1072.354	-6.81
1072.775	-7.41
1073.196	-11.41
1073.617	-3.41
1074.038	-3.21
1074.459	-7.81
1074.88	-11.21
1075.3	1.09
1075.721	-8.21
1076.142	-2.01
1076.563	1.09
1076.983	-10.01
1077.404	-3.51
1077.825	-13.51
1078.246	-3.31
1078.666	-14.51
1079.087	-10.61
1079.507	-5.51
1079.928	-1.61
1080.348	-6.21
1080.769	-5.41
1081.189	-1.91
1081.61	1.99
1082.03	-7.51
1082.451	-2.91
1082.871	-4.81
1083.291	-9.71
1083.711	-11.41
1084.132	-7.81
1084.552	-6.01
1084.972	-4.71
1085.392	-11.51
1085.813	-9.31
1086.233	-7.91
1086.653	-6.11
1087.073	3.09
1087.493	-9.41
1087.913	-2.31
1088.333	-3.81
1088.753	-6.21
1089.173	7.39
1089.593	-3.41
1090.013	-4.21
1090.433	-0.01
1090.852	0.09
1091.272	-2.91
1091.692	2.29
1092.112	-3.01
1092.531	-11.71
1092.951	-15.11
1093.371	-2.41
1093.79	0.69
1094.21	-5.51
1094.63	-8.61
1095.049	-8.71
1095.469	-7.11
1095.888	2.79
1096.308	0.29
1096.727	1.69
1097.146	-8.71
1097.566	1.09
1097.985	-7.31
1098.405	0.89
1098.824	-9.21
1099.243	-9.01
1099.662	-10.91
1100.082	-9.21
1100.501	-0.31
1100.92	-2.71
1101.339	-5.51
1101.758	-3.71
