Data from 20171114-ORNL-Ar_H_NY_Subt18_08-07-32-800.txt Node
Date: Tue Nov 14 08:07:32 EST 2017
User: Ender
Spectrometer: HR+D1039
Trigger mode: 0
Integration Time (sec): 2.730000E-2
Scans to average: 10
Electric dark correction enabled: true
Nonlinearity correction enabled: false
Boxcar width: 0
XAxis mode: Wavelengths
Number of Pixels in Spectrum: 2048
>>>>>Begin Spectral Data<<<<<
187.836	-0.88
188.309	-0.88
188.782	-0.88
189.255	2.62
189.728	-3.28
190.201	4.42
190.674	-1.38
191.147	2.42
191.619	-8.18
192.092	0.32
192.565	4.62
193.038	1.12
193.511	0.52
193.984	2.42
194.456	-3.38
194.929	1.52
195.402	-1.38
195.874	-1.48
196.347	1.42
196.82	-1.38
197.292	5.22
197.765	0.32
198.237	-3.78
198.71	2.92
199.182	0.72
199.655	1.82
200.127	5.62
200.6	-2.48
201.072	1.82
201.544	-5.88
202.017	-2.68
202.489	8.22
202.961	-3.18
203.433	-1.98
203.906	-6.98
204.378	-5.38
204.85	-2.88
205.322	-8.28
205.794	0.22
206.266	-7.68
206.739	-10.08
207.211	2.32
207.683	-3.88
208.155	-3.08
208.627	-4.58
209.099	-7.18
209.57	-8.08
210.042	-3.68
210.514	-1.88
210.986	-5.18
211.458	-5.68
211.93	-5.98
212.402	3.02
212.873	-4.88
213.345	-6.68
213.817	-10.68
214.288	-4.18
214.76	-6.98
215.232	-1.08
215.703	-3.68
216.175	-4.78
216.646	-2.68
217.118	-3.98
217.589	-5.68
218.061	1.12
218.532	0.22
219.004	4.12
219.475	-1.08
219.946	-1.18
220.418	-7.38
220.889	1.02
221.36	-5.48
221.832	-5.48
222.303	-8.38
222.774	4.42
223.245	-7.68
223.717	-2.48
224.188	-6.48
224.659	-6.08
225.13	-3.28
225.601	-0.08
226.072	-1.38
226.543	-1.18
227.014	7.32
227.485	-0.38
227.956	-8.78
228.427	-5.88
228.898	-4.18
229.369	8.22
229.839	-3.28
230.31	-4.28
230.781	5.72
231.252	-4.28
231.722	-1.28
232.193	-1.68
232.664	5.22
233.135	-4.78
233.605	-3.08
234.076	-4.48
234.546	0.92
235.017	3.82
235.487	1.32
235.958	0.52
236.428	-2.88
236.899	1.92
237.369	5.02
237.84	-8.48
238.31	7.12
238.78	-2.08
239.251	-5.98
239.721	-0.08
240.191	-0.28
240.662	2.82
241.132	1.02
241.602	0.22
242.072	1.02
242.542	8.22
243.013	-1.38
243.483	2.72
243.953	5.42
244.423	-1.88
244.893	-4.18
245.363	0.12
245.833	4.12
246.303	-3.28
246.773	7.52
247.243	1.82
247.712	4.32
248.182	8.12
248.652	4.62
249.122	-5.18
249.592	10.32
250.061	22.32
250.531	27.82
251.001	9.02
251.471	14.52
251.94	13.62
252.41	-1.08
252.879	-0.98
253.349	14.42
253.818	8.32
254.288	6.22
254.757	0.82
255.227	-3.18
255.696	2.72
256.166	5.82
256.635	4.42
257.105	7.52
257.574	7.42
258.043	10.62
258.513	4.12
258.982	10.02
259.451	7.72
259.92	12.02
260.389	7.02
260.859	10.22
261.328	6.62
261.797	13.02
262.266	6.42
262.735	10.22
263.204	2.42
263.673	4.42
264.142	3.42
264.611	-9.48
265.08	-3.78
265.549	-2.28
266.018	3.42
266.487	-4.88
266.955	-3.38
267.424	-2.68
267.893	9.72
268.362	-3.58
268.83	2.72
269.299	11.72
269.768	3.62
270.236	0.62
270.705	-0.08
271.174	4.32
271.642	2.52
272.111	6.22
272.579	13.52
273.048	15.32
273.516	22.72
273.985	24.22
274.453	24.12
274.922	15.72
275.39	10.62
275.858	3.72
276.327	7.42
276.795	16.12
277.263	10.62
277.731	24.62
278.2	47.32
278.668	45.52
279.136	37.42
279.604	17.82
280.072	13.92
280.54	8.52
281.008	10.62
281.477	9.52
281.945	13.52
282.413	10.02
282.881	16.42
283.348	4.02
283.816	12.52
284.284	13.32
284.752	19.12
285.22	5.02
285.688	9.42
286.156	12.42
286.623	39.32
287.091	36.02
287.559	27.32
288.026	9.52
288.494	14.82
288.962	11.32
289.429	11.62
289.897	14.42
290.364	17.92
290.832	8.12
291.3	10.62
291.767	18.42
292.234	21.52
292.702	9.02
293.169	17.22
293.637	19.02
294.104	14.22
294.571	4.62
295.039	9.02
295.506	11.22
295.973	8.12
296.44	4.12
296.908	19.72
297.375	10.22
297.842	21.02
298.309	14.22
298.776	14.72
299.243	17.02
299.71	9.12
300.177	19.22
300.644	18.62
301.111	15.72
301.578	16.32
302.045	9.52
302.512	20.72
302.979	22.42
303.446	17.52
303.913	18.92
304.379	16.82
304.846	23.92
305.313	16.62
305.78	12.22
306.246	22.02
306.713	23.32
307.18	24.52
307.646	21.32
308.113	22.62
308.579	18.82
309.046	20.92
309.512	28.42
309.979	13.22
310.445	17.52
310.912	26.12
311.378	26.92
311.845	21.72
312.311	26.72
312.777	26.42
313.244	29.02
313.71	32.62
314.176	22.22
314.642	23.32
315.109	32.22
315.575	30.82
316.041	31.82
316.507	27.82
316.973	34.92
317.439	28.52
317.905	20.52
318.371	23.62
318.837	29.62
319.303	28.62
319.769	31.62
320.235	27.82
320.701	35.32
321.167	27.82
321.633	30.32
322.099	33.92
322.564	41.02
323.03	37.62
323.496	33.42
323.962	38.22
324.427	31.52
324.893	30.52
325.359	31.22
325.824	31.12
326.29	29.92
326.755	34.42
327.221	32.22
327.686	30.02
328.152	35.72
328.617	35.32
329.083	37.52
329.548	44.32
330.014	42.42
330.479	31.92
330.944	35.62
331.41	36.02
331.875	41.02
332.34	35.22
332.805	35.92
333.271	39.82
333.736	41.02
334.201	48.12
334.666	35.92
335.131	52.12
335.596	46.82
336.061	44.42
336.526	34.52
336.991	38.72
337.456	51.12
337.921	45.22
338.386	41.72
338.851	43.02
339.316	41.72
339.781	40.82
340.246	43.42
340.711	40.02
341.175	44.82
341.64	35.92
342.105	41.12
342.569	49.42
343.034	52.12
343.499	44.62
343.963	40.72
344.428	54.82
344.893	55.12
345.357	50.22
345.822	53.22
346.286	61.62
346.751	65.42
347.215	51.52
347.679	60.02
348.144	79.22
348.608	64.82
349.073	57.42
349.537	67.22
350.001	64.62
350.465	73.32
350.93	74.72
351.394	75.42
351.858	61.72
352.322	77.62
352.786	68.62
353.25	82.52
353.715	100.02
354.179	87.82
354.643	101.22
355.107	103.22
355.571	90.52
356.035	92.32
356.498	96.22
356.962	97.12
357.426	113.12
357.89	102.32
358.354	77.92
358.818	77.82
359.281	73.72
359.745	71.02
360.209	64.22
360.673	72.32
361.136	69.32
361.6	70.12
362.064	78.22
362.527	80.52
362.991	78.42
363.454	74.52
363.918	58.32
364.381	70.72
364.845	78.82
365.308	69.42
365.772	75.32
366.235	67.62
366.698	66.92
367.162	75.62
367.625	74.02
368.088	78.52
368.552	81.52
369.015	81.02
369.478	84.12
369.941	92.12
370.404	87.42
370.867	97.72
371.331	98.12
371.794	104.82
372.257	101.32
372.72	107.02
373.183	103.52
373.646	93.62
374.109	94.32
374.572	101.32
375.035	98.52
375.497	100.32
375.96	102.12
376.423	95.92
376.886	98.92
377.349	98.12
377.811	90.62
378.274	97.32
378.737	96.12
379.199	106.02
379.662	99.92
380.125	103.12
380.587	110.22
381.05	107.92
381.512	120.22
381.975	126.02
382.437	115.02
382.9	114.82
383.362	126.02
383.825	122.92
384.287	134.32
384.75	124.22
385.212	133.02
385.674	124.92
386.136	119.62
386.599	111.82
387.061	118.32
387.523	117.02
387.985	121.52
388.447	136.42
388.91	132.62
389.372	145.12
389.834	138.62
390.296	139.82
390.758	140.82
391.22	151.82
391.682	188.82
392.144	269.32
392.606	217.42
393.068	154.32
393.529	154.22
393.991	146.42
394.453	143.52
394.915	138.72
395.377	177.72
395.838	198.52
396.3	152.12
396.762	124.42
397.224	124.32
397.685	114.92
398.147	123.12
398.608	120.72
399.07	116.92
399.531	124.12
399.993	126.42
400.454	145.32
400.916	132.92
401.377	129.12
401.839	137.42
402.3	143.52
402.762	147.42
403.223	164.52
403.684	157.92
404.145	152.02
404.607	156.72
405.068	148.52
405.529	155.82
405.99	174.62
406.451	157.92
406.913	162.82
407.374	159.32
407.835	144.42
408.296	156.12
408.757	160.82
409.218	172.02
409.679	166.42
410.14	161.42
410.601	167.82
411.062	172.22
411.522	177.72
411.983	181.22
412.444	158.42
412.905	168.12
413.366	171.32
413.826	179.62
414.287	197.52
414.748	248.02
415.208	229.32
415.669	203.52
416.13	188.02
416.59	190.32
417.051	202.72
417.511	200.52
417.972	218.92
418.432	229.72
418.893	274.92
419.353	237.92
419.814	186.22
420.274	172.52
420.734	167.12
421.195	190.12
421.655	183.72
422.115	175.92
422.576	183.92
423.036	188.72
423.496	202.62
423.956	207.42
424.416	215.92
424.876	250.62
425.336	247.72
425.797	248.52
426.257	238.22
426.717	220.32
427.177	221.32
427.637	207.22
428.097	224.32
428.556	235.62
429.016	257.02
429.476	255.22
429.936	263.02
430.396	263.22
430.856	267.12
431.315	297.82
431.775	335.52
432.235	361.32
432.694	336.82
433.154	338.22
433.614	367.32
434.073	323.82
434.533	268.82
434.993	247.62
435.452	258.62
435.912	281.72
436.371	274.22
436.83	261.42
437.29	259.02
437.749	235.42
438.209	240.62
438.668	258.32
439.127	266.72
439.587	252.02
440.046	239.82
440.505	243.62
440.964	263.62
441.424	307.62
441.883	294.52
442.342	250.12
442.801	217.52
443.26	214.62
443.719	212.62
444.178	212.42
444.637	197.92
445.096	210.72
445.555	210.62
446.014	218.22
446.473	217.72
446.932	219.52
447.391	212.82
447.849	218.82
448.308	209.22
448.767	211.42
449.226	227.92
449.685	225.62
450.143	243.02
450.602	231.02
451.061	219.72
451.519	229.32
451.978	226.02
452.436	223.72
452.895	233.52
453.353	245.92
453.812	232.82
454.27	231.02
454.729	224.32
455.187	233.02
455.646	240.02
456.104	241.72
456.562	249.32
457.021	258.12
457.479	255.32
457.937	261.72
458.395	252.32
458.854	237.12
459.312	249.52
459.77	263.32
460.228	246.52
460.686	232.12
461.144	237.52
461.602	232.72
462.06	236.82
462.518	243.82
462.976	251.72
463.434	244.92
463.892	252.42
464.35	269.82
464.808	280.32
465.266	252.32
465.724	259.52
466.181	260.62
466.639	263.42
467.097	280.22
467.555	288.82
468.012	292.12
468.47	294.02
468.928	318.62
469.385	330.32
469.843	336.52
470.3	340.12
470.758	350.02
471.215	373.52
471.673	403.22
472.13	393.92
472.588	404.32
473.045	365.62
473.503	369.02
473.96	381.02
474.417	388.62
474.875	423.82
475.332	458.62
475.789	448.32
476.246	457.62
476.704	468.32
477.161	491.92
477.618	500.22
478.075	543.12
478.532	594.42
478.989	658.42
479.446	773.82
479.903	745.62
480.36	781.62
480.817	835.22
481.274	937.72
481.731	1034.52
482.188	1122.62
482.645	1257.32
483.102	1357.02
483.558	1482.22
484.015	1531.42
484.472	1515.62
484.929	1473.82
485.385	1418.82
485.842	1367.12
486.299	1302.02
486.755	1246.82
487.212	1062.12
487.668	892.72
488.125	821.02
488.582	756.62
489.038	718.52
489.494	679.12
489.951	667.82
490.407	653.72
490.864	632.02
491.32	628.22
491.776	624.02
492.233	626.12
492.689	604.72
493.145	580.92
493.602	574.02
494.058	585.92
494.514	595.32
494.97	624.72
495.426	638.92
495.882	600.62
496.338	601.62
496.794	612.22
497.251	603.42
497.707	612.72
498.163	621.52
498.618	633.22
499.074	626.92
499.53	653.62
499.986	656.02
500.442	634.72
500.898	617.22
501.354	607.02
501.809	617.32
502.265	633.52
502.721	636.52
503.177	656.32
503.632	654.32
504.088	665.22
504.543	695.82
504.999	687.02
505.455	646.02
505.91	619.02
506.366	613.02
506.821	616.12
507.277	602.42
507.732	617.12
508.187	605.42
508.643	624.92
509.098	613.12
509.553	636.22
510.009	640.42
510.464	662.22
510.919	669.02
511.375	674.82
511.83	689.82
512.285	707.32
512.74	732.12
513.195	767.42
513.65	745.12
514.105	753.12
514.56	753.12
515.015	777.62
515.47	787.42
515.925	776.22
516.38	773.02
516.835	772.52
517.29	766.02
517.745	755.62
518.2	755.62
518.655	732.22
519.109	729.02
519.564	721.72
520.019	720.02
520.474	713.92
520.928	715.22
521.383	698.12
521.838	700.72
522.292	700.32
522.747	695.02
523.201	691.32
523.656	680.42
524.11	677.42
524.565	678.22
525.019	686.62
525.474	695.52
525.928	697.52
526.382	690.72
526.837	675.82
527.291	684.02
527.745	673.92
528.2	690.92
528.654	679.52
529.108	678.62
529.562	680.02
530.016	672.32
530.47	680.12
530.925	684.22
531.379	683.92
531.833	688.42
532.287	686.92
532.741	692.42
533.195	692.72
533.649	705.72
534.103	712.32
534.556	695.42
535.01	710.02
535.464	696.82
535.918	704.52
536.372	709.82
536.826	706.52
537.279	701.32
537.733	704.52
538.187	703.02
538.64	702.82
539.094	709.72
539.548	723.22
540.001	710.22
540.455	708.62
540.908	715.52
541.362	736.92
541.815	741.02
542.269	752.92
542.722	741.62
543.175	761.82
543.629	761.32
544.082	769.82
544.536	782.22
544.989	772.72
545.442	780.52
545.895	784.82
546.349	782.32
546.802	773.32
547.255	788.32
547.708	798.42
548.161	797.32
548.614	818.82
549.067	805.22
549.52	802.62
549.973	792.72
550.426	793.02
550.879	785.32
551.332	786.92
551.785	792.72
552.238	795.12
552.691	809.82
553.144	817.82
553.596	839.22
554.049	855.52
554.502	889.82
554.955	898.42
555.407	903.42
555.86	895.62
556.313	880.92
556.765	872.62
557.218	877.02
557.67	877.52
558.123	860.92
558.576	859.22
559.028	867.62
559.48	868.52
559.933	866.82
560.385	824.72
560.838	791.22
561.29	775.12
561.742	777.62
562.195	759.72
562.647	754.42
563.099	778.02
563.551	767.12
564.004	777.02
564.456	774.62
564.908	753.22
565.36	730.52
565.812	726.92
566.264	717.22
566.716	714.92
567.168	712.72
567.62	717.72
568.072	692.62
568.524	687.12
568.976	691.62
569.428	667.72
569.88	678.02
570.332	677.82
570.784	679.82
571.235	677.82
571.687	689.42
572.139	694.52
572.59	709.12
573.042	699.72
573.494	703.92
573.945	698.32
574.397	672.72
574.849	685.52
575.3	679.72
575.752	680.32
576.203	681.32
576.655	670.72
577.106	669.22
577.557	659.22
578.009	671.22
578.46	671.52
578.912	661.12
579.363	660.92
579.814	670.82
580.265	665.42
580.717	670.22
581.168	655.52
581.619	663.72
582.07	673.52
582.521	671.02
582.972	671.92
583.423	675.22
583.875	684.42
584.326	693.42
584.777	739.32
585.227	811.62
585.678	905.12
586.129	989.42
586.58	1078.02
587.031	1153.42
587.482	1299.52
587.933	1477.52
588.384	1285.32
588.834	962.22
589.285	790.52
589.736	778.52
590.186	766.82
590.637	765.32
591.088	741.52
591.538	732.52
591.989	725.12
592.439	722.32
592.89	705.42
593.34	707.82
593.791	712.62
594.241	697.82
594.692	704.52
595.142	701.82
595.593	698.92
596.043	707.22
596.493	713.32
596.943	715.22
597.394	726.32
597.844	718.22
598.294	726.02
598.744	757.92
599.195	774.12
599.645	806.32
600.095	860.12
600.545	919.12
600.995	960.82
601.445	1024.12
601.895	1082.52
602.345	1125.82
602.795	1099.42
603.245	1063.12
603.695	1006.72
604.145	951.22
604.594	896.32
605.044	858.62
605.494	789.82
605.944	742.52
606.393	742.92
606.843	724.12
607.293	729.32
607.743	730.12
608.192	746.22
608.642	757.52
609.091	766.92
609.541	762.82
609.99	775.02
610.44	761.02
610.889	715.42
611.339	703.12
611.788	677.22
612.238	698.82
612.687	718.12
613.136	710.02
613.586	737.52
614.035	741.52
614.484	749.22
614.933	746.92
615.383	741.72
615.832	740.42
616.281	715.12
616.73	693.72
617.179	667.82
617.628	651.92
618.077	641.02
618.526	628.42
618.975	614.72
619.424	616.22
619.873	613.82
620.322	619.62
620.771	602.02
621.22	607.02
621.669	593.82
622.118	591.32
622.567	584.62
623.015	572.82
623.464	569.62
623.913	569.32
624.361	548.12
624.81	551.22
625.259	556.82
625.707	565.22
626.156	551.42
626.604	565.42
627.053	563.82
627.501	557.72
627.95	569.52
628.398	573.62
628.847	572.02
629.295	563.92
629.744	564.12
630.192	568.72
630.64	579.02
631.089	561.92
631.537	568.12
631.985	582.92
632.433	600.02
632.881	606.62
633.33	649.62
633.778	637.02
634.226	561.42
634.674	568.82
635.122	578.92
635.57	597.22
636.018	624.22
636.466	582.62
636.914	546.72
637.362	567.42
637.81	576.22
638.258	581.42
638.705	581.22
639.153	614.12
639.601	619.22
640.049	640.52
640.497	664.12
640.944	694.92
641.392	647.02
641.84	609.92
642.287	584.02
642.735	564.12
643.182	579.32
643.63	578.12
644.078	573.72
644.525	588.42
644.973	595.82
645.42	602.12
645.867	614.22
646.315	630.82
646.762	661.52
647.21	676.02
647.657	710.82
648.104	739.22
648.551	775.92
648.999	830.62
649.446	916.42
649.893	1008.52
650.34	1155.32
650.787	1408.72
651.234	1741.82
651.682	2276.92
652.129	3132.42
652.576	4486.72
653.023	6613.52
653.47	9047.42
653.917	11213.22
654.363	12885.72
654.81	14197.22
655.257	13494.22
655.704	8875.22
656.151	5233.82
656.598	3405.82
657.044	2419.12
657.491	1846.52
657.938	1488.62
658.385	1237.92
658.831	1076.22
659.278	965.82
659.724	854.02
660.171	789.32
660.618	718.72
661.064	687.92
661.511	666.12
661.957	655.62
662.404	646.82
662.85	656.92
663.296	623.72
663.743	559.72
664.189	538.92
664.635	534.02
665.082	526.62
665.528	525.92
665.974	515.52
666.42	513.12
666.867	503.52
667.313	492.82
667.759	483.92
668.205	487.32
668.651	488.42
669.097	486.82
669.543	492.42
669.989	475.02
670.435	451.42
670.881	442.12
671.327	455.52
671.773	470.62
672.219	496.52
672.665	550.12
673.11	577.22
673.556	630.82
674.002	663.62
674.448	652.92
674.893	545.72
675.339	478.52
675.785	446.62
676.23	418.42
676.676	397.22
677.122	386.32
677.567	377.92
678.013	368.12
678.458	359.52
678.904	362.32
679.349	350.02
679.794	347.72
680.24	349.62
680.685	354.02
681.131	343.82
681.576	344.32
682.021	360.32
682.466	339.42
682.912	348.32
683.357	351.02
683.802	390.92
684.247	408.22
684.692	454.82
685.137	493.62
685.583	533.12
686.028	566.52
686.473	525.42
686.918	437.02
687.363	421.52
687.807	394.92
688.252	369.62
688.697	347.22
689.142	336.62
689.587	332.52
690.032	321.82
690.477	344.52
690.921	350.82
691.366	380.42
691.811	404.52
692.255	422.72
692.7	457.22
693.145	510.02
693.589	703.52
694.034	1143.42
694.478	1543.12
694.923	1721.52
695.367	2251.62
695.812	1189.02
696.256	503.82
696.701	371.52
697.145	346.72
697.59	331.02
698.034	316.42
698.478	323.82
698.922	324.32
699.367	323.12
699.811	338.02
700.255	356.42
700.699	378.42
701.143	439.12
701.588	478.82
702.032	514.92
702.476	524.12
702.92	493.52
703.364	495.42
703.808	650.92
704.252	1060.22
704.696	1469.02
705.14	1672.82
705.584	2131.12
706.027	1065.02
706.471	530.12
706.915	397.02
707.359	348.92
707.803	321.72
708.246	307.62
708.69	309.02
709.134	317.72
709.577	320.72
710.021	313.92
710.465	307.82
710.908	308.22
711.352	296.72
711.795	310.22
712.239	352.72
712.682	385.62
713.126	412.32
713.569	469.32
714.012	371.92
714.456	321.82
714.899	297.62
715.342	277.32
715.786	260.52
716.229	260.42
716.672	254.02
717.115	252.82
717.558	250.82
718.002	256.62
718.445	262.32
718.888	293.82
719.331	289.62
719.774	308.62
720.217	306.22
720.66	291.52
721.103	272.12
721.546	254.52
721.989	249.82
722.432	234.12
722.874	246.12
723.317	231.32
723.76	242.82
724.203	261.32
724.645	324.12
725.088	454.82
725.531	575.72
725.974	646.32
726.416	551.42
726.859	302.52
727.301	247.82
727.744	240.22
728.187	236.02
728.629	242.02
729.071	243.42
729.514	266.42
729.956	275.32
730.399	283.02
730.841	282.82
731.283	275.22
731.726	258.62
732.168	267.02
732.61	275.12
733.053	286.22
733.495	318.32
733.937	348.52
734.379	397.62
734.821	431.72
735.263	538.12
735.705	849.12
736.148	1594.22
736.59	2592.12
737.032	3027.32
737.474	2467.62
737.916	809.72
738.357	429.22
738.799	329.02
739.241	301.92
739.683	283.42
740.125	291.32
740.567	302.82
741.008	318.12
741.45	317.12
741.892	319.92
742.334	343.72
742.775	357.12
743.217	338.52
743.658	276.22
744.1	250.82
744.542	259.52
744.983	306.22
745.425	338.62
745.866	350.52
746.307	292.12
746.749	288.62
747.19	325.12
747.632	464.72
748.073	895.32
748.514	1902.22
748.956	2875.22
749.397	3576.12
749.838	2971.22
750.279	2950.22
750.72	1495.62
751.162	548.22
751.603	321.52
752.044	253.02
752.485	214.92
752.926	206.52
753.367	207.72
753.808	197.82
754.249	186.42
754.69	189.32
755.131	183.62
755.572	180.22
756.013	181.12
756.453	183.02
756.894	186.92
757.335	193.52
757.776	193.52
758.216	194.52
758.657	195.72
759.098	204.42
759.538	223.62
759.979	271.32
760.42	380.82
760.86	717.12
761.301	1878.52
761.741	4463.52
762.182	6376.22
762.622	4473.12
763.063	1305.92
763.503	529.62
763.943	351.92
764.384	348.42
764.824	415.42
765.264	440.22
765.705	307.32
766.145	211.72
766.585	188.32
767.025	183.12
767.465	193.62
767.906	246.62
768.346	321.92
768.786	345.62
769.226	261.32
769.666	326.22
770.106	648.52
770.546	1594.42
770.986	2641.02
771.426	2352.72
771.866	790.22
772.306	329.72
772.745	211.12
773.185	173.52
773.625	170.52
774.065	167.42
774.505	197.02
774.944	311.52
775.384	678.42
775.824	1199.12
776.263	1154.62
776.703	493.02
777.142	225.42
777.582	162.42
778.021	143.52
778.461	142.62
778.9	143.82
779.34	136.72
779.779	120.92
780.219	106.22
780.658	111.02
781.097	113.62
781.537	118.22
781.976	111.82
782.415	109.82
782.855	108.42
783.294	104.32
783.733	105.92
784.172	118.02
784.611	108.82
785.05	114.32
785.489	115.52
785.928	120.62
786.367	127.02
786.806	119.32
787.245	132.22
787.684	139.12
788.123	154.52
788.562	136.42
789.001	131.82
789.44	124.82
789.879	120.12
790.317	124.12
790.756	130.02
791.195	128.52
791.634	150.32
792.072	206.02
792.511	371.12
792.95	1037.02
793.388	2152.42
793.827	1911.42
794.265	680.12
794.704	280.42
795.142	183.02
795.581	150.92
796.019	136.92
796.458	127.12
796.896	121.72
797.334	129.12
797.773	159.12
798.211	226.32
798.649	446.12
799.087	1035.02
799.526	1600.42
799.964	2031.12
800.402	1994.42
800.84	751.52
801.278	306.72
801.716	198.62
802.154	157.62
802.592	152.42
803.03	150.42
803.468	142.72
803.906	144.82
804.344	153.12
804.782	140.02
805.22	135.72
805.658	135.02
806.096	149.62
806.533	157.72
806.971	178.92
807.409	224.72
807.847	321.42
808.284	674.12
808.722	1882.42
809.16	3290.72
809.597	3163.02
810.035	5421.32
810.472	5701.52
810.91	2077.62
811.347	790.72
811.785	405.92
812.222	248.32
812.66	195.72
813.097	167.02
813.535	138.82
813.972	129.62
814.409	120.22
814.846	111.22
815.284	118.82
815.721	107.12
816.158	111.02
816.595	124.52
817.032	183.62
817.47	192.22
817.907	165.72
818.344	152.72
818.781	118.92
819.218	104.92
819.655	130.92
820.092	188.32
820.529	206.22
820.966	173.42
821.403	135.12
821.839	114.72
822.276	104.72
822.713	123.82
823.15	134.62
823.587	119.12
824.023	154.52
824.46	311.12
824.897	910.92
825.333	1341.82
825.77	576.82
826.206	228.22
826.643	140.32
827.08	102.72
827.516	80.72
827.953	83.42
828.389	84.62
828.825	75.12
829.262	66.82
829.698	64.12
830.135	66.02
830.571	65.12
831.007	66.32
831.443	69.72
831.88	63.72
832.316	62.72
832.752	63.62
833.188	66.12
833.624	65.02
834.06	64.82
834.497	70.52
834.933	65.02
835.369	75.72
835.805	61.02
836.241	74.12
836.677	83.22
837.112	87.02
837.548	105.72
837.984	135.72
838.42	206.72
838.856	516.42
839.292	1541.72
839.727	2274.42
840.163	1060.42
840.599	940.22
841.034	2042.02
841.47	2098.12
841.906	769.52
842.341	332.52
842.777	226.22
843.212	319.72
843.648	304.82
844.083	149.82
844.519	97.52
844.954	72.72
845.39	58.42
845.825	59.62
846.261	63.12
846.696	60.22
847.131	55.12
847.566	59.72
848.002	51.02
848.437	57.62
848.872	62.72
849.307	66.22
849.742	88.82
850.177	184.52
850.613	564.92
851.048	871.62
851.483	378.82
851.918	156.02
852.353	88.52
852.788	70.12
853.223	60.42
853.657	56.62
854.092	50.32
854.527	37.92
854.962	41.32
855.397	43.82
855.832	54.02
856.266	44.12
856.701	39.72
857.136	40.92
857.57	43.12
858.005	48.42
858.44	57.72
858.874	46.92
859.309	60.02
859.743	49.22
860.178	51.02
860.612	47.42
861.047	56.12
861.481	67.12
861.915	71.92
862.35	52.02
862.784	43.72
863.218	41.32
863.653	35.32
864.087	49.92
864.521	56.92
864.955	72.62
865.39	161.72
865.824	170.72
866.258	122.22
866.692	166.32
867.126	172.62
867.56	104.12
867.994	54.52
868.428	42.52
868.862	45.72
869.296	59.32
869.73	58.52
870.164	55.12
870.598	48.22
871.031	39.22
871.465	34.32
871.899	30.62
872.333	25.82
872.766	30.52
873.2	25.82
873.634	30.42
874.067	30.02
874.501	30.22
874.935	36.22
875.368	30.02
875.802	27.62
876.235	24.92
876.669	30.92
877.102	25.12
877.535	32.02
877.969	23.12
878.402	28.02
878.836	17.52
879.269	23.72
879.702	21.62
880.135	24.52
880.569	25.42
881.002	33.72
881.435	24.62
881.868	17.72
882.301	25.42
882.734	13.22
883.167	20.32
883.601	30.52
884.034	23.82
884.467	15.82
884.899	20.92
885.332	17.22
885.765	13.02
886.198	18.52
886.631	21.02
887.064	19.82
887.497	16.92
887.929	23.72
888.362	12.22
888.795	10.52
889.228	22.02
889.66	20.82
890.093	24.42
890.526	17.62
890.958	17.62
891.391	19.52
891.823	23.52
892.256	14.82
892.688	13.22
893.121	22.72
893.553	18.82
893.985	26.22
894.418	21.02
894.85	16.92
895.282	20.02
895.715	22.52
896.147	20.22
896.579	18.32
897.011	15.42
897.444	17.22
897.876	18.82
898.308	22.92
898.74	19.82
899.172	17.52
899.604	24.62
900.036	21.82
900.468	17.52
900.9	20.82
901.332	16.82
901.764	12.02
902.196	18.42
902.628	19.02
903.06	19.72
903.491	28.92
903.923	19.12
904.355	23.82
904.787	29.02
905.218	23.42
905.65	20.82
906.082	10.82
906.513	14.62
906.945	17.52
907.376	16.82
907.808	20.82
908.239	21.42
908.671	22.02
909.102	17.42
909.534	25.42
909.965	48.32
910.397	96.32
910.828	315.92
911.259	475.22
911.691	219.52
912.122	108.82
912.553	52.62
912.984	36.02
913.415	31.32
913.847	27.62
914.278	20.32
914.709	10.42
915.14	14.52
915.571	13.32
916.002	15.22
916.433	21.42
916.864	18.12
917.295	14.82
917.726	21.82
918.157	20.52
918.587	33.02
919.018	24.72
919.449	25.82
919.88	25.72
920.311	30.52
920.741	53.02
921.172	166.72
921.603	145.32
922.033	73.22
922.464	47.12
922.895	24.02
923.325	19.32
923.756	21.32
924.186	22.22
924.617	27.22
925.047	39.32
925.478	46.02
925.908	43.82
926.338	28.52
926.769	19.52
927.199	17.62
927.629	16.12
928.06	18.52
928.49	14.72
928.92	11.72
929.35	14.12
929.78	17.62
930.21	9.72
930.641	9.02
931.071	13.32
931.501	8.92
931.931	9.32
932.361	13.92
932.791	10.22
933.221	7.22
933.651	3.12
934.08	22.32
934.51	27.72
934.94	15.22
935.37	10.62
935.8	12.42
936.229	10.52
936.659	11.92
937.089	8.02
937.519	19.12
937.948	15.32
938.378	18.72
938.807	5.02
939.237	8.52
939.666	6.82
940.096	2.02
940.525	4.82
940.955	1.42
941.384	0.62
941.814	-1.08
942.243	-0.58
942.672	5.32
943.102	3.22
943.531	-3.88
943.96	5.92
944.39	4.92
944.819	-0.28
945.248	3.82
945.677	2.92
946.106	5.12
946.535	8.22
946.964	4.32
947.393	5.22
947.822	7.32
948.251	-1.98
948.68	6.32
949.109	4.72
949.538	10.42
949.967	-0.88
950.396	3.02
950.825	2.52
951.254	-1.58
951.682	-4.18
952.111	0.22
952.54	1.82
952.969	0.22
953.397	-3.38
953.826	0.62
954.254	-9.68
954.683	6.62
955.112	-4.48
955.54	-0.48
955.969	0.02
956.397	7.52
956.826	-0.88
957.254	1.72
957.682	-1.48
958.111	1.42
958.539	7.62
958.967	6.72
959.396	-1.38
959.824	4.92
960.252	4.32
960.68	-1.28
961.109	-1.78
961.537	-2.78
961.965	3.42
962.393	6.32
962.821	-1.18
963.249	3.82
963.677	13.42
964.105	9.22
964.533	43.52
964.961	39.02
965.389	22.02
965.817	6.92
966.245	1.42
966.672	5.22
967.1	-5.98
967.528	6.02
967.956	-1.38
968.383	-1.68
968.811	1.92
969.239	-1.98
969.666	-5.98
970.094	3.92
970.522	2.92
970.949	-4.98
971.377	-3.18
971.804	-3.28
972.232	-2.18
972.659	-3.48
973.087	-2.08
973.514	2.52
973.941	-2.58
974.369	3.62
974.796	1.32
975.223	1.32
975.651	2.02
976.078	2.92
976.505	-3.38
976.932	4.22
977.359	14.32
977.786	18.42
978.214	2.22
978.641	2.22
979.068	-3.98
979.495	-2.38
979.922	-0.08
980.349	2.32
980.776	10.02
981.202	-0.18
981.629	4.72
982.056	8.22
982.483	-3.68
982.91	4.92
983.337	-0.48
983.763	3.22
984.19	-7.18
984.617	-5.08
985.043	-12.28
985.47	-0.88
985.897	-3.18
986.323	-7.28
986.75	0.32
987.176	3.92
987.603	0.92
988.029	0.22
988.456	-4.28
988.882	-0.78
989.308	-1.68
989.735	-9.68
990.161	2.72
990.587	-3.88
991.014	2.62
991.44	6.22
991.866	-0.68
992.292	-2.48
992.719	2.22
993.145	6.52
993.571	-10.48
993.997	-8.28
994.423	-7.08
994.849	-2.28
995.275	-0.58
995.701	2.72
996.127	-0.28
996.553	-4.18
996.979	-2.98
997.405	0.72
997.83	-2.38
998.256	-6.88
998.682	-6.48
999.108	-9.78
999.534	-0.88
999.959	3.52
1000.385	-6.68
1000.811	0.02
1001.236	-3.98
1001.662	-10.08
1002.087	-6.08
1002.513	6.22
1002.938	1.62
1003.364	-3.28
1003.789	-6.58
1004.215	4.62
1004.64	0.12
1005.066	6.22
1005.491	0.52
1005.916	-2.28
1006.342	-2.58
1006.767	-0.68
1007.192	4.62
1007.617	-2.58
1008.042	-1.78
1008.468	-4.18
1008.893	-4.38
1009.318	-7.48
1009.743	-2.68
1010.168	-1.28
1010.593	4.62
1011.018	-7.38
1011.443	-6.18
1011.868	-0.08
1012.293	-0.78
1012.718	-2.28
1013.143	3.02
1013.567	0.62
1013.992	1.52
1014.417	-12.38
1014.842	1.72
1015.267	-4.88
1015.691	-0.68
1016.116	-0.78
1016.541	-0.08
1016.965	1.02
1017.39	3.12
1017.814	1.62
1018.239	0.82
1018.663	2.22
1019.088	-8.88
1019.512	-4.48
1019.937	-0.98
1020.361	-8.58
1020.785	-8.58
1021.21	-8.28
1021.634	-4.78
1022.058	0.92
1022.483	6.62
1022.907	3.42
1023.331	-3.88
1023.755	-1.78
1024.179	-1.68
1024.604	-11.28
1025.028	-6.08
1025.452	-6.78
1025.876	-0.18
1026.3	3.02
1026.724	-15.38
1027.148	-3.08
1027.572	-9.48
1027.996	-5.88
1028.42	4.12
1028.843	-3.68
1029.267	-0.58
1029.691	-5.78
1030.115	-5.38
1030.539	-1.28
1030.962	1.12
1031.386	-10.28
1031.81	-4.58
1032.233	-0.58
1032.657	1.32
1033.08	-5.68
1033.504	3.82
1033.927	-6.38
1034.351	2.92
1034.774	-8.78
1035.198	-3.28
1035.621	-2.18
1036.045	-2.18
1036.468	1.92
1036.891	-11.18
1037.315	-12.98
1037.738	-5.08
1038.161	-2.18
1038.584	-4.38
1039.008	-4.38
1039.431	-4.38
1039.854	-0.78
1040.277	-13.88
1040.7	-8.68
1041.123	2.32
1041.546	-8.88
1041.969	-4.18
1042.392	-7.38
1042.815	-4.08
1043.238	3.82
1043.661	2.12
1044.084	-9.98
1044.507	-5.48
1044.93	-7.08
1045.352	-1.08
1045.775	-1.38
1046.198	3.72
1046.621	-6.38
1047.043	-0.88
1047.466	7.32
1047.889	-2.58
1048.311	-6.88
1048.734	-3.58
1049.156	-6.48
1049.579	-1.88
1050.001	-3.28
1050.424	-3.08
1050.846	-1.78
1051.269	-0.88
1051.691	-5.78
1052.113	-0.18
1052.536	-6.68
1052.958	-1.48
1053.38	-2.88
1053.802	-5.58
1054.225	3.02
1054.647	-9.08
1055.069	-3.08
1055.491	8.12
1055.913	-3.28
1056.335	0.62
1056.757	-4.28
1057.179	-3.18
1057.601	-6.48
1058.023	-3.48
1058.445	-3.08
1058.867	-9.28
1059.289	-6.28
1059.711	-4.48
1060.133	-1.38
1060.555	-5.18
1060.976	-8.98
1061.398	-5.48
1061.82	-2.58
1062.241	-5.78
1062.663	-3.08
1063.085	-4.28
1063.506	-2.38
1063.928	-7.68
1064.35	-0.28
1064.771	-6.68
1065.193	0.02
1065.614	-10.08
1066.035	-4.68
1066.457	-7.58
1066.878	2.32
1067.3	-6.58
1067.721	0.12
1068.142	-7.68
1068.564	-1.38
1068.985	1.52
1069.406	-4.48
1069.827	-3.68
1070.248	-3.18
1070.67	-4.38
1071.091	-9.18
1071.512	-4.18
1071.933	-5.48
1072.354	-8.98
1072.775	-4.68
1073.196	-10.38
1073.617	-4.38
1074.038	-5.08
1074.459	-2.38
1074.88	-3.58
1075.3	1.32
1075.721	-3.68
1076.142	-1.38
1076.563	-4.08
1076.983	-9.98
1077.404	-5.38
1077.825	-1.98
1078.246	-3.18
1078.666	-10.18
1079.087	-2.78
1079.507	0.32
1079.928	-5.18
1080.348	-2.08
1080.769	-4.78
1081.189	3.32
1081.61	1.12
1082.03	-6.78
1082.451	-6.18
1082.871	-5.38
1083.291	-6.68
1083.711	-11.88
1084.132	-2.48
1084.552	-5.28
1084.972	-1.28
1085.392	-10.48
1085.813	-6.98
1086.233	-4.08
1086.653	-2.58
1087.073	-1.48
1087.493	-0.38
1087.913	-5.48
1088.333	-12.68
1088.753	1.22
1089.173	6.42
1089.593	-0.98
1090.013	1.82
1090.433	4.92
1090.852	-2.88
1091.272	-0.18
1091.692	0.92
1092.112	-5.18
1092.531	-8.68
1092.951	-7.78
1093.371	-3.68
1093.79	-3.38
1094.21	-5.18
1094.63	-5.88
1095.049	-9.38
1095.469	-0.18
1095.888	-8.38
1096.308	1.32
1096.727	2.42
1097.146	-3.98
1097.566	4.22
1097.985	-7.28
1098.405	1.72
1098.824	-5.38
1099.243	-4.48
1099.662	-13.48
1100.082	-7.88
1100.501	3.22
1100.92	-7.18
1101.339	-5.48
1101.758	-6.28
