Data from 20171114-ORNL-Ar_H_NY_Subt18_08-09-05-398.txt Node
Date: Tue Nov 14 08:09:05 EST 2017
User: Ender
Spectrometer: HR+D1039
Trigger mode: 0
Integration Time (sec): 2.730000E-2
Scans to average: 10
Electric dark correction enabled: true
Nonlinearity correction enabled: false
Boxcar width: 0
XAxis mode: Wavelengths
Number of Pixels in Spectrum: 2048
>>>>>Begin Spectral Data<<<<<
187.836	1.39
188.309	1.39
188.782	1.39
189.255	-0.51
189.728	-5.41
190.201	6.99
190.674	2.59
191.147	4.89
191.619	-11.31
192.092	0.39
192.565	7.39
193.038	0.89
193.511	2.19
193.984	3.19
194.456	-3.31
194.929	-1.91
195.402	-7.31
195.874	-0.11
196.347	-0.61
196.82	-10.51
197.292	5.59
197.765	-1.21
198.237	-3.11
198.71	2.39
199.182	-3.91
199.655	1.49
200.127	5.09
200.6	-2.51
201.072	1.29
201.544	-2.01
202.017	-4.51
202.489	1.49
202.961	-5.11
203.433	-2.21
203.906	-5.61
204.378	-8.91
204.85	-5.71
205.322	-12.61
205.794	-7.21
206.266	-6.81
206.739	-7.31
207.211	-0.21
207.683	-5.51
208.155	-2.11
208.627	-10.41
209.099	-3.41
209.57	-9.51
210.042	-5.41
210.514	-4.41
210.986	-1.01
211.458	-11.51
211.93	-3.51
212.402	3.09
212.873	-7.01
213.345	-6.51
213.817	-9.51
214.288	0.99
214.76	-13.81
215.232	-6.21
215.703	-4.61
216.175	1.09
216.646	-3.71
217.118	-10.01
217.589	-6.51
218.061	-3.91
218.532	-4.41
219.004	-5.51
219.475	-5.21
219.946	-3.91
220.418	-4.21
220.889	5.19
221.36	-1.71
221.832	-12.01
222.303	-8.51
222.774	-4.01
223.245	-5.41
223.717	-9.41
224.188	-2.21
224.659	-10.71
225.13	-6.31
225.601	-5.81
226.072	-0.41
226.543	-3.11
227.014	-4.01
227.485	-1.21
227.956	-1.51
228.427	0.69
228.898	-3.21
229.369	-2.21
229.839	-7.21
230.31	-14.71
230.781	2.89
231.252	-6.21
231.722	-6.11
232.193	-5.11
232.664	-7.51
233.135	-4.31
233.605	-6.31
234.076	-4.31
234.546	-3.51
235.017	-0.21
235.487	-3.11
235.958	-4.61
236.428	-6.11
236.899	-5.81
237.369	-0.51
237.84	-4.81
238.31	-1.01
238.78	-6.01
239.251	-4.11
239.721	-4.71
240.191	-3.11
240.662	-3.01
241.132	-8.61
241.602	-5.11
242.072	-3.81
242.542	0.99
243.013	-4.71
243.483	-4.41
243.953	-3.81
244.423	-5.81
244.893	-5.91
245.363	-0.51
245.833	-3.41
246.303	-7.51
246.773	0.79
247.243	-4.01
247.712	-2.51
248.182	2.39
248.652	0.09
249.122	-7.91
249.592	-1.81
250.061	-0.91
250.531	8.59
251.001	-4.01
251.471	2.99
251.94	2.09
252.41	-4.71
252.879	-9.01
253.349	2.59
253.818	1.59
254.288	-0.31
254.757	-1.61
255.227	-1.61
255.696	-3.51
256.166	-1.41
256.635	2.29
257.105	-0.01
257.574	-5.51
258.043	-1.51
258.513	-3.41
258.982	2.49
259.451	-10.51
259.92	-2.11
260.389	-2.91
260.859	1.29
261.328	-0.71
261.797	7.09
262.266	-0.01
262.735	4.69
263.204	2.49
263.673	-3.21
264.142	-5.31
264.611	-10.41
265.08	-4.91
265.549	-1.41
266.018	1.09
266.487	-4.11
266.955	-6.71
267.424	-3.31
267.893	1.29
268.362	-4.41
268.83	-0.71
269.299	3.19
269.768	-1.01
270.236	-1.91
270.705	-2.11
271.174	3.59
271.642	1.19
272.111	0.79
272.579	-5.61
273.048	-1.31
273.516	1.49
273.985	0.79
274.453	0.19
274.922	8.59
275.39	3.89
275.858	-5.31
276.327	1.89
276.795	10.09
277.263	-0.71
277.731	7.89
278.2	1.69
278.668	4.29
279.136	6.09
279.604	-3.71
280.072	7.59
280.54	1.69
281.008	-2.61
281.477	0.99
281.945	3.49
282.413	7.19
282.881	8.59
283.348	-5.11
283.816	6.29
284.284	10.49
284.752	12.69
285.22	2.99
285.688	6.79
286.156	1.59
286.623	7.69
287.091	6.39
287.559	7.69
288.026	2.29
288.494	7.19
288.962	-3.31
289.429	2.79
289.897	10.49
290.364	8.69
290.832	8.09
291.3	10.79
291.767	15.19
292.234	5.09
292.702	9.99
293.169	12.79
293.637	16.19
294.104	11.59
294.571	0.99
295.039	6.49
295.506	6.79
295.973	7.59
296.44	5.59
296.908	8.19
297.375	5.29
297.842	9.39
298.309	10.39
298.776	4.29
299.243	14.09
299.71	2.79
300.177	6.89
300.644	13.09
301.111	7.19
301.578	15.19
302.045	5.79
302.512	17.59
302.979	10.89
303.446	11.39
303.913	8.49
304.379	18.59
304.846	17.19
305.313	8.69
305.78	12.29
306.246	13.09
306.713	15.29
307.18	17.79
307.646	12.69
308.113	20.49
308.579	14.39
309.046	14.19
309.512	19.19
309.979	14.49
310.445	21.19
310.912	17.59
311.378	22.39
311.845	21.79
312.311	20.19
312.777	20.59
313.244	23.59
313.71	27.59
314.176	27.49
314.642	25.39
315.109	19.79
315.575	27.99
316.041	24.29
316.507	18.19
316.973	18.99
317.439	23.39
317.905	27.99
318.371	20.99
318.837	27.59
319.303	19.09
319.769	26.19
320.235	22.99
320.701	21.79
321.167	28.39
321.633	25.29
322.099	26.49
322.564	27.29
323.03	32.19
323.496	27.19
323.962	28.09
324.427	26.59
324.893	28.79
325.359	28.79
325.824	31.79
326.29	25.69
326.755	30.29
327.221	27.29
327.686	29.29
328.152	33.19
328.617	32.19
329.083	35.59
329.548	39.79
330.014	39.29
330.479	28.49
330.944	35.29
331.41	34.79
331.875	36.59
332.34	34.69
332.805	24.09
333.271	30.89
333.736	35.49
334.201	39.99
334.666	34.19
335.131	39.69
335.596	32.99
336.061	36.59
336.526	25.69
336.991	34.99
337.456	36.49
337.921	33.89
338.386	31.19
338.851	32.09
339.316	35.49
339.781	32.89
340.246	37.79
340.711	36.29
341.175	39.29
341.64	38.49
342.105	41.79
342.569	37.39
343.034	44.29
343.499	42.49
343.963	35.59
344.428	51.59
344.893	54.39
345.357	45.29
345.822	46.99
346.286	53.49
346.751	52.39
347.215	57.49
347.679	54.99
348.144	68.29
348.608	62.29
349.073	53.99
349.537	57.99
350.001	59.89
350.465	68.59
350.93	62.69
351.394	66.59
351.858	52.69
352.322	67.39
352.786	66.99
353.25	75.89
353.715	84.19
354.179	74.09
354.643	93.59
355.107	93.89
355.571	77.99
356.035	83.29
356.498	93.29
356.962	97.89
357.426	102.39
357.89	91.59
358.354	74.09
358.818	62.39
359.281	65.39
359.745	61.79
360.209	58.49
360.673	62.09
361.136	66.99
361.6	68.29
362.064	72.09
362.527	76.49
362.991	79.49
363.454	64.99
363.918	68.29
364.381	66.99
364.845	70.59
365.308	74.99
365.772	72.89
366.235	69.99
366.698	65.99
367.162	77.29
367.625	72.29
368.088	76.49
368.552	81.69
369.015	72.49
369.478	74.79
369.941	88.49
370.404	83.19
370.867	86.69
371.331	85.79
371.794	91.99
372.257	80.29
372.72	93.09
373.183	91.29
373.646	83.39
374.109	76.79
374.572	95.29
375.035	86.19
375.497	92.39
375.96	93.49
376.423	89.59
376.886	99.19
377.349	94.39
377.811	85.39
378.274	89.89
378.737	87.99
379.199	93.59
379.662	96.49
380.125	100.19
380.587	98.29
381.05	98.59
381.512	103.49
381.975	114.89
382.437	100.29
382.9	99.19
383.362	106.39
383.825	116.39
384.287	113.69
384.75	104.79
385.212	112.19
385.674	120.09
386.136	117.79
386.599	102.29
387.061	112.09
387.523	105.19
387.985	107.89
388.447	115.49
388.91	114.09
389.372	115.19
389.834	116.69
390.296	115.19
390.758	117.09
391.22	122.49
391.682	128.19
392.144	139.59
392.606	140.09
393.068	127.19
393.529	139.59
393.991	131.59
394.453	117.59
394.915	121.49
395.377	123.49
395.838	124.29
396.3	127.19
396.762	125.59
397.224	126.39
397.685	120.29
398.147	126.09
398.608	125.29
399.07	123.09
399.531	132.69
399.993	129.99
400.454	134.89
400.916	138.49
401.377	134.79
401.839	136.99
402.3	138.29
402.762	160.59
403.223	163.09
403.684	158.09
404.145	152.79
404.607	147.09
405.068	150.39
405.529	150.59
405.99	163.59
406.451	163.69
406.913	158.39
407.374	152.29
407.835	148.89
408.296	156.99
408.757	163.69
409.218	177.39
409.679	171.39
410.14	162.99
410.601	163.29
411.062	166.49
411.522	169.59
411.983	166.99
412.444	157.39
412.905	172.39
413.366	171.89
413.826	185.99
414.287	215.79
414.748	254.69
415.208	242.59
415.669	208.29
416.13	200.99
416.59	202.59
417.051	206.39
417.511	208.49
417.972	230.69
418.432	242.59
418.893	282.69
419.353	244.69
419.814	202.19
420.274	181.89
420.734	180.89
421.195	188.89
421.655	186.59
422.115	188.39
422.576	188.39
423.036	192.39
423.496	200.29
423.956	211.59
424.416	224.19
424.876	257.49
425.336	252.69
425.797	260.69
426.257	247.09
426.717	235.89
427.177	225.09
427.637	215.69
428.097	224.89
428.556	233.59
429.016	253.79
429.476	250.59
429.936	257.49
430.396	262.39
430.856	279.89
431.315	291.69
431.775	327.19
432.235	364.79
432.694	334.89
433.154	340.89
433.614	368.59
434.073	316.29
434.533	271.79
434.993	260.79
435.452	265.49
435.912	283.09
436.371	270.29
436.83	269.49
437.29	247.79
437.749	242.79
438.209	241.29
438.668	262.39
439.127	273.49
439.587	257.89
440.046	246.79
440.505	256.39
440.964	271.19
441.424	300.69
441.883	297.89
442.342	251.29
442.801	224.89
443.26	221.49
443.719	230.19
444.178	219.09
444.637	212.19
445.096	224.79
445.555	229.89
446.014	228.49
446.473	221.59
446.932	230.79
447.391	227.79
447.849	238.09
448.308	218.59
448.767	219.09
449.226	229.79
449.685	239.89
450.143	247.79
450.602	238.19
451.061	225.89
451.519	235.79
451.978	235.99
452.436	233.29
452.895	241.69
453.353	253.99
453.812	235.69
454.27	239.09
454.729	234.59
455.187	240.59
455.646	244.29
456.104	244.59
456.562	258.49
457.021	265.19
457.479	257.49
457.937	272.49
458.395	262.19
458.854	247.79
459.312	255.99
459.77	278.19
460.228	255.59
460.686	229.39
461.144	254.39
461.602	254.49
462.06	244.39
462.518	259.89
462.976	252.59
463.434	259.79
463.892	257.79
464.35	279.99
464.808	283.69
465.266	268.39
465.724	274.99
466.181	280.19
466.639	270.99
467.097	288.79
467.555	305.79
468.012	306.79
468.47	307.09
468.928	325.79
469.385	339.99
469.843	350.29
470.3	343.29
470.758	365.29
471.215	381.09
471.673	405.79
472.13	406.89
472.588	419.29
473.045	378.39
473.503	386.99
473.96	401.69
474.417	400.69
474.875	432.39
475.332	470.19
475.789	465.69
476.246	472.09
476.704	485.19
477.161	507.69
477.618	518.09
478.075	554.79
478.532	611.19
478.989	674.19
479.446	785.39
479.903	752.79
480.36	782.29
480.817	820.99
481.274	911.29
481.731	1000.59
482.188	1078.09
482.645	1188.99
483.102	1274.39
483.558	1393.19
484.015	1433.09
484.472	1414.69
484.929	1359.39
485.385	1334.69
485.842	1303.79
486.299	1246.59
486.755	1220.49
487.212	1029.99
487.668	884.49
488.125	818.49
488.582	761.09
489.038	739.19
489.494	693.39
489.951	672.69
490.407	658.89
490.864	646.69
491.32	641.19
491.776	636.89
492.233	645.59
492.689	611.89
493.145	614.29
493.602	606.39
494.058	616.39
494.514	611.89
494.97	632.49
495.426	645.99
495.882	622.99
496.338	605.39
496.794	622.59
497.251	620.29
497.707	631.29
498.163	621.29
498.618	628.29
499.074	635.69
499.53	673.79
499.986	666.19
500.442	644.19
500.898	618.49
501.354	614.09
501.809	629.79
502.265	624.49
502.721	637.49
503.177	641.49
503.632	638.29
504.088	659.89
504.543	672.59
504.999	689.79
505.455	656.59
505.91	643.89
506.366	647.29
506.821	639.39
507.277	637.89
507.732	644.19
508.187	638.19
508.643	649.59
509.098	645.29
509.553	664.19
510.009	672.89
510.464	688.99
510.919	692.79
511.375	696.19
511.83	718.99
512.285	725.19
512.74	762.29
513.195	787.39
513.65	768.99
514.105	764.89
514.56	769.39
515.015	791.69
515.47	811.49
515.925	788.59
516.38	793.09
516.835	797.29
517.29	782.79
517.745	780.89
518.2	768.69
518.655	760.19
519.109	748.19
519.564	739.49
520.019	739.09
520.474	733.59
520.928	731.99
521.383	731.39
521.838	725.59
522.292	722.59
522.747	717.39
523.201	718.59
523.656	706.59
524.11	700.89
524.565	704.29
525.019	704.09
525.474	706.59
525.928	711.09
526.382	707.09
526.837	705.19
527.291	717.09
527.745	707.49
528.2	714.49
528.654	702.49
529.108	700.39
529.562	705.49
530.016	705.89
530.47	694.69
530.925	706.69
531.379	697.29
531.833	704.39
532.287	704.99
532.741	712.59
533.195	707.79
533.649	717.99
534.103	733.19
534.556	714.59
535.01	725.49
535.464	717.89
535.918	736.39
536.372	732.79
536.826	728.49
537.279	710.39
537.733	720.99
538.187	724.89
538.64	730.29
539.094	728.79
539.548	743.49
540.001	735.99
540.455	729.59
540.908	747.79
541.362	745.19
541.815	761.59
542.269	764.09
542.722	775.09
543.175	778.69
543.629	790.59
544.082	800.79
544.536	809.49
544.989	798.49
545.442	805.29
545.895	808.39
546.349	812.19
546.802	811.89
547.255	815.99
547.708	816.89
548.161	833.59
548.614	839.29
549.067	836.99
549.52	840.99
549.973	832.19
550.426	826.49
550.879	815.09
551.332	816.39
551.785	826.59
552.238	825.39
552.691	850.79
553.144	862.39
553.596	863.09
554.049	887.19
554.502	917.39
554.955	924.39
555.407	929.59
555.86	921.99
556.313	926.69
556.765	902.19
557.218	894.19
557.67	893.89
558.123	883.89
558.576	891.99
559.028	900.29
559.48	907.49
559.933	897.49
560.385	863.39
560.838	835.39
561.29	801.79
561.742	795.59
562.195	791.89
562.647	794.69
563.099	800.89
563.551	799.29
564.004	800.39
564.456	788.49
564.908	792.29
565.36	765.29
565.812	741.69
566.264	748.39
566.716	732.99
567.168	723.99
567.62	730.39
568.072	718.99
568.524	709.29
568.976	710.79
569.428	693.99
569.88	699.69
570.332	711.39
570.784	706.69
571.235	709.69
571.687	714.09
572.139	728.69
572.59	729.59
573.042	729.99
573.494	732.09
573.945	725.39
574.397	705.19
574.849	714.49
575.3	715.29
575.752	713.29
576.203	701.59
576.655	703.19
577.106	686.49
577.557	685.09
578.009	689.59
578.46	686.69
578.912	689.49
579.363	679.79
579.814	685.49
580.265	681.99
580.717	679.39
581.168	687.09
581.619	696.59
582.07	695.09
582.521	696.79
582.972	693.99
583.423	689.79
583.875	691.49
584.326	707.19
584.777	721.59
585.227	746.69
585.678	753.79
586.129	772.69
586.58	819.79
587.031	819.99
587.482	856.19
587.933	880.99
588.384	863.89
588.834	818.59
589.285	790.59
589.736	791.89
590.186	798.39
590.637	790.19
591.088	769.59
591.538	760.39
591.989	753.99
592.439	751.59
592.89	737.59
593.34	729.09
593.791	729.39
594.241	721.89
594.692	726.19
595.142	716.99
595.593	710.29
596.043	721.39
596.493	721.99
596.943	720.89
597.394	744.29
597.844	743.19
598.294	755.09
598.744	780.99
599.195	816.69
599.645	847.29
600.095	892.79
600.545	940.79
600.995	1006.09
601.445	1063.09
601.895	1124.79
602.345	1168.69
602.795	1152.79
603.245	1111.29
603.695	1048.39
604.145	997.49
604.594	951.29
605.044	885.99
605.494	828.49
605.944	779.09
606.393	770.79
606.843	755.59
607.293	766.69
607.743	748.29
608.192	759.99
608.642	765.29
609.091	786.29
609.541	782.29
609.99	791.49
610.44	783.59
610.889	731.79
611.339	727.69
611.788	699.89
612.238	713.89
612.687	729.19
613.136	726.19
613.586	725.39
614.035	718.09
614.484	728.99
614.933	731.99
615.383	734.29
615.832	728.39
616.281	716.09
616.73	686.59
617.179	690.29
617.628	672.19
618.077	654.49
618.526	639.39
618.975	634.49
619.424	640.59
619.873	629.19
620.322	641.99
620.771	624.89
621.22	620.29
621.669	616.29
622.118	614.49
622.567	602.39
623.015	589.79
623.464	588.99
623.913	577.89
624.361	572.29
624.81	566.19
625.259	573.29
625.707	582.89
626.156	580.99
626.604	588.39
627.053	582.49
627.501	590.29
627.95	592.09
628.398	610.89
628.847	590.69
629.295	592.89
629.744	593.79
630.192	586.39
630.64	581.09
631.089	564.39
631.537	553.89
631.985	548.79
632.433	557.29
632.881	551.99
633.33	552.99
633.778	554.49
634.226	537.89
634.674	562.39
635.122	559.69
635.57	575.59
636.018	568.69
636.466	584.99
636.914	581.49
637.362	597.59
637.81	604.09
638.258	608.69
638.705	613.69
639.153	629.29
639.601	638.89
640.049	663.49
640.497	698.69
640.944	717.99
641.392	659.39
641.84	630.49
642.287	603.59
642.735	585.49
643.182	585.79
643.63	576.79
644.078	576.89
644.525	601.39
644.973	593.99
645.42	614.49
645.867	642.69
646.315	651.69
646.762	674.79
647.21	709.79
647.657	727.19
648.104	758.89
648.551	786.09
648.999	837.89
649.446	912.29
649.893	1004.09
650.34	1141.59
650.787	1356.79
651.234	1668.89
651.682	2178.99
652.129	2934.39
652.576	4209.89
653.023	6110.49
653.47	8257.79
653.917	10150.09
654.363	11615.99
654.81	12737.79
655.257	12089.39
655.704	8025.59
656.151	4835.59
656.598	3189.69
657.044	2280.49
657.491	1769.29
657.938	1443.19
658.385	1207.79
658.831	1070.19
659.278	960.79
659.724	852.89
660.171	789.69
660.618	724.59
661.064	694.09
661.511	678.59
661.957	664.59
662.404	652.39
662.85	657.19
663.296	627.59
663.743	580.89
664.189	548.09
664.635	548.09
665.082	543.89
665.528	550.19
665.974	538.19
666.42	533.59
666.867	519.89
667.313	501.79
667.759	486.29
668.205	473.49
668.651	479.79
669.097	469.89
669.543	458.09
669.989	460.29
670.435	467.39
670.881	470.99
671.327	470.49
671.773	492.39
672.219	513.19
672.665	574.69
673.11	617.79
673.556	665.69
674.002	701.59
674.448	687.29
674.893	574.09
675.339	496.89
675.785	464.99
676.23	436.59
676.676	406.49
677.122	393.49
677.567	389.89
678.013	384.09
678.458	378.29
678.904	380.69
679.349	369.29
679.794	381.69
680.24	366.59
680.685	364.29
681.131	367.99
681.576	369.39
682.021	370.89
682.466	372.09
682.912	370.29
683.357	378.09
683.802	403.49
684.247	433.49
684.692	481.99
685.137	527.19
685.583	573.49
686.028	591.29
686.473	544.69
686.918	468.19
687.363	438.69
687.807	412.09
688.252	376.89
688.697	374.29
689.142	351.09
689.587	349.79
690.032	347.79
690.477	361.79
690.921	369.49
691.366	397.49
691.811	431.39
692.255	453.19
692.7	485.69
693.145	546.39
693.589	759.59
694.034	1238.49
694.478	1652.89
694.923	1817.29
695.367	2373.19
695.812	1265.09
696.256	522.99
696.701	379.69
697.145	363.49
697.59	345.19
698.034	338.49
698.478	351.09
698.922	342.59
699.367	337.69
699.811	351.69
700.255	370.79
700.699	407.99
701.143	441.89
701.588	494.69
702.032	538.79
702.476	538.99
702.92	523.09
703.364	525.49
703.808	705.89
704.252	1140.49
704.696	1573.89
705.14	1776.89
705.584	2216.09
706.027	1122.89
706.471	556.69
706.915	422.19
707.359	381.09
707.803	342.99
708.246	331.09
708.69	322.69
709.134	338.49
709.577	326.39
710.021	335.79
710.465	330.39
710.908	309.59
711.352	314.09
711.795	325.39
712.239	369.69
712.682	408.29
713.126	425.59
713.569	484.29
714.012	371.59
714.456	317.89
714.899	305.99
715.342	286.59
715.786	278.99
716.229	276.29
716.672	266.59
717.115	260.19
717.558	261.89
718.002	270.89
718.445	281.49
718.888	303.79
719.331	310.29
719.774	326.79
720.217	321.39
720.66	301.39
721.103	285.89
721.546	271.79
721.989	257.49
722.432	240.29
722.874	245.89
723.317	242.09
723.76	249.29
724.203	272.19
724.645	343.19
725.088	487.99
725.531	604.69
725.974	673.19
726.416	582.19
726.859	331.09
727.301	260.29
727.744	258.09
728.187	247.89
728.629	252.99
729.071	264.09
729.514	278.09
729.956	285.29
730.399	300.49
730.841	303.69
731.283	288.39
731.726	282.19
732.168	275.89
732.61	284.59
733.053	303.29
733.495	335.49
733.937	374.99
734.379	424.29
734.821	464.59
735.263	596.29
735.705	929.59
736.148	1764.89
736.59	2791.19
737.032	3180.59
737.474	2612.89
737.916	867.19
738.357	454.19
738.799	342.49
739.241	317.09
739.683	304.79
740.125	310.99
740.567	314.49
741.008	325.09
741.45	328.49
741.892	335.59
742.334	366.99
742.775	378.29
743.217	361.79
743.658	291.79
744.1	274.09
744.542	281.69
744.983	343.19
745.425	362.59
745.866	363.29
746.307	298.99
746.749	296.59
747.19	347.39
747.632	506.79
748.073	1001.39
748.514	2060.29
748.956	3063.59
749.397	3877.69
749.838	3198.39
750.279	3117.49
750.72	1598.19
751.162	592.79
751.603	350.39
752.044	269.99
752.485	236.89
752.926	224.89
753.367	216.79
753.808	203.59
754.249	202.89
754.69	197.69
755.131	192.49
755.572	188.49
756.013	194.29
756.453	188.89
756.894	203.49
757.335	196.89
757.776	207.29
758.216	210.79
758.657	212.39
759.098	218.59
759.538	234.39
759.979	285.09
760.42	420.09
760.86	810.59
761.301	2090.79
761.741	4871.99
762.182	6724.89
762.622	4758.89
763.063	1415.69
763.503	581.49
763.943	353.89
764.384	292.19
764.824	266.49
765.264	249.79
765.705	221.39
766.145	196.09
766.585	180.89
767.025	171.29
767.465	177.89
767.906	190.79
768.346	216.49
768.786	220.89
769.226	229.79
769.666	331.19
770.106	692.09
770.546	1750.29
770.986	2798.99
771.426	2456.79
771.866	845.79
772.306	351.69
772.745	216.29
773.185	173.79
773.625	165.19
774.065	155.99
774.505	173.19
774.944	223.59
775.384	395.89
775.824	629.29
776.263	595.59
776.703	292.99
777.142	178.09
777.582	134.29
778.021	126.89
778.461	133.89
778.9	136.49
779.34	127.19
779.779	117.69
780.219	110.19
780.658	113.09
781.097	115.69
781.537	111.99
781.976	113.69
782.415	112.29
782.855	112.19
783.294	106.09
783.733	113.09
784.172	117.39
784.611	111.69
785.05	119.49
785.489	115.69
785.928	126.59
786.367	128.29
786.806	131.89
787.245	136.59
787.684	152.39
788.123	158.29
788.562	141.29
789.001	135.99
789.44	131.79
789.879	126.79
790.317	127.79
790.756	134.79
791.195	136.09
791.634	160.39
792.072	226.39
792.511	409.89
792.95	1119.69
793.388	2250.49
793.827	1989.49
794.265	716.89
794.704	296.29
795.142	196.59
795.581	157.69
796.019	147.09
796.458	136.39
796.896	130.29
797.334	138.89
797.773	168.69
798.211	236.49
798.649	495.39
799.087	1117.79
799.526	1719.79
799.964	2161.49
800.402	2097.29
800.84	802.79
801.278	326.39
801.716	204.29
802.154	163.39
802.592	151.49
803.03	147.29
803.468	147.49
803.906	156.19
804.344	155.99
804.782	145.29
805.22	141.69
805.658	142.59
806.096	153.09
806.533	168.69
806.971	191.39
807.409	241.59
807.847	355.89
808.284	751.29
808.722	2077.99
809.16	3515.09
809.597	3473.49
810.035	5895.79
810.472	6013.59
810.91	2234.09
811.347	858.69
811.785	433.39
812.222	279.29
812.66	208.59
813.097	170.69
813.535	144.19
813.972	132.39
814.409	127.69
814.846	112.89
815.284	116.89
815.721	107.69
816.158	111.89
816.595	115.89
817.032	162.99
817.47	189.29
817.907	135.79
818.344	109.39
818.781	91.59
819.218	100.29
819.655	130.09
820.092	200.49
820.529	228.19
820.966	181.89
821.403	137.19
821.839	105.79
822.276	107.49
822.713	131.89
823.15	147.09
823.587	126.39
824.023	162.59
824.46	342.59
824.897	990.99
825.333	1436.49
825.77	615.49
826.206	248.99
826.643	140.79
827.08	106.59
827.516	80.99
827.953	84.29
828.389	80.39
828.825	77.39
829.262	75.79
829.698	65.69
830.135	65.09
830.571	59.09
831.007	68.49
831.443	72.89
831.88	67.59
832.316	66.19
832.752	69.89
833.188	67.09
833.624	61.89
834.06	73.79
834.497	68.89
834.933	78.09
835.369	79.79
835.805	70.69
836.241	72.89
836.677	86.49
837.112	95.39
837.548	105.89
837.984	140.29
838.42	224.09
838.856	563.69
839.292	1675.79
839.727	2434.49
840.163	1148.29
840.599	1042.59
841.034	2204.59
841.47	2214.29
841.906	826.79
842.341	354.39
842.777	207.49
843.212	217.59
843.648	189.29
844.083	117.39
844.519	88.39
844.954	71.99
845.39	54.99
845.825	59.39
846.261	59.59
846.696	64.39
847.131	61.19
847.566	63.29
848.002	59.09
848.437	59.59
848.872	68.79
849.307	67.09
849.742	92.39
850.177	203.99
850.613	613.69
851.048	925.69
851.483	403.59
851.918	169.79
852.353	95.69
852.788	58.29
853.223	53.79
853.657	58.99
854.092	44.69
854.527	43.59
854.962	47.09
855.397	43.89
855.832	52.99
856.266	39.99
856.701	42.49
857.136	44.59
857.57	48.39
858.005	51.09
858.44	63.49
858.874	40.49
859.309	52.89
859.743	43.79
860.178	48.39
860.612	44.59
861.047	52.89
861.481	69.59
861.915	72.39
862.35	54.99
862.784	36.59
863.218	44.79
863.653	39.49
864.087	54.79
864.521	57.49
864.955	75.19
865.39	169.69
865.824	180.09
866.258	121.09
866.692	177.49
867.126	193.09
867.56	110.69
867.994	55.59
868.428	39.39
868.862	51.29
869.296	56.39
869.73	63.09
870.164	56.39
870.598	47.39
871.031	38.69
871.465	34.99
871.899	24.69
872.333	27.89
872.766	25.09
873.2	23.99
873.634	32.59
874.067	23.19
874.501	29.69
874.935	36.79
875.368	25.19
875.802	29.69
876.235	23.09
876.669	23.59
877.102	23.99
877.535	27.39
877.969	18.69
878.402	19.99
878.836	21.19
879.269	23.09
879.702	26.79
880.135	17.89
880.569	22.89
881.002	19.09
881.435	21.19
881.868	18.59
882.301	26.59
882.734	19.69
883.167	23.89
883.601	19.79
884.034	21.79
884.467	13.99
884.899	12.49
885.332	19.69
885.765	17.49
886.198	16.39
886.631	16.39
887.064	27.89
887.497	22.69
887.929	27.29
888.362	13.09
888.795	13.99
889.228	17.29
889.66	19.99
890.093	17.39
890.526	17.09
890.958	9.69
891.391	15.89
891.823	17.79
892.256	14.69
892.688	11.79
893.121	18.49
893.553	16.99
893.985	19.09
894.418	25.99
894.85	8.19
895.282	16.99
895.715	21.49
896.147	16.29
896.579	16.59
897.011	13.39
897.444	19.79
897.876	10.19
898.308	12.09
898.74	12.09
899.172	14.09
899.604	24.29
900.036	25.29
900.468	17.69
900.9	13.19
901.332	19.09
901.764	11.39
902.196	17.99
902.628	19.19
903.06	22.29
903.491	30.69
903.923	28.79
904.355	24.69
904.787	26.59
905.218	26.99
905.65	18.89
906.082	15.49
906.513	12.19
906.945	18.89
907.376	14.89
907.808	19.99
908.239	26.99
908.671	20.99
909.102	24.59
909.534	26.09
909.965	46.79
910.397	94.79
910.828	342.49
911.259	499.19
911.691	229.49
912.122	118.49
912.553	54.29
912.984	35.29
913.415	24.09
913.847	20.69
914.278	13.39
914.709	23.99
915.14	19.49
915.571	19.49
916.002	9.59
916.433	20.89
916.864	9.39
917.295	11.99
917.726	17.29
918.157	20.89
918.587	35.89
919.018	20.59
919.449	25.69
919.88	25.99
920.311	33.39
920.741	49.29
921.172	178.99
921.603	152.49
922.033	71.19
922.464	59.99
922.895	31.99
923.325	16.19
923.756	15.99
924.186	8.89
924.617	18.29
925.047	24.49
925.478	24.09
925.908	21.79
926.338	11.69
926.769	12.69
927.199	19.59
927.629	12.79
928.06	18.39
928.49	14.69
928.92	15.19
929.35	9.29
929.78	13.59
930.21	10.89
930.641	4.99
931.071	9.69
931.501	2.89
931.931	8.99
932.361	8.39
932.791	6.69
933.221	4.49
933.651	5.09
934.08	15.19
934.51	29.29
934.94	10.89
935.37	6.99
935.8	9.59
936.229	9.59
936.659	11.99
937.089	5.19
937.519	16.19
937.948	22.99
938.378	17.39
938.807	8.29
939.237	-0.01
939.666	8.19
940.096	-3.01
940.525	3.69
940.955	-2.11
941.384	-0.61
941.814	-6.41
942.243	-0.11
942.672	9.29
943.102	2.29
943.531	0.79
943.96	2.09
944.39	2.29
944.819	1.49
945.248	1.79
945.677	2.09
946.106	6.29
946.535	5.49
946.964	-2.81
947.393	1.19
947.822	6.99
948.251	-3.41
948.68	4.99
949.109	8.09
949.538	3.99
949.967	5.09
950.396	-0.51
950.825	-4.21
951.254	-3.51
951.682	-4.21
952.111	5.89
952.54	11.49
952.969	1.89
953.397	-5.31
953.826	-0.71
954.254	-2.41
954.683	-1.51
955.112	-4.41
955.54	-3.41
955.969	2.29
956.397	-4.31
956.826	0.09
957.254	6.39
957.682	5.09
958.111	3.79
958.539	-2.11
958.967	1.39
959.396	-4.11
959.824	3.79
960.252	6.89
960.68	-5.11
961.109	0.79
961.537	1.59
961.965	-4.41
962.393	1.09
962.821	-0.71
963.249	2.29
963.677	4.59
964.105	12.19
964.533	52.09
964.961	41.99
965.389	21.59
965.817	12.59
966.245	2.79
966.672	4.29
967.1	-5.91
967.528	-8.11
967.956	-2.91
968.383	-0.61
968.811	-0.81
969.239	2.59
969.666	-6.31
970.094	-5.51
970.522	-5.71
970.949	-3.31
971.377	-6.11
971.804	-0.01
972.232	0.89
972.659	-7.01
973.087	-2.01
973.514	-10.91
973.941	-9.61
974.369	0.09
974.796	3.29
975.223	-3.11
975.651	4.29
976.078	4.69
976.505	0.19
976.932	-0.11
977.359	18.79
977.786	15.09
978.214	3.59
978.641	-5.61
979.068	-7.41
979.495	-6.21
979.922	-0.21
980.349	-3.11
980.776	2.49
981.202	-2.91
981.629	6.59
982.056	9.39
982.483	-3.91
982.91	3.99
983.337	-7.71
983.763	3.29
984.19	-1.41
984.617	-0.31
985.043	-0.81
985.47	-4.21
985.897	-4.21
986.323	-5.91
986.75	0.59
987.176	-1.41
987.603	0.69
988.029	-1.31
988.456	-4.81
988.882	4.09
989.308	-5.41
989.735	-9.71
990.161	1.19
990.587	-3.81
991.014	1.19
991.44	9.39
991.866	1.39
992.292	-8.41
992.719	-2.61
993.145	-0.41
993.571	-9.41
993.997	-5.11
994.423	-2.71
994.849	-4.01
995.275	1.89
995.701	-1.21
996.127	-3.31
996.553	6.29
996.979	-3.01
997.405	-1.31
997.83	-3.91
998.256	-10.21
998.682	-9.51
999.108	-11.21
999.534	-5.01
999.959	1.09
1000.385	-8.31
1000.811	1.49
1001.236	-8.21
1001.662	-9.51
1002.087	-12.41
1002.513	-0.51
1002.938	2.19
1003.364	0.29
1003.789	0.19
1004.215	4.99
1004.64	0.29
1005.066	2.39
1005.491	-2.31
1005.916	-4.51
1006.342	-3.11
1006.767	-6.81
1007.192	5.99
1007.617	-8.01
1008.042	-5.71
1008.468	-6.31
1008.893	-2.81
1009.318	-3.51
1009.743	-0.91
1010.168	3.99
1010.593	-1.61
1011.018	-10.81
1011.443	-2.31
1011.868	3.29
1012.293	-8.21
1012.718	-3.01
1013.143	1.69
1013.567	-1.61
1013.992	4.09
1014.417	-8.91
1014.842	6.09
1015.267	-10.31
1015.691	-2.71
1016.116	6.49
1016.541	-2.21
1016.965	-0.61
1017.39	5.19
1017.814	-3.91
1018.239	-2.01
1018.663	-7.21
1019.088	-11.01
1019.512	-3.61
1019.937	-1.61
1020.361	-6.91
1020.785	-9.71
1021.21	-3.21
1021.634	-6.31
1022.058	-3.51
1022.483	2.49
1022.907	-8.31
1023.331	-2.91
1023.755	-4.61
1024.179	-2.71
1024.604	-8.91
1025.028	-8.71
1025.452	-4.41
1025.876	-5.81
1026.3	2.89
1026.724	-11.91
1027.148	-5.31
1027.572	-10.11
1027.996	-4.61
1028.42	-0.01
1028.843	-5.21
1029.267	-2.21
1029.691	-5.41
1030.115	-3.71
1030.539	-7.11
1030.962	-6.61
1031.386	-8.11
1031.81	-5.51
1032.233	-2.51
1032.657	7.59
1033.08	0.79
1033.504	-5.91
1033.927	-2.31
1034.351	2.99
1034.774	-4.61
1035.198	-6.11
1035.621	-7.71
1036.045	-11.41
1036.468	-1.21
1036.891	-9.81
1037.315	-10.61
1037.738	-4.11
1038.161	-1.31
1038.584	-5.91
1039.008	-7.01
1039.431	-2.31
1039.854	-0.61
1040.277	-11.21
1040.7	-12.71
1041.123	-3.01
1041.546	-8.21
1041.969	-3.41
1042.392	-4.81
1042.815	-4.91
1043.238	4.19
1043.661	1.69
1044.084	-6.71
1044.507	-6.51
1044.93	-5.61
1045.352	-5.71
1045.775	-6.51
1046.198	-2.01
1046.621	-1.81
1047.043	0.99
1047.466	3.89
1047.889	-3.91
1048.311	-4.61
1048.734	-3.71
1049.156	-4.31
1049.579	-5.01
1050.001	-6.11
1050.424	-1.91
1050.846	-7.91
1051.269	-5.21
1051.691	-2.01
1052.113	-8.91
1052.536	-2.31
1052.958	1.59
1053.38	-4.11
1053.802	-6.71
1054.225	-7.21
1054.647	-12.51
1055.069	-6.81
1055.491	-1.41
1055.913	-4.41
1056.335	-6.21
1056.757	-2.31
1057.179	-5.61
1057.601	-2.01
1058.023	-9.61
1058.445	-9.41
1058.867	-3.71
1059.289	-7.01
1059.711	-8.61
1060.133	-4.21
1060.555	-0.21
1060.976	-5.81
1061.398	-5.11
1061.82	-5.91
1062.241	-7.71
1062.663	-9.61
1063.085	-10.11
1063.506	-0.51
1063.928	-5.11
1064.35	0.79
1064.771	-13.51
1065.193	-6.61
1065.614	-4.61
1066.035	-1.81
1066.457	-5.61
1066.878	4.09
1067.3	-7.71
1067.721	-7.41
1068.142	-5.41
1068.564	-4.11
1068.985	-8.01
1069.406	-6.81
1069.827	0.49
1070.248	-4.21
1070.67	-11.71
1071.091	-4.51
1071.512	-2.11
1071.933	-8.31
1072.354	-7.31
1072.775	-10.51
1073.196	-6.21
1073.617	-3.41
1074.038	-3.81
1074.459	-2.21
1074.88	-10.01
1075.3	-0.01
1075.721	-6.31
1076.142	-2.91
1076.563	2.39
1076.983	-9.21
1077.404	-7.31
1077.825	-12.21
1078.246	-4.01
1078.666	-10.41
1079.087	-7.81
1079.507	-8.21
1079.928	-1.51
1080.348	-3.51
1080.769	-11.31
1081.189	0.89
1081.61	-6.91
1082.03	-11.01
1082.451	-8.01
1082.871	-8.41
1083.291	-5.01
1083.711	-10.11
1084.132	-3.71
1084.552	-7.21
1084.972	-2.91
1085.392	-9.91
1085.813	-11.71
1086.233	-3.91
1086.653	-6.21
1087.073	-3.91
1087.493	-5.61
1087.913	-8.41
1088.333	-4.11
1088.753	-5.91
1089.173	3.79
1089.593	-2.81
1090.013	-0.81
1090.433	0.09
1090.852	-2.71
1091.272	-5.11
1091.692	-4.81
1092.112	-8.71
1092.531	-11.51
1092.951	-11.31
1093.371	-3.41
1093.79	1.19
1094.21	-4.41
1094.63	-1.21
1095.049	-5.61
1095.469	-4.21
1095.888	-0.81
1096.308	-4.11
1096.727	0.09
1097.146	-7.11
1097.566	-1.41
1097.985	-8.41
1098.405	-5.01
1098.824	-7.11
1099.243	-4.61
1099.662	-13.21
1100.082	-5.71
1100.501	-6.71
1100.92	-7.61
1101.339	-1.01
1101.758	-1.41
