Data from 20171114-ORNL-Ar_H_NY_Subt18_08-05-25-320.txt Node
Date: Tue Nov 14 08:05:25 EST 2017
User: Ender
Spectrometer: HR+D1039
Trigger mode: 0
Integration Time (sec): 2.730000E-2
Scans to average: 10
Electric dark correction enabled: true
Nonlinearity correction enabled: false
Boxcar width: 0
XAxis mode: Wavelengths
Number of Pixels in Spectrum: 2048
>>>>>Begin Spectral Data<<<<<
187.836	-4.68
188.309	-4.68
188.782	-4.68
189.255	2.92
189.728	-2.58
190.201	6.62
190.674	0.72
191.147	8.42
191.619	-1.18
192.092	1.72
192.565	7.02
193.038	-0.58
193.511	0.72
193.984	-4.98
194.456	-2.18
194.929	-1.78
195.402	-8.28
195.874	-1.88
196.347	1.12
196.82	-7.88
197.292	4.52
197.765	-0.28
198.237	-12.28
198.71	6.82
199.182	-3.18
199.655	1.02
200.127	2.92
200.6	-0.18
201.072	-1.08
201.544	-3.28
202.017	-0.88
202.489	2.82
202.961	-3.08
203.433	-5.78
203.906	-3.88
204.378	-6.88
204.85	-2.08
205.322	-9.38
205.794	-5.78
206.266	3.62
206.739	-4.08
207.211	2.12
207.683	-9.58
208.155	1.12
208.627	-3.58
209.099	-2.98
209.57	-5.58
210.042	-3.58
210.514	-10.28
210.986	-1.18
211.458	-4.58
211.93	-2.88
212.402	0.22
212.873	-6.38
213.345	-6.88
213.817	-14.18
214.288	-3.28
214.76	-8.58
215.232	-2.88
215.703	-1.28
216.175	-1.98
216.646	-5.08
217.118	-6.28
217.589	-6.28
218.061	-2.28
218.532	0.02
219.004	-6.08
219.475	-2.48
219.946	-4.98
220.418	-3.88
220.889	5.92
221.36	2.22
221.832	0.82
222.303	-7.18
222.774	2.22
223.245	-1.08
223.717	-2.28
224.188	-5.38
224.659	-6.78
225.13	-4.78
225.601	-5.48
226.072	0.22
226.543	1.42
227.014	-3.08
227.485	-4.18
227.956	-0.28
228.427	-1.68
228.898	-2.58
229.369	7.92
229.839	-3.48
230.31	-2.78
230.781	7.12
231.252	0.22
231.722	-5.68
232.193	-0.88
232.664	0.02
233.135	1.82
233.605	4.42
234.076	-0.48
234.546	6.42
235.017	3.72
235.487	-0.88
235.958	-1.98
236.428	-5.88
236.899	3.02
237.369	3.12
237.84	7.42
238.31	6.32
238.78	4.82
239.251	3.12
239.721	11.52
240.191	5.12
240.662	-4.98
241.132	0.02
241.602	-0.18
242.072	2.02
242.542	-0.18
243.013	0.12
243.483	8.12
243.953	3.92
244.423	-2.48
244.893	3.42
245.363	6.22
245.833	0.82
246.303	0.22
246.773	9.52
247.243	6.72
247.712	4.62
248.182	9.22
248.652	7.02
249.122	-3.58
249.592	13.12
250.061	33.72
250.531	34.12
251.001	15.82
251.471	23.42
251.94	15.62
252.41	7.22
252.879	2.92
253.349	13.62
253.818	8.92
254.288	4.22
254.757	11.52
255.227	-0.58
255.696	7.32
256.166	11.02
256.635	4.52
257.105	7.42
257.574	7.92
258.043	11.32
258.513	11.52
258.982	14.32
259.451	8.02
259.92	16.12
260.389	14.22
260.859	17.32
261.328	16.32
261.797	17.72
262.266	8.02
262.735	13.22
263.204	5.42
263.673	1.52
264.142	7.42
264.611	2.12
265.08	5.12
265.549	4.12
266.018	10.62
266.487	2.52
266.955	6.62
267.424	6.52
267.893	5.32
268.362	3.42
268.83	6.62
269.299	12.02
269.768	10.42
270.236	10.52
270.705	1.92
271.174	7.92
271.642	11.02
272.111	13.12
272.579	21.42
273.048	24.32
273.516	23.72
273.985	23.72
274.453	28.22
274.922	20.72
275.39	12.72
275.858	13.52
276.327	17.02
276.795	21.12
277.263	12.82
277.731	28.12
278.2	51.82
278.668	62.12
279.136	51.72
279.604	21.32
280.072	14.92
280.54	10.52
281.008	11.62
281.477	19.32
281.945	17.92
282.413	14.32
282.881	19.92
283.348	12.92
283.816	19.82
284.284	21.82
284.752	20.02
285.22	16.52
285.688	15.02
286.156	20.52
286.623	42.22
287.091	54.82
287.559	30.72
288.026	19.72
288.494	20.92
288.962	9.02
289.429	13.62
289.897	21.12
290.364	17.32
290.832	19.92
291.3	16.52
291.767	13.22
292.234	19.02
292.702	15.82
293.169	23.02
293.637	27.32
294.104	23.32
294.571	11.62
295.039	18.02
295.506	21.82
295.973	27.32
296.44	21.32
296.908	17.52
297.375	20.92
297.842	19.72
298.309	19.22
298.776	23.62
299.243	27.72
299.71	16.42
300.177	18.12
300.644	27.92
301.111	26.72
301.578	27.42
302.045	23.82
302.512	22.52
302.979	26.32
303.446	25.22
303.913	21.32
304.379	21.52
304.846	31.82
305.313	29.62
305.78	23.62
306.246	29.12
306.713	27.02
307.18	26.32
307.646	28.22
308.113	36.82
308.579	28.52
309.046	28.82
309.512	25.72
309.979	22.12
310.445	28.42
310.912	33.72
311.378	37.52
311.845	34.62
312.311	37.22
312.777	37.62
313.244	36.62
313.71	43.12
314.176	35.32
314.642	40.02
315.109	34.02
315.575	40.72
316.041	42.42
316.507	35.12
316.973	37.72
317.439	39.52
317.905	42.02
318.371	35.22
318.837	35.12
319.303	42.72
319.769	39.02
320.235	37.22
320.701	39.82
321.167	44.02
321.633	36.22
322.099	38.32
322.564	47.72
323.03	39.92
323.496	45.22
323.962	47.72
324.427	49.02
324.893	49.12
325.359	38.32
325.824	41.52
326.29	36.92
326.755	47.62
327.221	41.32
327.686	41.02
328.152	50.12
328.617	48.82
329.083	49.22
329.548	46.12
330.014	51.62
330.479	40.82
330.944	50.22
331.41	45.12
331.875	51.42
332.34	45.82
332.805	48.82
333.271	52.02
333.736	50.22
334.201	58.02
334.666	56.22
335.131	56.22
335.596	56.42
336.061	54.02
336.526	47.02
336.991	49.52
337.456	58.72
337.921	50.22
338.386	50.12
338.851	47.82
339.316	51.82
339.781	48.82
340.246	54.62
340.711	50.02
341.175	52.52
341.64	47.62
342.105	56.92
342.569	61.72
343.034	61.72
343.499	63.82
343.963	48.92
344.428	63.82
344.893	59.92
345.357	56.12
345.822	64.32
346.286	70.82
346.751	75.52
347.215	66.12
347.679	76.72
348.144	97.72
348.608	83.42
349.073	74.62
349.537	82.62
350.001	82.72
350.465	93.92
350.93	90.32
351.394	84.62
351.858	73.12
352.322	94.42
352.786	84.22
353.25	106.32
353.715	110.92
354.179	97.92
354.643	125.32
355.107	129.82
355.571	109.72
356.035	105.52
356.498	121.92
356.962	121.22
357.426	133.12
357.89	118.52
358.354	92.92
358.818	85.92
359.281	77.12
359.745	77.82
360.209	80.82
360.673	79.42
361.136	87.02
361.6	91.72
362.064	85.12
362.527	86.92
362.991	87.82
363.454	81.62
363.918	72.92
364.381	87.02
364.845	89.62
365.308	89.42
365.772	87.72
366.235	86.92
366.698	88.82
367.162	88.02
367.625	96.62
368.088	93.72
368.552	95.62
369.015	88.32
369.478	94.52
369.941	96.72
370.404	94.82
370.867	107.52
371.331	105.02
371.794	116.42
372.257	116.82
372.72	120.12
373.183	112.32
373.646	108.52
374.109	96.92
374.572	107.82
375.035	103.02
375.497	111.72
375.96	111.92
376.423	107.52
376.886	111.02
377.349	113.52
377.811	104.62
378.274	109.82
378.737	108.22
379.199	110.62
379.662	114.82
380.125	118.02
380.587	116.02
381.05	131.42
381.512	127.92
381.975	134.22
382.437	131.72
382.9	128.42
383.362	137.22
383.825	132.92
384.287	150.02
384.75	141.42
385.212	143.72
385.674	140.22
386.136	136.02
386.599	122.12
387.061	133.12
387.523	131.82
387.985	134.52
388.447	147.42
388.91	148.52
389.372	158.02
389.834	152.92
390.296	144.32
390.758	154.62
391.22	170.12
391.682	210.92
392.144	282.72
392.606	223.82
393.068	174.42
393.529	165.02
393.991	150.92
394.453	145.32
394.915	156.52
395.377	189.62
395.838	208.12
396.3	159.12
396.762	140.32
397.224	137.62
397.685	130.62
398.147	133.42
398.608	129.32
399.07	124.42
399.531	139.42
399.993	142.62
400.454	151.72
400.916	143.82
401.377	147.22
401.839	153.02
402.3	154.62
402.762	170.52
403.223	180.62
403.684	173.92
404.145	162.32
404.607	166.02
405.068	167.82
405.529	170.52
405.99	180.92
406.451	172.32
406.913	173.92
407.374	165.32
407.835	156.52
408.296	168.52
408.757	172.92
409.218	189.52
409.679	182.22
410.14	179.42
410.601	179.82
411.062	184.52
411.522	186.32
411.983	184.72
412.444	176.22
412.905	183.52
413.366	186.52
413.826	195.22
414.287	221.02
414.748	255.42
415.208	241.02
415.669	217.22
416.13	209.92
416.59	199.82
417.051	214.72
417.511	215.32
417.972	239.62
418.432	246.32
418.893	289.92
419.353	251.42
419.814	207.22
420.274	186.32
420.734	185.42
421.195	201.02
421.655	195.52
422.115	195.32
422.576	196.22
423.036	193.92
423.496	211.12
423.956	215.42
424.416	234.82
424.876	270.72
425.336	261.42
425.797	260.72
426.257	254.42
426.717	244.52
427.177	236.22
427.637	220.62
428.097	232.92
428.556	249.82
429.016	272.82
429.476	261.62
429.936	273.62
430.396	280.02
430.856	293.62
431.315	318.02
431.775	346.42
432.235	375.02
432.694	351.22
433.154	357.22
433.614	387.92
434.073	340.22
434.533	287.12
434.993	264.92
435.452	283.02
435.912	291.42
436.371	290.22
436.83	281.62
437.29	266.32
437.749	252.52
438.209	242.52
438.668	274.62
439.127	281.22
439.587	266.32
440.046	248.82
440.505	259.72
440.964	280.92
441.424	317.62
441.883	315.52
442.342	256.92
442.801	232.32
443.26	219.12
443.719	230.02
444.178	220.52
444.637	212.02
445.096	225.42
445.555	227.72
446.014	227.22
446.473	227.12
446.932	235.92
447.391	226.92
447.849	225.62
448.308	212.62
448.767	221.12
449.226	233.22
449.685	238.52
450.143	255.12
450.602	246.82
451.061	227.02
451.519	231.62
451.978	240.12
452.436	236.22
452.895	240.32
453.353	253.22
453.812	240.42
454.27	236.72
454.729	236.22
455.187	234.32
455.646	249.22
456.104	257.12
456.562	263.62
457.021	268.22
457.479	258.92
457.937	270.62
458.395	268.52
458.854	248.42
459.312	261.72
459.77	279.22
460.228	261.72
460.686	247.42
461.144	241.92
461.602	245.32
462.06	235.52
462.518	253.62
462.976	261.62
463.434	253.22
463.892	266.72
464.35	267.42
464.808	291.42
465.266	270.22
465.724	272.52
466.181	280.12
466.639	275.12
467.097	281.42
467.555	299.32
468.012	300.02
468.47	308.02
468.928	327.92
469.385	359.82
469.843	345.52
470.3	350.72
470.758	370.12
471.215	385.62
471.673	405.92
472.13	411.82
472.588	420.02
473.045	375.92
473.503	374.32
473.96	392.32
474.417	404.32
474.875	435.72
475.332	475.72
475.789	467.42
476.246	466.52
476.704	492.82
477.161	521.02
477.618	530.52
478.075	567.02
478.532	622.02
478.989	696.12
479.446	805.82
479.903	777.92
480.36	807.42
480.817	876.92
481.274	975.42
481.731	1070.02
482.188	1165.92
482.645	1314.02
483.102	1423.82
483.558	1548.52
484.015	1600.92
484.472	1569.12
484.929	1532.92
485.385	1482.42
485.842	1446.22
486.299	1368.02
486.755	1294.22
487.212	1094.02
487.668	927.42
488.125	847.12
488.582	783.62
489.038	760.32
489.494	725.52
489.951	695.82
490.407	672.42
490.864	651.82
491.32	646.72
491.776	648.02
492.233	656.92
492.689	610.92
493.145	608.32
493.602	607.92
494.058	616.12
494.514	628.42
494.97	642.92
495.426	653.82
495.882	628.12
496.338	621.02
496.794	626.62
497.251	633.92
497.707	652.52
498.163	649.92
498.618	653.22
499.074	653.52
499.53	687.12
499.986	682.22
500.442	659.22
500.898	634.22
501.354	630.12
501.809	642.62
502.265	652.22
502.721	654.52
503.177	669.22
503.632	670.82
504.088	690.82
504.543	722.22
504.999	712.92
505.455	664.72
505.91	645.32
506.366	644.92
506.821	634.82
507.277	634.12
507.732	619.62
508.187	633.92
508.643	639.42
509.098	631.62
509.553	662.52
510.009	665.62
510.464	678.82
510.919	705.82
511.375	701.22
511.83	720.12
512.285	738.22
512.74	767.72
513.195	792.92
513.65	792.62
514.105	774.42
514.56	782.12
515.015	800.82
515.47	813.62
515.925	800.22
516.38	802.22
516.835	812.32
517.29	792.62
517.745	785.42
518.2	773.82
518.655	759.82
519.109	748.02
519.564	749.62
520.019	746.62
520.474	729.32
520.928	732.82
521.383	728.52
521.838	721.32
522.292	719.42
522.747	717.92
523.201	709.12
523.656	700.72
524.11	709.22
524.565	706.82
525.019	703.32
525.474	708.02
525.928	702.12
526.382	700.52
526.837	701.82
527.291	710.02
527.745	706.62
528.2	707.82
528.654	695.92
529.108	695.12
529.562	698.82
530.016	691.22
530.47	685.62
530.925	697.32
531.379	708.42
531.833	709.02
532.287	699.72
532.741	712.82
533.195	709.72
533.649	726.72
534.103	722.32
534.556	719.52
535.01	722.02
535.464	720.42
535.918	728.02
536.372	721.42
536.826	725.62
537.279	715.82
537.733	721.82
538.187	726.02
538.64	714.92
539.094	739.92
539.548	740.92
540.001	738.02
540.455	727.02
540.908	735.72
541.362	751.12
541.815	752.32
542.269	766.42
542.722	765.62
543.175	778.22
543.629	781.02
544.082	785.72
544.536	792.42
544.989	788.22
545.442	792.02
545.895	786.92
546.349	785.02
546.802	789.72
547.255	807.02
547.708	804.72
548.161	816.82
548.614	829.22
549.067	834.32
549.52	826.22
549.973	815.12
550.426	801.52
550.879	797.92
551.332	802.52
551.785	801.62
552.238	810.72
552.691	824.72
553.144	831.92
553.596	844.52
554.049	862.82
554.502	893.02
554.955	920.62
555.407	908.22
555.86	912.22
556.313	888.12
556.765	876.82
557.218	875.72
557.67	886.22
558.123	885.42
558.576	878.22
559.028	878.02
559.48	881.52
559.933	881.02
560.385	837.52
560.838	807.52
561.29	791.32
561.742	775.92
562.195	759.72
562.647	771.22
563.099	779.72
563.551	773.42
564.004	777.32
564.456	766.22
564.908	772.62
565.36	741.12
565.812	739.82
566.264	729.02
566.716	719.32
567.168	726.82
567.62	721.72
568.072	710.12
568.524	700.62
568.976	686.22
569.428	668.42
569.88	668.32
570.332	669.82
570.784	674.52
571.235	679.62
571.687	695.82
572.139	699.62
572.59	718.32
573.042	715.72
573.494	713.92
573.945	713.82
574.397	695.42
574.849	695.22
575.3	685.12
575.752	681.02
576.203	680.52
576.655	683.02
577.106	679.52
577.557	665.12
578.009	669.22
578.46	666.82
578.912	662.12
579.363	665.42
579.814	663.32
580.265	664.82
580.717	664.02
581.168	673.82
581.619	674.72
582.07	670.12
582.521	661.72
582.972	669.42
583.423	675.52
583.875	672.62
584.326	695.02
584.777	742.42
585.227	802.72
585.678	886.22
586.129	981.52
586.58	1037.32
587.031	1130.52
587.482	1272.72
587.933	1447.92
588.384	1261.62
588.834	954.32
589.285	796.82
589.736	781.02
590.186	772.92
590.637	761.12
591.088	742.02
591.538	732.72
591.989	722.32
592.439	719.42
592.89	711.12
593.34	699.52
593.791	702.12
594.241	691.72
594.692	691.72
595.142	694.82
595.593	691.02
596.043	694.62
596.493	707.22
596.943	709.92
597.394	715.92
597.844	708.42
598.294	711.82
598.744	732.72
599.195	764.92
599.645	802.62
600.095	839.42
600.545	903.32
600.995	949.62
601.445	1014.02
601.895	1075.92
602.345	1121.92
602.795	1097.12
603.245	1050.32
603.695	989.82
604.145	950.92
604.594	907.12
605.044	843.52
605.494	787.02
605.944	748.12
606.393	726.82
606.843	721.32
607.293	721.72
607.743	721.22
608.192	730.22
608.642	743.12
609.091	749.62
609.541	757.22
609.99	747.12
610.44	758.32
610.889	710.22
611.339	689.32
611.788	679.12
612.238	693.32
612.687	699.12
613.136	711.02
613.586	725.22
614.035	721.32
614.484	735.82
614.933	731.82
615.383	731.62
615.832	728.92
616.281	705.02
616.73	668.72
617.179	646.82
617.628	628.42
618.077	618.02
618.526	605.62
618.975	599.72
619.424	606.52
619.873	597.82
620.322	601.52
620.771	591.82
621.22	593.12
621.669	568.02
622.118	574.62
622.567	575.02
623.015	554.02
623.464	555.82
623.913	552.72
624.361	537.52
624.81	542.22
625.259	544.32
625.707	546.32
626.156	539.72
626.604	561.92
627.053	544.72
627.501	553.82
627.95	559.12
628.398	566.82
628.847	558.92
629.295	554.52
629.744	564.22
630.192	556.82
630.64	552.32
631.089	550.32
631.537	561.92
631.985	557.02
632.433	579.82
632.881	585.62
633.33	637.92
633.778	615.62
634.226	550.62
634.674	556.52
635.122	566.82
635.57	572.42
636.018	600.52
636.466	566.22
636.914	539.32
637.362	562.52
637.81	562.42
638.258	568.02
638.705	559.32
639.153	598.02
639.601	603.22
640.049	625.22
640.497	658.52
640.944	679.72
641.392	622.22
641.84	602.82
642.287	565.02
642.735	552.72
643.182	554.22
643.63	554.82
644.078	554.42
644.525	574.42
644.973	579.82
645.42	580.92
645.867	599.82
646.315	616.42
646.762	636.82
647.21	681.72
647.657	696.52
648.104	728.92
648.551	744.52
648.999	813.72
649.446	887.42
649.893	962.32
650.34	1116.22
650.787	1325.02
651.234	1654.22
651.682	2152.92
652.129	2937.22
652.576	4219.92
653.023	6243.42
653.47	8577.82
653.917	10801.42
654.363	12535.32
654.81	13941.22
655.257	13257.52
655.704	8650.22
656.151	5141.42
656.598	3320.92
657.044	2367.22
657.491	1802.72
657.938	1460.72
658.385	1202.52
658.831	1036.82
659.278	944.52
659.724	830.32
660.171	768.82
660.618	695.32
661.064	658.82
661.511	646.22
661.957	628.92
662.404	619.62
662.85	625.52
663.296	599.92
663.743	538.32
664.189	519.72
664.635	513.42
665.082	509.92
665.528	514.02
665.974	498.52
666.42	489.72
666.867	475.52
667.313	467.12
667.759	459.52
668.205	465.82
668.651	467.02
669.097	468.52
669.543	479.02
669.989	449.42
670.435	436.32
670.881	429.72
671.327	429.12
671.773	446.12
672.219	474.12
672.665	517.72
673.11	560.62
673.556	613.72
674.002	643.82
674.448	636.52
674.893	528.42
675.339	457.42
675.785	431.82
676.23	394.92
676.676	377.92
677.122	370.82
677.567	354.62
678.013	352.02
678.458	345.32
678.904	353.62
679.349	329.22
679.794	338.12
680.24	331.22
680.685	330.92
681.131	334.82
681.576	334.12
682.021	342.72
682.466	325.62
682.912	336.52
683.357	327.22
683.802	366.62
684.247	400.72
684.692	440.02
685.137	473.22
685.583	514.82
686.028	537.02
686.473	502.62
686.918	425.82
687.363	397.22
687.807	375.52
688.252	344.42
688.697	339.42
689.142	326.02
689.587	322.42
690.032	307.42
690.477	324.92
690.921	331.62
691.366	362.32
691.811	380.32
692.255	413.12
692.7	446.92
693.145	481.02
693.589	657.32
694.034	1056.52
694.478	1451.52
694.923	1664.52
695.367	2201.32
695.812	1151.32
696.256	473.62
696.701	353.62
697.145	331.52
697.59	309.72
698.034	305.62
698.478	313.82
698.922	321.32
699.367	319.32
699.811	322.62
700.255	343.52
700.699	363.92
701.143	405.32
701.588	457.02
702.032	485.92
702.476	493.82
702.92	472.72
703.364	468.32
703.808	597.02
704.252	967.32
704.696	1377.62
705.14	1599.72
705.584	2061.12
706.027	1027.02
706.471	496.12
706.915	377.62
707.359	341.42
707.803	306.12
708.246	288.62
708.69	300.42
709.134	297.82
709.577	298.12
710.021	302.32
710.465	293.22
710.908	283.72
711.352	281.82
711.795	305.62
712.239	332.52
712.682	359.22
713.126	398.72
713.569	447.12
714.012	354.62
714.456	310.72
714.899	284.42
715.342	265.92
715.786	250.42
716.229	242.82
716.672	249.42
717.115	239.22
717.558	232.52
718.002	246.32
718.445	253.82
718.888	270.22
719.331	282.12
719.774	296.02
720.217	287.22
720.66	274.02
721.103	256.02
721.546	244.52
721.989	238.62
722.432	212.52
722.874	224.62
723.317	217.22
723.76	222.52
724.203	242.42
724.645	300.62
725.088	413.92
725.531	539.42
725.974	618.32
726.416	527.92
726.859	291.82
727.301	237.52
727.744	224.02
728.187	222.52
728.629	227.32
729.071	227.32
729.514	243.42
729.956	256.92
730.399	270.42
730.841	277.62
731.283	264.92
731.726	255.72
732.168	243.92
732.61	248.22
733.053	266.32
733.495	296.92
733.937	334.32
734.379	376.32
734.821	414.02
735.263	514.32
735.705	780.62
736.148	1472.22
736.59	2435.72
737.032	2943.12
737.474	2393.02
737.916	773.92
738.357	409.02
738.799	310.52
739.241	283.72
739.683	274.92
740.125	276.02
740.567	279.92
741.008	295.42
741.45	298.62
741.892	307.72
742.334	329.72
742.775	336.12
743.217	324.92
743.658	260.42
744.1	244.82
744.542	252.52
744.983	300.42
745.425	322.52
745.866	327.22
746.307	268.22
746.749	263.52
747.19	304.02
747.632	423.42
748.073	809.72
748.514	1728.92
748.956	2708.42
749.397	3384.42
749.838	2802.72
750.279	2843.12
750.72	1442.32
751.162	516.12
751.603	302.82
752.044	241.82
752.485	207.92
752.926	201.62
753.367	191.32
753.808	187.12
754.249	176.92
754.69	176.12
755.131	177.32
755.572	174.72
756.013	171.22
756.453	172.02
756.894	175.52
757.335	178.62
757.776	185.12
758.216	189.52
758.657	184.62
759.098	190.02
759.538	218.32
759.979	253.32
760.42	353.42
760.86	646.92
761.301	1677.22
761.741	4132.12
762.182	6167.02
762.622	4353.12
763.063	1247.72
763.503	513.12
763.943	327.52
764.384	317.12
764.824	365.72
765.264	406.62
765.705	281.82
766.145	200.82
766.585	179.12
767.025	165.82
767.465	172.52
767.906	227.82
768.346	292.02
768.786	319.72
769.226	249.52
769.666	292.92
770.106	577.22
770.546	1432.22
770.986	2523.42
771.426	2273.62
771.866	755.82
772.306	311.02
772.745	196.52
773.185	171.72
773.625	159.32
774.065	162.12
774.505	182.72
774.944	274.22
775.384	608.92
775.824	1117.42
776.263	1105.32
776.703	470.32
777.142	206.32
777.582	148.12
778.021	130.52
778.461	129.92
778.9	127.72
779.34	121.82
779.779	113.32
780.219	108.52
780.658	98.22
781.097	104.42
781.537	112.72
781.976	100.92
782.415	105.62
782.855	98.52
783.294	99.12
783.733	94.12
784.172	103.72
784.611	97.62
785.05	105.22
785.489	108.62
785.928	111.62
786.367	114.02
786.806	118.42
787.245	124.12
787.684	127.22
788.123	144.92
788.562	132.42
789.001	122.22
789.44	114.52
789.879	110.22
790.317	115.32
790.756	121.02
791.195	119.12
791.634	138.22
792.072	184.82
792.511	329.32
792.95	928.22
793.388	2013.62
793.827	1867.52
794.265	646.52
794.704	269.92
795.142	175.32
795.581	145.42
796.019	125.22
796.458	129.12
796.896	124.42
797.334	128.92
797.773	147.72
798.211	202.32
798.649	406.02
799.087	945.62
799.526	1499.22
799.964	1876.92
800.402	1948.72
800.84	716.22
801.278	289.02
801.716	179.72
802.154	146.12
802.592	135.42
803.03	135.32
803.468	127.32
803.906	133.32
804.344	142.62
804.782	137.32
805.22	126.22
805.658	118.82
806.096	136.72
806.533	149.42
806.971	163.72
807.409	201.32
807.847	301.12
808.284	607.22
808.722	1721.62
809.16	3133.72
809.597	2906.12
810.035	5097.12
810.472	5602.22
810.91	2004.02
811.347	755.92
811.785	385.72
812.222	252.72
812.66	186.02
813.097	156.02
813.535	138.72
813.972	124.42
814.409	110.72
814.846	101.42
815.284	103.02
815.721	93.72
816.158	92.82
816.595	105.62
817.032	164.22
817.47	185.82
817.907	159.12
818.344	143.62
818.781	108.62
819.218	93.42
819.655	120.42
820.092	184.52
820.529	208.72
820.966	165.52
821.403	125.52
821.839	104.62
822.276	99.32
822.713	122.92
823.15	126.72
823.587	106.72
824.023	140.22
824.46	282.02
824.897	825.22
825.333	1300.32
825.77	560.52
826.206	211.72
826.643	125.42
827.08	102.62
827.516	76.02
827.953	77.62
828.389	82.22
828.825	62.02
829.262	73.82
829.698	56.12
830.135	64.42
830.571	57.52
831.007	66.12
831.443	62.62
831.88	54.02
832.316	54.72
832.752	64.12
833.188	62.52
833.624	59.72
834.06	60.42
834.497	66.52
834.933	65.32
835.369	66.72
835.805	61.22
836.241	71.62
836.677	68.92
837.112	84.42
837.548	96.02
837.984	127.42
838.42	184.22
838.856	455.42
839.292	1397.32
839.727	2217.12
840.163	1017.42
840.599	856.92
841.034	1900.12
841.47	2057.62
841.906	739.92
842.341	311.52
842.777	215.42
843.212	289.82
843.648	290.12
844.083	141.52
844.519	83.62
844.954	72.82
845.39	57.12
845.825	58.32
846.261	48.92
846.696	53.92
847.131	55.32
847.566	56.22
848.002	48.32
848.437	52.12
848.872	54.22
849.307	54.42
849.742	84.02
850.177	163.22
850.613	511.22
851.048	839.32
851.483	370.02
851.918	152.12
852.353	79.52
852.788	61.82
853.223	47.22
853.657	52.62
854.092	42.12
854.527	41.62
854.962	42.52
855.397	40.52
855.832	49.12
856.266	40.72
856.701	35.72
857.136	33.02
857.57	40.92
858.005	46.22
858.44	54.42
858.874	40.32
859.309	56.82
859.743	38.32
860.178	46.02
860.612	41.32
861.047	47.42
861.481	64.52
861.915	70.12
862.35	47.62
862.784	28.52
863.218	31.42
863.653	33.32
864.087	51.02
864.521	48.12
864.955	65.82
865.39	148.42
865.824	163.22
866.258	108.42
866.692	152.22
867.126	172.42
867.56	100.62
867.994	53.72
868.428	39.92
868.862	43.92
869.296	59.42
869.73	63.52
870.164	50.92
870.598	48.22
871.031	45.42
871.465	25.62
871.899	26.42
872.333	16.82
872.766	21.92
873.2	22.32
873.634	26.62
874.067	24.62
874.501	27.02
874.935	39.32
875.368	32.22
875.802	22.12
876.235	23.62
876.669	15.32
877.102	19.22
877.535	28.22
877.969	25.52
878.402	26.32
878.836	17.12
879.269	27.92
879.702	24.72
880.135	18.02
880.569	25.62
881.002	27.42
881.435	17.42
881.868	17.62
882.301	17.32
882.734	15.22
883.167	20.12
883.601	15.72
884.034	20.92
884.467	10.82
884.899	20.72
885.332	19.62
885.765	16.12
886.198	11.52
886.631	15.32
887.064	17.42
887.497	21.62
887.929	28.82
888.362	11.72
888.795	15.72
889.228	18.02
889.66	16.92
890.093	18.02
890.526	23.72
890.958	18.72
891.391	19.52
891.823	23.72
892.256	16.82
892.688	14.32
893.121	8.82
893.553	15.92
893.985	15.72
894.418	20.62
894.85	12.92
895.282	12.82
895.715	14.72
896.147	21.22
896.579	16.52
897.011	6.12
897.444	19.42
897.876	12.42
898.308	15.12
898.74	17.32
899.172	15.52
899.604	22.12
900.036	22.02
900.468	19.12
900.9	12.22
901.332	20.02
901.764	11.02
902.196	19.02
902.628	19.32
903.06	14.12
903.491	26.32
903.923	28.22
904.355	24.12
904.787	19.32
905.218	15.02
905.65	16.32
906.082	15.32
906.513	15.42
906.945	17.52
907.376	11.32
907.808	22.72
908.239	14.82
908.671	19.02
909.102	23.72
909.534	20.32
909.965	50.72
910.397	85.72
910.828	292.22
911.259	457.22
911.691	204.92
912.122	94.12
912.553	47.22
912.984	32.62
913.415	20.72
913.847	26.62
914.278	20.62
914.709	16.02
915.14	18.62
915.571	14.82
916.002	13.52
916.433	19.72
916.864	20.72
917.295	9.62
917.726	15.52
918.157	15.82
918.587	24.32
919.018	25.02
919.449	17.02
919.88	23.72
920.311	27.32
920.741	42.72
921.172	156.92
921.603	144.52
922.033	64.02
922.464	39.02
922.895	20.02
923.325	22.42
923.756	13.02
924.186	14.12
924.617	28.72
925.047	36.12
925.478	46.72
925.908	36.52
926.338	26.12
926.769	17.82
927.199	22.42
927.629	12.12
928.06	11.92
928.49	15.12
928.92	9.62
929.35	12.22
929.78	5.72
930.21	9.12
930.641	7.92
931.071	16.02
931.501	1.22
931.931	12.12
932.361	6.22
932.791	-2.38
933.221	4.92
933.651	1.82
934.08	14.22
934.51	24.82
934.94	8.32
935.37	7.72
935.8	15.02
936.229	7.92
936.659	11.32
937.089	2.62
937.519	8.52
937.948	22.12
938.378	8.72
938.807	4.32
939.237	0.42
939.666	11.82
940.096	-4.88
940.525	2.42
940.955	9.02
941.384	4.12
941.814	-4.48
942.243	-3.18
942.672	4.82
943.102	-1.48
943.531	4.12
943.96	2.32
944.39	2.02
944.819	6.22
945.248	3.32
945.677	4.42
946.106	3.92
946.535	3.62
946.964	-0.18
947.393	7.42
947.822	3.02
948.251	-4.68
948.68	8.32
949.109	-0.08
949.538	3.42
949.967	-0.28
950.396	1.22
950.825	-2.18
951.254	0.32
951.682	-6.48
952.111	3.42
952.54	6.72
952.969	-4.18
953.397	-2.88
953.826	3.12
954.254	-7.68
954.683	-1.68
955.112	2.32
955.54	2.72
955.969	0.12
956.397	2.82
956.826	0.32
957.254	5.92
957.682	-1.28
958.111	6.22
958.539	5.62
958.967	-4.28
959.396	-3.08
959.824	4.12
960.252	3.92
960.68	-6.38
961.109	-2.48
961.537	-7.88
961.965	-0.28
962.393	-3.68
962.821	-6.18
963.249	0.72
963.677	4.22
964.105	3.52
964.533	45.12
964.961	42.52
965.389	23.92
965.817	13.52
966.245	2.12
966.672	-0.78
967.1	-4.58
967.528	1.42
967.956	-6.48
968.383	-2.68
968.811	-3.48
969.239	-3.68
969.666	1.12
970.094	-0.38
970.522	2.72
970.949	-0.68
971.377	-3.08
971.804	1.32
972.232	-0.38
972.659	-3.38
973.087	-2.78
973.514	3.52
973.941	-2.08
974.369	4.22
974.796	5.12
975.223	2.12
975.651	-4.78
976.078	5.82
976.505	-2.48
976.932	0.82
977.359	13.52
977.786	15.92
978.214	0.22
978.641	-6.28
979.068	-3.68
979.495	-5.48
979.922	3.42
980.349	-5.48
980.776	4.62
981.202	-3.88
981.629	3.72
982.056	3.02
982.483	-9.08
982.91	1.82
983.337	-7.78
983.763	5.32
984.19	-1.48
984.617	-1.58
985.043	-0.78
985.47	-1.58
985.897	-0.58
986.323	-6.28
986.75	1.42
987.176	-3.08
987.603	6.02
988.029	-1.78
988.456	-3.68
988.882	1.22
989.308	-9.88
989.735	-3.38
990.161	0.02
990.587	-3.68
991.014	-2.48
991.44	7.42
991.866	-0.98
992.292	-4.18
992.719	0.42
993.145	-0.68
993.571	-9.38
993.997	1.72
994.423	2.22
994.849	-6.18
995.275	-4.38
995.701	-4.58
996.127	-4.08
996.553	-5.48
996.979	-3.68
997.405	-0.38
997.83	-1.58
998.256	-4.88
998.682	-6.68
999.108	-6.18
999.534	-1.48
999.959	4.72
1000.385	-2.78
1000.811	5.52
1001.236	-5.38
1001.662	-5.78
1002.087	-6.88
1002.513	5.02
1002.938	-1.38
1003.364	0.42
1003.789	1.42
1004.215	6.92
1004.64	-5.48
1005.066	1.72
1005.491	-8.48
1005.916	0.72
1006.342	-7.18
1006.767	-8.58
1007.192	-0.18
1007.617	-4.18
1008.042	-1.88
1008.468	-9.18
1008.893	-6.58
1009.318	-7.08
1009.743	-1.68
1010.168	1.12
1010.593	3.22
1011.018	-13.38
1011.443	-8.48
1011.868	-2.48
1012.293	-3.58
1012.718	-2.68
1013.143	3.02
1013.567	3.32
1013.992	-4.68
1014.417	-11.78
1014.842	-2.48
1015.267	-1.78
1015.691	-5.18
1016.116	5.02
1016.541	-2.48
1016.965	2.22
1017.39	1.52
1017.814	3.82
1018.239	0.12
1018.663	-0.08
1019.088	-6.88
1019.512	-1.58
1019.937	-2.38
1020.361	-4.98
1020.785	-4.48
1021.21	-3.38
1021.634	-4.88
1022.058	7.62
1022.483	8.02
1022.907	-2.58
1023.331	-6.18
1023.755	0.62
1024.179	-8.18
1024.604	-8.78
1025.028	-3.08
1025.452	-3.78
1025.876	-0.58
1026.3	0.72
1026.724	-8.78
1027.148	-6.78
1027.572	-12.08
1027.996	-3.78
1028.42	-1.18
1028.843	-6.38
1029.267	-8.48
1029.691	-5.08
1030.115	-8.78
1030.539	-2.28
1030.962	-5.08
1031.386	-7.98
1031.81	-5.98
1032.233	0.02
1032.657	-2.38
1033.08	-4.38
1033.504	-5.68
1033.927	-2.98
1034.351	-1.48
1034.774	-6.68
1035.198	-1.68
1035.621	-9.88
1036.045	-5.08
1036.468	4.42
1036.891	-6.98
1037.315	-9.58
1037.738	-14.38
1038.161	-0.48
1038.584	-12.38
1039.008	-6.58
1039.431	-0.78
1039.854	-3.08
1040.277	-6.28
1040.7	-11.98
1041.123	-0.68
1041.546	-7.88
1041.969	3.82
1042.392	-6.38
1042.815	1.82
1043.238	3.22
1043.661	3.72
1044.084	-5.38
1044.507	-6.18
1044.93	-12.68
1045.352	-7.58
1045.775	1.12
1046.198	-11.88
1046.621	-3.78
1047.043	0.12
1047.466	3.32
1047.889	-2.58
1048.311	-5.98
1048.734	-3.08
1049.156	-4.18
1049.579	-10.08
1050.001	-5.28
1050.424	-3.88
1050.846	-10.98
1051.269	-5.08
1051.691	-3.88
1052.113	-5.98
1052.536	-3.08
1052.958	1.32
1053.38	0.62
1053.802	-12.08
1054.225	-2.08
1054.647	-10.38
1055.069	-2.68
1055.491	-0.78
1055.913	-8.78
1056.335	-2.28
1056.757	-7.38
1057.179	-11.98
1057.601	-6.98
1058.023	-4.88
1058.445	-6.58
1058.867	-1.18
1059.289	-2.08
1059.711	-4.78
1060.133	0.02
1060.555	-0.38
1060.976	-8.68
1061.398	-5.98
1061.82	-1.48
1062.241	-7.58
1062.663	-1.48
1063.085	-6.88
1063.506	0.52
1063.928	-6.88
1064.35	-6.08
1064.771	-14.18
1065.193	-1.68
1065.614	-11.68
1066.035	-3.78
1066.457	-3.58
1066.878	0.62
1067.3	-10.38
1067.721	-3.98
1068.142	-5.58
1068.564	-4.58
1068.985	-8.18
1069.406	-3.18
1069.827	-8.78
1070.248	1.22
1070.67	-9.68
1071.091	-2.88
1071.512	-7.98
1071.933	-6.08
1072.354	-6.28
1072.775	-2.88
1073.196	-5.98
1073.617	-3.68
1074.038	-7.88
1074.459	-2.18
1074.88	-6.28
1075.3	-1.58
1075.721	-1.58
1076.142	-2.98
1076.563	1.82
1076.983	-11.48
1077.404	-11.58
1077.825	-7.28
1078.246	-4.88
1078.666	-11.38
1079.087	-6.18
1079.507	-7.38
1079.928	-0.98
1080.348	-4.28
1080.769	-1.18
1081.189	-0.18
1081.61	-1.58
1082.03	-4.58
1082.451	-6.68
1082.871	-6.48
1083.291	-7.88
1083.711	-12.98
1084.132	-11.78
1084.552	-9.48
1084.972	-0.38
1085.392	-7.38
1085.813	-10.38
1086.233	-3.28
1086.653	-4.78
1087.073	-1.28
1087.493	-7.88
1087.913	-6.78
1088.333	-5.48
1088.753	-6.88
1089.173	-6.08
1089.593	0.82
1090.013	1.12
1090.433	-3.38
1090.852	-0.08
1091.272	-0.58
1091.692	-3.68
1092.112	-0.48
1092.531	-10.98
1092.951	-16.98
1093.371	-4.08
1093.79	-0.08
1094.21	-5.28
1094.63	-2.68
1095.049	-3.48
1095.469	2.12
1095.888	0.02
1096.308	-4.38
1096.727	2.12
1097.146	-0.78
1097.566	5.32
1097.985	-9.18
1098.405	-2.08
1098.824	-5.08
1099.243	-6.58
1099.662	-12.58
1100.082	-9.38
1100.501	-1.38
1100.92	-7.18
1101.339	-4.28
1101.758	-6.08
