Data from 20171114-ORNL-Ar_H_NY_Subt18_08-03-37-494.txt Node
Date: Tue Nov 14 08:03:37 EST 2017
User: Ender
Spectrometer: HR+D1039
Trigger mode: 0
Integration Time (sec): 2.730000E-2
Scans to average: 10
Electric dark correction enabled: true
Nonlinearity correction enabled: false
Boxcar width: 0
XAxis mode: Wavelengths
Number of Pixels in Spectrum: 2048
>>>>>Begin Spectral Data<<<<<
187.836	-3.62
188.309	-3.62
188.782	-3.62
189.255	4.07
189.728	-2.82
190.201	-1.42
190.674	0.17
191.147	1.57
191.619	-6.23
192.092	1.18
192.565	0.57
193.038	0.27
193.511	4.88
193.984	-2.62
194.456	-4.12
194.929	2.58
195.402	2.17
195.874	3.38
196.347	-0.83
196.82	-11.42
197.292	7.48
197.765	-0.42
198.237	-8.12
198.71	5.67
199.182	0.77
199.655	4.08
200.127	1.98
200.6	-1.42
201.072	-5.12
201.544	-4.42
202.017	-6.82
202.489	2.08
202.961	-4.72
203.433	-4.12
203.906	-5.32
204.378	-4.82
204.85	-1.43
205.322	-4.12
205.794	-1.83
206.266	-3.23
206.739	-4.92
207.211	7.58
207.683	-7.82
208.155	-6.83
208.627	-3.52
209.099	-3.82
209.57	-5.52
210.042	-3.23
210.514	-5.32
210.986	-5.42
211.458	-4.52
211.93	3.27
212.402	3.88
212.873	-9.42
213.345	-2.92
213.817	-6.12
214.288	2.48
214.76	-14.33
215.232	2.28
215.703	-3.72
216.175	-6.12
216.646	0.28
217.118	-6.83
217.589	-4.22
218.061	-4.83
218.532	-3.72
219.004	-0.23
219.475	-6.72
219.946	-7.23
220.418	-11.32
220.889	-0.12
221.36	-5.12
221.832	-4.23
222.303	-6.42
222.774	-4.23
223.245	-11.42
223.717	-7.73
224.188	-3.12
224.659	-3.73
225.13	-2.42
225.601	-7.02
226.072	-1.72
226.543	-1.02
227.014	3.38
227.485	-0.73
227.956	-5.92
228.427	-0.02
228.898	0.48
229.369	0.98
229.839	-5.92
230.31	-9.83
230.781	-3.23
231.252	-6.73
231.722	-4.83
232.193	-6.82
232.664	-3.02
233.135	-2.33
233.605	-6.92
234.076	-10.02
234.546	-1.12
235.017	-2.32
235.487	-1.23
235.958	-7.32
236.428	-9.32
236.899	-4.82
237.369	-4.22
237.84	-4.42
238.31	-2.42
238.78	2.38
239.251	-5.32
239.721	0.18
240.191	-2.22
240.662	-4.62
241.132	-4.42
241.602	-3.93
242.072	-2.62
242.542	3.28
243.013	-3.23
243.483	-0.62
243.953	-0.42
244.423	-0.82
244.893	-5.92
245.363	-0.73
245.833	-5.32
246.303	-3.32
246.773	1.77
247.243	-1.02
247.712	-1.83
248.182	-0.62
248.652	0.77
249.122	-9.33
249.592	-0.62
250.061	3.08
250.531	10.68
251.001	-3.62
251.471	3.98
251.94	3.38
252.41	0.28
252.879	-5.12
253.349	5.67
253.818	3.98
254.288	1.08
254.757	-2.82
255.227	-12.02
255.696	0.08
256.166	3.88
256.635	1.28
257.105	-1.22
257.574	0.98
258.043	1.28
258.513	-2.33
258.982	-3.82
259.451	-4.42
259.92	-0.52
260.389	-1.52
260.859	12.38
261.328	1.58
261.797	5.58
262.266	-5.52
262.735	2.08
263.204	1.27
263.673	-4.12
264.142	3.38
264.611	-5.02
265.08	-1.02
265.549	-6.32
266.018	-2.42
266.487	-8.33
266.955	-5.73
267.424	-4.02
267.893	-0.12
268.362	-0.92
268.83	-0.32
269.299	7.78
269.768	5.38
270.236	1.88
270.705	-6.52
271.174	1.48
271.642	1.98
272.111	-3.72
272.579	-1.33
273.048	1.57
273.516	-3.42
273.985	1.48
274.453	1.38
274.922	7.08
275.39	2.48
275.858	-2.62
276.327	2.08
276.795	9.68
277.263	6.38
277.731	7.57
278.2	1.88
278.668	3.68
279.136	6.68
279.604	-2.22
280.072	4.58
280.54	8.58
281.008	5.67
281.477	1.77
281.945	2.18
282.413	7.88
282.881	12.28
283.348	-0.62
283.816	11.58
284.284	6.77
284.752	9.98
285.22	7.78
285.688	6.57
286.156	4.78
286.623	10.27
287.091	4.88
287.559	2.77
288.026	12.98
288.494	9.58
288.962	-5.32
289.429	9.77
289.897	19.38
290.364	2.48
290.832	9.58
291.3	11.08
291.767	6.68
292.234	8.88
292.702	6.38
293.169	6.28
293.637	10.78
294.104	9.58
294.571	2.17
295.039	8.17
295.506	5.77
295.973	5.48
296.44	1.58
296.908	10.68
297.375	5.58
297.842	12.08
298.309	5.48
298.776	5.78
299.243	9.38
299.71	4.17
300.177	4.98
300.644	5.58
301.111	10.18
301.578	14.48
302.045	7.08
302.512	10.98
302.979	16.98
303.446	16.38
303.913	13.88
304.379	6.98
304.846	18.08
305.313	16.77
305.78	16.07
306.246	14.68
306.713	14.48
307.18	16.18
307.646	15.88
308.113	16.88
308.579	11.58
309.046	11.88
309.512	13.38
309.979	5.38
310.445	22.17
310.912	19.17
311.378	24.18
311.845	19.78
312.311	20.38
312.777	18.27
313.244	21.08
313.71	19.77
314.176	12.78
314.642	16.48
315.109	20.48
315.575	24.38
316.041	23.08
316.507	15.48
316.973	25.98
317.439	15.77
317.905	19.38
318.371	21.18
318.837	18.78
319.303	15.08
319.769	22.28
320.235	25.38
320.701	22.98
321.167	22.48
321.633	23.28
322.099	29.67
322.564	23.18
323.03	23.67
323.496	29.78
323.962	29.38
324.427	24.88
324.893	31.07
325.359	27.67
325.824	20.67
326.29	29.08
326.755	24.88
327.221	26.98
327.686	29.38
328.152	38.68
328.617	32.28
329.083	34.38
329.548	38.67
330.014	37.58
330.479	32.38
330.944	31.98
331.41	31.77
331.875	33.58
332.34	29.58
332.805	32.57
333.271	31.08
333.736	27.27
334.201	39.08
334.666	40.38
335.131	40.58
335.596	33.57
336.061	35.38
336.526	29.77
336.991	35.28
337.456	50.28
337.921	37.88
338.386	32.08
338.851	38.38
339.316	40.27
339.781	34.48
340.246	38.98
340.711	34.48
341.175	43.48
341.64	29.58
342.105	39.68
342.569	42.77
343.034	41.88
343.499	45.08
343.963	38.48
344.428	47.88
344.893	43.98
345.357	48.27
345.822	48.27
346.286	45.38
346.751	56.18
347.215	46.08
347.679	53.68
348.144	69.27
348.608	65.58
349.073	55.58
349.537	61.58
350.001	59.68
350.465	72.08
350.93	58.88
351.394	67.18
351.858	60.98
352.322	68.18
352.786	63.38
353.25	72.88
353.715	79.38
354.179	76.57
354.643	85.98
355.107	94.18
355.571	80.38
356.035	75.68
356.498	82.08
356.962	87.38
357.426	95.77
357.89	79.48
358.354	70.48
358.818	79.98
359.281	67.58
359.745	66.58
360.209	62.18
360.673	69.38
361.136	68.78
361.6	80.38
362.064	70.28
362.527	70.48
362.991	80.98
363.454	71.38
363.918	64.77
364.381	71.48
364.845	67.48
365.308	77.17
365.772	74.17
366.235	80.27
366.698	72.88
367.162	74.67
367.625	79.17
368.088	73.38
368.552	80.17
369.015	69.28
369.478	83.88
369.941	87.38
370.404	80.98
370.867	92.48
371.331	89.07
371.794	92.67
372.257	80.78
372.72	89.27
373.183	86.98
373.646	86.58
374.109	85.48
374.572	93.07
375.035	84.48
375.497	93.67
375.96	94.38
376.423	87.98
376.886	99.68
377.349	97.27
377.811	89.68
378.274	100.18
378.737	93.17
379.199	100.28
379.662	100.48
380.125	104.38
380.587	97.88
381.05	99.38
381.512	101.98
381.975	113.38
382.437	107.98
382.9	103.58
383.362	113.68
383.825	115.88
384.287	115.08
384.75	108.27
385.212	109.67
385.674	121.98
386.136	125.08
386.599	116.38
387.061	113.88
387.523	123.18
387.985	115.67
388.447	122.67
388.91	112.78
389.372	118.18
389.834	117.17
390.296	120.27
390.758	122.98
391.22	128.38
391.682	130.58
392.144	135.88
392.606	133.27
393.068	131.98
393.529	144.57
393.991	137.68
394.453	132.27
394.915	122.48
395.377	132.08
395.838	127.77
396.3	133.58
396.762	136.28
397.224	130.77
397.685	129.38
398.147	129.98
398.608	120.58
399.07	126.28
399.531	137.38
399.993	145.38
400.454	145.77
400.916	143.48
401.377	145.48
401.839	142.07
402.3	149.67
402.762	161.48
403.223	172.38
403.684	165.07
404.145	152.77
404.607	153.98
405.068	152.67
405.529	153.08
405.99	165.38
406.451	161.57
406.913	164.98
407.374	145.77
407.835	155.88
408.296	155.28
408.757	168.48
409.218	171.98
409.679	163.68
410.14	166.88
410.601	159.88
411.062	166.38
411.522	168.68
411.983	173.38
412.444	169.48
412.905	176.58
413.366	183.58
413.826	200.18
414.287	229.08
414.748	284.08
415.208	260.07
415.669	223.87
416.13	213.18
416.59	214.68
417.051	230.88
417.511	234.77
417.972	259.48
418.432	274.78
418.893	323.08
419.353	279.27
419.814	210.78
420.274	193.27
420.734	191.48
421.195	195.18
421.655	191.77
422.115	198.77
422.576	200.07
423.036	202.27
423.496	213.88
423.956	220.98
424.416	234.87
424.876	269.07
425.336	254.87
425.797	259.88
426.257	254.57
426.717	234.38
427.177	213.67
427.637	199.68
428.097	206.57
428.556	214.58
429.016	231.47
429.476	224.07
429.936	226.48
430.396	223.17
430.856	237.68
431.315	252.18
431.775	275.77
432.235	301.38
432.694	284.27
433.154	290.08
433.614	302.37
434.073	270.57
434.533	231.27
434.993	225.28
435.452	228.67
435.912	242.57
436.371	235.58
436.83	245.98
437.29	230.57
437.749	223.98
438.209	228.08
438.668	246.17
439.127	255.28
439.587	242.88
440.046	232.08
440.505	239.58
440.964	244.27
441.424	276.38
441.883	269.77
442.342	247.08
442.801	224.58
443.26	233.28
443.719	222.38
444.178	228.78
444.637	218.77
445.096	224.27
445.555	230.78
446.014	233.48
446.473	236.17
446.932	236.77
447.391	235.38
447.849	238.98
448.308	224.58
448.767	226.38
449.226	239.07
449.685	242.58
450.143	259.58
450.602	253.57
451.061	231.78
451.519	230.88
451.978	235.78
452.436	234.98
452.895	235.68
453.353	239.27
453.812	239.88
454.27	240.67
454.729	238.48
455.187	231.17
455.646	246.48
456.104	237.48
456.562	250.77
457.021	256.67
457.479	250.47
457.937	256.48
458.395	264.57
458.854	254.88
459.312	258.28
459.77	259.17
460.228	247.68
460.686	238.17
461.144	257.78
461.602	252.48
462.06	251.77
462.518	252.98
462.976	254.87
463.434	258.78
463.892	260.48
464.35	269.57
464.808	278.17
465.266	262.58
465.724	268.98
466.181	269.48
466.639	262.88
467.097	289.88
467.555	286.17
468.012	288.67
468.47	296.28
468.928	309.07
469.385	313.98
469.843	318.38
470.3	325.18
470.758	333.28
471.215	340.78
471.673	363.67
472.13	363.07
472.588	380.08
473.045	345.38
473.503	352.48
473.96	365.67
474.417	359.88
474.875	385.98
475.332	407.38
475.789	397.48
476.246	396.48
476.704	409.68
477.161	419.38
477.618	412.28
478.075	436.68
478.532	466.28
478.989	490.48
479.446	539.58
479.903	503.48
480.36	504.28
480.817	494.48
481.274	518.78
481.731	548.07
482.188	553.48
482.645	587.67
483.102	617.08
483.558	656.88
484.015	656.47
484.472	663.88
484.929	647.88
485.385	646.87
485.842	655.48
486.299	656.37
486.755	680.87
487.212	614.07
487.668	554.37
488.125	555.88
488.582	532.98
489.038	530.28
489.494	517.27
489.951	519.88
490.407	517.68
490.864	521.48
491.32	531.58
491.776	526.78
492.233	535.07
492.689	518.48
493.145	527.88
493.602	526.58
494.058	532.47
494.514	526.98
494.97	549.58
495.426	548.38
495.882	525.48
496.338	521.38
496.794	541.28
497.251	536.28
497.707	549.27
498.163	549.47
498.618	543.77
499.074	555.58
499.53	576.68
499.986	571.37
500.442	564.27
500.898	551.77
501.354	545.98
501.809	556.68
502.265	550.08
502.721	566.68
503.177	566.27
503.632	568.17
504.088	568.18
504.543	582.27
504.999	596.08
505.455	574.87
505.91	557.38
506.366	567.28
506.821	571.57
507.277	565.87
507.732	562.98
508.187	565.28
508.643	565.88
509.098	572.38
509.553	589.98
510.009	586.77
510.464	597.28
510.919	603.17
511.375	611.77
511.83	614.87
512.285	630.37
512.74	647.88
513.195	672.28
513.65	648.77
514.105	664.37
514.56	657.57
515.015	677.08
515.47	682.67
515.925	671.27
516.38	675.47
516.835	681.08
517.29	681.98
517.745	679.48
518.2	666.18
518.655	653.57
519.109	634.77
519.564	638.27
520.019	629.67
520.474	627.58
520.928	629.68
521.383	624.87
521.838	613.17
522.292	614.98
522.747	606.78
523.201	615.07
523.656	603.78
524.11	601.38
524.565	605.28
525.019	593.68
525.474	598.58
525.928	591.48
526.382	591.17
526.837	588.98
527.291	590.28
527.745	591.57
528.2	589.27
528.654	574.67
529.108	579.28
529.562	579.67
530.016	577.98
530.47	577.08
530.925	586.58
531.379	576.78
531.833	585.18
532.287	577.98
532.741	578.08
533.195	571.38
533.649	575.17
534.103	593.17
534.556	570.37
535.01	579.07
535.464	572.17
535.918	584.27
536.372	578.07
536.826	583.88
537.279	580.88
537.733	577.08
538.187	581.47
538.64	579.77
539.094	578.88
539.548	589.57
540.001	587.07
540.455	579.18
540.908	592.88
541.362	596.88
541.815	609.48
542.269	610.98
542.722	629.88
543.175	624.97
543.629	632.07
544.082	640.08
544.536	639.28
544.989	640.18
545.442	642.78
545.895	635.27
546.349	642.18
546.802	643.37
547.255	651.17
547.708	648.98
548.161	655.57
548.614	662.77
549.067	665.67
549.52	664.08
549.973	657.47
550.426	647.27
550.879	632.47
551.332	641.77
551.785	653.88
552.238	639.17
552.691	647.38
553.144	660.77
553.596	673.58
554.049	672.78
554.502	697.17
554.955	710.68
555.407	721.88
555.86	700.28
556.313	703.17
556.765	686.48
557.218	684.77
557.67	691.77
558.123	682.87
558.576	678.97
559.028	680.68
559.48	686.07
559.933	694.28
560.385	653.27
560.838	633.37
561.29	613.47
561.742	618.27
562.195	604.67
562.647	589.77
563.099	610.37
563.551	603.28
564.004	605.18
564.456	595.38
564.908	575.98
565.36	576.17
565.812	557.68
566.264	556.48
566.716	542.58
567.168	542.87
567.62	541.18
568.072	533.28
568.524	524.27
568.976	535.37
569.428	518.48
569.88	511.58
570.332	514.88
570.784	522.87
571.235	512.27
571.687	524.48
572.139	529.77
572.59	539.37
573.042	529.18
573.494	529.18
573.945	532.87
574.397	504.28
574.849	513.38
575.3	509.78
575.752	506.78
576.203	500.87
576.655	508.07
577.106	491.38
577.557	482.18
578.009	495.18
578.46	487.77
578.912	492.88
579.363	487.48
579.814	489.07
580.265	474.27
580.717	489.88
581.168	488.28
581.619	483.27
582.07	492.48
582.521	477.27
582.972	488.88
583.423	494.07
583.875	488.67
584.326	496.98
584.777	505.48
585.227	523.28
585.678	535.28
586.129	531.77
586.58	552.18
587.031	567.78
587.482	590.07
587.933	607.48
588.384	592.68
588.834	571.48
589.285	571.77
589.736	566.78
590.186	564.68
590.637	550.67
591.088	544.98
591.538	532.48
591.989	528.38
592.439	523.57
592.89	514.37
593.34	506.17
593.791	495.57
594.241	499.98
594.692	493.58
595.142	490.38
595.593	493.58
596.043	502.38
596.493	496.28
596.943	495.48
597.394	503.38
597.844	504.88
598.294	525.58
598.744	537.58
599.195	561.78
599.645	588.08
600.095	611.27
600.545	648.38
600.995	686.57
601.445	718.87
601.895	763.08
602.345	802.08
602.795	795.58
603.245	760.98
603.695	725.77
604.145	682.17
604.594	655.18
605.044	607.78
605.494	560.98
605.944	527.38
606.393	520.38
606.843	506.28
607.293	510.58
607.743	504.58
608.192	501.37
608.642	516.88
609.091	513.48
609.541	527.88
609.99	521.18
610.44	517.48
610.889	491.48
611.339	479.37
611.788	465.48
612.238	476.27
612.687	490.68
613.136	477.17
613.586	485.57
614.035	481.08
614.484	480.38
614.933	487.28
615.383	481.67
615.832	486.27
616.281	470.48
616.73	464.38
617.179	452.68
617.628	441.57
618.077	434.28
618.526	419.18
618.975	418.77
619.424	421.68
619.873	415.77
620.322	415.67
620.771	404.38
621.22	404.57
621.669	398.08
622.118	394.77
622.567	387.27
623.015	376.47
623.464	372.58
623.913	375.88
624.361	366.18
624.81	362.08
625.259	376.18
625.707	377.08
626.156	369.28
626.604	374.87
627.053	373.77
627.501	368.87
627.95	375.58
628.398	377.77
628.847	371.08
629.295	374.98
629.744	372.98
630.192	369.68
630.64	373.07
631.089	356.07
631.537	360.17
631.985	337.17
632.433	342.67
632.881	332.77
633.33	342.18
633.778	334.78
634.226	331.68
634.674	343.68
635.122	337.68
635.57	351.68
636.018	354.78
636.466	359.48
636.914	355.08
637.362	359.77
637.81	365.98
638.258	365.58
638.705	362.78
639.153	386.67
639.601	382.47
640.049	402.98
640.497	426.98
640.944	438.38
641.392	399.78
641.84	382.18
642.287	358.88
642.735	344.48
643.182	340.38
643.63	328.78
644.078	326.98
644.525	335.77
644.973	323.38
645.42	330.07
645.867	341.58
646.315	344.08
646.762	337.58
647.21	353.48
647.657	342.37
648.104	347.17
648.551	346.58
648.999	355.58
649.446	356.67
649.893	355.88
650.34	371.27
650.787	394.08
651.234	438.78
651.682	481.17
652.129	567.58
652.576	695.28
653.023	919.98
653.47	1162.08
653.917	1403.27
654.363	1615.38
654.81	1787.07
655.257	1712.97
655.704	1226.17
656.151	819.77
656.598	612.78
657.044	505.18
657.491	441.17
657.938	397.68
658.385	381.27
658.831	368.88
659.278	358.88
659.724	321.68
660.171	328.87
660.618	308.08
661.064	305.88
661.511	303.38
661.957	305.88
662.404	311.38
662.85	323.27
663.296	312.78
663.743	300.48
664.189	295.98
664.635	295.78
665.082	296.67
665.528	295.57
665.974	291.17
666.42	288.48
666.867	292.08
667.313	274.78
667.759	268.77
668.205	267.88
668.651	266.77
669.097	268.37
669.543	260.57
669.989	270.38
670.435	266.27
670.881	270.88
671.327	272.58
671.773	281.77
672.219	297.27
672.665	337.38
673.11	357.07
673.556	395.47
674.002	424.17
674.448	425.57
674.893	354.38
675.339	301.38
675.785	283.38
676.23	258.18
676.676	241.98
677.122	236.77
677.567	231.58
678.013	236.67
678.458	224.08
678.904	221.68
679.349	215.88
679.794	216.17
680.24	223.18
680.685	212.38
681.131	213.58
681.576	219.77
682.021	216.28
682.466	220.07
682.912	214.37
683.357	213.17
683.802	232.88
684.247	251.48
684.692	281.07
685.137	308.08
685.583	346.17
686.028	364.68
686.473	339.98
686.918	284.77
687.363	265.38
687.807	251.68
688.252	234.18
688.697	223.77
689.142	213.88
689.587	210.57
690.032	200.57
690.477	217.07
690.921	217.88
691.366	239.08
691.811	246.68
692.255	279.08
692.7	297.17
693.145	319.58
693.589	431.18
694.034	714.08
694.478	995.08
694.923	1180.68
695.367	1568.97
695.812	822.77
696.256	326.37
696.701	230.77
697.145	217.48
697.59	209.48
698.034	200.27
698.478	210.98
698.922	200.98
699.367	197.38
699.811	211.28
700.255	216.27
700.699	239.88
701.143	262.98
701.588	299.18
702.032	336.08
702.476	331.88
702.92	314.77
703.364	310.87
703.808	395.98
704.252	650.17
704.696	945.08
705.14	1142.97
705.584	1478.88
706.027	725.27
706.471	342.98
706.915	251.88
707.359	223.08
707.803	201.98
708.246	194.77
708.69	202.18
709.134	206.47
709.577	195.48
710.021	197.57
710.465	190.68
710.908	188.58
711.352	182.98
711.795	194.87
712.239	218.58
712.682	240.27
713.126	260.57
713.569	292.38
714.012	229.78
714.456	198.18
714.899	180.48
715.342	172.68
715.786	158.98
716.229	169.88
716.672	155.38
717.115	151.68
717.558	160.68
718.002	159.38
718.445	162.58
718.888	175.08
719.331	182.18
719.774	190.67
720.217	194.28
720.66	181.08
721.103	172.58
721.546	158.98
721.989	155.07
722.432	141.08
722.874	149.27
723.317	137.58
723.76	146.48
724.203	157.07
724.645	198.28
725.088	269.68
725.531	364.48
725.974	428.87
726.416	367.07
726.859	198.57
727.301	149.38
727.744	148.48
728.187	145.98
728.629	147.48
729.071	152.38
729.514	150.77
729.956	165.58
730.399	173.48
730.841	184.27
731.283	162.58
731.726	163.38
732.168	160.67
732.61	167.98
733.053	174.58
733.495	198.88
733.937	216.18
734.379	242.27
734.821	273.58
735.263	340.07
735.705	513.17
736.148	989.47
736.59	1671.58
737.032	2117.47
737.474	1741.58
737.916	534.88
738.357	281.17
738.799	210.58
739.241	192.78
739.683	177.57
740.125	186.48
740.567	191.28
741.008	211.48
741.45	207.17
741.892	211.48
742.334	224.27
742.775	247.18
743.217	243.77
743.658	180.77
744.1	162.48
744.542	169.78
744.983	214.58
745.425	249.77
745.866	247.28
746.307	186.08
746.749	170.58
747.19	205.38
747.632	277.27
748.073	542.18
748.514	1163.58
748.956	1878.28
749.397	2359.38
749.838	1980.77
750.279	2061.57
750.72	1041.17
751.162	371.28
751.603	206.27
752.044	161.27
752.485	129.38
752.926	130.77
753.367	129.98
753.808	119.27
754.249	122.48
754.69	114.38
755.131	116.58
755.572	111.08
756.013	107.58
756.453	114.18
756.894	119.08
757.335	116.98
757.776	124.38
758.216	116.77
758.657	123.68
759.098	125.58
759.538	135.88
759.979	168.27
760.42	235.58
760.86	437.88
761.301	1124.57
761.741	2807.18
762.182	4503.58
762.622	3208.47
763.063	907.07
763.503	360.88
763.943	216.38
764.384	183.88
764.824	147.28
765.264	137.17
765.705	128.27
766.145	112.98
766.585	112.27
767.025	100.27
767.465	100.17
767.906	110.58
768.346	122.68
768.786	120.77
769.226	134.58
769.666	188.77
770.106	371.27
770.546	964.68
770.986	1796.98
771.426	1663.98
771.866	540.18
772.306	211.28
772.745	131.08
773.185	98.38
773.625	104.68
774.065	94.27
774.505	100.67
774.944	131.58
775.384	239.88
775.824	436.27
776.263	450.08
776.703	198.68
777.142	106.98
777.582	82.77
778.021	72.18
778.461	71.68
778.9	74.98
779.34	83.08
779.779	64.98
780.219	65.18
780.658	66.58
781.097	59.88
781.537	75.48
781.976	65.17
782.415	65.77
782.855	62.18
783.294	59.78
783.733	57.98
784.172	63.88
784.611	60.38
785.05	60.48
785.489	63.68
785.928	73.68
786.367	76.38
786.806	71.27
787.245	74.17
787.684	74.98
788.123	89.58
788.562	82.88
789.001	83.08
789.44	74.08
789.879	71.48
790.317	68.38
790.756	76.68
791.195	80.48
791.634	90.48
792.072	121.58
792.511	220.88
792.95	610.48
793.388	1408.07
793.827	1362.07
794.265	457.97
794.704	182.68
795.142	121.18
795.581	100.17
796.019	87.48
796.458	74.38
796.896	77.98
797.334	79.77
797.773	91.68
798.211	133.48
798.649	268.57
799.087	659.48
799.526	1051.18
799.964	1317.88
800.402	1416.88
800.84	523.18
801.278	197.78
801.716	118.58
802.154	101.57
802.592	96.28
803.03	84.18
803.468	80.88
803.906	90.78
804.344	95.08
804.782	89.98
805.22	81.57
805.658	78.98
806.096	93.68
806.533	96.48
806.971	106.27
807.409	136.98
807.847	197.68
808.284	414.57
808.722	1191.98
809.16	2254.57
809.597	2066.38
810.035	3622.38
810.472	4144.18
810.91	1500.57
811.347	546.18
811.785	280.08
812.222	166.38
812.66	131.48
813.097	105.67
813.535	93.48
813.972	89.38
814.409	77.48
814.846	65.68
815.284	72.77
815.721	62.48
816.158	69.58
816.595	68.28
817.032	107.07
817.47	133.17
817.907	99.28
818.344	62.88
818.781	60.88
819.218	66.88
819.655	91.38
820.092	136.17
820.529	164.07
820.966	120.78
821.403	91.38
821.839	60.38
822.276	60.38
822.713	82.07
823.15	93.78
823.587	75.58
824.023	92.58
824.46	187.08
824.897	571.98
825.333	940.27
825.77	409.18
826.206	155.38
826.643	91.98
827.08	69.98
827.516	55.88
827.953	39.08
828.389	53.07
828.825	42.48
829.262	44.08
829.698	34.27
830.135	40.88
830.571	36.77
831.007	41.38
831.443	39.68
831.88	38.88
832.316	37.77
832.752	35.08
833.188	37.38
833.624	39.08
834.06	38.28
834.497	41.67
834.933	49.68
835.369	43.48
835.805	35.77
836.241	51.17
836.677	51.98
837.112	52.17
837.548	57.88
837.984	85.27
838.42	129.88
838.856	311.47
839.292	977.68
839.727	1608.48
840.163	750.68
840.599	600.38
841.034	1342.07
841.47	1511.97
841.906	542.27
842.341	212.58
842.777	127.98
843.212	145.58
843.648	146.27
844.083	74.88
844.519	51.08
844.954	47.78
845.39	35.58
845.825	38.77
846.261	34.38
846.696	35.98
847.131	29.98
847.566	41.48
848.002	30.48
848.437	27.18
848.872	37.78
849.307	31.18
849.742	50.28
850.177	110.48
850.613	351.88
851.048	616.68
851.483	259.68
851.918	106.17
852.353	56.48
852.788	26.27
853.223	25.88
853.657	30.27
854.092	31.18
854.527	27.27
854.962	18.38
855.397	29.58
855.832	32.77
856.266	24.68
856.701	27.38
857.136	23.48
857.57	21.68
858.005	25.88
858.44	45.08
858.874	24.18
859.309	37.68
859.743	19.27
860.178	29.98
860.612	24.17
861.047	34.88
861.481	38.98
861.915	54.88
862.35	33.88
862.784	19.17
863.218	21.98
863.653	22.27
864.087	31.88
864.521	35.88
864.955	36.78
865.39	99.48
865.824	120.38
866.258	76.58
866.692	131.08
867.126	143.77
867.56	86.38
867.994	39.07
868.428	26.77
868.862	30.48
869.296	38.68
869.73	37.98
870.164	39.88
870.598	34.38
871.031	29.27
871.465	19.08
871.899	16.78
872.333	11.98
872.766	19.28
873.2	13.77
873.634	18.98
874.067	18.58
874.501	15.38
874.935	22.67
875.368	19.77
875.802	13.48
876.235	7.88
876.669	9.38
877.102	9.68
877.535	14.78
877.969	10.48
878.402	16.77
878.836	7.68
879.269	12.28
879.702	8.08
880.135	10.98
880.569	13.67
881.002	16.08
881.435	11.38
881.868	4.58
882.301	6.98
882.734	14.48
883.167	15.98
883.601	12.58
884.034	13.27
884.467	-1.42
884.899	16.38
885.332	12.68
885.765	8.18
886.198	0.67
886.631	4.67
887.064	14.68
887.497	13.08
887.929	18.38
888.362	1.08
888.795	2.88
889.228	11.48
889.66	14.58
890.093	8.07
890.526	6.38
890.958	10.98
891.391	13.38
891.823	3.98
892.256	8.08
892.688	8.17
893.121	10.18
893.553	11.48
893.985	9.38
894.418	18.57
894.85	10.28
895.282	11.88
895.715	8.88
896.147	10.68
896.579	7.08
897.011	8.28
897.444	13.78
897.876	-0.12
898.308	6.67
898.74	5.98
899.172	3.18
899.604	16.78
900.036	10.67
900.468	15.48
900.9	17.17
901.332	7.48
901.764	4.98
902.196	9.58
902.628	10.48
903.06	9.67
903.491	18.58
903.923	20.58
904.355	11.18
904.787	15.58
905.218	16.48
905.65	14.08
906.082	4.88
906.513	-0.12
906.945	2.48
907.376	5.98
907.808	15.98
908.239	14.58
908.671	7.38
909.102	10.28
909.534	15.68
909.965	29.28
910.397	59.57
910.828	211.78
911.259	333.38
911.691	153.58
912.122	68.58
912.553	30.58
912.984	22.78
913.415	14.18
913.847	14.98
914.278	6.77
914.709	6.58
915.14	7.58
915.571	12.68
916.002	3.58
916.433	12.58
916.864	10.38
917.295	2.38
917.726	14.88
918.157	8.98
918.587	20.98
919.018	14.58
919.449	13.28
919.88	17.38
920.311	23.38
920.741	31.07
921.172	104.28
921.603	101.48
922.033	52.17
922.464	29.28
922.895	15.27
923.325	7.68
923.756	10.98
924.186	1.58
924.617	9.68
925.047	12.98
925.478	15.58
925.908	14.08
926.338	2.58
926.769	8.88
927.199	16.18
927.629	2.58
928.06	2.77
928.49	8.58
928.92	11.38
929.35	12.78
929.78	8.38
930.21	3.88
930.641	5.68
931.071	8.27
931.501	0.18
931.931	8.08
932.361	4.88
932.791	1.48
933.221	5.08
933.651	4.18
934.08	6.98
934.51	19.58
934.94	7.48
935.37	0.38
935.8	9.77
936.229	1.38
936.659	10.48
937.089	-3.12
937.519	13.88
937.948	23.27
938.378	10.98
938.807	5.98
939.237	-5.82
939.666	2.48
940.096	-5.12
940.525	-3.52
940.955	3.78
941.384	3.88
941.814	-0.73
942.243	0.08
942.672	2.08
943.102	-3.92
943.531	-1.22
943.96	0.18
944.39	2.27
944.819	0.48
945.248	-0.62
945.677	1.27
946.106	4.58
946.535	4.38
946.964	-4.12
947.393	2.77
947.822	0.18
948.251	-5.93
948.68	3.68
949.109	2.38
949.538	1.58
949.967	4.38
950.396	-1.83
950.825	-0.62
951.254	0.58
951.682	-2.42
952.111	6.68
952.54	-2.72
952.969	0.08
953.397	-5.02
953.826	-0.73
954.254	-4.73
954.683	1.88
955.112	-5.22
955.54	-0.82
955.969	-1.72
956.397	-0.92
956.826	-4.92
957.254	1.38
957.682	1.27
958.111	5.27
958.539	-0.62
958.967	2.08
959.396	1.48
959.824	1.48
960.252	-3.62
960.68	-4.02
961.109	-3.02
961.537	-1.72
961.965	0.27
962.393	-0.32
962.821	-2.12
963.249	0.27
963.677	4.48
964.105	0.88
964.533	22.48
964.961	29.27
965.389	12.48
965.817	5.88
966.245	2.17
966.672	-0.12
967.1	-6.82
967.528	-0.83
967.956	1.38
968.383	-2.62
968.811	-6.72
969.239	-5.43
969.666	-5.32
970.094	-2.62
970.522	-1.12
970.949	-4.93
971.377	-4.12
971.804	-0.92
972.232	-6.62
972.659	-2.52
973.087	-4.83
973.514	-5.83
973.941	-6.92
974.369	1.58
974.796	-2.02
975.223	0.17
975.651	2.38
976.078	1.08
976.505	-4.52
976.932	6.77
977.359	6.08
977.786	8.18
978.214	-3.12
978.641	-8.33
979.068	-8.52
979.495	-6.52
979.922	-4.52
980.349	-5.42
980.776	4.48
981.202	-3.62
981.629	4.68
982.056	2.17
982.483	-3.52
982.91	0.38
983.337	-3.12
983.763	3.67
984.19	-8.12
984.617	-4.82
985.043	-1.42
985.47	-3.52
985.897	-5.52
986.323	-7.83
986.75	2.88
987.176	1.17
987.603	4.48
988.029	3.77
988.456	0.88
988.882	5.68
989.308	-6.52
989.735	3.27
990.161	2.88
990.587	-6.02
991.014	0.18
991.44	6.38
991.866	-0.72
992.292	-5.42
992.719	-0.52
993.145	1.68
993.571	-11.52
993.997	-6.82
994.423	-4.62
994.849	-3.23
995.275	1.58
995.701	-6.23
996.127	-4.43
996.553	-5.32
996.979	-0.42
997.405	-5.42
997.83	-5.83
998.256	-5.62
998.682	-1.52
999.108	-0.43
999.534	4.07
999.959	3.98
1000.385	-9.32
1000.811	2.67
1001.236	-11.73
1001.662	-5.73
1002.087	-7.62
1002.513	-1.73
1002.938	-0.52
1003.364	1.38
1003.789	-2.82
1004.215	0.58
1004.64	3.77
1005.066	9.48
1005.491	-1.22
1005.916	-2.23
1006.342	-1.02
1006.767	-10.32
1007.192	1.18
1007.617	-7.42
1008.042	-4.62
1008.468	0.67
1008.893	-2.82
1009.318	-4.73
1009.743	-0.12
1010.168	6.98
1010.593	5.98
1011.018	-5.82
1011.443	-7.52
1011.868	3.28
1012.293	-2.82
1012.718	-7.72
1013.143	-0.73
1013.567	-2.32
1013.992	1.58
1014.417	-12.02
1014.842	3.77
1015.267	-3.33
1015.691	-5.12
1016.116	3.77
1016.541	0.48
1016.965	-1.62
1017.39	2.08
1017.814	5.98
1018.239	3.17
1018.663	0.67
1019.088	-8.52
1019.512	2.67
1019.937	3.58
1020.361	-6.62
1020.785	-7.73
1021.21	-3.62
1021.634	1.68
1022.058	-2.23
1022.483	1.68
1022.907	-1.62
1023.331	-8.02
1023.755	-1.02
1024.179	0.98
1024.604	-5.62
1025.028	-4.62
1025.452	-3.42
1025.876	0.88
1026.3	0.88
1026.724	-6.92
1027.148	-5.42
1027.572	-10.92
1027.996	0.38
1028.42	1.98
1028.843	-2.43
1029.267	-4.02
1029.691	-2.73
1030.115	-9.02
1030.539	-4.33
1030.962	-10.92
1031.386	-13.22
1031.81	1.28
1032.233	-0.42
1032.657	-3.62
1033.08	-3.02
1033.504	-0.83
1033.927	-2.82
1034.351	-3.02
1034.774	-4.62
1035.198	2.98
1035.621	-7.02
1036.045	-5.52
1036.468	3.17
1036.891	-12.42
1037.315	-16.12
1037.738	-11.32
1038.161	-1.62
1038.584	-3.52
1039.008	-1.62
1039.431	-2.73
1039.854	2.88
1040.277	-9.12
1040.7	-12.32
1041.123	0.77
1041.546	-9.82
1041.969	1.88
1042.392	-3.23
1042.815	-4.73
1043.238	-1.83
1043.661	9.58
1044.084	-2.02
1044.507	-5.82
1044.93	-6.23
1045.352	-7.42
1045.775	2.88
1046.198	-0.32
1046.621	-3.32
1047.043	0.68
1047.466	6.88
1047.889	-9.42
1048.311	-2.32
1048.734	-6.32
1049.156	3.88
1049.579	-1.43
1050.001	-2.52
1050.424	4.67
1050.846	-4.73
1051.269	-5.02
1051.691	-6.02
1052.113	-5.12
1052.536	0.68
1052.958	-1.23
1053.38	-0.92
1053.802	-10.73
1054.225	2.48
1054.647	-10.23
1055.069	-3.93
1055.491	-2.32
1055.913	-10.23
1056.335	2.58
1056.757	-7.92
1057.179	-6.73
1057.601	-3.02
1058.023	-2.62
1058.445	-2.02
1058.867	2.77
1059.289	0.07
1059.711	-3.02
1060.133	-5.02
1060.555	-8.62
1060.976	-5.02
1061.398	-3.42
1061.82	-4.23
1062.241	-7.23
1062.663	-2.02
1063.085	-1.92
1063.506	-2.42
1063.928	-4.62
1064.35	3.98
1064.771	-8.02
1065.193	-4.33
1065.614	-6.82
1066.035	-3.62
1066.457	-1.52
1066.878	4.08
1067.3	2.77
1067.721	-2.73
1068.142	-0.73
1068.564	-8.12
1068.985	-2.92
1069.406	-3.32
1069.827	-4.73
1070.248	-2.82
1070.67	-8.62
1071.091	-5.02
1071.512	-3.52
1071.933	-5.73
1072.354	-4.62
1072.775	-2.12
1073.196	-11.62
1073.617	-2.62
1074.038	-2.32
1074.459	-7.02
1074.88	-12.72
1075.3	-2.92
1075.721	-2.02
1076.142	-0.42
1076.563	-0.02
1076.983	-4.52
1077.404	-2.32
1077.825	-10.22
1078.246	-6.02
1078.666	-10.93
1079.087	1.38
1079.507	-5.62
1079.928	-0.73
1080.348	-1.92
1080.769	-4.33
1081.189	0.48
1081.61	-6.52
1082.03	-4.92
1082.451	-1.32
1082.871	-0.32
1083.291	-6.62
1083.711	-7.12
1084.132	-1.02
1084.552	-8.02
1084.972	-0.42
1085.392	-11.23
1085.813	-11.42
1086.233	-7.42
1086.653	-6.82
1087.073	-1.22
1087.493	-4.42
1087.913	-8.83
1088.333	-7.02
1088.753	-1.12
1089.173	2.67
1089.593	1.68
1090.013	-0.62
1090.433	3.48
1090.852	1.48
1091.272	-0.33
1091.692	0.38
1092.112	0.68
1092.531	-6.73
1092.951	-16.82
1093.371	-2.23
1093.79	-0.32
1094.21	-6.22
1094.63	-3.42
1095.049	0.38
1095.469	4.98
1095.888	0.17
1096.308	5.98
1096.727	3.68
1097.146	-3.12
1097.566	-0.12
1097.985	-1.12
1098.405	-1.32
1098.824	-12.12
1099.243	-6.42
1099.662	-10.62
1100.082	-3.92
1100.501	3.98
1100.92	-4.83
1101.339	-6.23
1101.758	-4.82
