Data from 20171114-ORNL-Ar_H_NY_Subt18_08-03-42-954.txt Node
Date: Tue Nov 14 08:03:42 EST 2017
User: Ender
Spectrometer: HR+D1039
Trigger mode: 0
Integration Time (sec): 2.730000E-2
Scans to average: 10
Electric dark correction enabled: true
Nonlinearity correction enabled: false
Boxcar width: 0
XAxis mode: Wavelengths
Number of Pixels in Spectrum: 2048
>>>>>Begin Spectral Data<<<<<
187.836	-3.44
188.309	-3.44
188.782	-3.44
189.255	1.86
189.728	-6.14
190.201	6.36
190.674	1.26
191.147	2.16
191.619	-5.04
192.092	0.96
192.565	6.46
193.038	-6.64
193.511	0.46
193.984	-2.34
194.456	-0.74
194.929	4.66
195.402	-1.54
195.874	1.66
196.347	-2.64
196.82	-5.44
197.292	6.96
197.765	2.86
198.237	-7.24
198.71	3.46
199.182	-2.64
199.655	4.26
200.127	3.96
200.6	4.36
201.072	-4.04
201.544	-10.34
202.017	-2.24
202.489	11.16
202.961	2.46
203.433	-2.04
203.906	-3.24
204.378	-9.64
204.85	-1.54
205.322	-8.64
205.794	-6.24
206.266	-6.34
206.739	-8.04
207.211	-1.84
207.683	-9.84
208.155	-3.74
208.627	-8.14
209.099	-6.54
209.57	-10.04
210.042	-5.54
210.514	-3.94
210.986	-10.04
211.458	-7.84
211.93	-5.04
212.402	3.36
212.873	-2.54
213.345	-6.04
213.817	-7.84
214.288	-7.84
214.76	-8.74
215.232	-3.74
215.703	-4.64
216.175	-4.34
216.646	-2.14
217.118	-1.74
217.589	-4.54
218.061	-0.34
218.532	-4.94
219.004	-0.04
219.475	-10.24
219.946	-2.34
220.418	-3.94
220.889	1.16
221.36	-3.84
221.832	-4.74
222.303	-10.34
222.774	-1.14
223.245	-9.34
223.717	-5.54
224.188	-7.34
224.659	-3.54
225.13	-7.14
225.601	1.26
226.072	-0.24
226.543	1.36
227.014	-0.64
227.485	2.36
227.956	-8.24
228.427	7.46
228.898	-3.94
229.369	4.26
229.839	-1.54
230.31	-2.94
230.781	0.56
231.252	-5.14
231.722	-5.54
232.193	-2.74
232.664	-1.64
233.135	-0.64
233.605	-2.44
234.076	-7.74
234.546	-1.34
235.017	-2.54
235.487	0.46
235.958	-4.94
236.428	-12.14
236.899	-4.34
237.369	-0.54
237.84	-11.54
238.31	-1.34
238.78	-4.44
239.251	-11.34
239.721	-6.04
240.191	-3.24
240.662	2.46
241.132	-2.14
241.602	-4.64
242.072	-5.64
242.542	1.76
243.013	-1.74
243.483	5.26
243.953	0.16
244.423	-4.74
244.893	-0.74
245.363	2.26
245.833	2.06
246.303	-8.84
246.773	1.26
247.243	-1.74
247.712	-2.94
248.182	1.06
248.652	-1.94
249.122	-11.04
249.592	-2.44
250.061	-1.54
250.531	8.26
251.001	-1.04
251.471	1.46
251.94	6.36
252.41	-4.44
252.879	-3.84
253.349	4.86
253.818	-0.64
254.288	-2.14
254.757	-1.04
255.227	-2.74
255.696	3.66
256.166	5.26
256.635	-0.04
257.105	-1.04
257.574	-1.34
258.043	1.06
258.513	-2.84
258.982	2.46
259.451	-9.94
259.92	-1.04
260.389	-1.54
260.859	8.66
261.328	0.16
261.797	2.06
262.266	-3.64
262.735	3.26
263.204	3.76
263.673	-0.64
264.142	6.26
264.611	-11.34
265.08	-4.64
265.549	-2.64
266.018	-2.24
266.487	-0.14
266.955	-7.34
267.424	-6.34
267.893	0.86
268.362	-3.94
268.83	5.06
269.299	2.56
269.768	-8.44
270.236	2.86
270.705	0.76
271.174	-1.64
271.642	3.96
272.111	-0.54
272.579	7.46
273.048	2.36
273.516	-0.84
273.985	-0.84
274.453	-0.24
274.922	6.36
275.39	5.06
275.858	3.86
276.327	6.96
276.795	11.76
277.263	-1.74
277.731	8.46
278.2	6.76
278.668	4.66
279.136	2.06
279.604	-5.24
280.072	11.16
280.54	1.36
281.008	5.46
281.477	8.56
281.945	5.66
282.413	8.06
282.881	5.36
283.348	-2.34
283.816	5.76
284.284	0.26
284.752	15.96
285.22	7.06
285.688	6.46
286.156	9.26
286.623	13.36
287.091	0.26
287.559	9.96
288.026	9.86
288.494	11.66
288.962	4.46
289.429	3.06
289.897	7.96
290.364	3.36
290.832	5.06
291.3	7.26
291.767	10.96
292.234	9.16
292.702	2.96
293.169	5.76
293.637	13.46
294.104	9.56
294.571	4.86
295.039	3.36
295.506	4.36
295.973	12.26
296.44	7.76
296.908	6.56
297.375	9.06
297.842	10.26
298.309	11.26
298.776	4.96
299.243	12.66
299.71	3.76
300.177	11.86
300.644	12.36
301.111	11.76
301.578	15.76
302.045	6.16
302.512	20.06
302.979	15.36
303.446	14.56
303.913	10.46
304.379	5.56
304.846	17.06
305.313	14.26
305.78	8.26
306.246	15.96
306.713	18.66
307.18	17.76
307.646	20.16
308.113	23.26
308.579	13.26
309.046	19.86
309.512	19.66
309.979	8.66
310.445	26.66
310.912	22.06
311.378	24.46
311.845	28.86
312.311	27.16
312.777	24.06
313.244	26.66
313.71	30.96
314.176	21.56
314.642	21.26
315.109	20.66
315.575	27.96
316.041	31.26
316.507	21.76
316.973	27.36
317.439	24.86
317.905	28.16
318.371	26.86
318.837	26.96
319.303	22.16
319.769	24.06
320.235	28.16
320.701	30.86
321.167	28.26
321.633	26.56
322.099	26.56
322.564	35.66
323.03	32.36
323.496	31.26
323.962	32.26
324.427	34.16
324.893	35.06
325.359	31.66
325.824	31.76
326.29	31.86
326.755	33.16
327.221	27.66
327.686	28.66
328.152	36.46
328.617	33.66
329.083	41.46
329.548	41.96
330.014	41.76
330.479	31.06
330.944	37.46
331.41	37.96
331.875	43.16
332.34	38.46
332.805	38.16
333.271	37.96
333.736	34.16
334.201	44.36
334.666	43.86
335.131	42.26
335.596	39.26
336.061	43.06
336.526	32.76
336.991	37.36
337.456	44.06
337.921	43.66
338.386	34.26
338.851	36.16
339.316	45.66
339.781	42.46
340.246	49.26
340.711	48.06
341.175	44.36
341.64	37.66
342.105	48.86
342.569	54.16
343.034	52.66
343.499	49.06
343.963	49.26
344.428	55.46
344.893	56.76
345.357	56.86
345.822	56.66
346.286	62.76
346.751	61.46
347.215	61.26
347.679	61.36
348.144	84.16
348.608	74.56
349.073	72.36
349.537	64.66
350.001	69.46
350.465	79.76
350.93	73.76
351.394	78.56
351.858	68.06
352.322	78.96
352.786	74.36
353.25	89.86
353.715	97.86
354.179	91.06
354.643	99.16
355.107	103.56
355.571	93.86
356.035	95.86
356.498	98.16
356.962	101.66
357.426	109.46
357.89	100.76
358.354	83.46
358.818	77.36
359.281	76.86
359.745	76.96
360.209	74.76
360.673	75.66
361.136	81.96
361.6	83.76
362.064	79.16
362.527	83.66
362.991	85.16
363.454	81.26
363.918	78.56
364.381	75.06
364.845	86.96
365.308	87.26
365.772	84.76
366.235	86.56
366.698	84.56
367.162	85.66
367.625	86.36
368.088	84.46
368.552	81.86
369.015	87.26
369.478	94.16
369.941	99.46
370.404	93.86
370.867	95.06
371.331	98.26
371.794	106.16
372.257	98.66
372.72	107.76
373.183	104.46
373.646	91.56
374.109	98.86
374.572	103.76
375.035	106.46
375.497	108.66
375.96	111.26
376.423	107.46
376.886	118.06
377.349	113.66
377.811	108.36
378.274	105.66
378.737	106.36
379.199	112.26
379.662	106.26
380.125	119.36
380.587	114.46
381.05	119.16
381.512	121.96
381.975	129.16
382.437	125.36
382.9	119.46
383.362	132.36
383.825	132.36
384.287	132.16
384.75	123.06
385.212	131.56
385.674	145.16
386.136	132.96
386.599	132.36
387.061	137.26
387.523	134.96
387.985	136.26
388.447	146.86
388.91	136.76
389.372	134.76
389.834	143.96
390.296	137.16
390.758	136.96
391.22	140.46
391.682	150.36
392.144	158.76
392.606	149.36
393.068	143.06
393.529	161.16
393.991	155.76
394.453	146.16
394.915	146.96
395.377	146.56
395.838	143.76
396.3	150.16
396.762	153.46
397.224	149.16
397.685	144.96
398.147	145.36
398.608	149.06
399.07	139.66
399.531	151.76
399.993	152.36
400.454	168.36
400.916	162.16
401.377	158.06
401.839	168.06
402.3	165.76
402.762	173.46
403.223	199.26
403.684	184.66
404.145	177.56
404.607	177.86
405.068	180.86
405.529	189.46
405.99	192.66
406.451	184.36
406.913	192.56
407.374	179.66
407.835	186.56
408.296	185.76
408.757	192.56
409.218	202.86
409.679	197.46
410.14	189.36
410.601	193.56
411.062	191.86
411.522	193.86
411.983	197.06
412.444	192.56
412.905	201.36
413.366	200.86
413.826	214.26
414.287	246.36
414.748	298.56
415.208	279.76
415.669	239.16
416.13	233.46
416.59	226.56
417.051	238.86
417.511	251.46
417.972	273.46
418.432	288.96
418.893	332.06
419.353	299.06
419.814	228.76
420.274	213.96
420.734	203.76
421.195	211.56
421.655	213.36
422.115	208.16
422.576	214.16
423.036	221.86
423.496	229.56
423.956	233.16
424.416	254.56
424.876	301.46
425.336	285.66
425.797	280.36
426.257	283.46
426.717	266.66
427.177	246.46
427.637	247.26
428.097	256.16
428.556	261.96
429.016	291.26
429.476	285.26
429.936	292.16
430.396	300.86
430.856	309.46
431.315	323.36
431.775	354.76
432.235	389.06
432.694	372.76
433.154	374.26
433.614	397.96
434.073	344.66
434.533	295.26
434.993	287.06
435.452	305.16
435.912	304.16
436.371	293.56
436.83	287.66
437.29	277.36
437.749	262.96
438.209	263.96
438.668	281.36
439.127	284.26
439.587	269.16
440.046	257.26
440.505	260.56
440.964	282.16
441.424	316.06
441.883	304.26
442.342	273.26
442.801	239.16
443.26	240.06
443.719	250.36
444.178	242.16
444.637	237.26
445.096	245.36
445.555	253.06
446.014	242.26
446.473	241.96
446.932	261.76
447.391	248.66
447.849	247.86
448.308	245.66
448.767	246.16
449.226	259.96
449.685	260.96
450.143	267.66
450.602	258.26
451.061	235.76
451.519	248.96
451.978	249.06
452.436	254.56
452.895	254.26
453.353	253.86
453.812	247.56
454.27	255.86
454.729	257.36
455.187	250.36
455.646	263.56
456.104	266.66
456.562	265.36
457.021	281.36
457.479	272.06
457.937	278.26
458.395	272.86
458.854	255.86
459.312	264.66
459.77	280.26
460.228	265.76
460.686	261.56
461.144	266.86
461.602	266.06
462.06	262.86
462.518	280.96
462.976	281.66
463.434	277.16
463.892	273.96
464.35	290.16
464.808	300.36
465.266	281.26
465.724	293.56
466.181	287.46
466.639	289.26
467.097	307.86
467.555	312.36
468.012	310.76
468.47	328.26
468.928	337.26
469.385	352.26
469.843	353.56
470.3	358.66
470.758	369.16
471.215	384.06
471.673	403.46
472.13	409.16
472.588	423.66
473.045	391.26
473.503	400.76
473.96	406.16
474.417	417.16
474.875	440.06
475.332	474.86
475.789	464.56
476.246	476.16
476.704	486.86
477.161	510.16
477.618	507.06
478.075	551.86
478.532	599.46
478.989	658.66
479.446	749.26
479.903	722.96
480.36	765.06
480.817	821.56
481.274	882.06
481.731	975.56
482.188	1050.66
482.645	1171.46
483.102	1250.46
483.558	1352.46
484.015	1416.76
484.472	1390.46
484.929	1360.06
485.385	1308.06
485.842	1291.06
486.299	1249.26
486.755	1187.46
487.212	1045.66
487.668	902.56
488.125	827.86
488.582	767.06
489.038	726.56
489.494	699.46
489.951	678.66
490.407	657.06
490.864	634.16
491.32	633.26
491.776	623.76
492.233	636.16
492.689	606.76
493.145	605.26
493.602	590.66
494.058	592.46
494.514	599.96
494.97	611.56
495.426	625.26
495.882	596.66
496.338	579.56
496.794	598.06
497.251	586.96
497.707	607.86
498.163	600.56
498.618	613.56
499.074	611.86
499.53	633.86
499.986	623.36
500.442	616.86
500.898	598.96
501.354	593.76
501.809	600.66
502.265	607.76
502.721	604.76
503.177	615.46
503.632	614.96
504.088	622.16
504.543	644.36
504.999	645.56
505.455	637.06
505.91	618.36
506.366	615.26
506.821	617.06
507.277	609.26
507.732	609.46
508.187	601.66
508.643	615.66
509.098	619.96
509.553	638.66
510.009	635.76
510.464	641.06
510.919	657.36
511.375	657.16
511.83	679.06
512.285	672.66
512.74	701.36
513.195	713.66
513.65	711.76
514.105	707.96
514.56	710.66
515.015	728.46
515.47	740.56
515.925	731.66
516.38	735.96
516.835	744.46
517.29	721.56
517.745	727.46
518.2	724.46
518.655	705.86
519.109	695.56
519.564	684.46
520.019	669.86
520.474	671.76
520.928	679.76
521.383	667.56
521.838	648.76
522.292	663.26
522.747	665.26
523.201	659.96
523.656	648.96
524.11	646.56
524.565	649.06
525.019	637.16
525.474	654.16
525.928	634.76
526.382	642.06
526.837	636.86
527.291	636.26
527.745	639.06
528.2	645.86
528.654	636.56
529.108	630.76
529.562	629.06
530.016	634.46
530.47	631.86
530.925	627.16
531.379	636.66
531.833	634.76
532.287	633.36
532.741	634.96
533.195	628.96
533.649	634.56
534.103	634.16
534.556	620.26
535.01	632.96
535.464	628.66
535.918	636.96
536.372	635.26
536.826	633.36
537.279	628.76
537.733	626.16
538.187	624.76
538.64	638.16
539.094	642.36
539.548	651.76
540.001	642.96
540.455	638.06
540.908	641.16
541.362	657.16
541.815	665.76
542.269	677.76
542.722	669.86
543.175	676.46
543.629	681.26
544.082	688.56
544.536	698.26
544.989	688.96
545.442	705.96
545.895	698.26
546.349	689.86
546.802	700.46
547.255	702.66
547.708	707.76
548.161	712.76
548.614	724.06
549.067	719.76
549.52	701.96
549.973	706.76
550.426	698.36
550.879	697.86
551.332	688.36
551.785	698.26
552.238	687.46
552.691	705.96
553.144	722.16
553.596	728.96
554.049	739.36
554.502	761.96
554.955	778.06
555.407	779.06
555.86	767.36
556.313	753.26
556.765	751.96
557.218	748.66
557.67	738.06
558.123	731.66
558.576	742.76
559.028	738.86
559.48	747.36
559.933	739.36
560.385	717.26
560.838	693.56
561.29	675.36
561.742	670.86
562.195	656.86
562.647	658.06
563.099	651.16
563.551	654.16
564.004	653.76
564.456	649.76
564.908	639.66
565.36	620.96
565.812	612.06
566.264	606.36
566.716	604.16
567.168	585.46
567.62	592.16
568.072	580.36
568.524	582.06
568.976	584.26
569.428	569.56
569.88	577.36
570.332	566.06
570.784	573.16
571.235	567.66
571.687	574.36
572.139	588.86
572.59	597.36
573.042	585.06
573.494	587.26
573.945	587.86
574.397	556.86
574.849	566.46
575.3	561.46
575.752	558.96
576.203	550.56
576.655	560.16
577.106	545.06
577.557	544.66
578.009	546.46
578.46	536.56
578.912	537.96
579.363	544.36
579.814	537.96
580.265	527.76
580.717	533.66
581.168	543.06
581.619	540.46
582.07	535.96
582.521	546.76
582.972	536.96
583.423	545.86
583.875	538.66
584.326	546.96
584.777	555.26
585.227	569.46
585.678	574.66
586.129	582.96
586.58	604.86
587.031	619.46
587.482	641.66
587.933	666.56
588.384	650.26
588.834	625.66
589.285	616.96
589.736	611.36
590.186	621.16
590.637	612.46
591.088	588.36
591.538	587.06
591.989	580.76
592.439	575.96
592.89	568.16
593.34	554.06
593.791	555.56
594.241	544.86
594.692	557.06
595.142	543.66
595.593	542.86
596.043	551.86
596.493	554.46
596.943	547.66
597.394	567.96
597.844	558.96
598.294	573.56
598.744	582.76
599.195	608.26
599.645	642.46
600.095	656.66
600.545	702.86
600.995	734.16
601.445	783.66
601.895	832.86
602.345	860.86
602.795	853.86
603.245	821.66
603.695	781.16
604.145	744.96
604.594	710.26
605.044	677.36
605.494	618.06
605.944	581.16
606.393	573.06
606.843	552.36
607.293	559.96
607.743	544.86
608.192	560.46
608.642	567.16
609.091	569.16
609.541	571.76
609.99	580.16
610.44	576.66
610.889	545.06
611.339	541.66
611.788	522.66
612.238	519.06
612.687	535.86
613.136	532.16
613.586	539.26
614.035	531.66
614.484	543.76
614.933	535.56
615.383	530.86
615.832	533.16
616.281	521.36
616.73	513.46
617.179	498.16
617.628	486.16
618.077	473.56
618.526	467.86
618.975	470.16
619.424	463.46
619.873	460.16
620.322	470.86
620.771	452.56
621.22	448.06
621.669	445.86
622.118	438.36
622.567	427.76
623.015	420.66
623.464	425.76
623.913	419.66
624.361	413.46
624.81	414.96
625.259	407.16
625.707	401.16
626.156	410.16
626.604	423.46
627.053	418.46
627.501	422.96
627.95	418.16
628.398	433.06
628.847	421.46
629.295	425.16
629.744	425.16
630.192	419.36
630.64	414.46
631.089	408.96
631.537	396.86
631.985	382.86
632.433	396.66
632.881	384.56
633.33	388.86
633.778	379.46
634.226	373.86
634.674	393.96
635.122	403.36
635.57	398.46
636.018	406.76
636.466	408.46
636.914	405.66
637.362	421.26
637.81	426.96
638.258	429.26
638.705	433.26
639.153	444.76
639.601	448.06
640.049	463.96
640.497	489.66
640.944	511.66
641.392	467.56
641.84	456.46
642.287	428.26
642.735	410.86
643.182	414.16
643.63	411.76
644.078	406.96
644.525	419.66
644.973	424.66
645.42	432.56
645.867	446.76
646.315	458.26
646.762	482.56
647.21	495.76
647.657	508.16
648.104	535.06
648.551	537.26
648.999	578.46
649.446	628.96
649.893	682.26
650.34	781.46
650.787	918.96
651.234	1114.86
651.682	1418.26
652.129	1896.86
652.576	2654.86
653.023	3888.56
653.47	5346.26
653.917	6764.36
654.363	7925.56
654.81	8950.86
655.257	8498.56
655.704	5661.16
656.151	3389.96
656.598	2231.26
657.044	1607.66
657.491	1247.96
657.938	1002.66
658.385	842.46
658.831	736.86
659.278	668.66
659.724	593.16
660.171	546.86
660.618	500.46
661.064	482.46
661.511	448.86
661.957	442.46
662.404	435.36
662.85	446.66
663.296	421.86
663.743	395.46
664.189	382.46
664.635	386.06
665.082	362.56
665.528	370.86
665.974	364.96
666.42	360.16
666.867	352.96
667.313	333.36
667.759	332.86
668.205	320.86
668.651	320.96
669.097	318.16
669.543	310.36
669.989	314.56
670.435	319.56
670.881	308.56
671.327	316.36
671.773	340.76
672.219	351.46
672.665	397.96
673.11	412.36
673.556	459.96
674.002	475.06
674.448	477.16
674.893	408.26
675.339	348.56
675.785	312.86
676.23	298.26
676.676	271.36
677.122	268.96
677.567	269.06
678.013	267.26
678.458	259.26
678.904	257.96
679.349	247.06
679.794	255.76
680.24	250.06
680.685	246.16
681.131	239.76
681.576	249.76
682.021	249.56
682.466	241.56
682.912	246.76
683.357	248.96
683.802	265.66
684.247	283.26
684.692	325.06
685.137	347.16
685.583	383.06
686.028	403.06
686.473	370.96
686.918	315.46
687.363	299.16
687.807	279.66
688.252	260.56
688.697	253.56
689.142	232.96
689.587	232.16
690.032	227.86
690.477	248.06
690.921	249.26
691.366	267.86
691.811	279.96
692.255	309.66
692.7	324.06
693.145	349.26
693.589	471.46
694.034	760.06
694.478	1072.06
694.923	1250.66
695.367	1664.16
695.812	873.76
696.256	361.06
696.701	258.06
697.145	239.36
697.59	222.56
698.034	220.76
698.478	227.66
698.922	223.46
699.367	229.86
699.811	234.76
700.255	241.76
700.699	272.36
701.143	290.26
701.588	332.96
702.032	365.86
702.476	358.86
702.92	349.76
703.364	348.26
703.808	431.96
704.252	692.46
704.696	984.16
705.14	1204.36
705.584	1563.76
706.027	771.36
706.471	371.66
706.915	278.16
707.359	249.56
707.803	229.56
708.246	212.66
708.69	222.76
709.134	215.36
709.577	212.46
710.021	224.86
710.465	213.46
710.908	214.06
711.352	211.36
711.795	215.86
712.239	242.56
712.682	265.06
713.126	284.36
713.569	318.96
714.012	250.56
714.456	221.56
714.899	204.26
715.342	192.66
715.786	183.46
716.229	181.26
716.672	189.46
717.115	169.26
717.558	174.76
718.002	174.56
718.445	178.76
718.888	201.46
719.331	205.36
719.774	212.26
720.217	209.16
720.66	205.36
721.103	183.96
721.546	178.16
721.989	173.46
722.432	157.56
722.874	161.86
723.317	152.36
723.76	160.56
724.203	178.36
724.645	212.56
725.088	290.06
725.531	386.16
725.974	455.16
726.416	384.16
726.859	214.26
727.301	174.36
727.744	168.56
728.187	156.36
728.629	161.16
729.071	172.26
729.514	182.56
729.956	187.06
730.399	195.96
730.841	203.26
731.283	192.96
731.726	188.56
732.168	188.96
732.61	185.56
733.053	192.06
733.495	207.26
733.937	238.36
734.379	272.46
734.821	294.16
735.263	363.46
735.705	554.26
736.148	1030.96
736.59	1769.26
737.032	2216.26
737.474	1820.36
737.916	582.56
738.357	303.56
738.799	233.06
739.241	211.06
739.683	204.26
740.125	203.56
740.567	213.66
741.008	230.06
741.45	233.26
741.892	218.66
742.334	260.86
742.775	274.76
743.217	267.56
743.658	196.26
744.1	187.26
744.542	195.56
744.983	247.96
745.425	280.66
745.866	277.96
746.307	209.86
746.749	193.26
747.19	218.06
747.632	297.06
748.073	568.56
748.514	1238.56
748.956	1999.76
749.397	2497.46
749.838	2110.06
750.279	2174.66
750.72	1097.96
751.162	391.96
751.603	228.16
752.044	180.06
752.485	154.26
752.926	140.16
753.367	145.26
753.808	137.86
754.249	133.66
754.69	131.46
755.131	124.96
755.572	126.46
756.013	120.66
756.453	130.36
756.894	130.66
757.335	125.46
757.776	130.06
758.216	141.86
758.657	127.26
759.098	143.56
759.538	150.36
759.979	181.76
760.42	248.86
760.86	464.16
761.301	1206.86
761.741	3020.36
762.182	4821.06
762.622	3433.76
763.063	971.26
763.503	392.16
763.943	230.76
764.384	191.56
764.824	171.26
765.264	162.86
765.705	142.86
766.145	121.46
766.585	119.46
767.025	114.56
767.465	106.76
767.906	120.86
768.346	137.76
768.786	138.76
769.226	151.36
769.666	203.56
770.106	400.36
770.546	1005.36
770.986	1889.46
771.426	1757.46
771.866	576.06
772.306	234.16
772.745	144.86
773.185	113.16
773.625	118.26
774.065	108.66
774.505	115.36
774.944	141.06
775.384	277.56
775.824	513.06
776.263	508.86
776.703	230.56
777.142	115.06
777.582	92.36
778.021	90.46
778.461	82.46
778.9	92.96
779.34	82.26
779.779	75.76
780.219	72.16
780.658	75.86
781.097	73.96
781.537	74.96
781.976	71.46
782.415	71.76
782.855	69.46
783.294	70.76
783.733	69.06
784.172	72.26
784.611	72.76
785.05	73.06
785.489	71.96
785.928	76.76
786.367	77.26
786.806	78.06
787.245	87.26
787.684	90.96
788.123	99.06
788.562	87.16
789.001	82.66
789.44	88.96
789.879	81.36
790.317	85.06
790.756	90.66
791.195	80.46
791.634	101.66
792.072	139.06
792.511	238.96
792.95	659.66
793.388	1500.26
793.827	1436.66
794.265	483.36
794.704	197.96
795.142	124.06
795.581	101.26
796.019	96.56
796.458	85.16
796.896	87.06
797.334	95.66
797.773	109.36
798.211	145.66
798.649	283.76
799.087	683.46
799.526	1113.06
799.964	1406.76
800.402	1501.16
800.84	550.86
801.278	209.06
801.716	134.96
802.154	110.56
802.592	103.86
803.03	90.36
803.468	83.56
803.906	94.46
804.344	104.86
804.782	101.26
805.22	89.06
805.658	86.26
806.096	97.76
806.533	107.86
806.971	119.96
807.409	154.76
807.847	213.36
808.284	436.06
808.722	1262.56
809.16	2386.66
809.597	2189.16
810.035	3895.26
810.472	4471.16
810.91	1610.96
811.347	600.86
811.785	290.76
812.222	194.46
812.66	139.96
813.097	115.16
813.535	102.66
813.972	95.76
814.409	83.66
814.846	76.96
815.284	80.96
815.721	67.96
816.158	72.36
816.595	74.96
817.032	121.26
817.47	151.06
817.907	111.46
818.344	69.66
818.781	65.16
819.218	73.16
819.655	95.36
820.092	161.86
820.529	191.86
820.966	143.16
821.403	102.26
821.839	73.16
822.276	75.96
822.713	94.86
823.15	112.76
823.587	88.66
824.023	97.26
824.46	193.86
824.897	604.46
825.333	992.36
825.77	424.66
826.206	158.16
826.643	94.56
827.08	70.66
827.516	55.16
827.953	54.96
828.389	59.26
828.825	46.56
829.262	45.26
829.698	40.36
830.135	42.86
830.571	36.26
831.007	37.76
831.443	41.66
831.88	41.86
832.316	42.96
832.752	41.26
833.188	39.36
833.624	36.06
834.06	50.36
834.497	45.66
834.933	45.46
835.369	51.76
835.805	45.66
836.241	51.56
836.677	50.76
837.112	58.26
837.548	69.06
837.984	91.26
838.42	135.36
838.856	326.76
839.292	1043.76
839.727	1704.76
840.163	785.86
840.599	636.26
841.034	1449.76
841.47	1624.26
841.906	571.46
842.341	234.66
842.777	147.26
843.212	159.76
843.648	155.86
844.083	84.86
844.519	56.96
844.954	43.36
845.39	42.46
845.825	40.76
846.261	37.76
846.696	36.66
847.131	35.06
847.566	41.06
848.002	34.86
848.437	39.06
848.872	43.96
849.307	40.36
849.742	59.06
850.177	117.06
850.613	377.26
851.048	629.16
851.483	277.46
851.918	108.26
852.353	66.76
852.788	38.76
853.223	35.36
853.657	36.26
854.092	32.96
854.527	27.26
854.962	31.16
855.397	28.86
855.832	32.76
856.266	32.66
856.701	25.96
857.136	20.96
857.57	22.66
858.005	41.96
858.44	48.76
858.874	34.76
859.309	36.16
859.743	21.46
860.178	33.06
860.612	25.16
861.047	33.96
861.481	55.46
861.915	63.46
862.35	40.66
862.784	22.06
863.218	26.86
863.653	19.96
864.087	35.26
864.521	38.36
864.955	46.36
865.39	111.06
865.824	131.46
866.258	90.56
866.692	148.86
867.126	175.96
867.56	100.96
867.994	49.06
868.428	28.06
868.862	36.46
869.296	47.26
869.73	47.86
870.164	45.56
870.598	43.56
871.031	31.86
871.465	24.46
871.899	23.36
872.333	14.26
872.766	15.86
873.2	14.76
873.634	19.46
874.067	11.86
874.501	14.26
874.935	21.26
875.368	21.86
875.802	17.86
876.235	8.26
876.669	15.16
877.102	14.16
877.535	15.16
877.969	16.36
878.402	11.16
878.836	9.46
879.269	13.46
879.702	11.86
880.135	14.66
880.569	18.56
881.002	24.76
881.435	7.46
881.868	9.86
882.301	13.36
882.734	13.76
883.167	22.06
883.601	13.36
884.034	12.16
884.467	7.26
884.899	9.56
885.332	7.96
885.765	4.46
886.198	14.56
886.631	16.46
887.064	12.46
887.497	14.16
887.929	16.76
888.362	2.26
888.795	2.56
889.228	13.86
889.66	10.96
890.093	12.36
890.526	13.06
890.958	9.06
891.391	6.96
891.823	14.56
892.256	8.66
892.688	4.56
893.121	5.06
893.553	9.26
893.985	15.76
894.418	12.06
894.85	12.56
895.282	10.36
895.715	6.26
896.147	14.56
896.579	12.66
897.011	7.66
897.444	8.26
897.876	7.06
898.308	11.56
898.74	9.16
899.172	7.96
899.604	17.06
900.036	19.46
900.468	7.56
900.9	5.36
901.332	12.96
901.764	6.96
902.196	7.56
902.628	14.86
903.06	3.06
903.491	22.96
903.923	19.56
904.355	17.36
904.787	21.76
905.218	20.16
905.65	15.76
906.082	6.36
906.513	8.26
906.945	11.36
907.376	6.46
907.808	13.16
908.239	10.66
908.671	14.66
909.102	13.36
909.534	15.56
909.965	32.66
910.397	63.76
910.828	224.76
911.259	357.36
911.691	158.16
912.122	72.56
912.553	35.06
912.984	22.76
913.415	26.76
913.847	19.46
914.278	10.76
914.709	4.16
915.14	16.76
915.571	11.56
916.002	9.06
916.433	13.26
916.864	12.36
917.295	11.66
917.726	18.86
918.157	5.26
918.587	18.16
919.018	11.46
919.449	14.46
919.88	13.76
920.311	17.86
920.741	31.96
921.172	120.16
921.603	113.86
922.033	49.76
922.464	30.06
922.895	9.46
923.325	15.76
923.756	5.56
924.186	9.36
924.617	12.76
925.047	15.36
925.478	15.06
925.908	17.46
926.338	11.76
926.769	6.76
927.199	18.56
927.629	2.46
928.06	10.56
928.49	12.16
928.92	15.26
929.35	10.66
929.78	6.66
930.21	3.36
930.641	4.06
931.071	9.16
931.501	3.36
931.931	6.56
932.361	5.76
932.791	-1.14
933.221	9.96
933.651	0.36
934.08	11.46
934.51	22.26
934.94	5.56
935.37	9.56
935.8	8.96
936.229	1.26
936.659	4.86
937.089	-2.44
937.519	7.46
937.948	19.06
938.378	16.86
938.807	9.16
939.237	-0.04
939.666	1.96
940.096	-8.84
940.525	1.66
940.955	-3.64
941.384	6.76
941.814	-3.44
942.243	-3.64
942.672	-2.64
943.102	-6.14
943.531	1.86
943.96	5.86
944.39	3.56
944.819	-4.34
945.248	6.16
945.677	-0.34
946.106	1.76
946.535	3.36
946.964	-0.34
947.393	5.76
947.822	-0.54
948.251	-6.24
948.68	1.56
949.109	13.16
949.538	1.96
949.967	1.46
950.396	2.76
950.825	-4.74
951.254	-5.44
951.682	-5.34
952.111	3.26
952.54	3.66
952.969	-5.44
953.397	-2.54
953.826	2.06
954.254	-7.74
954.683	0.66
955.112	1.66
955.54	0.86
955.969	-0.74
956.397	-0.54
956.826	-3.54
957.254	1.16
957.682	-0.44
958.111	2.86
958.539	2.46
958.967	-0.24
959.396	-6.34
959.824	-0.74
960.252	7.46
960.68	-4.94
961.109	-1.24
961.537	-4.04
961.965	3.46
962.393	1.36
962.821	-1.44
963.249	-1.14
963.677	1.16
964.105	1.76
964.533	28.76
964.961	26.66
965.389	17.06
965.817	7.66
966.245	2.16
966.672	-2.74
967.1	-2.54
967.528	-0.54
967.956	-3.74
968.383	2.66
968.811	-3.14
969.239	0.36
969.666	-8.04
970.094	-2.34
970.522	-3.04
970.949	2.86
971.377	-11.44
971.804	-7.74
972.232	-3.34
972.659	-1.94
973.087	-4.94
973.514	-9.64
973.941	-6.94
974.369	-0.14
974.796	-1.94
975.223	-4.74
975.651	-2.94
976.078	4.56
976.505	1.46
976.932	1.76
977.359	11.56
977.786	6.26
978.214	1.36
978.641	-8.44
979.068	-2.24
979.495	-5.64
979.922	-1.74
980.349	-8.54
980.776	0.06
981.202	-0.04
981.629	6.46
982.056	2.86
982.483	3.66
982.91	0.66
983.337	-0.94
983.763	0.56
984.19	-7.34
984.617	-8.64
985.043	-9.04
985.47	-2.54
985.897	-4.44
986.323	-13.44
986.75	4.06
987.176	-1.64
987.603	-0.24
988.029	-2.14
988.456	0.16
988.882	-3.04
989.308	2.16
989.735	-1.84
990.161	2.76
990.587	-6.04
991.014	-1.94
991.44	8.96
991.866	2.06
992.292	-3.04
992.719	-1.44
993.145	-0.74
993.571	-5.04
993.997	-3.14
994.423	-0.74
994.849	-2.24
995.275	3.86
995.701	0.16
996.127	0.56
996.553	-0.84
996.979	-1.24
997.405	-5.04
997.83	-4.54
998.256	-4.84
998.682	-3.24
999.108	-8.14
999.534	1.96
999.959	-5.54
1000.385	-7.84
1000.811	-5.34
1001.236	-7.24
1001.662	-6.04
1002.087	-14.74
1002.513	-2.44
1002.938	-2.34
1003.364	-3.74
1003.789	5.06
1004.215	6.86
1004.64	-5.24
1005.066	-1.34
1005.491	-2.24
1005.916	-4.04
1006.342	-9.64
1006.767	-10.14
1007.192	8.66
1007.617	0.36
1008.042	-4.24
1008.468	-10.54
1008.893	-4.84
1009.318	-2.64
1009.743	-1.84
1010.168	2.86
1010.593	0.76
1011.018	-10.44
1011.443	-2.44
1011.868	2.66
1012.293	-3.14
1012.718	-3.34
1013.143	-2.04
1013.567	1.16
1013.992	0.16
1014.417	-13.44
1014.842	-1.44
1015.267	-8.34
1015.691	-6.84
1016.116	0.86
1016.541	-4.04
1016.965	1.66
1017.39	-1.04
1017.814	-2.94
1018.239	-5.64
1018.663	-6.94
1019.088	-12.44
1019.512	-1.84
1019.937	1.56
1020.361	-4.84
1020.785	-10.64
1021.21	-4.54
1021.634	-4.54
1022.058	3.66
1022.483	1.96
1022.907	-2.64
1023.331	-1.24
1023.755	0.56
1024.179	1.56
1024.604	-6.04
1025.028	-5.54
1025.452	-3.94
1025.876	-1.54
1026.3	1.96
1026.724	-11.64
1027.148	-8.14
1027.572	-11.04
1027.996	-0.44
1028.42	8.46
1028.843	-1.44
1029.267	0.16
1029.691	-2.04
1030.115	-9.74
1030.539	-6.94
1030.962	-7.04
1031.386	-8.14
1031.81	-0.94
1032.233	-5.74
1032.657	-1.44
1033.08	1.86
1033.504	-3.64
1033.927	-1.94
1034.351	-6.34
1034.774	-5.14
1035.198	-0.14
1035.621	-0.64
1036.045	-9.64
1036.468	0.96
1036.891	-15.04
1037.315	-11.74
1037.738	-9.04
1038.161	-4.24
1038.584	-7.04
1039.008	-7.94
1039.431	-5.44
1039.854	-3.44
1040.277	-7.54
1040.7	-10.14
1041.123	-8.14
1041.546	-4.04
1041.969	5.36
1042.392	-3.24
1042.815	-2.34
1043.238	5.86
1043.661	4.26
1044.084	-4.34
1044.507	-8.34
1044.93	-10.14
1045.352	-10.24
1045.775	-3.54
1046.198	-2.14
1046.621	-3.84
1047.043	-1.14
1047.466	7.86
1047.889	-2.44
1048.311	-3.84
1048.734	3.26
1049.156	-5.94
1049.579	-4.74
1050.001	-4.74
1050.424	1.16
1050.846	0.96
1051.269	-3.94
1051.691	-6.94
1052.113	-2.84
1052.536	-7.54
1052.958	-1.04
1053.38	-6.54
1053.802	-11.14
1054.225	2.36
1054.647	-5.74
1055.069	-7.84
1055.491	2.86
1055.913	-8.74
1056.335	1.96
1056.757	-8.14
1057.179	-7.24
1057.601	-2.14
1058.023	-2.54
1058.445	0.36
1058.867	-4.64
1059.289	-2.74
1059.711	-5.14
1060.133	-3.74
1060.555	-4.04
1060.976	-9.74
1061.398	-7.14
1061.82	-6.34
1062.241	-10.04
1062.663	-6.24
1063.085	-4.14
1063.506	-3.74
1063.928	-2.04
1064.35	-2.34
1064.771	-9.24
1065.193	-6.24
1065.614	-10.74
1066.035	-0.84
1066.457	-4.34
1066.878	-2.44
1067.3	-6.54
1067.721	-5.04
1068.142	-2.04
1068.564	-1.54
1068.985	-1.04
1069.406	-5.64
1069.827	-1.44
1070.248	1.96
1070.67	-8.64
1071.091	-4.74
1071.512	-2.94
1071.933	-4.14
1072.354	-9.44
1072.775	-2.04
1073.196	-5.94
1073.617	-5.24
1074.038	-2.54
1074.459	-1.24
1074.88	-7.24
1075.3	2.66
1075.721	-11.54
1076.142	1.06
1076.563	-4.74
1076.983	-12.74
1077.404	-5.64
1077.825	-10.14
1078.246	-4.14
1078.666	-7.14
1079.087	-8.94
1079.507	-4.64
1079.928	0.06
1080.348	0.26
1080.769	-7.74
1081.189	-1.24
1081.61	-7.24
1082.03	-7.54
1082.451	-7.74
1082.871	-7.04
1083.291	-7.44
1083.711	-4.74
1084.132	-5.24
1084.552	-2.04
1084.972	-0.74
1085.392	-15.94
1085.813	-9.84
1086.233	-6.54
1086.653	-6.34
1087.073	-4.64
1087.493	-0.14
1087.913	-2.84
1088.333	-4.44
1088.753	3.16
1089.173	6.46
1089.593	-0.74
1090.013	2.36
1090.433	2.46
1090.852	2.36
1091.272	-4.24
1091.692	0.66
1092.112	-5.24
1092.531	-8.04
1092.951	-18.44
1093.371	-1.44
1093.79	0.06
1094.21	-2.04
1094.63	-8.34
1095.049	-4.24
1095.469	1.86
1095.888	0.26
1096.308	2.96
1096.727	4.06
1097.146	-5.34
1097.566	-2.94
1097.985	-5.14
1098.405	-4.34
1098.824	-7.44
1099.243	-9.34
1099.662	-9.54
1100.082	-2.94
1100.501	1.16
1100.92	-9.84
1101.339	-6.44
1101.758	-15.14
