Data from 20171114-ORNL-Ar_H_NY_Subt18_08-05-00-479.txt Node
Date: Tue Nov 14 08:05:00 EST 2017
User: Ender
Spectrometer: HR+D1039
Trigger mode: 0
Integration Time (sec): 2.730000E-2
Scans to average: 10
Electric dark correction enabled: true
Nonlinearity correction enabled: false
Boxcar width: 0
XAxis mode: Wavelengths
Number of Pixels in Spectrum: 2048
>>>>>Begin Spectral Data<<<<<
187.836	-5.19
188.309	-5.19
188.782	-5.19
189.255	1.81
189.728	0.11
190.201	5.91
190.674	-4.99
191.147	4.51
191.619	-6.89
192.092	3.41
192.565	-0.09
193.038	3.41
193.511	-1.49
193.984	-2.59
194.456	-3.79
194.929	3.81
195.402	-2.39
195.874	4.51
196.347	-4.09
196.82	-6.89
197.292	2.71
197.765	-2.59
198.237	-5.19
198.71	3.81
199.182	-1.99
199.655	0.71
200.127	0.01
200.6	0.21
201.072	-7.39
201.544	-3.09
202.017	1.21
202.489	2.11
202.961	-3.89
203.433	-5.69
203.906	-6.89
204.378	-6.89
204.85	-1.79
205.322	-6.29
205.794	-0.39
206.266	-3.19
206.739	-7.39
207.211	-6.99
207.683	-10.89
208.155	-4.89
208.627	-5.29
209.099	-6.29
209.57	-15.09
210.042	-6.79
210.514	-5.29
210.986	-0.39
211.458	-11.69
211.93	0.11
212.402	2.91
212.873	-4.69
213.345	-7.69
213.817	-13.59
214.288	2.21
214.76	-9.59
215.232	-8.99
215.703	0.71
216.175	3.11
216.646	1.01
217.118	-4.29
217.589	-4.59
218.061	0.81
218.532	-3.09
219.004	-0.59
219.475	-3.19
219.946	1.41
220.418	0.71
220.889	2.41
221.36	-1.39
221.832	-0.29
222.303	-2.19
222.774	2.91
223.245	-13.09
223.717	-1.99
224.188	-5.59
224.659	-9.59
225.13	-2.69
225.601	-2.59
226.072	1.51
226.543	-3.29
227.014	3.31
227.485	-0.59
227.956	-1.39
228.427	-0.99
228.898	3.41
229.369	2.11
229.839	-6.89
230.31	-3.69
230.781	4.41
231.252	1.11
231.722	-5.79
232.193	-3.89
232.664	0.41
233.135	1.21
233.605	-1.19
234.076	-3.29
234.546	-1.69
235.017	-0.19
235.487	2.61
235.958	-5.19
236.428	-0.49
236.899	0.51
237.369	-0.29
237.84	-0.89
238.31	5.41
238.78	7.81
239.251	-4.49
239.721	3.91
240.191	2.01
240.662	-1.49
241.132	-5.09
241.602	-0.49
242.072	-5.29
242.542	9.51
243.013	1.11
243.483	6.51
243.953	3.41
244.423	-1.69
244.893	-2.69
245.363	5.61
245.833	1.91
246.303	0.31
246.773	7.01
247.243	10.01
247.712	2.11
248.182	4.01
248.652	6.21
249.122	1.51
249.592	11.11
250.061	26.71
250.531	39.31
251.001	21.11
251.471	26.01
251.94	21.41
252.41	8.41
252.879	5.41
253.349	15.91
253.818	7.51
254.288	3.71
254.757	7.71
255.227	3.11
255.696	9.61
256.166	7.71
256.635	6.81
257.105	10.71
257.574	10.51
258.043	5.01
258.513	17.11
258.982	17.71
259.451	11.11
259.92	18.11
260.389	12.31
260.859	14.91
261.328	11.81
261.797	23.61
262.266	8.61
262.735	10.91
263.204	1.21
263.673	3.21
264.142	11.21
264.611	-3.69
265.08	-0.79
265.549	3.81
266.018	4.81
266.487	-3.99
266.955	2.61
267.424	-1.59
267.893	5.91
268.362	4.01
268.83	7.31
269.299	11.21
269.768	4.91
270.236	10.41
270.705	5.51
271.174	10.81
271.642	12.61
272.111	14.91
272.579	21.31
273.048	21.21
273.516	33.91
273.985	31.71
274.453	29.71
274.922	25.91
275.39	13.21
275.858	1.81
276.327	16.41
276.795	19.01
277.263	15.01
277.731	35.21
278.2	56.71
278.668	69.31
279.136	53.41
279.604	30.81
280.072	17.11
280.54	11.11
281.008	5.91
281.477	14.71
281.945	18.21
282.413	16.21
282.881	19.21
283.348	6.81
283.816	15.51
284.284	9.11
284.752	19.51
285.22	13.31
285.688	16.81
286.156	16.51
286.623	48.51
287.091	52.51
287.559	33.91
288.026	20.31
288.494	16.21
288.962	3.41
289.429	12.41
289.897	21.51
290.364	18.31
290.832	18.51
291.3	17.51
291.767	19.11
292.234	24.21
292.702	13.81
293.169	14.41
293.637	25.81
294.104	22.21
294.571	12.91
295.039	17.11
295.506	19.01
295.973	25.81
296.44	20.01
296.908	22.51
297.375	21.81
297.842	22.61
298.309	17.91
298.776	17.01
299.243	27.61
299.71	13.11
300.177	22.41
300.644	26.01
301.111	18.91
301.578	24.11
302.045	21.11
302.512	24.61
302.979	28.21
303.446	22.01
303.913	23.11
304.379	18.71
304.846	25.81
305.313	22.41
305.78	28.31
306.246	28.51
306.713	29.21
307.18	29.21
307.646	31.61
308.113	27.21
308.579	22.21
309.046	22.11
309.512	28.81
309.979	19.61
310.445	30.41
310.912	34.81
311.378	36.71
311.845	32.91
312.311	30.81
312.777	35.01
313.244	36.81
313.71	39.21
314.176	30.81
314.642	34.11
315.109	32.31
315.575	39.51
316.041	43.61
316.507	39.91
316.973	40.81
317.439	35.91
317.905	41.71
318.371	37.11
318.837	39.31
319.303	34.71
319.769	37.11
320.235	37.41
320.701	37.01
321.167	45.21
321.633	41.71
322.099	39.31
322.564	47.11
323.03	36.11
323.496	42.21
323.962	43.01
324.427	39.51
324.893	47.71
325.359	41.01
325.824	47.91
326.29	46.61
326.755	42.11
327.221	40.51
327.686	37.21
328.152	50.71
328.617	46.21
329.083	44.21
329.548	48.81
330.014	50.91
330.479	39.91
330.944	46.91
331.41	41.51
331.875	46.41
332.34	44.21
332.805	46.31
333.271	53.91
333.736	49.41
334.201	56.51
334.666	54.61
335.131	56.61
335.596	52.31
336.061	55.51
336.526	44.31
336.991	47.91
337.456	58.31
337.921	44.61
338.386	45.01
338.851	49.81
339.316	49.31
339.781	49.71
340.246	54.21
340.711	52.91
341.175	54.81
341.64	46.81
342.105	55.11
342.569	55.31
343.034	59.01
343.499	53.31
343.963	51.81
344.428	62.81
344.893	59.51
345.357	59.21
345.822	61.01
346.286	72.81
346.751	78.51
347.215	69.11
347.679	71.51
348.144	101.21
348.608	86.31
349.073	70.81
349.537	76.21
350.001	80.01
350.465	89.81
350.93	86.61
351.394	83.01
351.858	74.81
352.322	91.81
352.786	88.01
353.25	102.91
353.715	114.01
354.179	100.41
354.643	124.71
355.107	126.71
355.571	108.21
356.035	104.41
356.498	118.11
356.962	128.81
357.426	135.51
357.89	118.21
358.354	94.41
358.818	86.21
359.281	78.91
359.745	78.61
360.209	83.01
360.673	78.81
361.136	81.41
361.6	87.41
362.064	80.11
362.527	80.01
362.991	94.21
363.454	82.51
363.918	83.01
364.381	79.81
364.845	84.81
365.308	86.31
365.772	90.71
366.235	90.21
366.698	82.71
367.162	90.91
367.625	84.71
368.088	87.51
368.552	88.21
369.015	89.41
369.478	96.81
369.941	100.21
370.404	95.71
370.867	105.21
371.331	112.91
371.794	109.11
372.257	109.11
372.72	111.51
373.183	101.61
373.646	104.11
374.109	98.31
374.572	111.61
375.035	108.91
375.497	109.31
375.96	107.11
376.423	103.11
376.886	113.51
377.349	109.01
377.811	103.41
378.274	102.91
378.737	102.51
379.199	113.71
379.662	112.91
380.125	115.11
380.587	117.61
381.05	119.71
381.512	126.01
381.975	135.71
382.437	128.91
382.9	130.01
383.362	131.11
383.825	139.41
384.287	144.91
384.75	145.21
385.212	131.71
385.674	139.61
386.136	131.51
386.599	122.51
387.061	128.51
387.523	123.81
387.985	134.81
388.447	146.01
388.91	142.61
389.372	154.21
389.834	147.91
390.296	143.61
390.758	159.01
391.22	169.71
391.682	205.61
392.144	291.11
392.606	223.01
393.068	170.61
393.529	173.81
393.991	149.71
394.453	144.01
394.915	155.21
395.377	187.51
395.838	211.21
396.3	155.61
396.762	141.41
397.224	136.31
397.685	131.61
398.147	127.71
398.608	130.31
399.07	120.01
399.531	135.31
399.993	138.61
400.454	148.21
400.916	141.91
401.377	143.11
401.839	150.11
402.3	155.81
402.762	161.71
403.223	173.41
403.684	172.11
404.145	159.31
404.607	157.11
405.068	164.31
405.529	170.71
405.99	185.81
406.451	172.21
406.913	171.31
407.374	159.21
407.835	169.61
408.296	165.91
408.757	168.41
409.218	186.71
409.679	176.91
410.14	173.31
410.601	175.21
411.062	180.51
411.522	178.61
411.983	188.81
412.444	169.01
412.905	169.11
413.366	182.61
413.826	193.31
414.287	212.21
414.748	252.91
415.208	239.91
415.669	205.31
416.13	191.41
416.59	199.01
417.051	213.51
417.511	213.61
417.972	229.91
418.432	238.61
418.893	278.21
419.353	247.31
419.814	195.31
420.274	181.71
420.734	177.81
421.195	196.01
421.655	191.91
422.115	188.91
422.576	190.21
423.036	196.61
423.496	204.41
423.956	211.71
424.416	233.71
424.876	262.41
425.336	256.41
425.797	256.91
426.257	248.41
426.717	232.81
427.177	222.21
427.637	224.81
428.097	233.11
428.556	237.01
429.016	262.01
429.476	257.11
429.936	267.91
430.396	272.21
430.856	286.71
431.315	304.81
431.775	342.61
432.235	376.71
432.694	347.21
433.154	353.81
433.614	380.81
434.073	330.21
434.533	282.21
434.993	273.41
435.452	277.21
435.912	290.01
436.371	287.51
436.83	279.71
437.29	261.01
437.749	243.11
438.209	237.21
438.668	273.61
439.127	277.91
439.587	255.41
440.046	240.21
440.505	255.01
440.964	272.61
441.424	308.51
441.883	304.41
442.342	249.81
442.801	215.41
443.26	218.21
443.719	217.11
444.178	210.31
444.637	200.61
445.096	215.21
445.555	217.11
446.014	216.51
446.473	221.31
446.932	221.71
447.391	214.41
447.849	223.01
448.308	213.61
448.767	219.51
449.226	223.01
449.685	221.91
450.143	246.71
450.602	225.01
451.061	221.91
451.519	226.11
451.978	223.01
452.436	228.01
452.895	225.71
453.353	246.51
453.812	236.71
454.27	240.11
454.729	235.91
455.187	234.51
455.646	239.71
456.104	240.91
456.562	245.71
457.021	267.41
457.479	251.61
457.937	272.71
458.395	255.51
458.854	241.71
459.312	250.81
459.77	264.71
460.228	256.01
460.686	231.81
461.144	238.81
461.602	232.71
462.06	234.61
462.518	243.61
462.976	243.71
463.434	254.91
463.892	261.61
464.35	263.91
464.808	282.61
465.266	267.21
465.724	262.81
466.181	271.21
466.639	264.61
467.097	283.11
467.555	290.71
468.012	289.51
468.47	302.31
468.928	315.81
469.385	336.71
469.843	333.11
470.3	338.01
470.758	349.91
471.215	380.51
471.673	405.11
472.13	399.61
472.588	418.61
473.045	365.51
473.503	366.11
473.96	384.41
474.417	394.31
474.875	430.11
475.332	453.61
475.789	448.41
476.246	457.81
476.704	481.81
477.161	491.91
477.618	511.21
478.075	549.11
478.532	595.31
478.989	675.01
479.446	791.41
479.903	755.21
480.36	797.51
480.817	860.21
481.274	956.71
481.731	1056.11
482.188	1152.51
482.645	1289.81
483.102	1402.71
483.558	1535.61
484.015	1596.81
484.472	1565.01
484.929	1518.01
485.385	1461.11
485.842	1439.51
486.299	1344.71
486.755	1277.81
487.212	1072.41
487.668	921.31
488.125	833.21
488.582	765.71
489.038	740.11
489.494	703.41
489.951	673.71
490.407	661.51
490.864	637.01
491.32	629.11
491.776	637.21
492.233	627.01
492.689	600.21
493.145	590.71
493.602	589.71
494.058	596.31
494.514	603.81
494.97	630.11
495.426	638.51
495.882	613.11
496.338	606.31
496.794	614.61
497.251	609.41
497.707	628.81
498.163	632.01
498.618	626.41
499.074	642.81
499.53	665.71
499.986	661.81
500.442	637.21
500.898	613.21
501.354	606.11
501.809	625.61
502.265	624.31
502.721	640.21
503.177	654.51
503.632	650.41
504.088	663.41
504.543	692.61
504.999	689.01
505.455	643.81
505.91	626.51
506.366	623.11
506.821	615.21
507.277	606.81
507.732	613.41
508.187	611.81
508.643	620.41
509.098	623.91
509.553	638.11
510.009	648.11
510.464	651.71
510.919	676.61
511.375	674.21
511.83	694.21
512.285	712.41
512.74	746.91
513.195	770.61
513.65	750.61
514.105	752.21
514.56	755.11
515.015	780.21
515.47	798.31
515.925	773.71
516.38	784.51
516.835	777.91
517.29	763.91
517.745	764.51
518.2	750.31
518.655	725.21
519.109	721.91
519.564	724.21
520.019	713.21
520.474	712.91
520.928	705.91
521.383	703.81
521.838	701.71
522.292	695.51
522.747	687.51
523.201	688.51
523.656	671.61
524.11	669.81
524.565	669.71
525.019	673.51
525.474	690.31
525.928	686.71
526.382	674.81
526.837	684.81
527.291	676.21
527.745	680.51
528.2	678.01
528.654	674.21
529.108	669.41
529.562	676.01
530.016	678.21
530.47	675.61
530.925	674.91
531.379	681.21
531.833	687.61
532.287	677.31
532.741	671.21
533.195	681.21
533.649	699.81
534.103	705.91
534.556	689.71
535.01	692.31
535.464	687.91
535.918	706.71
536.372	702.31
536.826	696.91
537.279	692.21
537.733	691.11
538.187	689.91
538.64	698.11
539.094	700.91
539.548	715.41
540.001	710.81
540.455	707.01
540.908	716.91
541.362	715.01
541.815	720.41
542.269	742.81
542.722	736.11
543.175	740.81
543.629	747.51
544.082	761.91
544.536	758.71
544.989	760.71
545.442	769.21
545.895	767.31
546.349	751.51
546.802	769.01
547.255	767.21
547.708	776.61
548.161	787.51
548.614	797.61
549.067	802.21
549.52	792.01
549.973	783.21
550.426	777.31
550.879	762.61
551.332	769.11
551.785	790.91
552.238	771.31
552.691	790.91
553.144	812.01
553.596	817.81
554.049	835.71
554.502	867.71
554.955	889.01
555.407	883.71
555.86	877.31
556.313	861.01
556.765	855.91
557.218	853.11
557.67	847.51
558.123	847.11
558.576	847.21
559.028	847.61
559.48	856.61
559.933	838.21
560.385	814.71
560.838	768.71
561.29	748.41
561.742	753.81
562.195	738.11
562.647	734.51
563.099	739.01
563.551	742.41
564.004	754.61
564.456	749.41
564.908	736.41
565.36	721.51
565.812	710.11
566.264	698.21
566.716	694.41
567.168	693.71
567.62	693.71
568.072	676.31
568.524	670.11
568.976	661.01
569.428	652.21
569.88	641.01
570.332	645.91
570.784	660.81
571.235	660.71
571.687	675.31
572.139	676.41
572.59	687.91
573.042	678.81
573.494	679.01
573.945	670.41
574.397	662.01
574.849	660.71
575.3	674.31
575.752	654.31
576.203	652.71
576.655	655.71
577.106	635.11
577.557	630.21
578.009	631.81
578.46	634.31
578.912	625.61
579.363	623.31
579.814	633.01
580.265	634.21
580.717	634.71
581.168	632.91
581.619	647.91
582.07	650.51
582.521	642.71
582.972	642.31
583.423	649.01
583.875	657.71
584.326	668.21
584.777	712.01
585.227	788.11
585.678	880.01
586.129	959.61
586.58	1048.81
587.031	1127.31
587.482	1291.41
587.933	1489.41
588.384	1268.41
588.834	939.31
589.285	770.11
589.736	741.91
590.186	732.41
590.637	727.11
591.088	701.91
591.538	700.41
591.989	698.91
592.439	693.21
592.89	682.41
593.34	679.11
593.791	673.61
594.241	672.91
594.692	679.21
595.142	671.31
595.593	662.31
596.043	676.61
596.493	669.71
596.943	669.61
597.394	673.41
597.844	662.31
598.294	688.61
598.744	706.61
599.195	730.71
599.645	758.01
600.095	802.21
600.545	856.81
600.995	904.51
601.445	953.81
601.895	1024.11
602.345	1076.21
602.795	1054.61
603.245	997.91
603.695	962.71
604.145	912.21
604.594	860.01
605.044	806.91
605.494	746.91
605.944	707.31
606.393	703.21
606.843	691.81
607.293	684.61
607.743	687.71
608.192	694.51
608.642	712.81
609.091	721.61
609.541	725.21
609.99	715.11
610.44	727.01
610.889	676.41
611.339	660.11
611.788	651.71
612.238	655.51
612.687	679.91
613.136	680.31
613.586	704.21
614.035	693.11
614.484	711.01
614.933	714.11
615.383	707.81
615.832	692.11
616.281	673.91
616.73	645.41
617.179	630.11
617.628	610.21
618.077	599.81
618.526	583.41
618.975	577.91
619.424	576.71
619.873	569.21
620.322	569.21
620.771	557.21
621.22	564.61
621.669	550.41
622.118	549.51
622.567	546.21
623.015	524.81
623.464	518.61
623.913	522.41
624.361	520.81
624.81	506.81
625.259	517.81
625.707	522.01
626.156	525.41
626.604	517.61
627.053	512.61
627.501	522.41
627.95	536.51
628.398	535.51
628.847	528.11
629.295	531.51
629.744	532.01
630.192	529.31
630.64	534.11
631.089	530.61
631.537	546.41
631.985	545.11
632.433	553.91
632.881	562.71
633.33	613.21
633.778	585.31
634.226	529.71
634.674	533.31
635.122	533.91
635.57	552.61
636.018	576.81
636.466	536.71
636.914	514.91
637.362	527.71
637.81	537.91
638.258	531.31
638.705	532.81
639.153	562.81
639.601	563.21
640.049	587.51
640.497	625.71
640.944	645.51
641.392	594.51
641.84	568.91
642.287	550.81
642.735	527.81
643.182	524.31
643.63	528.81
644.078	535.81
644.525	549.11
644.973	553.21
645.42	560.41
645.867	585.61
646.315	592.01
646.762	618.31
647.21	643.31
647.657	663.01
648.104	696.71
648.551	716.61
648.999	761.31
649.446	844.21
649.893	929.31
650.34	1075.31
650.787	1279.01
651.234	1579.51
651.682	2071.81
652.129	2824.21
652.576	4076.81
653.023	6032.21
653.47	8327.31
653.917	10485.51
654.363	12233.31
654.81	13658.81
655.257	13019.31
655.704	8486.41
656.151	4991.51
656.598	3213.21
657.044	2281.61
657.491	1744.71
657.938	1385.91
658.385	1152.01
658.831	999.71
659.278	897.91
659.724	797.91
660.171	733.11
660.618	674.61
661.064	630.61
661.511	617.11
661.957	600.61
662.404	584.01
662.85	590.01
663.296	570.11
663.743	519.51
664.189	493.71
664.635	487.31
665.082	489.01
665.528	477.61
665.974	478.71
666.42	470.51
666.867	468.21
667.313	439.71
667.759	440.71
668.205	439.71
668.651	444.61
669.097	457.31
669.543	473.31
669.989	439.21
670.435	413.11
670.881	403.71
671.327	412.71
671.773	430.81
672.219	442.31
672.665	496.11
673.11	526.81
673.556	563.91
674.002	617.81
674.448	602.71
674.893	496.61
675.339	431.21
675.785	408.21
676.23	382.11
676.676	362.71
677.122	346.11
677.567	340.61
678.013	334.51
678.458	320.11
678.904	332.21
679.349	316.01
679.794	325.71
680.24	316.81
680.685	323.31
681.131	311.81
681.576	318.11
682.021	322.61
682.466	315.71
682.912	310.51
683.357	309.91
683.802	342.71
684.247	364.81
684.692	413.61
685.137	441.41
685.583	494.81
686.028	513.41
686.473	466.51
686.918	400.71
687.363	375.01
687.807	356.71
688.252	334.21
688.697	324.91
689.142	305.21
689.587	299.21
690.032	286.81
690.477	312.71
690.921	317.01
691.366	338.71
691.811	357.31
692.255	390.71
692.7	414.71
693.145	454.11
693.589	611.11
694.034	989.51
694.478	1383.51
694.923	1583.61
695.367	2088.61
695.812	1090.31
696.256	449.21
696.701	332.81
697.145	306.81
697.59	292.41
698.034	288.31
698.478	297.31
698.922	290.81
699.367	296.01
699.811	300.01
700.255	315.11
700.699	346.41
701.143	375.41
701.588	431.91
702.032	463.41
702.476	460.41
702.92	444.71
703.364	441.31
703.808	564.71
704.252	911.31
704.696	1300.71
705.14	1534.61
705.584	1956.61
706.027	954.01
706.471	470.71
706.915	362.51
707.359	317.21
707.803	287.51
708.246	282.41
708.69	284.71
709.134	279.91
709.577	279.21
710.021	283.71
710.465	276.61
710.908	269.41
711.352	265.71
711.795	281.41
712.239	314.31
712.682	338.01
713.126	372.11
713.569	423.21
714.012	340.71
714.456	288.71
714.899	268.91
715.342	247.71
715.786	231.81
716.229	230.51
716.672	233.11
717.115	218.01
717.558	228.41
718.002	227.61
718.445	234.81
718.888	254.21
719.331	267.51
719.774	284.41
720.217	273.01
720.66	255.41
721.103	241.01
721.546	229.01
721.989	225.51
722.432	210.81
722.874	216.01
723.317	201.21
723.76	212.71
724.203	229.91
724.645	277.11
725.088	396.41
725.531	510.21
725.974	584.21
726.416	500.31
726.859	281.41
727.301	223.61
727.744	214.91
728.187	211.61
728.629	212.51
729.071	218.61
729.514	231.41
729.956	237.21
730.399	249.41
730.841	261.31
731.283	245.21
731.726	239.91
732.168	222.11
732.61	237.21
733.053	252.91
733.495	279.21
733.937	308.61
734.379	348.81
734.821	387.01
735.263	481.71
735.705	731.61
736.148	1373.41
736.59	2296.01
737.032	2787.31
737.474	2276.41
737.916	732.81
738.357	384.71
738.799	294.71
739.241	271.91
739.683	254.71
740.125	257.41
740.567	262.01
741.008	282.91
741.45	286.61
741.892	282.71
742.334	306.71
742.775	325.21
743.217	314.01
743.658	243.31
744.1	228.31
744.542	233.91
744.983	284.01
745.425	307.81
745.866	306.91
746.307	253.31
746.749	250.81
747.19	292.81
747.632	401.61
748.073	772.71
748.514	1634.61
748.956	2559.11
749.397	3188.81
749.838	2649.11
750.279	2700.31
750.72	1357.21
751.162	493.91
751.603	290.71
752.044	218.81
752.485	199.11
752.926	187.11
753.367	181.71
753.808	173.21
754.249	176.71
754.69	166.01
755.131	164.11
755.572	163.01
756.013	162.41
756.453	159.61
756.894	165.31
757.335	167.51
757.776	173.61
758.216	176.01
758.657	179.51
759.098	178.71
759.538	198.91
759.979	236.51
760.42	328.11
760.86	612.61
761.301	1563.71
761.741	3891.11
762.182	5919.71
762.622	4155.71
763.063	1183.21
763.503	480.81
763.943	316.11
764.384	311.01
764.824	378.91
765.264	420.51
765.705	285.31
766.145	190.81
766.585	171.31
767.025	162.21
767.465	168.11
767.906	218.91
768.346	302.11
768.786	321.81
769.226	241.61
769.666	281.31
770.106	537.21
770.546	1355.21
770.986	2396.21
771.426	2170.61
771.866	712.21
772.306	289.51
772.745	186.01
773.185	153.21
773.625	150.91
774.065	154.81
774.505	178.21
774.944	271.01
775.384	615.81
775.824	1139.61
776.263	1133.31
776.703	472.21
777.142	200.71
777.582	138.11
778.021	124.11
778.461	130.31
778.9	127.11
779.34	115.51
779.779	102.81
780.219	94.51
780.658	94.21
781.097	96.61
781.537	101.91
781.976	97.11
782.415	92.81
782.855	92.21
783.294	89.81
783.733	94.51
784.172	100.41
784.611	94.21
785.05	95.71
785.489	96.61
785.928	104.41
786.367	110.11
786.806	107.71
787.245	112.91
787.684	118.71
788.123	129.91
788.562	121.01
789.001	112.41
789.44	107.81
789.879	110.51
790.317	104.11
790.756	110.01
791.195	115.31
791.634	124.61
792.072	179.31
792.511	312.91
792.95	870.21
793.388	1927.21
793.827	1778.91
794.265	609.31
794.704	247.81
795.142	165.31
795.581	143.01
796.019	121.21
796.458	106.51
796.896	106.91
797.334	115.41
797.773	136.41
798.211	192.41
798.649	374.71
799.087	895.31
799.526	1425.51
799.964	1783.81
800.402	1841.71
800.84	683.11
801.278	271.21
801.716	170.61
802.154	145.41
802.592	129.81
803.03	125.61
803.468	120.11
803.906	129.11
804.344	138.81
804.782	126.21
805.22	114.41
805.658	116.21
806.096	127.01
806.533	137.21
806.971	158.11
807.409	199.51
807.847	273.61
808.284	565.81
808.722	1634.61
809.16	2981.91
809.597	2744.11
810.035	4839.11
810.472	5371.11
810.91	1900.31
811.347	719.91
811.785	367.41
812.222	232.11
812.66	174.51
813.097	151.41
813.535	125.41
813.972	116.71
814.409	111.31
814.846	100.01
815.284	101.01
815.721	90.01
816.158	92.61
816.595	106.11
817.032	161.31
817.47	181.11
817.907	152.71
818.344	143.91
818.781	104.71
819.218	91.31
819.655	109.31
820.092	159.91
820.529	194.81
820.966	156.51
821.403	120.41
821.839	101.71
822.276	89.51
822.713	109.01
823.15	117.11
823.587	107.81
824.023	129.61
824.46	259.21
824.897	797.21
825.333	1251.81
825.77	523.01
826.206	204.11
826.643	116.41
827.08	97.41
827.516	70.61
827.953	65.81
828.389	73.31
828.825	62.51
829.262	55.21
829.698	55.71
830.135	58.81
830.571	50.01
831.007	58.61
831.443	52.51
831.88	59.41
832.316	58.11
832.752	57.31
833.188	57.11
833.624	50.91
834.06	56.31
834.497	60.11
834.933	61.21
835.369	63.81
835.805	60.01
836.241	70.91
836.677	71.81
837.112	74.21
837.548	92.11
837.984	119.51
838.42	170.41
838.856	427.81
839.292	1333.81
839.727	2114.61
840.163	977.31
840.599	810.81
841.034	1794.21
841.47	1960.81
841.906	711.31
842.341	303.41
842.777	208.41
843.212	287.31
843.648	289.41
844.083	140.31
844.519	86.71
844.954	67.91
845.39	53.51
845.825	47.21
846.261	47.91
846.696	49.11
847.131	50.21
847.566	56.11
848.002	43.91
848.437	55.11
848.872	52.81
849.307	54.21
849.742	77.31
850.177	154.91
850.613	491.51
851.048	803.71
851.483	347.41
851.918	135.91
852.353	77.91
852.788	52.31
853.223	54.11
853.657	46.01
854.092	46.01
854.527	31.31
854.962	35.31
855.397	39.91
855.832	48.91
856.266	39.41
856.701	35.81
857.136	36.51
857.57	28.91
858.005	46.21
858.44	54.51
858.874	38.21
859.309	52.21
859.743	33.01
860.178	41.11
860.612	38.31
861.047	48.41
861.481	60.01
861.915	58.21
862.35	41.71
862.784	22.01
863.218	38.21
863.653	34.11
864.087	42.01
864.521	41.31
864.955	56.51
865.39	136.21
865.824	159.61
866.258	99.01
866.692	151.41
867.126	151.81
867.56	90.91
867.994	52.11
868.428	26.61
868.862	38.31
869.296	51.61
869.73	55.91
870.164	49.01
870.598	46.01
871.031	33.51
871.465	26.61
871.899	28.91
872.333	18.91
872.766	25.01
873.2	15.01
873.634	29.91
874.067	19.51
874.501	23.01
874.935	26.21
875.368	24.91
875.802	22.71
876.235	18.81
876.669	21.61
877.102	18.81
877.535	20.81
877.969	18.61
878.402	21.31
878.836	11.01
879.269	20.61
879.702	20.61
880.135	13.61
880.569	26.11
881.002	21.31
881.435	22.91
881.868	15.21
882.301	26.81
882.734	15.41
883.167	18.71
883.601	16.41
884.034	19.71
884.467	10.31
884.899	20.71
885.332	13.61
885.765	11.81
886.198	11.41
886.631	14.31
887.064	16.41
887.497	15.91
887.929	21.51
888.362	9.11
888.795	13.71
889.228	14.91
889.66	19.31
890.093	13.41
890.526	18.11
890.958	16.51
891.391	12.71
891.823	14.41
892.256	15.11
892.688	7.41
893.121	13.21
893.553	12.81
893.985	21.01
894.418	17.61
894.85	11.61
895.282	18.61
895.715	17.81
896.147	15.71
896.579	13.11
897.011	6.41
897.444	15.21
897.876	15.61
898.308	18.21
898.74	11.81
899.172	4.11
899.604	24.41
900.036	25.21
900.468	12.91
900.9	13.11
901.332	16.61
901.764	14.01
902.196	11.91
902.628	17.81
903.06	11.51
903.491	29.91
903.923	21.21
904.355	18.71
904.787	19.11
905.218	16.31
905.65	19.01
906.082	12.41
906.513	7.71
906.945	12.81
907.376	4.11
907.808	19.11
908.239	16.71
908.671	16.11
909.102	13.11
909.534	24.31
909.965	38.51
910.397	83.71
910.828	273.61
911.259	431.61
911.691	198.21
912.122	96.01
912.553	48.51
912.984	31.81
913.415	26.11
913.847	22.81
914.278	17.81
914.709	13.31
915.14	22.11
915.571	16.21
916.002	4.81
916.433	17.61
916.864	18.61
917.295	9.21
917.726	16.41
918.157	13.51
918.587	30.51
919.018	19.31
919.449	20.21
919.88	19.71
920.311	33.11
920.741	39.91
921.172	146.01
921.603	137.01
922.033	63.31
922.464	41.71
922.895	20.31
923.325	21.01
923.756	14.81
924.186	14.81
924.617	26.61
925.047	38.71
925.478	43.91
925.908	43.21
926.338	22.31
926.769	16.41
927.199	16.81
927.629	7.81
928.06	11.81
928.49	13.11
928.92	14.61
929.35	10.31
929.78	10.91
930.21	8.11
930.641	8.11
931.071	0.41
931.501	1.31
931.931	6.71
932.361	3.41
932.791	3.71
933.221	4.51
933.651	1.21
934.08	16.91
934.51	27.81
934.94	1.41
935.37	7.01
935.8	4.81
936.229	2.41
936.659	6.01
937.089	3.31
937.519	14.81
937.948	24.41
938.378	15.01
938.807	9.31
939.237	4.21
939.666	9.91
940.096	-2.99
940.525	-1.09
940.955	-2.99
941.384	5.31
941.814	-3.49
942.243	-0.79
942.672	2.41
943.102	0.01
943.531	-3.09
943.96	-2.09
944.39	3.01
944.819	-2.79
945.248	5.71
945.677	3.91
946.106	10.01
946.535	6.51
946.964	2.91
947.393	6.81
947.822	-0.29
948.251	-1.69
948.68	2.61
949.109	7.01
949.538	3.81
949.967	0.11
950.396	-0.69
950.825	0.91
951.254	0.31
951.682	-5.29
952.111	-1.79
952.54	8.31
952.969	-3.49
953.397	-2.39
953.826	-2.49
954.254	-11.09
954.683	1.31
955.112	-2.89
955.54	3.21
955.969	-0.29
956.397	-0.19
956.826	-2.89
957.254	-5.19
957.682	4.81
958.111	1.61
958.539	0.91
958.967	1.11
959.396	1.41
959.824	-1.49
960.252	1.71
960.68	-3.39
961.109	1.51
961.537	-6.19
961.965	1.71
962.393	0.91
962.821	-5.79
963.249	1.71
963.677	7.31
964.105	3.31
964.533	42.11
964.961	35.11
965.389	16.31
965.817	7.31
966.245	4.41
966.672	-0.79
967.1	-4.59
967.528	0.61
967.956	-3.19
968.383	0.81
968.811	-0.09
969.239	-4.79
969.666	-8.79
970.094	-1.79
970.522	-7.29
970.949	-6.79
971.377	-6.19
971.804	-3.99
972.232	-2.29
972.659	-1.29
973.087	-8.79
973.514	-2.49
973.941	-2.19
974.369	6.81
974.796	4.61
975.223	-2.39
975.651	-4.39
976.078	0.91
976.505	-0.79
976.932	4.41
977.359	11.41
977.786	13.21
978.214	0.61
978.641	-5.69
979.068	-8.39
979.495	-4.99
979.922	0.51
980.349	-3.89
980.776	4.61
981.202	-2.79
981.629	0.61
982.056	6.51
982.483	-3.79
982.91	-4.29
983.337	-8.19
983.763	-0.69
984.19	-7.99
984.617	-5.19
985.043	-4.39
985.47	4.81
985.897	-6.79
986.323	-9.79
986.75	0.41
987.176	-5.19
987.603	-1.49
988.029	-2.99
988.456	-0.79
988.882	4.41
989.308	-6.89
989.735	-6.59
990.161	0.61
990.587	-2.99
991.014	5.11
991.44	-1.09
991.866	-2.49
992.292	-5.79
992.719	-3.09
993.145	2.01
993.571	-8.79
993.997	-7.09
994.423	-3.49
994.849	-9.69
995.275	5.51
995.701	3.81
996.127	-3.99
996.553	6.11
996.979	1.51
997.405	-5.09
997.83	-4.79
998.256	-6.89
998.682	-9.19
999.108	-6.69
999.534	0.61
999.959	4.61
1000.385	-3.89
1000.811	3.61
1001.236	-9.29
1001.662	-6.09
1002.087	-8.89
1002.513	0.01
1002.938	-1.89
1003.364	-1.09
1003.789	1.71
1004.215	-1.09
1004.64	-7.69
1005.066	3.01
1005.491	-5.39
1005.916	-3.89
1006.342	-4.39
1006.767	-9.89
1007.192	5.71
1007.617	-5.79
1008.042	-3.79
1008.468	-0.89
1008.893	-5.39
1009.318	-1.79
1009.743	-6.19
1010.168	6.01
1010.593	-0.19
1011.018	-7.49
1011.443	-4.79
1011.868	2.51
1012.293	-6.79
1012.718	-5.99
1013.143	-1.19
1013.567	-5.39
1013.992	-3.89
1014.417	-17.79
1014.842	-0.59
1015.267	-2.49
1015.691	-4.59
1016.116	2.71
1016.541	2.91
1016.965	-0.39
1017.39	1.11
1017.814	-6.09
1018.239	-6.49
1018.663	-9.99
1019.088	-10.89
1019.512	-3.79
1019.937	0.51
1020.361	-1.69
1020.785	-8.89
1021.21	0.61
1021.634	-8.79
1022.058	2.61
1022.483	1.11
1022.907	-2.59
1023.331	-7.79
1023.755	-4.59
1024.179	0.31
1024.604	-0.09
1025.028	-6.19
1025.452	-3.79
1025.876	-4.79
1026.3	-2.39
1026.724	-10.19
1027.148	-3.69
1027.572	-9.39
1027.996	-7.29
1028.42	-1.59
1028.843	-8.49
1029.267	-4.19
1029.691	-2.19
1030.115	-8.89
1030.539	-5.59
1030.962	-9.79
1031.386	-13.29
1031.81	1.41
1032.233	-0.39
1032.657	-5.59
1033.08	-3.89
1033.504	-6.99
1033.927	-5.39
1034.351	-5.59
1034.774	-0.89
1035.198	-2.09
1035.621	-6.79
1036.045	-6.89
1036.468	-2.29
1036.891	-11.79
1037.315	-15.59
1037.738	-6.99
1038.161	-4.59
1038.584	-6.59
1039.008	-6.09
1039.431	-6.09
1039.854	-1.69
1040.277	-10.49
1040.7	-7.09
1041.123	2.81
1041.546	-5.79
1041.969	-5.69
1042.392	-6.79
1042.815	-6.49
1043.238	-0.39
1043.661	7.91
1044.084	-8.19
1044.507	-4.39
1044.93	-7.49
1045.352	-6.69
1045.775	-5.29
1046.198	-4.09
1046.621	-2.39
1047.043	2.91
1047.466	9.21
1047.889	-6.29
1048.311	-3.79
1048.734	-9.69
1049.156	-3.19
1049.579	-6.19
1050.001	1.01
1050.424	1.01
1050.846	-1.09
1051.269	-5.19
1051.691	-6.39
1052.113	-0.19
1052.536	-3.99
1052.958	-0.99
1053.38	-4.39
1053.802	-7.89
1054.225	3.51
1054.647	-16.49
1055.069	-11.29
1055.491	2.31
1055.913	-7.99
1056.335	-2.19
1056.757	-3.79
1057.179	-5.09
1057.601	-9.89
1058.023	-5.39
1058.445	-4.49
1058.867	-6.59
1059.289	-3.89
1059.711	-5.49
1060.133	-2.89
1060.555	-5.39
1060.976	-4.49
1061.398	-10.09
1061.82	-7.49
1062.241	-4.99
1062.663	-7.89
1063.085	-10.09
1063.506	-3.79
1063.928	-5.49
1064.35	-4.89
1064.771	-13.79
1065.193	0.31
1065.614	-7.29
1066.035	-7.09
1066.457	-2.29
1066.878	-0.79
1067.3	-5.89
1067.721	-0.29
1068.142	2.91
1068.564	-12.79
1068.985	-5.09
1069.406	-6.79
1069.827	-9.59
1070.248	-6.79
1070.67	-7.09
1071.091	-9.79
1071.512	-7.79
1071.933	-6.09
1072.354	-8.39
1072.775	-7.39
1073.196	-13.39
1073.617	-0.69
1074.038	-9.49
1074.459	-3.29
1074.88	-5.09
1075.3	4.21
1075.721	-6.29
1076.142	3.51
1076.563	-4.29
1076.983	-14.49
1077.404	-1.29
1077.825	-8.49
1078.246	-1.39
1078.666	-5.09
1079.087	-8.89
1079.507	-8.69
1079.928	-3.79
1080.348	-1.79
1080.769	-1.69
1081.189	2.91
1081.61	-6.89
1082.03	-8.49
1082.451	-8.99
1082.871	-6.89
1083.291	-6.39
1083.711	-10.19
1084.132	-4.99
1084.552	-7.19
1084.972	-2.59
1085.392	-8.29
1085.813	-7.89
1086.233	-14.19
1086.653	-11.49
1087.073	-6.09
1087.493	-11.19
1087.913	-4.69
1088.333	-5.49
1088.753	-1.49
1089.173	-0.89
1089.593	-1.89
1090.013	1.11
1090.433	-0.49
1090.852	-1.39
1091.272	3.41
1091.692	1.31
1092.112	-6.79
1092.531	-8.59
1092.951	-9.49
1093.371	-5.39
1093.79	0.31
1094.21	-9.59
1094.63	3.31
1095.049	-2.89
1095.469	-5.89
1095.888	-3.99
1096.308	-0.59
1096.727	3.31
1097.146	-8.19
1097.566	2.01
1097.985	-5.39
1098.405	0.01
1098.824	-4.59
1099.243	-7.69
1099.662	-9.89
1100.082	-4.39
1100.501	-1.69
1100.92	-8.69
1101.339	-2.59
1101.758	-6.29
