Data from 20171114-ORNL-Ar_H_NY_Subt18_08-05-18-495.txt Node
Date: Tue Nov 14 08:05:18 EST 2017
User: Ender
Spectrometer: HR+D1039
Trigger mode: 0
Integration Time (sec): 2.730000E-2
Scans to average: 10
Electric dark correction enabled: true
Nonlinearity correction enabled: false
Boxcar width: 0
XAxis mode: Wavelengths
Number of Pixels in Spectrum: 2048
>>>>>Begin Spectral Data<<<<<
187.836	-6.82
188.309	-6.82
188.782	-6.82
189.255	3.38
189.728	-2.32
190.201	5.98
190.674	4.58
191.147	3.38
191.619	-9.52
192.092	0.98
192.565	4.48
193.038	-3.92
193.511	-1.22
193.984	-0.22
194.456	-5.42
194.929	4.48
195.402	2.08
195.874	0.08
196.347	-1.12
196.82	-0.72
197.292	4.98
197.765	-5.42
198.237	-4.02
198.71	3.18
199.182	-2.82
199.655	7.08
200.127	4.18
200.6	-1.72
201.072	-2.42
201.544	-7.92
202.017	-5.62
202.489	6.28
202.961	3.08
203.433	-6.02
203.906	-7.52
204.378	-4.22
204.85	-6.12
205.322	-7.22
205.794	-1.12
206.266	-5.82
206.739	-2.92
207.211	8.18
207.683	-10.72
208.155	-4.32
208.627	-4.42
209.099	-8.32
209.57	-4.32
210.042	-2.22
210.514	-2.92
210.986	-6.92
211.458	-7.72
211.93	-1.42
212.402	6.58
212.873	-1.72
213.345	-3.92
213.817	-9.52
214.288	-4.92
214.76	-4.22
215.232	0.18
215.703	-4.42
216.175	2.78
216.646	-0.42
217.118	-4.72
217.589	3.08
218.061	3.38
218.532	-1.32
219.004	2.88
219.475	-1.82
219.946	3.88
220.418	-7.02
220.889	4.28
221.36	-0.92
221.832	-4.42
222.303	-3.22
222.774	1.58
223.245	-14.52
223.717	-7.12
224.188	-5.32
224.659	-8.82
225.13	-2.32
225.601	-5.22
226.072	8.18
226.543	1.48
227.014	0.68
227.485	-6.12
227.956	-8.22
228.427	0.98
228.898	-1.32
229.369	8.38
229.839	3.78
230.31	-5.72
230.781	-1.62
231.252	2.58
231.722	2.58
232.193	-0.62
232.664	5.28
233.135	1.88
233.605	-0.72
234.076	-7.12
234.546	-2.52
235.017	4.08
235.487	2.48
235.958	0.48
236.428	-0.32
236.899	5.28
237.369	6.98
237.84	-4.82
238.31	6.28
238.78	1.98
239.251	6.38
239.721	-0.52
240.191	-2.82
240.662	0.28
241.132	5.18
241.602	2.38
242.072	4.58
242.542	9.38
243.013	-2.12
243.483	4.78
243.953	-0.12
244.423	1.48
244.893	4.48
245.363	1.68
245.833	0.78
246.303	3.28
246.773	8.28
247.243	2.08
247.712	3.68
248.182	11.38
248.652	8.58
249.122	4.48
249.592	11.38
250.061	28.18
250.531	38.78
251.001	20.78
251.471	21.38
251.94	20.58
252.41	10.68
252.879	3.38
253.349	18.98
253.818	11.18
254.288	8.48
254.757	7.08
255.227	4.88
255.696	4.38
256.166	9.18
256.635	11.28
257.105	11.68
257.574	10.68
258.043	5.78
258.513	11.58
258.982	20.08
259.451	10.48
259.92	12.68
260.389	16.78
260.859	19.88
261.328	11.78
261.797	20.28
262.266	7.98
262.735	9.48
263.204	10.78
263.673	6.38
264.142	13.58
264.611	-1.52
265.08	8.38
265.549	5.08
266.018	6.88
266.487	3.88
266.955	3.78
267.424	2.18
267.893	10.28
268.362	6.98
268.83	8.08
269.299	15.98
269.768	7.38
270.236	10.88
270.705	6.28
271.174	8.78
271.642	9.98
272.111	12.58
272.579	19.08
273.048	28.88
273.516	28.18
273.985	29.68
274.453	31.98
274.922	24.68
275.39	11.08
275.858	12.88
276.327	19.78
276.795	20.48
277.263	8.88
277.731	35.38
278.2	53.38
278.668	63.08
279.136	53.88
279.604	25.88
280.072	19.48
280.54	16.78
281.008	12.58
281.477	17.98
281.945	16.98
282.413	20.38
282.881	20.98
283.348	10.78
283.816	19.88
284.284	20.98
284.752	21.38
285.22	18.28
285.688	20.88
286.156	19.08
286.623	48.88
287.091	57.58
287.559	34.78
288.026	16.08
288.494	21.48
288.962	8.78
289.429	16.58
289.897	20.88
290.364	20.88
290.832	15.38
291.3	18.38
291.767	18.88
292.234	21.08
292.702	19.98
293.169	23.48
293.637	23.08
294.104	23.68
294.571	12.78
295.039	20.28
295.506	16.08
295.973	23.88
296.44	15.68
296.908	21.38
297.375	24.18
297.842	23.28
298.309	25.78
298.776	16.58
299.243	19.78
299.71	21.38
300.177	23.18
300.644	23.18
301.111	21.78
301.578	30.58
302.045	16.28
302.512	26.48
302.979	26.68
303.446	26.78
303.913	22.18
304.379	25.38
304.846	37.18
305.313	32.18
305.78	26.58
306.246	26.78
306.713	23.98
307.18	30.38
307.646	28.88
308.113	36.28
308.579	31.78
309.046	28.38
309.512	30.18
309.979	24.28
310.445	29.68
310.912	33.88
311.378	35.38
311.845	32.68
312.311	33.88
312.777	30.98
313.244	35.88
313.71	43.78
314.176	32.28
314.642	40.28
315.109	35.38
315.575	40.58
316.041	41.98
316.507	40.28
316.973	44.88
317.439	36.58
317.905	44.78
318.371	39.08
318.837	33.58
319.303	37.58
319.769	40.68
320.235	42.98
320.701	42.58
321.167	42.48
321.633	37.78
322.099	40.38
322.564	46.28
323.03	42.88
323.496	39.88
323.962	44.18
324.427	37.58
324.893	50.48
325.359	42.48
325.824	40.88
326.29	42.78
326.755	41.88
327.221	46.88
327.686	42.58
328.152	47.48
328.617	46.28
329.083	49.78
329.548	53.68
330.014	55.18
330.479	44.98
330.944	50.78
331.41	45.68
331.875	46.48
332.34	48.58
332.805	47.28
333.271	52.48
333.736	46.68
334.201	60.28
334.666	54.78
335.131	59.68
335.596	50.58
336.061	55.78
336.526	45.08
336.991	51.48
337.456	63.48
337.921	52.38
338.386	48.88
338.851	48.98
339.316	49.88
339.781	47.78
340.246	53.38
340.711	53.18
341.175	62.48
341.64	44.78
342.105	57.58
342.569	58.58
343.034	62.28
343.499	66.98
343.963	52.88
344.428	65.48
344.893	64.08
345.357	62.68
345.822	70.38
346.286	68.48
346.751	75.18
347.215	67.88
347.679	78.48
348.144	97.58
348.608	88.08
349.073	72.48
349.537	76.48
350.001	90.98
350.465	95.48
350.93	88.38
351.394	87.38
351.858	74.68
352.322	87.98
352.786	83.98
353.25	95.48
353.715	112.78
354.179	106.68
354.643	130.78
355.107	134.48
355.571	116.48
356.035	103.58
356.498	124.08
356.962	134.48
357.426	141.58
357.89	120.18
358.354	100.68
358.818	88.98
359.281	83.58
359.745	82.98
360.209	82.18
360.673	78.68
361.136	83.68
361.6	88.08
362.064	86.78
362.527	82.78
362.991	91.78
363.454	89.58
363.918	80.58
364.381	79.28
364.845	88.08
365.308	90.98
365.772	89.48
366.235	90.08
366.698	84.88
367.162	90.88
367.625	87.68
368.088	87.48
368.552	95.28
369.015	92.18
369.478	99.18
369.941	107.98
370.404	94.48
370.867	109.98
371.331	110.48
371.794	115.18
372.257	117.28
372.72	125.28
373.183	114.48
373.646	106.58
374.109	101.18
374.572	115.78
375.035	118.28
375.497	118.38
375.96	111.08
376.423	104.58
376.886	113.38
377.349	108.18
377.811	102.88
378.274	112.08
378.737	114.38
379.199	117.98
379.662	118.88
380.125	121.48
380.587	120.58
381.05	128.38
381.512	132.38
381.975	144.68
382.437	125.78
382.9	129.98
383.362	132.88
383.825	141.38
384.287	153.18
384.75	137.28
385.212	142.08
385.674	144.08
386.136	144.48
386.599	119.68
387.061	126.88
387.523	133.98
387.985	136.88
388.447	150.78
388.91	145.68
389.372	160.08
389.834	151.58
390.296	151.68
390.758	160.68
391.22	172.18
391.682	210.38
392.144	287.78
392.606	222.88
393.068	160.18
393.529	172.28
393.991	161.38
394.453	157.48
394.915	160.38
395.377	186.88
395.838	214.48
396.3	159.48
396.762	151.98
397.224	137.28
397.685	133.98
398.147	134.08
398.608	128.68
399.07	132.48
399.531	132.48
399.993	147.08
400.454	150.98
400.916	148.98
401.377	144.58
401.839	160.88
402.3	153.68
402.762	175.38
403.223	184.18
403.684	171.28
404.145	162.38
404.607	166.48
405.068	170.78
405.529	173.48
405.99	187.48
406.451	178.88
406.913	182.38
407.374	167.28
407.835	168.18
408.296	167.48
408.757	181.38
409.218	192.88
409.679	186.18
410.14	185.08
410.601	186.28
411.062	188.18
411.522	194.48
411.983	198.48
412.444	173.58
412.905	179.98
413.366	180.08
413.826	195.18
414.287	216.68
414.748	261.18
415.208	239.08
415.669	210.88
416.13	212.48
416.59	200.68
417.051	218.28
417.511	220.38
417.972	231.68
418.432	249.58
418.893	290.38
419.353	246.88
419.814	197.28
420.274	192.58
420.734	186.68
421.195	200.08
421.655	199.28
422.115	199.18
422.576	189.88
423.036	201.78
423.496	209.48
423.956	215.48
424.416	231.88
424.876	266.98
425.336	270.58
425.797	262.48
426.257	260.68
426.717	242.68
427.177	242.48
427.637	226.18
428.097	241.78
428.556	243.48
429.016	277.08
429.476	264.88
429.936	273.18
430.396	280.88
430.856	293.98
431.315	320.68
431.775	353.18
432.235	385.88
432.694	359.88
433.154	365.48
433.614	394.68
434.073	340.08
434.533	293.28
434.993	278.08
435.452	284.28
435.912	292.58
436.371	293.68
436.83	281.98
437.29	271.08
437.749	252.08
438.209	249.08
438.668	276.38
439.127	288.68
439.587	263.78
440.046	252.28
440.505	258.38
440.964	283.48
441.424	328.88
441.883	307.48
442.342	256.08
442.801	227.18
443.26	218.68
443.719	227.68
444.178	220.18
444.637	217.48
445.096	229.38
445.555	232.58
446.014	233.18
446.473	229.48
446.932	234.78
447.391	223.28
447.849	226.18
448.308	221.38
448.767	223.88
449.226	237.18
449.685	236.38
450.143	247.28
450.602	238.38
451.061	235.78
451.519	242.68
451.978	236.78
452.436	241.58
452.895	243.78
453.353	258.98
453.812	240.78
454.27	245.38
454.729	244.18
455.187	238.98
455.646	250.58
456.104	245.68
456.562	259.98
457.021	266.38
457.479	260.98
457.937	274.28
458.395	268.88
458.854	249.48
459.312	255.58
459.77	274.78
460.228	263.88
460.686	242.68
461.144	248.58
461.602	249.98
462.06	243.58
462.518	257.68
462.976	252.18
463.434	262.28
463.892	265.18
464.35	283.48
464.808	292.08
465.266	274.48
465.724	274.28
466.181	273.18
466.639	281.48
467.097	291.98
467.555	305.18
468.012	310.58
468.47	313.98
468.928	331.98
469.385	340.08
469.843	354.48
470.3	354.58
470.758	367.38
471.215	388.98
471.673	412.88
472.13	407.28
472.588	412.98
473.045	377.88
473.503	390.68
473.96	390.48
474.417	407.98
474.875	433.48
475.332	476.78
475.789	465.68
476.246	470.28
476.704	495.88
477.161	514.88
477.618	533.78
478.075	563.48
478.532	623.78
478.989	699.68
479.446	809.98
479.903	788.48
480.36	813.88
480.817	885.88
481.274	970.48
481.731	1093.18
482.188	1181.88
482.645	1317.08
483.102	1423.38
483.558	1560.78
484.015	1619.98
484.472	1580.68
484.929	1535.48
485.385	1488.78
485.842	1449.08
486.299	1397.08
486.755	1316.78
487.212	1103.08
487.668	934.28
488.125	863.88
488.582	793.78
489.038	755.18
489.494	721.88
489.951	691.08
490.407	679.58
490.864	650.08
491.32	660.38
491.776	650.78
492.233	656.88
492.689	615.18
493.145	606.88
493.602	591.58
494.058	622.18
494.514	610.58
494.97	655.58
495.426	664.48
495.882	631.78
496.338	625.48
496.794	638.78
497.251	627.88
497.707	636.58
498.163	643.78
498.618	653.58
499.074	655.38
499.53	678.68
499.986	681.68
500.442	662.38
500.898	626.78
501.354	626.28
501.809	647.18
502.265	659.98
502.721	666.38
503.177	669.48
503.632	672.88
504.088	679.68
504.543	718.98
504.999	714.78
505.455	667.48
505.91	640.58
506.366	642.88
506.821	636.08
507.277	621.48
507.732	636.68
508.187	630.28
508.643	637.28
509.098	636.48
509.553	658.78
510.009	671.58
510.464	673.48
510.919	691.78
511.375	696.88
511.83	716.18
512.285	725.88
512.74	763.68
513.195	790.08
513.65	786.68
514.105	770.88
514.56	776.98
515.015	795.58
515.47	817.48
515.925	788.68
516.38	793.88
516.835	792.48
517.29	788.78
517.745	784.48
518.2	764.58
518.655	754.68
519.109	746.58
519.564	744.38
520.019	739.78
520.474	727.48
520.928	734.18
521.383	721.78
521.838	725.58
522.292	718.18
522.747	707.98
523.201	700.98
523.656	699.98
524.11	697.08
524.565	693.78
525.019	685.98
525.474	698.38
525.928	706.08
526.382	696.38
526.837	696.08
527.291	708.58
527.745	700.08
528.2	702.98
528.654	698.88
529.108	693.28
529.562	691.68
530.016	693.38
530.47	692.18
530.925	693.98
531.379	700.08
531.833	707.68
532.287	700.98
532.741	708.28
533.195	713.18
533.649	713.18
534.103	728.28
534.556	710.88
535.01	713.78
535.464	712.18
535.918	727.38
536.372	737.08
536.826	717.58
537.279	709.18
537.733	721.18
538.187	723.28
538.64	723.98
539.094	719.38
539.548	733.28
540.001	720.98
540.455	719.88
540.908	732.68
541.362	736.38
541.815	752.28
542.269	758.08
542.722	749.48
543.175	761.88
543.629	766.58
544.082	788.88
544.536	779.68
544.989	789.98
545.442	796.38
545.895	786.68
546.349	782.28
546.802	785.98
547.255	789.98
547.708	801.88
548.161	802.08
548.614	813.78
549.067	827.98
549.52	818.38
549.973	814.78
550.426	798.38
550.879	782.38
551.332	790.38
551.785	794.58
552.238	806.78
552.691	810.58
553.144	833.78
553.596	842.88
554.049	862.08
554.502	896.08
554.955	918.28
555.407	910.18
555.86	899.68
556.313	892.98
556.765	877.08
557.218	879.78
557.67	874.58
558.123	883.38
558.576	868.78
559.028	869.28
559.48	877.48
559.933	872.58
560.385	835.68
560.838	803.28
561.29	769.98
561.742	768.78
562.195	754.18
562.647	754.98
563.099	771.78
563.551	765.58
564.004	767.08
564.456	771.08
564.908	752.88
565.36	733.78
565.812	727.98
566.264	714.68
566.716	724.98
567.168	707.88
567.62	721.98
568.072	698.08
568.524	696.48
568.976	675.78
569.428	668.18
569.88	675.18
570.332	680.68
570.784	684.48
571.235	677.78
571.687	685.08
572.139	693.28
572.59	708.78
573.042	693.98
573.494	700.78
573.945	698.98
574.397	676.08
574.849	688.08
575.3	687.18
575.752	681.88
576.203	675.38
576.655	682.88
577.106	661.58
577.557	660.98
578.009	668.48
578.46	654.98
578.912	651.68
579.363	643.88
579.814	669.68
580.265	663.78
580.717	659.08
581.168	669.08
581.619	670.38
582.07	658.88
582.521	674.38
582.972	657.98
583.423	663.68
583.875	675.98
584.326	688.78
584.777	737.28
585.227	811.58
585.678	893.68
586.129	974.58
586.58	1054.38
587.031	1136.68
587.482	1290.58
587.933	1475.68
588.384	1290.38
588.834	964.58
589.285	786.88
589.736	773.58
590.186	760.78
590.637	753.08
591.088	732.08
591.538	729.08
591.989	711.48
592.439	705.28
592.89	707.98
593.34	695.18
593.791	699.48
594.241	692.78
594.692	697.78
595.142	689.38
595.593	686.78
596.043	687.48
596.493	700.18
596.943	706.08
597.394	704.28
597.844	703.08
598.294	710.28
598.744	735.18
599.195	762.28
599.645	795.38
600.095	835.78
600.545	888.68
600.995	943.08
601.445	995.18
601.895	1056.68
602.345	1110.28
602.795	1097.58
603.245	1038.28
603.695	983.88
604.145	937.48
604.594	897.48
605.044	841.28
605.494	785.38
605.944	736.58
606.393	724.38
606.843	708.28
607.293	715.18
607.743	716.58
608.192	719.08
608.642	746.08
609.091	742.58
609.541	761.18
609.99	748.08
610.44	746.98
610.889	708.18
611.339	683.98
611.788	663.48
612.238	684.78
612.687	690.48
613.136	703.28
613.586	712.28
614.035	712.98
614.484	729.18
614.933	739.78
615.383	725.88
615.832	720.98
616.281	701.38
616.73	653.88
617.179	643.78
617.628	631.18
618.077	621.98
618.526	603.88
618.975	601.08
619.424	586.28
619.873	602.38
620.322	603.58
620.771	580.38
621.22	581.38
621.669	574.28
622.118	573.48
622.567	560.18
623.015	557.68
623.464	551.48
623.913	550.08
624.361	544.38
624.81	535.18
625.259	540.98
625.707	536.08
626.156	542.08
626.604	536.68
627.053	536.88
627.501	544.08
627.95	554.28
628.398	568.88
628.847	547.98
629.295	558.28
629.744	554.58
630.192	549.68
630.64	559.98
631.089	545.78
631.537	555.28
631.985	560.38
632.433	574.58
632.881	577.38
633.33	625.48
633.778	604.78
634.226	542.28
634.674	551.98
635.122	560.18
635.57	577.48
636.018	602.08
636.466	558.68
636.914	547.48
637.362	553.28
637.81	553.98
638.258	561.98
638.705	562.48
639.153	587.28
639.601	591.68
640.049	603.58
640.497	644.18
640.944	665.48
641.392	622.88
641.84	591.38
642.287	550.08
642.735	539.28
643.182	550.18
643.63	539.38
644.078	547.48
644.525	561.98
644.973	576.38
645.42	583.38
645.867	589.08
646.315	603.78
646.762	633.18
647.21	664.78
647.657	685.58
648.104	715.08
648.551	738.88
648.999	810.98
649.446	884.78
649.893	972.58
650.34	1110.08
650.787	1325.58
651.234	1647.48
651.682	2148.08
652.129	2916.38
652.576	4206.98
653.023	6215.68
653.47	8563.68
653.917	10779.48
654.363	12540.68
654.81	13924.18
655.257	13292.78
655.704	8677.68
656.151	5137.78
656.598	3308.98
657.044	2344.78
657.491	1792.68
657.938	1449.08
658.385	1206.98
658.831	1044.98
659.278	926.98
659.724	815.98
660.171	761.08
660.618	706.08
661.064	657.58
661.511	639.18
661.957	621.68
662.404	609.88
662.85	620.28
663.296	604.18
663.743	536.18
664.189	511.38
664.635	502.58
665.082	501.78
665.528	505.38
665.974	500.58
666.42	486.98
666.867	486.58
667.313	470.18
667.759	465.18
668.205	461.88
668.651	460.78
669.097	456.08
669.543	484.88
669.989	450.58
670.435	427.48
670.881	417.58
671.327	435.08
671.773	446.28
672.219	467.68
672.665	518.58
673.11	563.08
673.556	596.88
674.002	636.38
674.448	616.88
674.893	519.88
675.339	454.88
675.785	415.48
676.23	395.58
676.676	374.68
677.122	362.88
677.567	351.28
678.013	348.78
678.458	343.58
678.904	340.38
679.349	325.78
679.794	330.68
680.24	335.38
680.685	330.98
681.131	322.08
681.576	326.08
682.021	338.58
682.466	332.98
682.912	327.28
683.357	334.78
683.802	365.98
684.247	386.68
684.692	421.88
685.137	462.38
685.583	507.88
686.028	527.78
686.473	488.68
686.918	425.38
687.363	398.08
687.807	374.28
688.252	352.08
688.697	347.08
689.142	322.08
689.587	312.78
690.032	301.88
690.477	322.38
690.921	331.18
691.366	366.38
691.811	376.58
692.255	411.68
692.7	437.68
693.145	468.78
693.589	643.08
694.034	1052.78
694.478	1438.68
694.923	1659.38
695.367	2159.28
695.812	1130.68
696.256	470.98
696.701	344.28
697.145	319.58
697.59	308.08
698.034	304.28
698.478	311.98
698.922	313.78
699.367	311.78
699.811	325.18
700.255	330.28
700.699	357.98
701.143	398.18
701.588	449.28
702.032	490.48
702.476	488.88
702.92	455.78
703.364	461.18
703.808	592.78
704.252	960.58
704.696	1347.98
705.14	1570.48
705.584	2028.38
706.027	1000.78
706.471	495.78
706.915	377.18
707.359	332.98
707.803	309.68
708.246	302.68
708.69	294.58
709.134	300.38
709.577	291.98
710.021	290.88
710.465	287.68
710.908	288.98
711.352	285.18
711.795	299.08
712.239	327.08
712.682	359.78
713.126	403.68
713.569	438.78
714.012	355.68
714.456	296.58
714.899	280.88
715.342	263.48
715.786	251.08
716.229	244.28
716.672	239.68
717.115	238.88
717.558	235.18
718.002	237.88
718.445	250.78
718.888	268.08
719.331	274.38
719.774	288.58
720.217	290.18
720.66	264.78
721.103	248.68
721.546	234.78
721.989	227.68
722.432	218.68
722.874	224.68
723.317	220.98
723.76	219.18
724.203	238.98
724.645	296.08
725.088	418.88
725.531	528.58
725.974	614.58
726.416	519.78
726.859	298.08
727.301	229.18
727.744	231.78
728.187	222.98
728.629	227.88
729.071	231.08
729.514	237.08
729.956	255.18
730.399	266.98
730.841	267.78
731.283	258.48
731.726	252.08
732.168	249.58
732.61	252.18
733.053	272.88
733.495	298.68
733.937	324.88
734.379	372.38
734.821	403.08
735.263	501.28
735.705	764.98
736.148	1449.98
736.59	2385.08
737.032	2885.58
737.474	2362.28
737.916	769.58
738.357	405.08
738.799	306.88
739.241	281.88
739.683	266.58
740.125	274.98
740.567	281.38
741.008	301.48
741.45	300.38
741.892	294.78
742.334	332.38
742.775	344.38
743.217	317.68
743.658	257.48
744.1	237.18
744.542	240.78
744.983	289.28
745.425	323.18
745.866	318.78
746.307	274.38
746.749	266.48
747.19	300.48
747.632	416.98
748.073	787.58
748.514	1699.58
748.956	2643.88
749.397	3331.88
749.838	2767.08
750.279	2823.88
750.72	1418.28
751.162	507.18
751.603	305.58
752.044	236.68
752.485	202.18
752.926	201.08
753.367	194.08
753.808	180.08
754.249	174.48
754.69	175.68
755.131	172.58
755.572	174.88
756.013	170.28
756.453	176.38
756.894	177.48
757.335	182.38
757.776	191.88
758.216	188.68
758.657	190.98
759.098	187.08
759.538	206.78
759.979	250.88
760.42	342.88
760.86	642.38
761.301	1647.18
761.741	4033.48
762.182	6105.08
762.622	4302.88
763.063	1233.28
763.503	514.28
763.943	326.78
764.384	324.78
764.824	386.48
765.264	422.48
765.705	294.18
766.145	197.88
766.585	179.68
767.025	171.98
767.465	181.68
767.906	225.58
768.346	309.68
768.786	324.88
769.226	249.98
769.666	301.28
770.106	560.78
770.546	1415.68
770.986	2493.68
771.426	2244.38
771.866	743.38
772.306	298.98
772.745	195.88
773.185	159.48
773.625	163.78
774.065	161.68
774.505	186.28
774.944	276.88
775.384	620.88
775.824	1143.48
776.263	1139.08
776.703	481.08
777.142	210.58
777.582	152.18
778.021	131.98
778.461	123.48
778.9	134.78
779.34	123.68
779.779	107.48
780.219	101.78
780.658	102.28
781.097	105.58
781.537	109.38
781.976	106.88
782.415	97.88
782.855	98.68
783.294	96.68
783.733	98.08
784.172	105.08
784.611	98.98
785.05	104.28
785.489	105.68
785.928	108.48
786.367	109.78
786.806	104.38
787.245	122.58
787.684	126.88
788.123	132.28
788.562	130.68
789.001	116.58
789.44	115.98
789.879	112.78
790.317	115.98
790.756	127.18
791.195	122.68
791.634	141.78
792.072	187.88
792.511	340.88
792.95	910.68
793.388	2001.08
793.827	1842.28
794.265	632.18
794.704	260.88
795.142	177.18
795.581	141.68
796.019	131.28
796.458	123.48
796.896	117.38
797.334	123.18
797.773	146.78
798.211	197.78
798.649	395.48
799.087	933.58
799.526	1480.98
799.964	1867.78
800.402	1919.58
800.84	725.48
801.278	282.98
801.716	178.18
802.154	140.68
802.592	134.88
803.03	126.98
803.468	130.68
803.906	132.38
804.344	137.68
804.782	136.58
805.22	119.88
805.658	124.28
806.096	133.48
806.533	146.88
806.971	163.68
807.409	207.48
807.847	290.78
808.284	590.68
808.722	1688.78
809.16	3086.18
809.597	2891.18
810.035	5042.58
810.472	5521.18
810.91	1968.38
811.347	742.98
811.785	374.38
812.222	242.88
812.66	185.08
813.097	151.98
813.535	141.38
813.972	121.78
814.409	111.68
814.846	103.58
815.284	105.78
815.721	97.18
816.158	99.18
816.595	122.78
817.032	171.38
817.47	186.18
817.907	160.38
818.344	143.58
818.781	109.08
819.218	94.18
819.655	113.18
820.092	175.38
820.529	203.68
820.966	172.78
821.403	123.58
821.839	103.08
822.276	95.18
822.713	111.98
823.15	122.08
823.587	113.48
824.023	135.68
824.46	271.68
824.897	821.38
825.333	1283.98
825.77	545.58
826.206	210.68
826.643	129.48
827.08	94.08
827.516	82.28
827.953	71.48
828.389	71.78
828.825	68.98
829.262	69.48
829.698	61.38
830.135	67.48
830.571	60.08
831.007	61.58
831.443	63.78
831.88	61.28
832.316	58.88
832.752	60.38
833.188	58.18
833.624	55.98
834.06	71.18
834.497	67.28
834.933	65.38
835.369	72.28
835.805	61.28
836.241	65.98
836.677	77.68
837.112	90.18
837.548	97.58
837.984	126.68
838.42	179.48
838.856	451.38
839.292	1383.48
839.727	2183.98
840.163	1015.58
840.599	848.08
841.034	1887.08
841.47	2027.88
841.906	733.98
842.341	312.28
842.777	215.78
843.212	293.58
843.648	292.78
844.083	148.18
844.519	94.98
844.954	70.78
845.39	57.78
845.825	57.68
846.261	58.88
846.696	52.08
847.131	55.58
847.566	55.68
848.002	55.78
848.437	53.48
848.872	60.18
849.307	57.88
849.742	79.98
850.177	163.38
850.613	513.98
851.048	832.38
851.483	358.98
851.918	146.38
852.353	84.38
852.788	55.28
853.223	59.98
853.657	48.38
854.092	45.68
854.527	41.68
854.962	44.48
855.397	38.08
855.832	47.78
856.266	39.48
856.701	46.08
857.136	41.98
857.57	36.98
858.005	47.48
858.44	58.68
858.874	38.18
859.309	40.68
859.743	42.28
860.178	49.28
860.612	41.68
861.047	52.38
861.481	65.08
861.915	74.08
862.35	49.58
862.784	32.88
863.218	34.78
863.653	36.48
864.087	44.68
864.521	49.38
864.955	66.98
865.39	145.48
865.824	168.08
866.258	106.68
866.692	153.58
867.126	166.78
867.56	109.18
867.994	46.68
868.428	33.88
868.862	40.98
869.296	47.98
869.73	49.48
870.164	51.88
870.598	48.48
871.031	33.98
871.465	31.98
871.899	30.38
872.333	24.08
872.766	22.48
873.2	23.48
873.634	31.68
874.067	24.28
874.501	24.18
874.935	32.48
875.368	30.38
875.802	22.98
876.235	19.88
876.669	25.78
877.102	23.58
877.535	26.28
877.969	24.28
878.402	30.58
878.836	20.68
879.269	26.08
879.702	21.58
880.135	17.18
880.569	25.88
881.002	29.48
881.435	25.48
881.868	13.98
882.301	22.78
882.734	20.58
883.167	27.88
883.601	20.18
884.034	20.38
884.467	17.08
884.899	18.98
885.332	16.28
885.765	11.18
886.198	15.38
886.631	19.98
887.064	19.48
887.497	21.98
887.929	31.18
888.362	21.18
888.795	15.88
889.228	19.68
889.66	25.08
890.093	14.48
890.526	17.68
890.958	18.58
891.391	20.08
891.823	16.58
892.256	15.58
892.688	15.08
893.121	13.68
893.553	17.48
893.985	21.38
894.418	19.58
894.85	9.38
895.282	18.28
895.715	16.28
896.147	17.08
896.579	11.18
897.011	10.78
897.444	16.58
897.876	7.78
898.308	15.58
898.74	16.48
899.172	12.58
899.604	17.28
900.036	23.68
900.468	10.38
900.9	13.78
901.332	19.78
901.764	16.58
902.196	19.68
902.628	19.78
903.06	16.58
903.491	30.38
903.923	21.98
904.355	21.48
904.787	24.38
905.218	25.88
905.65	20.38
906.082	12.48
906.513	12.18
906.945	15.18
907.376	12.38
907.808	21.68
908.239	16.38
908.671	16.18
909.102	23.58
909.534	25.68
909.965	46.38
910.397	88.38
910.828	291.78
911.259	459.38
911.691	209.58
912.122	101.68
912.553	50.98
912.984	36.08
913.415	25.78
913.847	31.78
914.278	16.98
914.709	18.48
915.14	22.48
915.571	18.48
916.002	11.68
916.433	20.98
916.864	16.48
917.295	16.58
917.726	19.48
918.157	14.78
918.587	24.38
919.018	19.38
919.449	20.08
919.88	22.08
920.311	30.78
920.741	43.58
921.172	155.08
921.603	146.18
922.033	64.78
922.464	38.28
922.895	23.68
923.325	14.78
923.756	16.08
924.186	15.18
924.617	27.58
925.047	41.38
925.478	53.18
925.908	45.58
926.338	28.18
926.769	25.28
927.199	26.28
927.629	9.68
928.06	19.08
928.49	19.08
928.92	14.78
929.35	15.18
929.78	15.68
930.21	8.58
930.641	10.48
931.071	10.28
931.501	-1.52
931.931	11.78
932.361	12.78
932.791	4.28
933.221	12.08
933.651	5.08
934.08	15.98
934.51	25.98
934.94	11.78
935.37	12.78
935.8	11.88
936.229	12.68
936.659	13.98
937.089	4.78
937.519	10.68
937.948	23.78
938.378	14.68
938.807	4.68
939.237	2.88
939.666	11.08
940.096	-3.62
940.525	6.38
940.955	5.38
941.384	6.88
941.814	-5.02
942.243	-7.72
942.672	5.88
943.102	3.08
943.531	7.28
943.96	11.08
944.39	1.78
944.819	-3.62
945.248	1.68
945.677	2.68
946.106	4.18
946.535	9.08
946.964	0.88
947.393	9.38
947.822	4.38
948.251	1.28
948.68	11.68
949.109	14.58
949.538	6.88
949.967	2.38
950.396	1.98
950.825	-3.02
951.254	0.98
951.682	1.48
952.111	2.38
952.54	7.58
952.969	-1.32
953.397	-9.32
953.826	0.48
954.254	-6.42
954.683	3.28
955.112	-1.42
955.54	3.98
955.969	2.98
956.397	6.58
956.826	0.78
957.254	1.58
957.682	0.78
958.111	8.28
958.539	1.68
958.967	4.48
959.396	-1.32
959.824	-0.32
960.252	6.38
960.68	-5.12
961.109	4.28
961.537	3.88
961.965	-2.12
962.393	-2.62
962.821	-1.72
963.249	-1.42
963.677	0.38
964.105	6.78
964.533	37.78
964.961	39.18
965.389	18.58
965.817	10.78
966.245	1.68
966.672	2.28
967.1	-6.62
967.528	9.48
967.956	0.38
968.383	6.18
968.811	-1.82
969.239	-2.92
969.666	-4.22
970.094	0.38
970.522	8.08
970.949	5.98
971.377	4.38
971.804	-3.22
972.232	2.98
972.659	4.28
973.087	3.58
973.514	-5.32
973.941	-5.52
974.369	5.08
974.796	4.88
975.223	4.68
975.651	0.78
976.078	0.48
976.505	1.58
976.932	-0.12
977.359	17.18
977.786	18.98
978.214	7.28
978.641	-4.42
979.068	-4.72
979.495	-0.82
979.922	3.68
980.349	-1.72
980.776	6.18
981.202	-1.42
981.629	2.48
982.056	3.68
982.483	-1.02
982.91	7.18
983.337	-2.92
983.763	7.28
984.19	-1.82
984.617	-2.82
985.043	2.08
985.47	1.28
985.897	-0.92
986.323	-4.92
986.75	9.38
987.176	-1.12
987.603	1.08
988.029	-4.22
988.456	-8.72
988.882	2.88
989.308	1.28
989.735	0.58
990.161	3.48
990.587	-2.72
991.014	2.98
991.44	7.88
991.866	-2.22
992.292	-2.52
992.719	-1.42
993.145	1.98
993.571	-8.52
993.997	-5.62
994.423	-4.02
994.849	0.38
995.275	-3.82
995.701	-0.02
996.127	-1.72
996.553	2.28
996.979	-5.62
997.405	-2.82
997.83	-5.72
998.256	-6.52
998.682	-5.12
999.108	-5.62
999.534	4.08
999.959	0.18
1000.385	-2.42
1000.811	0.08
1001.236	-3.72
1001.662	-8.42
1002.087	-9.02
1002.513	-4.32
1002.938	3.58
1003.364	3.68
1003.789	3.88
1004.215	0.48
1004.64	-0.02
1005.066	0.18
1005.491	-2.22
1005.916	-0.42
1006.342	3.48
1006.767	-6.92
1007.192	4.48
1007.617	-4.62
1008.042	-4.32
1008.468	-5.02
1008.893	-1.02
1009.318	-1.72
1009.743	-0.92
1010.168	6.48
1010.593	4.28
1011.018	-8.42
1011.443	-7.52
1011.868	-1.12
1012.293	-1.42
1012.718	-2.02
1013.143	-0.72
1013.567	3.68
1013.992	1.88
1014.417	-16.62
1014.842	6.98
1015.267	-6.42
1015.691	3.58
1016.116	8.18
1016.541	-1.02
1016.965	2.68
1017.39	-2.02
1017.814	1.78
1018.239	-1.22
1018.663	-6.72
1019.088	-3.92
1019.512	0.68
1019.937	-2.52
1020.361	-5.02
1020.785	-9.72
1021.21	-1.72
1021.634	-3.62
1022.058	1.18
1022.483	1.98
1022.907	-4.62
1023.331	7.98
1023.755	-2.32
1024.179	0.68
1024.604	-5.62
1025.028	-0.92
1025.452	-7.82
1025.876	-0.02
1026.3	4.28
1026.724	-5.12
1027.148	-4.12
1027.572	-6.32
1027.996	1.58
1028.42	-5.92
1028.843	-3.12
1029.267	-8.12
1029.691	-1.32
1030.115	-7.82
1030.539	-7.62
1030.962	-6.12
1031.386	-7.62
1031.81	-1.62
1032.233	1.58
1032.657	-0.72
1033.08	-2.22
1033.504	1.28
1033.927	-2.62
1034.351	-5.52
1034.774	-10.12
1035.198	-2.52
1035.621	-6.92
1036.045	-7.32
1036.468	-0.12
1036.891	-12.12
1037.315	-9.32
1037.738	-9.22
1038.161	0.78
1038.584	-1.12
1039.008	-5.12
1039.431	-3.82
1039.854	-5.62
1040.277	-13.02
1040.7	-6.02
1041.123	3.48
1041.546	-11.12
1041.969	-2.32
1042.392	1.58
1042.815	0.18
1043.238	-1.52
1043.661	5.28
1044.084	-9.22
1044.507	-2.82
1044.93	0.88
1045.352	-4.32
1045.775	-0.32
1046.198	-2.82
1046.621	2.48
1047.043	4.48
1047.466	5.28
1047.889	-4.82
1048.311	0.78
1048.734	0.38
1049.156	-1.92
1049.579	-2.42
1050.001	-3.52
1050.424	2.98
1050.846	-4.32
1051.269	-8.82
1051.691	-5.42
1052.113	-6.62
1052.536	-4.22
1052.958	-4.52
1053.38	0.88
1053.802	-8.42
1054.225	0.68
1054.647	-13.42
1055.069	-0.52
1055.491	-1.92
1055.913	-4.62
1056.335	-1.82
1056.757	-0.42
1057.179	-6.72
1057.601	-1.12
1058.023	-4.52
1058.445	0.58
1058.867	-1.52
1059.289	-1.82
1059.711	-3.62
1060.133	1.88
1060.555	-3.92
1060.976	-4.62
1061.398	-0.32
1061.82	-2.62
1062.241	-4.22
1062.663	-8.72
1063.085	-2.92
1063.506	-1.62
1063.928	-1.02
1064.35	-4.72
1064.771	-10.32
1065.193	3.18
1065.614	-4.52
1066.035	-0.72
1066.457	-3.62
1066.878	4.68
1067.3	-1.72
1067.721	-0.82
1068.142	-4.32
1068.564	1.48
1068.985	-7.42
1069.406	-4.22
1069.827	-7.72
1070.248	0.68
1070.67	-4.12
1071.091	-5.22
1071.512	-0.62
1071.933	4.98
1072.354	-3.32
1072.775	-3.52
1073.196	-6.22
1073.617	-3.82
1074.038	-2.22
1074.459	-0.92
1074.88	-9.02
1075.3	-0.82
1075.721	-5.02
1076.142	0.08
1076.563	-0.22
1076.983	-7.72
1077.404	-6.52
1077.825	-3.22
1078.246	-4.12
1078.666	-8.02
1079.087	0.18
1079.507	-5.82
1079.928	3.18
1080.348	-3.32
1080.769	-2.82
1081.189	3.68
1081.61	-0.22
1082.03	-5.12
1082.451	-4.12
1082.871	3.18
1083.291	-1.92
1083.711	-6.82
1084.132	-1.82
1084.552	-4.22
1084.972	-1.42
1085.392	-10.82
1085.813	-7.32
1086.233	-5.22
1086.653	-2.92
1087.073	1.08
1087.493	-8.42
1087.913	-6.32
1088.333	-6.22
1088.753	-9.72
1089.173	2.98
1089.593	-1.72
1090.013	0.58
1090.433	-0.12
1090.852	-1.42
1091.272	-0.92
1091.692	2.58
1092.112	-3.12
1092.531	-7.22
1092.951	-10.12
1093.371	-5.92
1093.79	2.08
1094.21	-2.32
1094.63	-2.92
1095.049	-4.42
1095.469	-0.62
1095.888	-4.12
1096.308	4.68
1096.727	3.28
1097.146	1.58
1097.566	10.98
1097.985	-8.42
1098.405	-3.92
1098.824	-3.32
1099.243	-7.72
1099.662	-8.42
1100.082	-4.02
1100.501	1.18
1100.92	-2.12
1101.339	0.58
1101.758	2.08
