Data from 20171114-ORNL-Ar_H_NY_Subt18_08-08-14-565.txt Node
Date: Tue Nov 14 08:08:14 EST 2017
User: Ender
Spectrometer: HR+D1039
Trigger mode: 0
Integration Time (sec): 2.730000E-2
Scans to average: 10
Electric dark correction enabled: true
Nonlinearity correction enabled: false
Boxcar width: 0
XAxis mode: Wavelengths
Number of Pixels in Spectrum: 2048
>>>>>Begin Spectral Data<<<<<
187.836	-2.64
188.309	-2.64
188.782	-2.64
189.255	4.46
189.728	-3.34
190.201	6.26
190.674	5.06
191.147	5.66
191.619	-5.94
192.092	0.06
192.565	1.26
193.038	-1.04
193.511	-4.64
193.984	3.26
194.456	-5.84
194.929	3.56
195.402	-1.34
195.874	-4.74
196.347	-4.64
196.82	-7.94
197.292	8.36
197.765	-1.64
198.237	-5.34
198.71	0.76
199.182	-3.24
199.655	2.16
200.127	1.76
200.6	-3.04
201.072	-1.24
201.544	-1.34
202.017	-4.44
202.489	1.16
202.961	-3.94
203.433	-1.64
203.906	-6.14
204.378	-5.64
204.85	-1.84
205.322	-11.34
205.794	-1.94
206.266	-4.34
206.739	-10.24
207.211	3.06
207.683	-5.54
208.155	-7.54
208.627	-5.44
209.099	-3.74
209.57	-5.64
210.042	-1.64
210.514	-2.64
210.986	-5.74
211.458	-10.04
211.93	7.86
212.402	0.96
212.873	-4.34
213.345	-6.84
213.817	-9.44
214.288	-6.14
214.76	-14.04
215.232	-4.64
215.703	-3.14
216.175	-3.14
216.646	-4.64
217.118	-10.54
217.589	-4.04
218.061	2.66
218.532	-1.44
219.004	-0.94
219.475	0.76
219.946	0.86
220.418	-0.34
220.889	0.86
221.36	2.96
221.832	-5.74
222.303	-4.74
222.774	-1.14
223.245	-11.24
223.717	-2.74
224.188	-12.64
224.659	-11.04
225.13	-9.34
225.601	-0.44
226.072	5.96
226.543	-3.74
227.014	1.56
227.485	-1.74
227.956	-5.54
228.427	-6.34
228.898	-0.44
229.369	0.36
229.839	-6.34
230.31	-6.74
230.781	6.26
231.252	1.06
231.722	-6.94
232.193	-0.24
232.664	1.56
233.135	2.66
233.605	0.16
234.076	-6.34
234.546	2.36
235.017	2.56
235.487	1.66
235.958	-2.94
236.428	-5.34
236.899	3.76
237.369	2.76
237.84	0.56
238.31	4.56
238.78	-2.94
239.251	0.86
239.721	2.66
240.191	-2.74
240.662	-3.04
241.132	-3.24
241.602	-3.94
242.072	0.06
242.542	1.26
243.013	-7.34
243.483	3.56
243.953	4.86
244.423	-3.84
244.893	-1.04
245.363	4.66
245.833	-4.74
246.303	-1.14
246.773	7.46
247.243	2.66
247.712	3.86
248.182	5.86
248.652	5.56
249.122	6.26
249.592	5.36
250.061	16.86
250.531	34.26
251.001	15.06
251.471	16.46
251.94	14.16
252.41	11.36
252.879	-0.44
253.349	11.66
253.818	9.06
254.288	4.06
254.757	-1.44
255.227	2.06
255.696	5.96
256.166	1.06
256.635	6.16
257.105	2.96
257.574	8.96
258.043	8.56
258.513	12.16
258.982	12.36
259.451	7.36
259.92	8.16
260.389	7.96
260.859	16.06
261.328	10.56
261.797	11.16
262.266	6.26
262.735	9.06
263.204	8.76
263.673	0.86
264.142	11.36
264.611	-2.64
265.08	0.26
265.549	-2.44
266.018	8.06
266.487	-3.54
266.955	-3.24
267.424	5.36
267.893	3.66
268.362	-0.04
268.83	2.06
269.299	5.16
269.768	-5.34
270.236	1.96
270.705	5.26
271.174	5.96
271.642	4.96
272.111	2.56
272.579	18.16
273.048	23.96
273.516	24.16
273.985	26.96
274.453	27.46
274.922	22.36
275.39	12.06
275.858	6.36
276.327	11.46
276.795	19.06
277.263	10.56
277.731	29.36
278.2	54.66
278.668	58.06
279.136	44.16
279.604	24.36
280.072	17.76
280.54	10.66
281.008	7.56
281.477	9.26
281.945	14.76
282.413	18.46
282.881	21.06
283.348	4.26
283.816	14.26
284.284	11.46
284.752	16.06
285.22	15.86
285.688	13.96
286.156	19.86
286.623	44.66
287.091	47.86
287.559	25.76
288.026	17.16
288.494	10.16
288.962	7.96
289.429	5.36
289.897	19.06
290.364	13.86
290.832	17.46
291.3	13.16
291.767	12.96
292.234	18.06
292.702	12.06
293.169	15.16
293.637	22.36
294.104	21.46
294.571	12.06
295.039	12.56
295.506	11.36
295.973	18.16
296.44	11.36
296.908	14.76
297.375	21.06
297.842	21.56
298.309	19.76
298.776	13.76
299.243	16.36
299.71	12.06
300.177	22.36
300.644	23.26
301.111	14.66
301.578	22.66
302.045	10.56
302.512	23.16
302.979	23.56
303.446	21.46
303.913	18.36
304.379	21.66
304.846	22.16
305.313	28.86
305.78	25.26
306.246	23.16
306.713	25.46
307.18	25.16
307.646	28.36
308.113	28.86
308.579	20.36
309.046	29.06
309.512	20.56
309.979	22.36
310.445	26.66
310.912	29.26
311.378	28.66
311.845	26.46
312.311	33.46
312.777	29.46
313.244	22.46
313.71	32.56
314.176	27.46
314.642	34.36
315.109	35.06
315.575	38.16
316.041	35.66
316.507	33.46
316.973	33.36
317.439	35.76
317.905	37.96
318.371	35.96
318.837	33.66
319.303	39.16
319.769	29.86
320.235	32.46
320.701	34.06
321.167	37.56
321.633	34.36
322.099	38.86
322.564	41.46
323.03	30.56
323.496	38.76
323.962	40.06
324.427	35.06
324.893	40.36
325.359	33.76
325.824	39.76
326.29	32.16
326.755	33.16
327.221	39.56
327.686	36.06
328.152	38.36
328.617	41.66
329.083	46.86
329.548	47.96
330.014	46.06
330.479	28.26
330.944	34.46
331.41	36.46
331.875	40.66
332.34	41.66
332.805	44.06
333.271	45.96
333.736	42.36
334.201	49.06
334.666	44.96
335.131	52.86
335.596	50.56
336.061	47.96
336.526	42.36
336.991	45.66
337.456	54.66
337.921	50.36
338.386	44.96
338.851	47.86
339.316	45.26
339.781	41.56
340.246	50.06
340.711	44.86
341.175	46.86
341.64	42.56
342.105	50.46
342.569	53.36
343.034	60.26
343.499	52.06
343.963	46.16
344.428	62.26
344.893	60.86
345.357	59.16
345.822	64.76
346.286	63.26
346.751	71.76
347.215	63.26
347.679	73.06
348.144	98.56
348.608	79.66
349.073	70.76
349.537	72.46
350.001	79.36
350.465	88.36
350.93	87.86
351.394	79.06
351.858	71.76
352.322	82.16
352.786	85.96
353.25	98.46
353.715	113.06
354.179	94.86
354.643	118.16
355.107	132.76
355.571	103.26
356.035	100.16
356.498	119.06
356.962	122.56
357.426	126.16
357.89	117.06
358.354	93.26
358.818	76.26
359.281	76.36
359.745	75.86
360.209	74.16
360.673	69.96
361.136	76.66
361.6	79.76
362.064	79.96
362.527	82.26
362.991	90.56
363.454	78.56
363.918	80.06
364.381	81.16
364.845	82.76
365.308	86.06
365.772	78.76
366.235	93.06
366.698	81.56
367.162	87.66
367.625	83.26
368.088	79.86
368.552	92.26
369.015	88.66
369.478	96.46
369.941	104.36
370.404	91.46
370.867	100.46
371.331	108.56
371.794	113.16
372.257	105.26
372.72	115.96
373.183	104.26
373.646	103.16
374.109	97.96
374.572	108.16
375.035	113.96
375.497	105.06
375.96	108.46
376.423	108.26
376.886	108.26
377.349	108.06
377.811	99.86
378.274	110.16
378.737	109.66
379.199	108.66
379.662	111.86
380.125	115.16
380.587	120.76
381.05	133.06
381.512	131.96
381.975	136.36
382.437	132.06
382.9	127.16
383.362	124.26
383.825	147.96
384.287	146.76
384.75	142.66
385.212	146.36
385.674	137.76
386.136	141.06
386.599	121.96
387.061	122.86
387.523	127.36
387.985	130.46
388.447	149.26
388.91	143.26
389.372	160.56
389.834	152.46
390.296	147.96
390.758	157.06
391.22	174.46
391.682	217.96
392.144	304.86
392.606	234.96
393.068	168.26
393.529	171.06
393.991	152.86
394.453	150.86
394.915	162.46
395.377	196.76
395.838	219.46
396.3	155.26
396.762	139.86
397.224	134.16
397.685	133.26
398.147	137.56
398.608	127.66
399.07	127.76
399.531	134.76
399.993	144.06
400.454	150.46
400.916	150.86
401.377	140.16
401.839	151.96
402.3	153.96
402.762	162.56
403.223	177.66
403.684	169.76
404.145	158.36
404.607	161.36
405.068	163.66
405.529	170.36
405.99	187.96
406.451	179.26
406.913	180.06
407.374	162.66
407.835	168.86
408.296	173.56
408.757	172.66
409.218	185.56
409.679	187.76
410.14	175.46
410.601	178.66
411.062	185.46
411.522	196.06
411.983	188.96
412.444	175.66
412.905	183.06
413.366	186.86
413.826	195.56
414.287	217.16
414.748	262.66
415.208	247.86
415.669	210.56
416.13	205.56
416.59	205.36
417.051	212.56
417.511	227.16
417.972	240.26
418.432	244.76
418.893	290.56
419.353	247.16
419.814	198.46
420.274	186.26
420.734	185.56
421.195	204.26
421.655	200.36
422.115	191.16
422.576	194.66
423.036	198.36
423.496	209.76
423.956	216.96
424.416	231.66
424.876	269.76
425.336	259.96
425.797	258.56
426.257	260.76
426.717	242.46
427.177	233.96
427.637	226.86
428.097	239.56
428.556	246.16
429.016	276.66
429.476	268.16
429.936	287.76
430.396	282.66
430.856	297.56
431.315	320.06
431.775	356.66
432.235	385.16
432.694	351.96
433.154	369.96
433.614	398.16
434.073	351.86
434.533	289.66
434.993	273.16
435.452	286.36
435.912	299.26
436.371	294.36
436.83	290.66
437.29	275.56
437.749	254.16
438.209	246.16
438.668	277.26
439.127	292.76
439.587	269.36
440.046	256.66
440.505	264.26
440.964	275.46
441.424	327.36
441.883	312.06
442.342	262.26
442.801	227.96
443.26	217.16
443.719	222.76
444.178	219.46
444.637	207.86
445.096	220.36
445.555	219.46
446.014	227.36
446.473	230.66
446.932	234.96
447.391	228.46
447.849	228.76
448.308	218.76
448.767	222.76
449.226	234.36
449.685	236.76
450.143	241.86
450.602	233.26
451.061	230.36
451.519	227.26
451.978	224.16
452.436	236.26
452.895	244.16
453.353	253.16
453.812	241.56
454.27	245.36
454.729	243.76
455.187	248.86
455.646	251.86
456.104	249.26
456.562	263.56
457.021	270.86
457.479	260.96
457.937	271.46
458.395	267.56
458.854	250.96
459.312	253.06
459.77	271.16
460.228	258.26
460.686	238.46
461.144	245.16
461.602	252.86
462.06	248.86
462.518	260.16
462.976	259.36
463.434	257.96
463.892	267.66
464.35	279.96
464.808	286.06
465.266	268.06
465.724	269.06
466.181	281.36
466.639	267.36
467.097	286.56
467.555	299.16
468.012	300.16
468.47	314.26
468.928	325.46
469.385	342.76
469.843	345.66
470.3	345.06
470.758	364.86
471.215	385.56
471.673	408.76
472.13	414.06
472.588	421.56
473.045	371.36
473.503	366.26
473.96	395.96
474.417	406.06
474.875	437.36
475.332	474.26
475.789	458.26
476.246	479.96
476.704	489.56
477.161	512.16
477.618	526.06
478.075	567.16
478.532	620.56
478.989	697.36
479.446	818.86
479.903	776.96
480.36	805.76
480.817	869.96
481.274	967.06
481.731	1067.06
482.188	1165.86
482.645	1304.36
483.102	1402.76
483.558	1539.36
484.015	1588.56
484.472	1572.66
484.929	1524.66
485.385	1466.56
485.842	1429.96
486.299	1356.46
486.755	1301.16
487.212	1087.46
487.668	927.16
488.125	857.86
488.582	769.76
489.038	744.66
489.494	706.96
489.951	685.26
490.407	665.36
490.864	646.06
491.32	643.06
491.776	635.26
492.233	643.56
492.689	606.96
493.145	603.76
493.602	602.96
494.058	605.66
494.514	617.46
494.97	635.76
495.426	649.16
495.882	612.56
496.338	610.36
496.794	623.86
497.251	620.16
497.707	632.66
498.163	633.86
498.618	637.46
499.074	644.76
499.53	674.06
499.986	664.56
500.442	657.26
500.898	639.06
501.354	634.16
501.809	636.06
502.265	643.96
502.721	658.46
503.177	676.66
503.632	675.16
504.088	679.86
504.543	710.36
504.999	707.56
505.455	645.56
505.91	627.66
506.366	623.46
506.821	626.26
507.277	625.06
507.732	628.16
508.187	628.16
508.643	629.56
509.098	629.76
509.553	640.96
510.009	657.26
510.464	662.66
510.919	689.66
511.375	689.06
511.83	703.86
512.285	718.36
512.74	746.46
513.195	781.36
513.65	771.06
514.105	764.76
514.56	759.46
515.015	778.66
515.47	787.76
515.925	778.36
516.38	764.46
516.835	785.46
517.29	779.66
517.745	777.76
518.2	754.06
518.655	734.86
519.109	726.86
519.564	735.96
520.019	724.46
520.474	721.16
520.928	722.96
521.383	712.86
521.838	700.86
522.292	703.96
522.747	693.96
523.201	705.86
523.656	693.36
524.11	687.26
524.565	689.96
525.019	694.66
525.474	696.56
525.928	695.76
526.382	689.76
526.837	697.96
527.291	694.76
527.745	688.66
528.2	691.96
528.654	676.46
529.108	686.06
529.562	691.86
530.016	682.26
530.47	682.86
530.925	690.16
531.379	694.76
531.833	699.36
532.287	695.56
532.741	693.06
533.195	696.96
533.649	706.76
534.103	717.16
534.556	704.06
535.01	702.86
535.464	694.26
535.918	707.66
536.372	718.16
536.826	713.56
537.279	699.16
537.733	696.46
538.187	706.86
538.64	714.06
539.094	716.76
539.548	719.26
540.001	718.26
540.455	713.36
540.908	728.16
541.362	733.76
541.815	748.96
542.269	761.86
542.722	747.16
543.175	764.36
543.629	772.86
544.082	774.96
544.536	777.16
544.989	780.46
545.442	784.86
545.895	785.36
546.349	794.86
546.802	791.26
547.255	783.66
547.708	795.36
548.161	809.16
548.614	802.86
549.067	829.26
549.52	809.06
549.973	804.56
550.426	798.16
550.879	789.16
551.332	802.26
551.785	795.76
552.238	803.76
552.691	813.46
553.144	825.26
553.596	838.16
554.049	858.46
554.502	886.26
554.955	906.66
555.407	900.86
555.86	879.26
556.313	877.36
556.765	872.46
557.218	873.56
557.67	875.46
558.123	872.56
558.576	872.06
559.028	868.36
559.48	880.56
559.933	867.56
560.385	833.06
560.838	798.16
561.29	780.86
561.742	775.26
562.195	763.86
562.647	766.06
563.099	773.16
563.551	763.06
564.004	776.46
564.456	769.16
564.908	756.86
565.36	742.76
565.812	741.76
566.264	723.86
566.716	724.16
567.168	709.26
567.62	724.56
568.072	701.56
568.524	696.36
568.976	684.16
569.428	672.66
569.88	676.96
570.332	677.76
570.784	681.56
571.235	677.36
571.687	687.66
572.139	705.96
572.59	700.56
573.042	700.36
573.494	701.16
573.945	697.26
574.397	684.16
574.849	683.16
575.3	684.56
575.752	683.66
576.203	676.46
576.655	691.46
577.106	670.56
577.557	657.66
578.009	659.76
578.46	662.36
578.912	659.66
579.363	669.26
579.814	665.46
580.265	654.46
580.717	666.76
581.168	663.36
581.619	675.56
582.07	680.66
582.521	672.36
582.972	670.66
583.423	673.76
583.875	671.76
584.326	705.66
584.777	742.96
585.227	834.46
585.678	931.66
586.129	1027.66
586.58	1106.36
587.031	1177.86
587.482	1334.36
587.933	1526.56
588.384	1318.56
588.834	980.56
589.285	815.76
589.736	779.36
590.186	782.66
590.637	763.96
591.088	748.56
591.538	731.86
591.989	720.76
592.439	729.26
592.89	715.46
593.34	707.06
593.791	705.26
594.241	705.56
594.692	715.06
595.142	695.46
595.593	701.96
596.043	712.76
596.493	716.96
596.943	719.66
597.394	724.16
597.844	718.36
598.294	731.86
598.744	749.86
599.195	785.76
599.645	812.66
600.095	857.26
600.545	921.46
600.995	960.56
601.445	1028.46
601.895	1093.96
602.345	1141.46
602.795	1108.46
603.245	1058.96
603.695	1005.76
604.145	957.66
604.594	906.66
605.044	854.76
605.494	794.76
605.944	741.56
606.393	749.36
606.843	724.06
607.293	735.76
607.743	733.26
608.192	756.66
608.642	748.96
609.091	766.16
609.541	772.86
609.99	775.06
610.44	762.46
610.889	717.16
611.339	699.36
611.788	692.56
612.238	710.36
612.687	714.66
613.136	730.46
613.586	742.86
614.035	735.16
614.484	763.16
614.933	757.86
615.383	745.86
615.832	744.16
616.281	729.06
616.73	690.46
617.179	678.86
617.628	648.56
618.077	635.46
618.526	630.06
618.975	620.06
619.424	616.16
619.873	611.76
620.322	616.86
620.771	617.96
621.22	607.56
621.669	601.86
622.118	593.46
622.567	587.56
623.015	563.16
623.464	572.66
623.913	564.06
624.361	553.86
624.81	548.06
625.259	549.36
625.707	548.06
626.156	560.36
626.604	576.36
627.053	565.66
627.501	572.16
627.95	572.36
628.398	577.76
628.847	566.36
629.295	570.66
629.744	577.96
630.192	567.86
630.64	556.66
631.089	574.66
631.537	585.26
631.985	594.36
632.433	603.96
632.881	613.66
633.33	666.86
633.778	653.06
634.226	577.76
634.674	570.66
635.122	592.46
635.57	611.36
636.018	633.16
636.466	586.16
636.914	556.56
637.362	571.16
637.81	580.36
638.258	575.26
638.705	581.76
639.153	613.56
639.601	626.66
640.049	649.46
640.497	675.06
640.944	697.56
641.392	647.26
641.84	619.26
642.287	586.96
642.735	570.06
643.182	577.26
643.63	584.06
644.078	580.26
644.525	599.56
644.973	600.26
645.42	615.66
645.867	620.96
646.315	647.06
646.762	671.86
647.21	705.16
647.657	723.56
648.104	747.16
648.551	778.46
648.999	845.46
649.446	928.36
649.893	1008.86
650.34	1165.76
650.787	1422.16
651.234	1768.46
651.682	2296.76
652.129	3185.06
652.576	4552.76
653.023	6756.06
653.47	9210.56
653.917	11434.86
654.363	13068.06
654.81	14391.66
655.257	13697.66
655.704	8941.56
656.151	5280.26
656.598	3430.86
657.044	2431.16
657.491	1863.96
657.938	1482.26
658.385	1246.36
658.831	1083.26
659.278	969.86
659.724	860.66
660.171	794.66
660.618	733.46
661.064	699.16
661.511	671.86
661.957	661.56
662.404	646.56
662.85	656.56
663.296	629.46
663.743	568.56
664.189	541.76
664.635	541.86
665.082	536.36
665.528	530.36
665.974	513.56
666.42	513.96
666.867	501.86
667.313	491.56
667.759	485.56
668.205	485.76
668.651	490.66
669.097	491.16
669.543	507.16
669.989	474.26
670.435	450.96
670.881	452.66
671.327	451.26
671.773	477.96
672.219	482.06
672.665	545.16
673.11	582.16
673.556	627.36
674.002	664.16
674.448	658.96
674.893	552.66
675.339	468.96
675.785	431.96
676.23	411.96
676.676	391.66
677.122	380.66
677.567	368.66
678.013	374.96
678.458	361.06
678.904	355.96
679.349	348.26
679.794	359.36
680.24	350.96
680.685	348.16
681.131	351.36
681.576	352.96
682.021	354.96
682.466	344.66
682.912	352.36
683.357	352.86
683.802	389.76
684.247	425.86
684.692	452.96
685.137	496.76
685.583	539.16
686.028	559.56
686.473	514.76
686.918	440.66
687.363	410.86
687.807	395.86
688.252	362.86
688.697	357.76
689.142	339.56
689.587	329.36
690.032	325.56
690.477	344.96
690.921	343.46
691.366	390.66
691.811	408.76
692.255	440.86
692.7	466.46
693.145	512.56
693.589	712.46
694.034	1155.56
694.478	1548.16
694.923	1721.36
695.367	2225.76
695.812	1181.36
696.256	501.46
696.701	375.36
697.145	336.46
697.59	324.66
698.034	328.36
698.478	335.76
698.922	327.06
699.367	328.16
699.811	338.56
700.255	368.66
700.699	388.16
701.143	433.96
701.588	483.86
702.032	524.06
702.476	515.96
702.92	485.46
703.364	493.16
703.808	654.86
704.252	1069.56
704.696	1475.96
705.14	1655.66
705.584	2095.06
706.027	1061.86
706.471	514.96
706.915	398.66
707.359	352.96
707.803	316.36
708.246	311.76
708.69	312.26
709.134	316.56
709.577	313.66
710.021	319.16
710.465	306.16
710.908	303.36
711.352	293.16
711.795	310.06
712.239	356.16
712.682	387.16
713.126	415.46
713.569	468.66
714.012	372.46
714.456	322.66
714.899	305.96
715.342	274.46
715.786	262.86
716.229	263.16
716.672	254.26
717.115	252.06
717.558	252.46
718.002	257.06
718.445	260.76
718.888	286.66
719.331	296.46
719.774	307.46
720.217	301.76
720.66	281.96
721.103	265.96
721.546	253.86
721.989	243.66
722.432	231.66
722.874	242.86
723.317	235.56
723.76	234.66
724.203	262.36
724.645	323.96
725.088	458.56
725.531	566.16
725.974	633.56
726.416	538.96
726.859	311.56
727.301	248.46
727.744	238.36
728.187	235.36
728.629	241.86
729.071	245.86
729.514	261.16
729.956	275.56
730.399	276.96
730.841	288.26
731.283	268.16
731.726	261.46
732.168	262.16
732.61	275.56
733.053	291.76
733.495	318.86
733.937	361.16
734.379	394.36
734.821	445.96
735.263	556.46
735.705	866.66
736.148	1630.06
736.59	2606.46
737.032	3010.56
737.474	2445.66
737.916	799.66
738.357	423.76
738.799	326.66
739.241	303.86
739.683	279.06
740.125	294.16
740.567	298.96
741.008	317.26
741.45	323.56
741.892	323.56
742.334	351.16
742.775	360.46
743.217	335.16
743.658	271.86
744.1	257.56
744.542	258.16
744.983	310.26
745.425	326.06
745.866	345.46
746.307	289.46
746.749	293.46
747.19	326.46
747.632	469.66
748.073	914.16
748.514	1914.06
748.956	2851.56
749.397	3562.86
749.838	2958.66
750.279	2912.36
750.72	1485.46
751.162	549.26
751.603	327.46
752.044	249.56
752.485	215.06
752.926	210.76
753.367	197.96
753.808	199.96
754.249	193.06
754.69	185.16
755.131	180.16
755.572	174.36
756.013	184.06
756.453	183.16
756.894	187.46
757.335	197.26
757.776	199.06
758.216	201.06
758.657	197.06
759.098	200.46
759.538	228.46
759.979	266.26
760.42	379.86
760.86	739.86
761.301	1907.36
761.741	4510.06
762.182	6313.36
762.622	4427.06
763.063	1304.56
763.503	551.16
763.943	354.76
764.384	346.16
764.824	418.16
765.264	457.06
765.705	310.66
766.145	211.06
766.585	192.96
767.025	188.86
767.465	190.06
767.906	253.56
768.346	332.86
768.786	358.76
769.226	266.66
769.666	330.76
770.106	647.26
770.546	1608.46
770.986	2632.16
771.426	2296.26
771.866	798.96
772.306	329.16
772.745	207.66
773.185	174.86
773.625	170.06
774.065	175.26
774.505	200.26
774.944	324.36
775.384	698.06
775.824	1232.06
776.263	1194.86
776.703	510.06
777.142	222.46
777.582	156.66
778.021	139.56
778.461	141.06
778.9	149.36
779.34	134.86
779.779	113.26
780.219	106.96
780.658	118.06
781.097	109.76
781.537	116.56
781.976	114.66
782.415	106.96
782.855	106.46
783.294	103.06
783.733	103.06
784.172	107.46
784.611	104.06
785.05	107.96
785.489	117.56
785.928	122.86
786.367	126.16
786.806	122.66
787.245	130.16
787.684	132.16
788.123	149.76
788.562	135.66
789.001	132.36
789.44	117.46
789.879	110.56
790.317	119.86
790.756	128.76
791.195	125.86
791.634	154.76
792.072	204.76
792.511	383.36
792.95	1046.26
793.388	2127.76
793.827	1890.96
794.265	671.36
794.704	280.46
795.142	179.06
795.581	150.76
796.019	133.76
796.458	136.16
796.896	125.76
797.334	128.96
797.773	154.06
798.211	229.06
798.649	462.16
799.087	1040.66
799.526	1612.86
799.964	2012.36
800.402	1976.96
800.84	754.26
801.278	303.26
801.716	188.76
802.154	148.56
802.592	150.86
803.03	139.96
803.468	136.96
803.906	147.26
804.344	152.06
804.782	139.66
805.22	143.76
805.658	127.86
806.096	148.76
806.533	156.76
806.971	173.36
807.409	220.96
807.847	317.36
808.284	695.16
808.722	1902.86
809.16	3232.46
809.597	3155.76
810.035	5433.96
810.472	5625.36
810.91	2069.06
811.347	796.26
811.785	408.86
812.222	261.66
812.66	195.66
813.097	161.16
813.535	141.36
813.972	127.36
814.409	122.56
814.846	107.16
815.284	114.06
815.721	102.76
816.158	110.36
816.595	116.16
817.032	182.06
817.47	196.56
817.907	167.96
818.344	159.66
818.781	119.16
819.218	100.26
819.655	127.86
820.092	188.86
820.529	208.16
820.966	172.66
821.403	130.66
821.839	110.46
822.276	101.66
822.713	124.36
823.15	135.06
823.587	119.96
824.023	158.36
824.46	316.26
824.897	910.56
825.333	1338.66
825.77	570.66
826.206	229.16
826.643	138.86
827.08	101.96
827.516	83.36
827.953	78.86
828.389	81.26
828.825	68.96
829.262	62.76
829.698	61.36
830.135	58.46
830.571	60.46
831.007	57.96
831.443	67.66
831.88	64.36
832.316	58.76
832.752	66.46
833.188	64.76
833.624	65.46
834.06	72.06
834.497	67.86
834.933	70.56
835.369	74.56
835.805	68.36
836.241	72.66
836.677	79.96
837.112	89.26
837.548	103.56
837.984	132.26
838.42	197.86
838.856	513.76
839.292	1529.96
839.727	2261.16
840.163	1057.26
840.599	942.16
841.034	2053.76
841.47	2070.96
841.906	763.36
842.341	337.66
842.777	235.86
843.212	326.16
843.648	308.86
844.083	155.46
844.519	101.76
844.954	78.36
845.39	56.56
845.825	59.56
846.261	59.36
846.696	51.26
847.131	60.66
847.566	69.66
848.002	52.06
848.437	49.26
848.872	62.46
849.307	61.26
849.742	84.56
850.177	184.06
850.613	561.66
851.048	862.26
851.483	380.46
851.918	156.76
852.353	84.86
852.788	62.66
853.223	58.36
853.657	59.16
854.092	48.76
854.527	38.26
854.962	36.86
855.397	47.26
855.832	54.96
856.266	42.76
856.701	41.16
857.136	34.76
857.57	43.46
858.005	51.66
858.44	53.86
858.874	43.26
859.309	51.36
859.743	39.16
860.178	44.56
860.612	46.06
861.047	58.36
861.481	68.66
861.915	66.76
862.35	47.76
862.784	28.46
863.218	38.06
863.653	34.86
864.087	46.96
864.521	53.86
864.955	69.76
865.39	156.86
865.824	172.06
866.258	111.76
866.692	163.26
867.126	166.16
867.56	107.16
867.994	54.96
868.428	38.86
868.862	46.46
869.296	56.06
869.73	54.56
870.164	48.46
870.598	45.46
871.031	37.66
871.465	33.06
871.899	36.76
872.333	25.56
872.766	25.06
873.2	16.66
873.634	29.76
874.067	26.06
874.501	28.96
874.935	30.86
875.368	30.16
875.802	22.66
876.235	23.26
876.669	28.66
877.102	15.46
877.535	23.86
877.969	26.56
878.402	30.26
878.836	25.16
879.269	24.76
879.702	26.96
880.135	16.86
880.569	18.06
881.002	30.06
881.435	21.96
881.868	13.16
882.301	24.16
882.734	20.26
883.167	22.26
883.601	11.96
884.034	15.36
884.467	17.06
884.899	21.46
885.332	14.76
885.765	16.66
886.198	18.76
886.631	21.96
887.064	20.66
887.497	15.46
887.929	26.16
888.362	14.96
888.795	8.96
889.228	13.06
889.66	21.26
890.093	20.26
890.526	22.56
890.958	18.36
891.391	20.96
891.823	20.96
892.256	16.96
892.688	13.66
893.121	12.86
893.553	15.36
893.985	23.56
894.418	13.76
894.85	10.36
895.282	19.86
895.715	14.16
896.147	16.66
896.579	15.56
897.011	8.46
897.444	14.66
897.876	15.16
898.308	18.46
898.74	14.96
899.172	15.36
899.604	26.16
900.036	20.76
900.468	15.96
900.9	12.36
901.332	10.56
901.764	12.26
902.196	21.96
902.628	21.16
903.06	18.06
903.491	26.96
903.923	21.96
904.355	22.36
904.787	27.86
905.218	19.86
905.65	18.96
906.082	18.06
906.513	12.96
906.945	18.46
907.376	8.36
907.808	21.26
908.239	22.06
908.671	17.76
909.102	17.96
909.534	27.96
909.965	50.56
910.397	91.76
910.828	318.56
911.259	468.56
911.691	217.86
912.122	106.96
912.553	51.26
912.984	34.66
913.415	27.36
913.847	21.26
914.278	19.36
914.709	14.86
915.14	16.36
915.571	18.06
916.002	8.76
916.433	18.56
916.864	17.66
917.295	14.66
917.726	17.56
918.157	19.46
918.587	26.46
919.018	23.06
919.449	24.66
919.88	27.76
920.311	35.96
920.741	47.96
921.172	169.46
921.603	145.86
922.033	72.26
922.464	49.26
922.895	25.36
923.325	17.66
923.756	14.46
924.186	17.46
924.617	18.26
925.047	46.06
925.478	52.56
925.908	42.46
926.338	30.66
926.769	21.56
927.199	19.36
927.629	7.56
928.06	13.36
928.49	13.46
928.92	11.36
929.35	6.86
929.78	12.76
930.21	9.86
930.641	12.16
931.071	11.06
931.501	-0.04
931.931	13.06
932.361	9.16
932.791	8.46
933.221	6.46
933.651	6.86
934.08	19.66
934.51	25.66
934.94	8.36
935.37	7.86
935.8	13.16
936.229	0.86
936.659	8.16
937.089	2.66
937.519	15.86
937.948	20.86
938.378	12.56
938.807	-0.34
939.237	-0.24
939.666	2.56
940.096	-4.14
940.525	5.36
940.955	4.06
941.384	6.96
941.814	-4.64
942.243	-1.04
942.672	8.46
943.102	-3.34
943.531	5.76
943.96	5.86
944.39	0.76
944.819	-1.64
945.248	5.16
945.677	-0.34
946.106	7.86
946.535	5.26
946.964	-2.44
947.393	6.46
947.822	0.66
948.251	-1.54
948.68	5.26
949.109	4.46
949.538	4.66
949.967	-0.64
950.396	-4.44
950.825	-1.04
951.254	-1.74
951.682	-7.64
952.111	5.06
952.54	5.96
952.969	-3.24
953.397	-4.94
953.826	-4.64
954.254	-10.54
954.683	-3.74
955.112	-3.24
955.54	1.46
955.969	1.36
956.397	4.26
956.826	-0.24
957.254	8.56
957.682	-3.04
958.111	9.06
958.539	-1.14
958.967	-4.44
959.396	-0.34
959.824	0.26
960.252	-3.04
960.68	-10.34
961.109	-0.14
961.537	-6.54
961.965	-4.04
962.393	-6.84
962.821	-3.34
963.249	-0.04
963.677	3.46
964.105	4.26
964.533	44.76
964.961	36.46
965.389	14.16
965.817	8.16
966.245	-0.44
966.672	-3.54
967.1	-5.54
967.528	-3.24
967.956	-3.74
968.383	3.16
968.811	-1.34
969.239	-2.74
969.666	-10.24
970.094	4.66
970.522	-0.84
970.949	-0.34
971.377	1.26
971.804	-2.64
972.232	-5.04
972.659	-4.34
973.087	3.36
973.514	-4.84
973.941	-3.74
974.369	7.76
974.796	2.16
975.223	-2.84
975.651	0.36
976.078	-3.04
976.505	-5.64
976.932	5.36
977.359	19.46
977.786	15.26
978.214	4.36
978.641	-8.74
979.068	-2.94
979.495	-10.74
979.922	-1.04
980.349	-2.84
980.776	1.06
981.202	-3.84
981.629	2.36
982.056	-1.24
982.483	-3.04
982.91	2.76
983.337	-4.84
983.763	2.16
984.19	-1.54
984.617	-3.24
985.043	-7.04
985.47	-5.74
985.897	-3.84
986.323	-3.24
986.75	0.76
987.176	2.36
987.603	1.56
988.029	-5.54
988.456	0.26
988.882	-2.64
989.308	-3.94
989.735	1.56
990.161	-3.74
990.587	-5.14
991.014	-2.34
991.44	5.76
991.866	2.36
992.292	-5.84
992.719	-5.04
993.145	-0.74
993.571	-8.64
993.997	-7.14
994.423	-2.54
994.849	-5.64
995.275	3.46
995.701	6.26
996.127	-3.64
996.553	0.56
996.979	-2.24
997.405	0.76
997.83	-4.94
998.256	-3.94
998.682	0.16
999.108	-6.84
999.534	-0.74
999.959	-3.44
1000.385	-11.74
1000.811	-5.04
1001.236	-5.14
1001.662	-11.64
1002.087	-11.14
1002.513	-0.14
1002.938	3.86
1003.364	-4.34
1003.789	-2.64
1004.215	1.66
1004.64	-0.14
1005.066	7.06
1005.491	1.56
1005.916	-4.64
1006.342	-7.24
1006.767	-5.54
1007.192	8.96
1007.617	-1.94
1008.042	-3.84
1008.468	-7.14
1008.893	-6.54
1009.318	3.96
1009.743	0.06
1010.168	-1.24
1010.593	-3.54
1011.018	-11.54
1011.443	-3.54
1011.868	4.06
1012.293	-3.24
1012.718	-5.54
1013.143	0.26
1013.567	2.46
1013.992	-3.54
1014.417	-12.84
1014.842	0.16
1015.267	-2.44
1015.691	-5.74
1016.116	3.46
1016.541	-9.94
1016.965	-0.84
1017.39	2.26
1017.814	-7.24
1018.239	-0.64
1018.663	-12.84
1019.088	-8.74
1019.512	-10.34
1019.937	-4.94
1020.361	-5.44
1020.785	-8.64
1021.21	-1.34
1021.634	-0.14
1022.058	6.36
1022.483	3.66
1022.907	-7.44
1023.331	-9.04
1023.755	-5.64
1024.179	1.76
1024.604	-4.14
1025.028	0.86
1025.452	-11.24
1025.876	-1.24
1026.3	0.16
1026.724	-16.24
1027.148	-1.64
1027.572	-8.94
1027.996	-4.94
1028.42	-2.24
1028.843	-3.24
1029.267	-4.54
1029.691	-4.84
1030.115	-12.34
1030.539	-8.14
1030.962	-10.24
1031.386	-10.74
1031.81	2.16
1032.233	-4.84
1032.657	-3.24
1033.08	-6.24
1033.504	-6.74
1033.927	-7.44
1034.351	1.06
1034.774	-6.04
1035.198	-0.04
1035.621	-9.14
1036.045	-10.14
1036.468	-3.14
1036.891	-10.04
1037.315	-7.24
1037.738	-10.54
1038.161	1.26
1038.584	-4.94
1039.008	-0.84
1039.431	-11.34
1039.854	-7.84
1040.277	0.96
1040.7	-10.34
1041.123	-3.44
1041.546	-14.34
1041.969	-3.14
1042.392	-5.24
1042.815	-5.94
1043.238	1.66
1043.661	-2.64
1044.084	-2.54
1044.507	-6.04
1044.93	-5.54
1045.352	-9.44
1045.775	-3.34
1046.198	-9.04
1046.621	-3.94
1047.043	-1.14
1047.466	2.26
1047.889	-1.44
1048.311	-5.54
1048.734	-3.14
1049.156	-4.84
1049.579	-0.74
1050.001	-6.84
1050.424	0.56
1050.846	-8.74
1051.269	-5.04
1051.691	-7.74
1052.113	-7.04
1052.536	-1.04
1052.958	-10.64
1053.38	-4.74
1053.802	-12.54
1054.225	-1.64
1054.647	-6.74
1055.069	-2.44
1055.491	0.46
1055.913	-3.04
1056.335	2.16
1056.757	-3.64
1057.179	-4.04
1057.601	-7.94
1058.023	-5.64
1058.445	-6.94
1058.867	-1.24
1059.289	-7.64
1059.711	-8.84
1060.133	-1.14
1060.555	-4.04
1060.976	-6.14
1061.398	-5.34
1061.82	-4.14
1062.241	-8.14
1062.663	-9.94
1063.085	-4.34
1063.506	-2.94
1063.928	-4.54
1064.35	-6.64
1064.771	-17.44
1065.193	-3.74
1065.614	-3.14
1066.035	-4.54
1066.457	-5.24
1066.878	2.66
1067.3	-7.94
1067.721	-4.44
1068.142	-5.74
1068.564	-3.74
1068.985	-9.54
1069.406	-8.94
1069.827	-8.44
1070.248	1.96
1070.67	-4.24
1071.091	-7.74
1071.512	-4.64
1071.933	-11.44
1072.354	-7.84
1072.775	-10.04
1073.196	-9.34
1073.617	-2.34
1074.038	-10.94
1074.459	2.66
1074.88	-3.64
1075.3	-4.04
1075.721	-11.24
1076.142	-0.64
1076.563	-4.04
1076.983	-11.54
1077.404	-0.44
1077.825	-10.34
1078.246	-3.74
1078.666	-12.04
1079.087	-6.74
1079.507	-8.34
1079.928	-1.14
1080.348	-3.84
1080.769	-3.34
1081.189	-7.54
1081.61	1.16
1082.03	-6.74
1082.451	-8.74
1082.871	-7.34
1083.291	-9.64
1083.711	-3.74
1084.132	-12.44
1084.552	-6.34
1084.972	1.66
1085.392	-10.54
1085.813	-10.14
1086.233	-11.24
1086.653	-11.14
1087.073	-1.74
1087.493	-3.24
1087.913	-6.94
1088.333	-8.24
1088.753	-4.34
1089.173	1.16
1089.593	-3.64
1090.013	-3.24
1090.433	-1.24
1090.852	-3.64
1091.272	-5.34
1091.692	-5.44
1092.112	-7.24
1092.531	-11.44
1092.951	-8.14
1093.371	-6.24
1093.79	-4.24
1094.21	-5.34
1094.63	-5.34
1095.049	-5.24
1095.469	-9.14
1095.888	0.76
1096.308	2.26
1096.727	3.36
1097.146	-0.84
1097.566	-5.44
1097.985	-9.14
1098.405	-4.84
1098.824	-6.34
1099.243	-5.24
1099.662	-8.04
1100.082	-10.54
1100.501	-3.44
1100.92	-11.24
1101.339	0.16
1101.758	-7.04
