Data from 20171114-ORNL-Ar_H_NY_Subt18_08-08-46-258.txt Node
Date: Tue Nov 14 08:08:46 EST 2017
User: Ender
Spectrometer: HR+D1039
Trigger mode: 0
Integration Time (sec): 2.730000E-2
Scans to average: 10
Electric dark correction enabled: true
Nonlinearity correction enabled: false
Boxcar width: 0
XAxis mode: Wavelengths
Number of Pixels in Spectrum: 2048
>>>>>Begin Spectral Data<<<<<
187.836	-6.67
188.309	-6.67
188.782	-6.67
189.255	-0.97
189.728	-5.87
190.201	6.93
190.674	1.63
191.147	4.43
191.619	-5.57
192.092	5.43
192.565	7.13
193.038	0.63
193.511	-4.37
193.984	-0.17
194.456	-2.37
194.929	3.03
195.402	-2.57
195.874	-0.67
196.347	-7.47
196.82	-11.57
197.292	4.23
197.765	-1.47
198.237	-5.47
198.71	2.73
199.182	-4.77
199.655	4.43
200.127	2.93
200.6	-6.97
201.072	-1.07
201.544	-4.77
202.017	-4.27
202.489	6.13
202.961	-2.57
203.433	3.63
203.906	-2.07
204.378	-3.27
204.85	-5.77
205.322	-9.77
205.794	-0.67
206.266	-3.07
206.739	-8.07
207.211	-0.17
207.683	-9.67
208.155	-3.87
208.627	-4.97
209.099	-6.37
209.57	-11.97
210.042	-3.57
210.514	-3.67
210.986	-2.27
211.458	-8.47
211.93	-6.47
212.402	2.43
212.873	-9.87
213.345	-9.37
213.817	-11.67
214.288	-8.87
214.76	-13.47
215.232	-2.67
215.703	-6.57
216.175	-7.77
216.646	-2.57
217.118	-8.57
217.589	-5.77
218.061	-1.87
218.532	-3.27
219.004	-6.57
219.475	-8.47
219.946	-3.27
220.418	-2.87
220.889	0.13
221.36	7.13
221.832	-8.37
222.303	-10.07
222.774	-1.37
223.245	-3.17
223.717	-5.07
224.188	-4.87
224.659	-6.97
225.13	-7.07
225.601	-1.47
226.072	2.03
226.543	3.63
227.014	-3.97
227.485	-4.17
227.956	-14.77
228.427	-1.97
228.898	-3.27
229.369	-3.17
229.839	-6.77
230.31	-9.47
230.781	-0.47
231.252	-8.07
231.722	-5.87
232.193	-4.27
232.664	0.33
233.135	-3.57
233.605	-4.77
234.076	-5.87
234.546	2.33
235.017	3.53
235.487	-1.77
235.958	-6.17
236.428	-3.67
236.899	1.43
237.369	-1.37
237.84	-7.57
238.31	-1.57
238.78	-0.17
239.251	2.83
239.721	-6.47
240.191	1.83
240.662	-5.27
241.132	1.13
241.602	-7.07
242.072	0.23
242.542	6.83
243.013	-5.37
243.483	-0.67
243.953	4.43
244.423	-4.87
244.893	-3.67
245.363	1.23
245.833	3.73
246.303	-2.37
246.773	2.93
247.243	-2.07
247.712	-1.07
248.182	6.63
248.652	7.43
249.122	-2.07
249.592	5.43
250.061	7.13
250.531	21.73
251.001	4.53
251.471	8.33
251.94	10.03
252.41	-6.57
252.879	-0.57
253.349	12.23
253.818	4.33
254.288	0.93
254.757	4.13
255.227	-4.17
255.696	-2.47
256.166	0.53
256.635	5.73
257.105	4.03
257.574	-1.57
258.043	1.83
258.513	3.63
258.982	7.53
259.451	2.73
259.92	9.93
260.389	1.73
260.859	2.43
261.328	3.83
261.797	11.33
262.266	5.73
262.735	10.73
263.204	1.03
263.673	-5.47
264.142	-1.87
264.611	-8.87
265.08	-0.47
265.549	0.23
266.018	0.73
266.487	-10.47
266.955	-4.17
267.424	1.53
267.893	5.73
268.362	-4.07
268.83	-2.87
269.299	9.43
269.768	2.43
270.236	3.03
270.705	-0.37
271.174	0.23
271.642	1.93
272.111	-1.07
272.579	11.93
273.048	13.83
273.516	9.03
273.985	13.73
274.453	9.23
274.922	11.03
275.39	4.63
275.858	-5.57
276.327	11.13
276.795	14.13
277.263	8.43
277.731	16.03
278.2	32.83
278.668	33.63
279.136	34.93
279.604	7.63
280.072	8.23
280.54	2.23
281.008	2.83
281.477	11.03
281.945	2.43
282.413	4.73
282.881	8.13
283.348	4.73
283.816	9.33
284.284	12.73
284.752	17.73
285.22	9.43
285.688	7.33
286.156	15.73
286.623	33.33
287.091	28.83
287.559	15.53
288.026	10.13
288.494	8.23
288.962	-0.17
289.429	2.43
289.897	15.33
290.364	7.53
290.832	9.13
291.3	8.43
291.767	12.83
292.234	14.83
292.702	5.13
293.169	8.63
293.637	19.13
294.104	12.13
294.571	2.23
295.039	5.43
295.506	5.33
295.973	11.33
296.44	8.23
296.908	16.33
297.375	9.83
297.842	10.23
298.309	8.23
298.776	3.03
299.243	13.23
299.71	3.03
300.177	10.93
300.644	13.53
301.111	17.23
301.578	14.03
302.045	13.93
302.512	18.43
302.979	6.63
303.446	8.63
303.913	6.53
304.379	9.63
304.846	17.93
305.313	18.93
305.78	22.63
306.246	17.93
306.713	17.13
307.18	18.83
307.646	16.83
308.113	22.63
308.579	16.33
309.046	17.33
309.512	22.93
309.979	13.73
310.445	22.23
310.912	22.43
311.378	21.13
311.845	18.03
312.311	24.63
312.777	24.53
313.244	20.63
313.71	29.33
314.176	19.73
314.642	19.53
315.109	24.53
315.575	24.63
316.041	37.93
316.507	19.63
316.973	29.13
317.439	21.73
317.905	29.53
318.371	25.73
318.837	23.13
319.303	26.53
319.769	21.13
320.235	23.93
320.701	23.23
321.167	25.73
321.633	22.53
322.099	32.43
322.564	35.63
323.03	30.33
323.496	29.23
323.962	31.23
324.427	31.73
324.893	34.63
325.359	31.93
325.824	26.53
326.29	26.13
326.755	26.73
327.221	26.63
327.686	24.93
328.152	36.03
328.617	31.33
329.083	35.03
329.548	39.23
330.014	32.43
330.479	30.13
330.944	36.93
331.41	33.43
331.875	35.03
332.34	35.53
332.805	38.53
333.271	38.63
333.736	37.93
334.201	38.53
334.666	41.63
335.131	38.83
335.596	38.63
336.061	43.03
336.526	31.83
336.991	38.73
337.456	50.03
337.921	41.33
338.386	31.43
338.851	40.23
339.316	42.63
339.781	37.93
340.246	39.93
340.711	40.53
341.175	37.13
341.64	38.13
342.105	40.83
342.569	46.63
343.034	46.33
343.499	44.53
343.963	35.93
344.428	54.83
344.893	53.13
345.357	46.93
345.822	46.93
346.286	57.23
346.751	56.13
347.215	55.23
347.679	57.83
348.144	77.13
348.608	65.93
349.073	61.93
349.537	61.03
350.001	58.13
350.465	68.03
350.93	62.03
351.394	67.93
351.858	58.13
352.322	72.23
352.786	69.33
353.25	82.13
353.715	92.63
354.179	85.23
354.643	103.53
355.107	96.73
355.571	91.53
356.035	82.53
356.498	98.03
356.962	98.53
357.426	96.53
357.89	97.13
358.354	77.33
358.818	68.53
359.281	63.43
359.745	64.13
360.209	56.43
360.673	69.13
361.136	67.43
361.6	75.53
362.064	72.73
362.527	74.73
362.991	84.73
363.454	73.03
363.918	72.13
364.381	66.53
364.845	69.13
365.308	69.33
365.772	73.83
366.235	75.23
366.698	69.03
367.162	77.33
367.625	68.73
368.088	80.13
368.552	74.63
369.015	80.33
369.478	78.03
369.941	85.93
370.404	89.23
370.867	91.93
371.331	94.83
371.794	95.53
372.257	92.43
372.72	96.23
373.183	91.03
373.646	90.23
374.109	93.73
374.572	89.53
375.035	93.83
375.497	99.93
375.96	87.13
376.423	91.13
376.886	94.93
377.349	99.13
377.811	90.03
378.274	89.83
378.737	87.23
379.199	98.43
379.662	101.83
380.125	98.63
380.587	106.23
381.05	96.33
381.512	113.53
381.975	106.23
382.437	115.73
382.9	112.03
383.362	113.13
383.825	126.73
384.287	136.33
384.75	128.43
385.212	117.43
385.674	127.53
386.136	127.73
386.599	109.63
387.061	111.33
387.523	110.93
387.985	124.03
388.447	126.13
388.91	133.93
389.372	146.73
389.834	137.23
390.296	134.33
390.758	139.33
391.22	156.73
391.682	177.43
392.144	258.93
392.606	199.03
393.068	145.73
393.529	150.73
393.991	137.83
394.453	126.33
394.915	139.33
395.377	163.13
395.838	183.33
396.3	139.03
396.762	130.83
397.224	126.73
397.685	116.03
398.147	118.73
398.608	122.83
399.07	112.13
399.531	121.03
399.993	126.23
400.454	137.13
400.916	135.93
401.377	136.43
401.839	140.03
402.3	137.93
402.762	158.33
403.223	159.43
403.684	154.83
404.145	148.93
404.607	142.63
405.068	152.53
405.529	154.03
405.99	166.13
406.451	162.43
406.913	155.63
407.374	149.13
407.835	149.43
408.296	158.93
408.757	163.53
409.218	171.73
409.679	164.23
410.14	166.13
410.601	163.43
411.062	171.13
411.522	178.83
411.983	167.03
412.444	164.23
412.905	168.23
413.366	166.83
413.826	180.73
414.287	205.13
414.748	248.53
415.208	233.43
415.669	206.33
416.13	190.73
416.59	191.53
417.051	201.33
417.511	212.13
417.972	229.83
418.432	231.63
418.893	278.13
419.353	239.33
419.814	191.03
420.274	174.53
420.734	173.73
421.195	187.63
421.655	186.43
422.115	185.33
422.576	180.43
423.036	182.23
423.496	194.33
423.956	202.63
424.416	217.93
424.876	256.63
425.336	246.23
425.797	247.53
426.257	245.33
426.717	227.23
427.177	222.83
427.637	210.23
428.097	221.23
428.556	224.33
429.016	256.83
429.476	247.63
429.936	261.43
430.396	261.33
430.856	276.73
431.315	304.13
431.775	325.73
432.235	356.23
432.694	331.13
433.154	344.43
433.614	371.13
434.073	323.53
434.533	269.73
434.993	255.73
435.452	264.13
435.912	277.03
436.371	265.63
436.83	263.93
437.29	249.73
437.749	236.83
438.209	230.13
438.668	263.43
439.127	275.93
439.587	252.63
440.046	227.43
440.505	250.73
440.964	260.03
441.424	304.83
441.883	289.63
442.342	245.63
442.801	215.53
443.26	208.63
443.719	211.83
444.178	208.03
444.637	208.43
445.096	214.33
445.555	215.33
446.014	215.23
446.473	216.83
446.932	218.33
447.391	220.43
447.849	219.23
448.308	198.93
448.767	213.03
449.226	227.13
449.685	223.93
450.143	241.33
450.602	235.33
451.061	221.33
451.519	224.83
451.978	221.83
452.436	228.43
452.895	229.33
453.353	241.63
453.812	231.53
454.27	229.03
454.729	226.93
455.187	223.23
455.646	241.33
456.104	240.43
456.562	248.73
457.021	266.03
457.479	250.63
457.937	261.43
458.395	252.43
458.854	241.53
459.312	242.03
459.77	261.43
460.228	244.93
460.686	233.13
461.144	238.83
461.602	236.73
462.06	235.13
462.518	248.93
462.976	249.73
463.434	250.93
463.892	252.53
464.35	255.63
464.808	281.43
465.266	249.93
465.724	259.33
466.181	272.83
466.639	265.13
467.097	279.83
467.555	285.13
468.012	288.83
468.47	298.53
468.928	315.63
469.385	322.23
469.843	339.13
470.3	335.93
470.758	345.53
471.215	363.03
471.673	393.03
472.13	389.83
472.588	409.03
473.045	365.33
473.503	363.13
473.96	380.73
474.417	390.33
474.875	412.63
475.332	449.63
475.789	437.93
476.246	448.63
476.704	465.73
477.161	490.53
477.618	497.73
478.075	543.23
478.532	592.63
478.989	658.73
479.446	763.43
479.903	737.73
480.36	767.43
480.817	826.13
481.274	915.13
481.731	1004.53
482.188	1078.83
482.645	1214.53
483.102	1303.23
483.558	1426.93
484.015	1484.23
484.472	1468.53
484.929	1421.03
485.385	1371.03
485.842	1336.03
486.299	1261.73
486.755	1220.23
487.212	1036.53
487.668	875.33
488.125	807.03
488.582	738.93
489.038	710.63
489.494	673.13
489.951	652.33
490.407	635.53
490.864	619.73
491.32	614.83
491.776	613.13
492.233	614.63
492.689	580.03
493.145	589.03
493.602	572.93
494.058	595.93
494.514	586.23
494.97	606.03
495.426	621.33
495.882	598.03
496.338	586.03
496.794	594.33
497.251	596.33
497.707	603.43
498.163	592.33
498.618	616.43
499.074	611.63
499.53	642.43
499.986	644.63
500.442	628.13
500.898	597.53
501.354	595.03
501.809	620.23
502.265	616.53
502.721	631.83
503.177	646.03
503.632	641.23
504.088	649.13
504.543	676.03
504.999	679.73
505.455	629.43
505.91	608.53
506.366	615.93
506.821	604.13
507.277	605.13
507.732	607.63
508.187	602.43
508.643	609.33
509.098	612.83
509.553	642.93
510.009	647.23
510.464	642.53
510.919	659.63
511.375	670.53
511.83	685.03
512.285	692.23
512.74	728.03
513.195	739.33
513.65	751.23
514.105	734.03
514.56	737.23
515.015	755.53
515.47	772.23
515.925	762.93
516.38	758.03
516.835	767.53
517.29	760.33
517.745	753.93
518.2	740.53
518.655	719.83
519.109	715.73
519.564	715.93
520.019	703.83
520.474	699.13
520.928	700.93
521.383	691.73
521.838	689.13
522.292	683.23
522.747	687.83
523.201	682.33
523.656	682.43
524.11	669.93
524.565	669.93
525.019	664.03
525.474	679.23
525.928	676.73
526.382	670.83
526.837	677.93
527.291	678.03
527.745	673.73
528.2	677.53
528.654	668.43
529.108	662.43
529.562	665.83
530.016	673.93
530.47	664.23
530.925	662.63
531.379	672.73
531.833	671.63
532.287	663.93
532.741	675.03
533.195	672.73
533.649	678.43
534.103	685.93
534.556	673.73
535.01	679.43
535.464	674.63
535.918	694.73
536.372	689.13
536.826	691.53
537.279	681.23
537.733	692.73
538.187	691.33
538.64	685.53
539.094	696.13
539.548	696.33
540.001	701.83
540.455	698.93
540.908	706.33
541.362	709.63
541.815	731.83
542.269	731.63
542.722	735.73
543.175	747.73
543.629	738.73
544.082	758.13
544.536	758.43
544.989	760.33
545.442	769.63
545.895	767.13
546.349	769.23
546.802	764.33
547.255	776.23
547.708	775.33
548.161	787.73
548.614	786.13
549.067	810.03
549.52	795.53
549.973	785.53
550.426	783.43
550.879	768.13
551.332	779.43
551.785	779.73
552.238	785.63
552.691	799.63
553.144	809.13
553.596	820.63
554.049	833.53
554.502	864.93
554.955	880.63
555.407	872.13
555.86	866.43
556.313	862.63
556.765	850.63
557.218	856.23
557.67	849.33
558.123	839.73
558.576	839.93
559.028	859.83
559.48	864.53
559.933	843.13
560.385	804.83
560.838	797.43
561.29	770.43
561.742	761.93
562.195	748.73
562.647	744.23
563.099	760.33
563.551	764.03
564.004	761.03
564.456	754.83
564.908	747.53
565.36	728.53
565.812	719.23
566.264	713.83
566.716	712.73
567.168	689.83
567.62	699.63
568.072	688.33
568.524	692.23
568.976	667.13
569.428	650.03
569.88	660.83
570.332	666.53
570.784	672.93
571.235	670.83
571.687	688.63
572.139	681.13
572.59	693.03
573.042	693.03
573.494	693.73
573.945	698.13
574.397	665.13
574.849	675.63
575.3	673.53
575.752	670.73
576.203	657.53
576.655	663.83
577.106	658.93
577.557	646.53
578.009	654.63
578.46	644.73
578.912	640.93
579.363	647.63
579.814	648.03
580.265	651.23
580.717	652.83
581.168	659.43
581.619	662.83
582.07	658.33
582.521	653.33
582.972	649.23
583.423	661.73
583.875	671.43
584.326	673.33
584.777	718.43
585.227	790.63
585.678	870.33
586.129	935.43
586.58	988.13
587.031	1061.23
587.482	1183.73
587.933	1326.73
588.384	1168.63
588.834	922.23
589.285	783.23
589.736	762.53
590.186	764.93
590.637	751.93
591.088	730.33
591.538	728.33
591.989	717.03
592.439	714.73
592.89	698.73
593.34	692.03
593.791	694.93
594.241	684.23
594.692	698.43
595.142	694.03
595.593	693.63
596.043	697.33
596.493	703.03
596.943	702.53
597.394	714.03
597.844	693.43
598.294	712.73
598.744	736.03
599.195	771.93
599.645	812.33
600.095	845.53
600.545	902.33
600.995	963.63
601.445	1008.83
601.895	1077.13
602.345	1111.43
602.795	1095.93
603.245	1039.43
603.695	990.03
604.145	941.53
604.594	893.23
605.044	835.83
605.494	784.83
605.944	736.43
606.393	731.13
606.843	710.93
607.293	720.93
607.743	720.23
608.192	732.43
608.642	755.53
609.091	742.53
609.541	752.53
609.99	758.03
610.44	753.23
610.889	703.23
611.339	688.23
611.788	682.43
612.238	689.53
612.687	704.03
613.136	718.73
613.586	716.33
614.035	711.13
614.484	728.23
614.933	730.33
615.383	721.03
615.832	725.13
616.281	712.53
616.73	679.43
617.179	650.83
617.628	640.33
618.077	624.93
618.526	613.23
618.975	606.03
619.424	612.93
619.873	600.73
620.322	608.83
620.771	597.13
621.22	599.33
621.669	596.03
622.118	583.03
622.567	580.43
623.015	566.13
623.464	556.53
623.913	553.13
624.361	536.13
624.81	541.83
625.259	541.73
625.707	551.43
626.156	548.83
626.604	563.23
627.053	564.73
627.501	550.93
627.95	556.83
628.398	570.83
628.847	568.03
629.295	558.73
629.744	565.83
630.192	558.23
630.64	554.93
631.089	552.03
631.537	558.03
631.985	563.93
632.433	577.13
632.881	583.73
633.33	631.63
633.778	624.53
634.226	561.83
634.674	557.63
635.122	561.43
635.57	587.33
636.018	608.73
636.466	570.03
636.914	549.03
637.362	570.13
637.81	565.93
638.258	570.23
638.705	571.73
639.153	612.23
639.601	616.53
640.049	638.63
640.497	658.13
640.944	681.93
641.392	637.23
641.84	601.53
642.287	579.13
642.735	547.13
643.182	567.53
643.63	559.53
644.078	567.63
644.525	577.33
644.973	583.83
645.42	591.03
645.867	609.63
646.315	624.43
646.762	659.43
647.21	681.63
647.657	696.33
648.104	735.93
648.551	757.73
648.999	827.13
649.446	895.93
649.893	993.73
650.34	1138.73
650.787	1366.03
651.234	1685.93
651.682	2197.43
652.129	3021.83
652.576	4370.53
653.023	6392.53
653.47	8674.23
653.917	10705.93
654.363	12243.83
654.81	13442.53
655.257	12810.83
655.704	8376.43
656.151	4986.63
656.598	3247.23
657.044	2307.23
657.491	1778.83
657.938	1424.83
658.385	1207.03
658.831	1046.13
659.278	933.13
659.724	835.73
660.171	759.53
660.618	711.93
661.064	669.33
661.511	654.93
661.957	634.43
662.404	627.83
662.85	642.13
663.296	622.23
663.743	556.13
664.189	528.33
664.635	533.73
665.082	527.83
665.528	521.83
665.974	514.83
666.42	498.43
666.867	492.83
667.313	486.93
667.759	472.53
668.205	469.83
668.651	468.33
669.097	467.93
669.543	481.33
669.989	455.93
670.435	441.43
670.881	446.83
671.327	446.93
671.773	472.93
672.219	492.13
672.665	545.03
673.11	581.53
673.556	631.63
674.002	662.33
674.448	652.73
674.893	548.83
675.339	480.53
675.785	433.53
676.23	412.03
676.676	394.63
677.122	388.73
677.567	373.63
678.013	372.23
678.458	351.03
678.904	356.23
679.349	357.43
679.794	353.83
680.24	349.63
680.685	342.83
681.131	349.93
681.576	352.93
682.021	351.83
682.466	348.63
682.912	339.53
683.357	347.33
683.802	377.43
684.247	411.63
684.692	457.23
685.137	495.63
685.583	533.93
686.028	558.13
686.473	512.43
686.918	443.13
687.363	410.13
687.807	387.23
688.252	364.73
688.697	349.83
689.142	336.53
689.587	328.03
690.032	330.43
690.477	339.93
690.921	349.83
691.366	380.83
691.811	399.83
692.255	430.43
692.7	462.13
693.145	511.63
693.589	722.43
694.034	1172.83
694.478	1545.43
694.923	1720.23
695.367	2235.33
695.812	1188.73
696.256	497.33
696.701	370.63
697.145	347.83
697.59	323.43
698.034	319.73
698.478	334.83
698.922	320.13
699.367	316.73
699.811	333.33
700.255	353.23
700.699	385.93
701.143	429.03
701.588	480.73
702.032	513.63
702.476	499.93
702.92	491.63
703.364	492.83
703.808	649.53
704.252	1068.03
704.696	1479.63
705.14	1669.23
705.584	2088.53
706.027	1050.53
706.471	523.13
706.915	391.93
707.359	352.63
707.803	316.13
708.246	310.93
708.69	312.83
709.134	314.53
709.577	309.03
710.021	319.33
710.465	305.53
710.908	295.83
711.352	300.23
711.795	315.53
712.239	348.93
712.682	392.53
713.126	416.63
713.569	463.63
714.012	364.03
714.456	313.03
714.899	295.13
715.342	271.63
715.786	264.33
716.229	261.43
716.672	249.03
717.115	247.13
717.558	248.53
718.002	251.53
718.445	262.93
718.888	286.93
719.331	299.33
719.774	305.53
720.217	305.83
720.66	276.73
721.103	261.83
721.546	253.83
721.989	243.93
722.432	231.13
722.874	240.63
723.317	228.73
723.76	238.23
724.203	255.33
724.645	332.63
725.088	446.63
725.531	570.33
725.974	638.73
726.416	544.43
726.859	304.63
727.301	252.03
727.744	238.73
728.187	229.93
728.629	237.83
729.071	239.83
729.514	255.93
729.956	265.63
730.399	288.03
730.841	290.63
731.283	275.63
731.726	266.53
732.168	265.83
732.61	264.73
733.053	293.13
733.495	316.63
733.937	362.33
734.379	401.63
734.821	445.03
735.263	555.33
735.705	859.63
736.148	1644.73
736.59	2608.63
737.032	2992.63
737.474	2449.53
737.916	817.73
738.357	428.03
738.799	326.73
739.241	296.73
739.683	287.23
740.125	297.33
740.567	296.83
741.008	317.23
741.45	310.13
741.892	318.13
742.334	346.33
742.775	356.93
743.217	340.03
743.658	273.93
744.1	253.23
744.542	265.73
744.983	314.63
745.425	336.63
745.866	338.33
746.307	290.73
746.749	284.43
747.19	328.73
747.632	481.23
748.073	933.93
748.514	1924.63
748.956	2852.63
749.397	3625.83
749.838	2980.63
750.279	2934.23
750.72	1498.33
751.162	552.33
751.603	317.63
752.044	252.63
752.485	218.83
752.926	209.13
753.367	200.73
753.808	197.13
754.249	190.33
754.69	189.13
755.131	184.13
755.572	185.93
756.013	182.43
756.453	189.33
756.894	182.53
757.335	186.33
757.776	197.83
758.216	200.83
758.657	203.73
759.098	206.73
759.538	226.63
759.979	271.13
760.42	381.73
760.86	731.63
761.301	1941.03
761.741	4559.33
762.182	6318.23
762.622	4443.03
763.063	1321.93
763.503	546.13
763.943	348.53
764.384	330.13
764.824	368.23
765.264	385.73
765.705	282.13
766.145	199.23
766.585	181.23
767.025	181.63
767.465	177.53
767.906	230.13
768.346	293.53
768.786	306.93
769.226	251.43
769.666	323.03
770.106	664.83
770.546	1622.83
770.986	2628.83
771.426	2331.03
771.866	793.63
772.306	332.73
772.745	206.23
773.185	169.83
773.625	167.73
774.065	159.93
774.505	187.83
774.944	282.03
775.384	609.43
775.824	1028.43
776.263	973.43
776.703	429.23
777.142	201.53
777.582	154.03
778.021	137.63
778.461	139.03
778.9	140.43
779.34	132.53
779.779	113.73
780.219	109.63
780.658	109.83
781.097	114.03
781.537	120.63
781.976	99.53
782.415	105.63
782.855	110.73
783.294	101.93
783.733	99.83
784.172	111.63
784.611	103.13
785.05	107.13
785.489	114.63
785.928	114.93
786.367	126.03
786.806	120.13
787.245	128.13
787.684	134.43
788.123	148.63
788.562	134.03
789.001	130.03
789.44	118.83
789.879	119.63
790.317	116.33
790.756	127.03
791.195	131.13
791.634	148.03
792.072	207.93
792.511	384.63
792.95	1053.03
793.388	2150.33
793.827	1890.33
794.265	675.43
794.704	276.43
795.142	183.53
795.581	150.83
796.019	131.93
796.458	131.73
796.896	127.33
797.334	130.33
797.773	153.73
798.211	228.13
798.649	460.23
799.087	1045.13
799.526	1612.13
799.964	2041.23
800.402	1968.73
800.84	757.23
801.278	309.13
801.716	191.33
802.154	156.13
802.592	146.73
803.03	134.13
803.468	136.83
803.906	145.23
804.344	150.03
804.782	136.83
805.22	136.83
805.658	135.13
806.096	147.73
806.533	155.73
806.971	180.93
807.409	221.43
807.847	329.33
808.284	695.93
808.722	1936.93
809.16	3280.53
809.597	3214.33
810.035	5478.73
810.472	5618.13
810.91	2077.53
811.347	797.53
811.785	405.53
812.222	255.53
812.66	196.13
813.097	163.63
813.535	136.53
813.972	132.83
814.409	120.03
814.846	109.43
815.284	103.33
815.721	100.43
816.158	104.33
816.595	117.13
817.032	172.83
817.47	187.53
817.907	150.63
818.344	133.13
818.781	109.63
819.218	98.93
819.655	124.13
820.092	190.93
820.529	216.83
820.966	174.33
821.403	134.83
821.839	100.73
822.276	97.63
822.713	122.63
823.15	133.63
823.587	116.13
824.023	154.43
824.46	322.93
824.897	939.93
825.333	1332.53
825.77	575.23
826.206	232.33
826.643	140.13
827.08	102.73
827.516	79.83
827.953	69.73
828.389	87.13
828.825	67.33
829.262	66.13
829.698	69.43
830.135	61.83
830.571	59.23
831.007	63.03
831.443	63.33
831.88	63.73
832.316	60.73
832.752	63.03
833.188	67.13
833.624	64.33
834.06	65.73
834.497	70.33
834.933	77.03
835.369	74.53
835.805	73.83
836.241	72.03
836.677	75.93
837.112	87.63
837.548	105.63
837.984	135.43
838.42	212.93
838.856	533.53
839.292	1556.43
839.727	2271.93
840.163	1069.13
840.599	965.33
841.034	2058.33
841.47	2068.33
841.906	772.03
842.341	336.73
842.777	230.03
843.212	286.13
843.648	267.03
844.083	140.73
844.519	97.43
844.954	77.03
845.39	61.13
845.825	58.93
846.261	55.43
846.696	52.03
847.131	56.63
847.566	59.33
848.002	53.83
848.437	51.63
848.872	62.23
849.307	62.43
849.742	84.03
850.177	192.93
850.613	570.23
851.048	871.53
851.483	373.43
851.918	154.63
852.353	85.43
852.788	59.33
853.223	55.13
853.657	56.23
854.092	52.93
854.527	39.53
854.962	39.23
855.397	42.53
855.832	45.23
856.266	39.73
856.701	37.83
857.136	39.83
857.57	39.43
858.005	50.03
858.44	51.93
858.874	44.33
859.309	49.63
859.743	48.23
860.178	43.93
860.612	41.23
861.047	55.53
861.481	71.73
861.915	72.43
862.35	51.93
862.784	38.43
863.218	42.33
863.653	38.03
864.087	44.03
864.521	52.63
864.955	73.33
865.39	155.93
865.824	176.63
866.258	115.73
866.692	158.43
867.126	169.93
867.56	98.83
867.994	54.63
868.428	34.23
868.862	49.43
869.296	54.73
869.73	58.33
870.164	53.23
870.598	44.83
871.031	35.33
871.465	23.93
871.899	32.33
872.333	21.23
872.766	29.43
873.2	20.53
873.634	28.83
874.067	24.33
874.501	25.83
874.935	25.23
875.368	28.03
875.802	29.93
876.235	26.13
876.669	27.23
877.102	17.13
877.535	23.63
877.969	19.63
878.402	27.23
878.836	17.43
879.269	29.73
879.702	23.83
880.135	17.93
880.569	24.73
881.002	28.03
881.435	20.83
881.868	16.63
882.301	21.23
882.734	15.73
883.167	16.73
883.601	21.13
884.034	16.33
884.467	17.53
884.899	19.43
885.332	17.73
885.765	12.63
886.198	13.23
886.631	23.73
887.064	24.83
887.497	15.13
887.929	21.73
888.362	12.73
888.795	3.83
889.228	15.83
889.66	15.93
890.093	20.73
890.526	10.53
890.958	20.03
891.391	19.63
891.823	20.03
892.256	13.73
892.688	13.03
893.121	15.83
893.553	15.03
893.985	20.43
894.418	21.63
894.85	14.53
895.282	15.33
895.715	19.13
896.147	23.63
896.579	14.53
897.011	13.93
897.444	18.53
897.876	10.43
898.308	17.33
898.74	9.63
899.172	17.13
899.604	21.43
900.036	21.83
900.468	16.03
900.9	17.03
901.332	15.43
901.764	14.23
902.196	15.23
902.628	14.33
903.06	11.03
903.491	26.63
903.923	24.13
904.355	17.93
904.787	23.23
905.218	19.83
905.65	23.43
906.082	5.63
906.513	12.23
906.945	17.33
907.376	10.53
907.808	21.73
908.239	16.93
908.671	18.03
909.102	23.33
909.534	22.93
909.965	53.73
910.397	94.83
910.828	321.33
911.259	463.63
911.691	217.53
912.122	102.43
912.553	50.33
912.984	33.03
913.415	24.13
913.847	23.53
914.278	18.63
914.709	13.23
915.14	20.63
915.571	20.63
916.002	8.83
916.433	21.53
916.864	10.63
917.295	15.43
917.726	17.43
918.157	20.53
918.587	29.83
919.018	23.03
919.449	20.23
919.88	28.63
920.311	31.93
920.741	55.03
921.172	170.13
921.603	148.03
922.033	69.63
922.464	48.43
922.895	25.43
923.325	20.83
923.756	19.53
924.186	13.13
924.617	21.43
925.047	29.63
925.478	42.43
925.908	39.93
926.338	24.93
926.769	18.03
927.199	20.43
927.629	9.53
928.06	13.13
928.49	17.33
928.92	14.83
929.35	10.23
929.78	12.53
930.21	10.03
930.641	13.83
931.071	6.23
931.501	1.33
931.931	7.83
932.361	5.13
932.791	5.03
933.221	5.73
933.651	0.53
934.08	15.53
934.51	24.13
934.94	1.73
935.37	8.33
935.8	11.63
936.229	2.93
936.659	9.63
937.089	-2.77
937.519	9.23
937.948	26.43
938.378	14.63
938.807	5.13
939.237	0.63
939.666	9.53
940.096	-5.57
940.525	3.63
940.955	3.03
941.384	-1.07
941.814	-9.57
942.243	-0.67
942.672	0.33
943.102	3.73
943.531	-4.67
943.96	-1.87
944.39	5.33
944.819	-1.97
945.248	4.83
945.677	0.93
946.106	6.93
946.535	8.23
946.964	-1.57
947.393	8.33
947.822	11.53
948.251	-0.27
948.68	2.13
949.109	9.63
949.538	6.73
949.967	1.03
950.396	4.93
950.825	-1.67
951.254	-1.67
951.682	-6.37
952.111	5.73
952.54	3.43
952.969	-1.57
953.397	-8.47
953.826	2.83
954.254	-3.07
954.683	3.93
955.112	-3.17
955.54	0.73
955.969	8.03
956.397	5.73
956.826	-6.57
957.254	5.83
957.682	2.93
958.111	2.13
958.539	-2.17
958.967	6.83
959.396	-5.77
959.824	-0.27
960.252	1.13
960.68	-7.97
961.109	-6.47
961.537	-8.07
961.965	-0.77
962.393	-0.37
962.821	-5.37
963.249	-3.17
963.677	6.23
964.105	3.43
964.533	43.33
964.961	39.73
965.389	23.53
965.817	8.73
966.245	5.53
966.672	1.73
967.1	-9.67
967.528	-4.97
967.956	4.23
968.383	6.23
968.811	-1.27
969.239	-3.37
969.666	-9.67
970.094	-1.17
970.522	7.73
970.949	-8.77
971.377	-1.17
971.804	-2.37
972.232	-0.47
972.659	-2.87
973.087	-0.67
973.514	-7.77
973.941	-10.97
974.369	-0.77
974.796	-0.57
975.223	-2.17
975.651	-5.87
976.078	1.13
976.505	-7.27
976.932	4.33
977.359	10.63
977.786	14.13
978.214	4.43
978.641	-5.87
979.068	-6.27
979.495	-6.07
979.922	0.23
980.349	-3.57
980.776	2.33
981.202	-3.57
981.629	3.63
982.056	2.33
982.483	-6.37
982.91	2.03
983.337	-8.77
983.763	2.63
984.19	-5.27
984.617	-6.27
985.043	-5.57
985.47	-6.57
985.897	-7.57
986.323	-9.57
986.75	-0.67
987.176	-6.47
987.603	4.93
988.029	-3.67
988.456	-1.07
988.882	-3.57
989.308	-6.97
989.735	-6.87
990.161	1.13
990.587	-1.07
991.014	-7.57
991.44	7.93
991.866	3.33
992.292	-2.67
992.719	-5.87
993.145	1.63
993.571	-10.47
993.997	-10.57
994.423	-5.57
994.849	-6.77
995.275	-2.77
995.701	-2.27
996.127	-3.67
996.553	-0.37
996.979	0.63
997.405	-3.87
997.83	-4.97
998.256	-3.07
998.682	-3.97
999.108	-6.57
999.534	-5.87
999.959	-3.17
1000.385	-2.27
1000.811	-3.57
1001.236	-10.37
1001.662	-3.87
1002.087	-5.17
1002.513	-0.37
1002.938	5.53
1003.364	-1.47
1003.789	-0.27
1004.215	0.83
1004.64	-3.47
1005.066	1.03
1005.491	-2.87
1005.916	-5.47
1006.342	-7.97
1006.767	-9.87
1007.192	4.13
1007.617	1.23
1008.042	-12.47
1008.468	-5.57
1008.893	0.43
1009.318	-2.27
1009.743	1.53
1010.168	2.93
1010.593	-0.67
1011.018	-3.37
1011.443	-6.57
1011.868	4.23
1012.293	-3.97
1012.718	-5.97
1013.143	-1.27
1013.567	-1.87
1013.992	-3.17
1014.417	-17.67
1014.842	-4.27
1015.267	-8.57
1015.691	-2.67
1016.116	4.33
1016.541	-3.37
1016.965	1.13
1017.39	2.63
1017.814	-4.17
1018.239	-0.47
1018.663	-14.17
1019.088	-14.07
1019.512	-6.37
1019.937	-4.27
1020.361	-10.07
1020.785	-11.27
1021.21	-8.17
1021.634	-6.87
1022.058	-0.67
1022.483	6.93
1022.907	-4.57
1023.331	-0.27
1023.755	-4.77
1024.179	-5.47
1024.604	-10.07
1025.028	-6.37
1025.452	-10.07
1025.876	-0.27
1026.3	1.63
1026.724	-9.67
1027.148	-0.57
1027.572	-3.17
1027.996	-10.67
1028.42	0.53
1028.843	-3.77
1029.267	-15.77
1029.691	-3.67
1030.115	-8.57
1030.539	-5.37
1030.962	-12.07
1031.386	-7.37
1031.81	-0.07
1032.233	1.03
1032.657	-9.97
1033.08	-5.47
1033.504	-7.17
1033.927	-8.27
1034.351	0.83
1034.774	-9.57
1035.198	-6.67
1035.621	-3.67
1036.045	-2.67
1036.468	-1.97
1036.891	-9.67
1037.315	-3.37
1037.738	-9.07
1038.161	-3.77
1038.584	-5.07
1039.008	-10.67
1039.431	-6.27
1039.854	-9.57
1040.277	-11.47
1040.7	-11.87
1041.123	-3.37
1041.546	-9.07
1041.969	-4.37
1042.392	-8.67
1042.815	2.73
1043.238	-4.07
1043.661	2.23
1044.084	-4.07
1044.507	-7.67
1044.93	-9.97
1045.352	-1.57
1045.775	-0.37
1046.198	-5.07
1046.621	-5.87
1047.043	-3.57
1047.466	5.03
1047.889	-1.77
1048.311	-4.27
1048.734	-7.67
1049.156	-4.47
1049.579	1.43
1050.001	-7.27
1050.424	-4.17
1050.846	-2.47
1051.269	-6.67
1051.691	-3.47
1052.113	-7.97
1052.536	-2.27
1052.958	-1.67
1053.38	2.33
1053.802	-11.37
1054.225	1.53
1054.647	-14.07
1055.069	-8.17
1055.491	-1.67
1055.913	-8.87
1056.335	1.83
1056.757	-3.77
1057.179	-7.67
1057.601	-5.97
1058.023	0.73
1058.445	-7.37
1058.867	-9.17
1059.289	-1.57
1059.711	-8.87
1060.133	-1.57
1060.555	-6.97
1060.976	-9.37
1061.398	-7.37
1061.82	-8.77
1062.241	-9.67
1062.663	-5.47
1063.085	-5.17
1063.506	-2.37
1063.928	-3.37
1064.35	-2.47
1064.771	-14.17
1065.193	-5.97
1065.614	-9.07
1066.035	-6.07
1066.457	-8.67
1066.878	-0.87
1067.3	-6.27
1067.721	-0.27
1068.142	-5.17
1068.564	2.33
1068.985	-5.37
1069.406	-7.57
1069.827	-6.57
1070.248	-5.67
1070.67	-4.17
1071.091	-13.77
1071.512	2.23
1071.933	-6.47
1072.354	-6.37
1072.775	-6.87
1073.196	-6.17
1073.617	-4.27
1074.038	-5.37
1074.459	2.73
1074.88	-7.97
1075.3	-1.17
1075.721	-5.17
1076.142	-1.07
1076.563	-3.17
1076.983	-5.57
1077.404	-6.97
1077.825	-9.47
1078.246	-4.87
1078.666	-11.57
1079.087	-8.17
1079.507	-9.47
1079.928	-4.27
1080.348	-4.77
1080.769	-4.77
1081.189	3.63
1081.61	-0.77
1082.03	-6.87
1082.451	-12.07
1082.871	-9.67
1083.291	-9.07
1083.711	-10.07
1084.132	-7.37
1084.552	-1.97
1084.972	-8.37
1085.392	-7.37
1085.813	-6.47
1086.233	-8.27
1086.653	-4.07
1087.073	1.43
1087.493	-9.67
1087.913	-4.57
1088.333	-13.07
1088.753	-4.37
1089.173	5.73
1089.593	-9.37
1090.013	2.13
1090.433	-1.67
1090.852	-5.57
1091.272	-1.27
1091.692	-2.67
1092.112	-0.47
1092.531	-10.17
1092.951	-14.27
1093.371	-5.17
1093.79	-2.87
1094.21	-7.67
1094.63	-5.77
1095.049	-7.17
1095.469	-6.07
1095.888	-1.27
1096.308	2.63
1096.727	2.83
1097.146	-10.67
1097.566	-4.67
1097.985	-9.67
1098.405	2.53
1098.824	-6.37
1099.243	-6.17
1099.662	-10.97
1100.082	-8.67
1100.501	-0.37
1100.92	-5.97
1101.339	-2.27
1101.758	-3.07
